Data_Point,Test_Time(s),Date_Time,Step_Time(s),Step_Index,Cycle_Index,Current(A),Voltage(V),Charge_Capacity(Ah),Discharge_Capacity(Ah),Charge_Energy(Wh),Discharge_Energy(Wh),dV/dt(V/s),Internal_Resistance(Ohm),Is_FC_Data,AC_Impedance(Ohm),ACI_Phase_Angle(Deg)
2909,96469.68015010812,2010-09-01 16:17:45,30.0152322742836,1,9,0.0,3.3531525135040283,8.577396784697651,8.604951033036565,34.044513769231244,31.566405138711733,0.000615119934082,0.0851717442274093,0,0,0
2910,96499.69538038244,2010-09-01 16:18:15,60.030462568632586,1,9,0.0,3.372255086898804,8.577396784697651,8.604951033036565,34.044513769231244,31.566405138711733,0.0004856586456298,0.0851717442274093,0,0,0
2911,96529.7104259163,2010-09-01 16:18:45,90.04550807743915,1,9,0.0,3.3865010738372803,8.577396784697651,8.604951033036565,34.044513769231244,31.566405138711733,0.0003237724304199,0.0851717442274093,0,0,0
2912,96559.67876756472,2010-09-01 16:19:15,120.0138497258552,1,9,0.0,3.397833108901977,8.577396784697651,8.604951033036565,34.044513769231244,31.566405138711733,0.0001942634553415,0.0851717442274093,0,0,0
2913,96589.69358214922,2010-09-01 16:19:45,30.015431921866806,2,9,0.5501165986061096,3.544177770614624,8.581983351304142,8.604951033036565,34.06060670569755,31.566405138711733,0.0015864849556237,0.0851717442274093,0,0,0
2914,96619.70850048108,2010-09-01 16:20:15,60.03035024869675,2,9,0.5501165986061096,3.594200372695923,8.586569918170172,8.604951033036565,34.07698338002329,31.566405138711733,0.0011655330890789,0.0851717442274093,0,0,0
2915,96649.72378013845,2010-09-01 16:20:45,90.04562992612357,2,9,0.5501165986061096,3.631919860839844,8.591156432516202,8.604951033036565,34.09355796791811,31.566405138711733,0.0009065627818927,0.0851717442274093,0,0,0
2916,96679.73887840874,2010-09-01 16:21:15,120.06072817136555,2,9,0.5501165986061096,3.6625163555145264,8.595742928387926,8.604951033036565,34.11028805736932,31.566405138711733,0.0007446765666827,0.0851717442274093,0,0,0
2917,96709.75411658776,2010-09-01 16:21:45,150.075966355378,2,9,0.5499359965324402,3.687932252883911,8.600329412643497,8.604951033036565,34.12714643763539,31.566405138711733,0.0005827903514727,0.0851717442274093,0,0,0
2918,96739.76917950496,2010-09-01 16:22:15,180.09102927257163,2,9,0.5501165986061096,3.709948778152466,8.604915847901479,8.604951033036565,34.14411289795961,31.566405138711733,0.0005504131549969,0.0851717442274093,0,0,0
2919,96769.78433822592,2010-09-01 16:22:45,210.10618799353776,2,9,0.5501165986061096,3.728241920471192,8.60950236455638,8.604951033036565,34.161171648784006,31.566405138711733,0.0004532813909463,0.0851717442274093,0,0,0
2920,96799.799510641,2010-09-01 16:23:15,240.12136040863385,2,9,0.550297200679779,3.7432973384857178,8.614088818407469,8.604951033036565,34.17830632846175,31.566405138711733,0.0003885269106831,0.0851717442274093,0,0,0
2921,96829.81468447966,2010-09-01 16:23:45,270.1365342673278,2,9,0.5501165986061096,3.753334045410156,8.618675231613404,8.604951033036565,34.195498961588875,31.566405138711733,0.0002265930233988,0.0851717442274093,0,0,0
2922,96859.82989562627,2010-09-01 16:24:15,300.1517453939048,2,9,0.5501165986061096,3.759000062942505,8.623261663618269,8.604951033036565,34.21272746988999,31.566405138711733,0.0001295089750783,0.0851717442274093,0,0,0
2923,96889.84505190115,2010-09-01 16:24:45,330.166901663762,2,9,0.5501165986061096,3.762237787246704,8.627848142731086,8.604951033036565,34.229976157871484,31.566405138711733,9.713172767078504e-05,0.0851717442274093,0,0,0
2924,96919.86019664728,2010-09-01 16:25:15,360.1820464098985,2,9,0.550297200679779,3.7651517391204834,8.63243455040364,8.604951033036565,34.24723850288276,31.566405138711733,6.47544875391759e-05,0.0851717442274093,0,0,0
2925,96949.87552109628,2010-09-01 16:25:45,390.1973708739474,2,9,0.5501165986061096,3.7677419185638423,8.637021030735873,8.604951033036565,34.264513366299155,31.566405138711733,6.47544875391759e-05,0.0851717442274093,0,0,0
2926,96979.89058616884,2010-09-01 16:26:15,420.21243593147534,2,9,0.550297200679779,3.770493984222412,8.64160754362045,8.604951033036565,34.28180024606898,31.566405138711733,9.713172767078504e-05,0.0851717442274093,0,0,0
2927,97009.90572382232,2010-09-01 16:26:45,450.2275735849347,2,9,0.5501165986061096,3.772760391235352,8.646194025932852,8.604951033036565,34.299098769776194,31.566405138711733,0.0,0.0851717442274093,0,0,0
2928,97039.92090075368,2010-09-01 16:27:15,480.2427505162868,2,9,0.5499359965324402,3.775512456893921,8.650780490686934,8.604951033036565,34.3164093313399,31.566405138711733,6.47544875391759e-05,0.0851717442274093,0,0,0
2929,97069.9360714094,2010-09-01 16:27:45,510.2579211719979,2,9,0.5499359965324402,3.77826452255249,8.655366941697213,8.604951033036565,34.33373182939599,31.566405138711733,9.713172767078504e-05,0.0851717442274093,0,0,0
2930,97099.95126319276,2010-09-01 16:28:15,540.2731129804281,2,9,0.5501165986061096,3.7808547019958496,8.659953449237006,8.604951033036565,34.3510665722742,31.566405138711733,6.47544875391759e-05,0.0851717442274093,0,0,0
2931,97129.96641419949,2010-09-01 16:28:45,570.2882639520806,2,9,0.550297200679779,3.783444881439209,8.664539956488936,8.604951033036565,34.36841318693251,31.566405138711733,6.47544875391759e-05,0.0851717442274093,0,0,0
2932,97159.98158150184,2010-09-01 16:29:15,600.3034312644592,2,9,0.5501165986061096,3.7858731746673584,8.669126466097593,8.604951033036565,34.38577177045792,31.566405138711733,3.237724376958795e-05,0.0851717442274093,0,0,0
2933,97189.99677210228,2010-09-01 16:29:45,630.3186218698911,2,9,0.5501165986061096,3.788625240325928,8.673712995305713,8.604951033036565,34.40314234413173,31.566405138711733,9.713172767078504e-05,0.0851717442274093,0,0,0
2934,97220.0119827326,2010-09-01 16:30:15,660.3338325002313,2,9,0.550297200679779,3.791215419769287,8.678299552187134,8.604951033036565,34.42052501568398,31.566405138711733,6.47544875391759e-05,0.0851717442274093,0,0,0
2935,97250.0271327268,2010-09-01 16:30:46,690.3489824944477,2,9,0.550297200679779,3.7938055992126474,8.682886054469861,8.604951033036565,34.43791940859864,31.566405138711733,3.237724376958795e-05,0.0851717442274093,0,0,0
2936,97280.0425508092,2010-09-01 16:31:16,720.3644005718097,2,9,0.550297200679779,3.796557664871216,8.687472601710152,8.604951033036565,34.45532613979191,31.566405138711733,9.713172767078504e-05,0.0851717442274093,0,0,0
2937,97310.05760695452,2010-09-01 16:31:46,750.3794567421882,2,9,0.5499359965324402,3.799147844314575,8.692059050889723,8.604951033036565,34.472744820520816,31.566405138711733,3.237724376958795e-05,0.0851717442274093,0,0,0
2938,97340.07264942072,2010-09-01 16:32:16,780.3944991883618,2,9,0.550297200679779,3.8020617961883545,8.696645553252521,8.604951033036565,34.49017640111436,31.566405138711733,9.713172767078504e-05,0.0851717442274093,0,0,0
2939,97370.08779217691,2010-09-01 16:32:46,810.4096419645887,2,9,0.5501165986061096,3.804813861846924,8.701232117577293,8.604951033036565,34.507621316997664,31.566405138711733,6.47544875391759e-05,0.0851717442274093,0,0,0
2940,97400.1029849678,2010-09-01 16:33:16,840.424834730405,2,9,0.5501165986061096,3.807889699935913,8.705818740090573,8.604951033036565,34.52508000598419,31.566405138711733,9.713172767078504e-05,0.0851717442274093,0,0,0
2941,97430.11813860109,2010-09-01 16:33:46,870.439988363691,2,9,0.550297200679779,3.811127424240112,8.71040529297267,8.604951033036565,34.5425525045992,31.566405138711733,9.713172767078504e-05,0.0851717442274093,0,0,0
2942,97460.13345993734,2010-09-01 16:34:16,900.4553097250068,2,9,0.5499359965324402,3.8142032623291016,8.714991869029886,8.604951033036565,34.560039827323415,31.566405138711733,3.237724376958795e-05,0.0851717442274093,0,0,0
2943,97490.14849426827,2010-09-01 16:34:46,930.4703440559548,2,9,0.5501165986061096,3.817602872848511,8.719578376695983,8.604951033036565,34.57754211131188,31.566405138711733,9.713172767078504e-05,0.0851717442274093,0,0,0
2944,97520.16367987626,2010-09-01 16:35:16,960.4855296639316,2,9,0.5501165986061096,3.82116436958313,8.724164933231632,8.604951033036565,34.59505988459199,31.566405138711733,0.0001295089750783,0.0851717442274093,0,0,0
2945,97550.1789579898,2010-09-01 16:35:46,990.5008077824732,2,9,0.5501165986061096,3.824563980102539,8.728751409073068,8.604951033036565,34.6125927046874,31.566405138711733,0.0001618862152099,0.0851717442274093,0,0,0
2946,97580.19394144394,2010-09-01 16:36:16,1020.515791231608,2,9,0.5501165986061096,3.8278017044067374,8.733337860097487,8.604951033036565,34.63014085275367,31.566405138711733,6.47544875391759e-05,0.0851717442274093,0,0,0
2947,97610.20917556282,2010-09-01 16:36:46,1050.5310253254263,2,9,0.5499359965324402,3.830877542495728,8.737924412888416,8.604951033036565,34.64770469215295,31.566405138711733,3.237724376958795e-05,0.0851717442274093,0,0,0
2948,97640.22434684008,2010-09-01 16:37:16,1080.5461966076991,2,9,0.5501165986061096,3.834438800811768,8.742510910271818,8.604951033036565,34.66528332614788,31.566405138711733,0.0001295089750783,0.0851717442274093,0,0,0
2949,97670.23951933536,2010-09-01 16:37:46,1110.5613690979828,2,9,0.5501165986061096,3.837514638900757,8.747097280062013,8.604951033036565,34.68287616352315,31.566405138711733,6.47544875391759e-05,0.0851717442274093,0,0,0
2950,97700.25470676788,2010-09-01 16:38:16,1140.5765565405318,2,9,0.5501165986061096,3.840590476989746,8.751683736470504,8.604951033036565,34.70048376231425,31.566405138711733,6.47544875391759e-05,0.0851717442274093,0,0,0
2951,97730.26989960388,2010-09-01 16:38:46,1170.5917493564732,2,9,0.5501165986061096,3.843666315078736,8.756270146297071,8.604951033036565,34.718105431197515,31.566405138711733,9.713172767078504e-05,0.0851717442274093,0,0,0
2952,97760.28503750297,2010-09-01 16:39:16,1200.6068872555445,2,9,0.5499359965324402,3.846580266952514,8.760856626668708,8.604951033036565,34.73574137066077,31.566405138711733,3.237724376958795e-05,0.0851717442274093,0,0,0
2953,97790.30022644924,2010-09-01 16:39:46,1230.6220762018415,2,9,0.5501165986061096,3.849817991256714,8.76544315025588,8.604951033036565,34.75339136849753,31.566405138711733,0.0001295089750783,0.0851717442274093,0,0,0
2954,97820.31540373647,2010-09-01 16:40:16,1260.6372534890806,2,9,0.550297200679779,3.852731943130493,8.770029659607554,8.604951033036565,34.77105490285625,31.566405138711733,9.713172767078504e-05,0.0851717442274093,0,0,0
2955,97850.3305625126,2010-09-01 16:40:46,1290.652412265184,2,9,0.5501165986061096,3.8554840087890634,8.77461612333609,8.604951033036565,34.788731424862334,31.566405138711733,6.47544875391759e-05,0.0851717442274093,0,0,0
2956,97880.34574013569,2010-09-01 16:41:16,1320.6675898832475,2,9,0.5501165986061096,3.858236074447632,8.77920257877743,8.604951033036565,34.80642076957567,31.566405138711733,6.47544875391759e-05,0.0851717442274093,0,0,0
2957,97910.36090585908,2010-09-01 16:41:46,1350.6827556267158,2,9,0.5501165986061096,3.860826253890991,8.783789054509619,8.604951033036565,34.82412235409674,31.566405138711733,9.713172767078504e-05,0.0851717442274093,0,0,0
2958,97940.37610782284,2010-09-01 16:42:16,1380.697957610506,2,9,0.550297200679779,3.8632545471191406,8.788375522227238,8.604951033036565,34.84183545270164,31.566405138711733,6.47544875391759e-05,0.0851717442274093,0,0,0
2959,97970.39124717552,2010-09-01 16:42:46,1410.7130969281131,2,9,0.5499359965324402,3.86552095413208,8.792962014467989,8.604951033036565,34.8595593849336,31.566405138711733,6.47544875391759e-05,0.0851717442274093,0,0,0
2960,98000.40642401663,2010-09-01 16:43:16,1440.7282737692403,2,9,0.5499359965324402,3.8676254749298096,8.797548488854561,8.604951033036565,34.87729330371535,31.566405138711733,6.47544875391759e-05,0.0851717442274093,0,0,0
2961,98030.4216076898,2010-09-01 16:43:46,1470.7434574423949,2,9,0.5501165986061096,3.869568109512329,8.802134951815342,8.604951033036565,34.89503646025502,31.566405138711733,6.47544875391759e-05,0.0851717442274093,0,0,0
2962,98060.43678105228,2010-09-01 16:44:16,1500.758630804852,2,9,0.5501165986061096,3.871348857879639,8.806721476543961,8.604951033036565,34.91278843040674,31.566405138711733,3.237724376958795e-05,0.0851717442274093,0,0,0
2963,98090.45193887096,2010-09-01 16:44:46,1530.7737886235695,2,9,0.5501165986061096,3.872805833816528,8.811308039808269,8.604951033036565,34.930548289381434,31.566405138711733,3.237724376958795e-05,0.0851717442274093,0,0,0
2964,98120.4671277872,2010-09-01 16:45:16,1560.7889775397914,2,9,0.550297200679779,3.874424695968628,8.815894538439123,8.604951033036565,34.94831490841476,31.566405138711733,6.47544875391759e-05,0.0851717442274093,0,0,0
2965,98150.48230291907,2010-09-01 16:45:46,1590.804152706746,2,9,0.5501165986061096,3.875719785690308,8.820480995771149,8.604951033036565,34.96608772207549,31.566405138711733,3.237724376958795e-05,0.0851717442274093,0,0,0
2966,98180.4974966623,2010-09-01 16:46:16,1620.819346414911,2,9,0.5501165986061096,3.8770148754119873,8.825067481559092,8.604951033036565,34.98386656280918,31.566405138711733,6.47544875391759e-05,0.0851717442274093,0,0,0
2967,98210.51265549356,2010-09-01 16:46:46,1650.834505256177,2,9,0.5501165986061096,3.878148078918457,8.829654003062286,8.604951033036565,35.00165100454192,31.566405138711733,6.47544875391759e-05,0.0851717442274093,0,0,0
2968,98240.52780881608,2010-09-01 16:47:16,1680.849658593726,2,9,0.5499359965324402,3.879119396209717,8.834240492066355,8.604951033036565,35.019440470638905,31.566405138711733,-3.237724376958795e-05,0.0851717442274093,0,0,0
2969,98270.5431119269,2010-09-01 16:47:46,1710.8649616995435,2,9,0.5501165986061096,3.8802525997161865,8.838827074138559,8.604951033036565,35.03723505952836,31.566405138711733,-3.237724376958795e-05,0.0851717442274093,0,0,0
2970,98300.55817519498,2010-09-01 16:48:16,1740.8800249475617,2,9,0.5501165986061096,3.8812239170074463,8.843413537218366,8.604951033036565,35.05503388560075,31.566405138711733,0.0,0.0851717442274093,0,0,0
2971,98330.57333700365,2010-09-01 16:48:46,1770.8951867562232,2,9,0.5501165986061096,3.882195234298706,8.848000013879325,8.604951033036565,35.07283729711688,31.566405138711733,0.0,0.0851717442274093,0,0,0
2972,98360.58855207505,2010-09-01 16:49:16,1800.9104018627193,2,9,0.5499359965324402,3.883166551589966,8.852586493881216,8.604951033036565,35.09064520992773,31.566405138711733,0.0,0.0851717442274093,0,0,0
2973,98390.6036751221,2010-09-01 16:49:46,1830.9255248797003,2,9,0.5499359965324402,3.8841378688812256,8.857173131556635,8.604951033036565,35.10845822188124,31.566405138711733,3.237724376958795e-05,0.0851717442274093,0,0,0
2974,98420.62173416656,2010-09-01 16:50:16,1860.94358403444,2,9,0.5499359965324402,3.8849472999572754,8.86176007866315,8.604951033036565,35.12627654586736,31.566405138711733,0.0,0.0851717442274093,0,0,0
2975,98450.6340690296,2010-09-01 16:50:46,1890.955918787208,2,9,0.5501165986061096,3.886080503463745,8.866346148330175,8.604951033036565,35.144095858434,31.566405138711733,3.237724376958795e-05,0.0851717442274093,0,0,0
2976,98480.64945163856,2010-09-01 16:51:16,1920.971301446297,2,9,0.5501165986061096,3.886889934539795,8.870932742970526,8.604951033036565,35.16192154162016,31.566405138711733,3.237724376958795e-05,0.0851717442274093,0,0,0
2977,98510.66454012448,2010-09-01 16:51:46,1950.9863898820904,2,9,0.5501165986061096,3.887861251831055,8.875519282339056,8.604951033036565,35.179751289230474,31.566405138711733,-3.237724376958795e-05,0.0851717442274093,0,0,0
2978,98540.67955972372,2010-09-01 16:52:16,1981.0014094763103,2,9,0.5501165986061096,3.8888325691223145,8.880105714533798,8.604951033036565,35.19758500038596,31.566405138711733,3.237724376958795e-05,0.0851717442274093,0,0,0
2979,98570.6947324546,2010-09-01 16:52:46,2011.016582232256,2,9,0.550297200679779,3.889965772628784,8.884692268064775,8.604951033036565,35.215423576518646,31.566405138711733,6.47544875391759e-05,0.0851717442274093,0,0,0
2980,98600.70988078468,2010-09-01 16:53:16,2041.031730547287,2,9,0.5501165986061096,3.890775203704834,8.889278827341368,8.604951033036565,35.23326650833157,31.566405138711733,3.237724376958795e-05,0.0851717442274093,0,0,0
2981,98630.72505210205,2010-09-01 16:53:46,2071.0469018546223,2,9,0.5499359965324402,3.891584634780884,8.893865311800605,8.604951033036565,35.251113598153005,31.566405138711733,0.0,0.0851717442274093,0,0,0
2982,98660.7402409982,2010-09-01 16:54:16,2101.0620907507946,2,9,0.5499359965324402,3.892555952072144,8.89845178299609,8.604951033036565,35.268965014507074,31.566405138711733,0.0,0.0851717442274093,0,0,0
2983,98690.75535369948,2010-09-01 16:54:46,2131.077203452065,2,9,0.550297200679779,3.8938510417938232,8.903037359910176,8.604951033036565,35.28681730203063,31.566405138711733,6.47544875391759e-05,0.0851717442274093,0,0,0
2984,98720.77053091153,2010-09-01 16:55:16,2161.0923806641167,2,9,0.5499359965324402,3.894660472869873,8.90762301056549,8.604951033036565,35.30467445514281,31.566405138711733,3.237724376958795e-05,0.0851717442274093,0,0,0
2985,98750.78572155203,2010-09-01 16:55:46,2191.107571304636,2,9,0.5499359965324402,3.895631790161133,8.912208846081173,8.604951033036565,35.32253634644569,31.566405138711733,6.47544875391759e-05,0.0851717442274093,0,0,0
2986,98780.80092325513,2010-09-01 16:56:16,2221.1227730027144,2,9,0.5499359965324402,3.896441221237183,8.916794377917578,8.604951033036565,35.34040181358876,31.566405138711733,0.0,0.0851717442274093,0,0,0
2987,98810.81607297368,2010-09-01 16:56:46,2251.137922756331,2,9,0.5501165986061096,3.897574424743652,8.92137997575301,8.604951033036565,35.35827225916864,31.566405138711733,3.237724376958795e-05,0.0851717442274093,0,0,0
2988,98840.83124575968,2010-09-01 16:57:16,2281.1530955323265,2,9,0.5499359965324402,3.898707628250122,8.925965521415078,8.604951033036565,35.37614723925763,31.566405138711733,9.713172767078504e-05,0.0851717442274093,0,0,0
2989,98870.84641645548,2010-09-01 16:57:46,2311.168266218113,2,9,0.5501165986061096,3.899678945541382,8.930551807326049,8.604951033036565,35.39403011478965,31.566405138711733,0.0,0.0851717442274093,0,0,0
2990,98900.86165356686,2010-09-01 16:58:16,2341.183503319427,2,9,0.5501165986061096,3.900812149047852,8.935138384968768,8.604951033036565,35.41191894168416,31.566405138711733,3.237724376958795e-05,0.0851717442274093,0,0,0
2991,98930.87669965206,2010-09-01 16:58:46,2371.1985494397577,2,9,0.550297200679779,3.901945352554321,8.939724927067543,8.604951033036565,35.429812671532524,31.566405138711733,3.237724376958795e-05,0.0851717442274093,0,0,0
2992,98960.89193487373,2010-09-01 16:59:16,2401.213784651362,2,9,0.5501165986061096,3.902916669845581,8.944311469824859,8.604951033036565,35.44771137017579,31.566405138711733,3.237724376958795e-05,0.0851717442274093,0,0,0
2993,98990.90714803536,2010-09-01 16:59:46,2431.228997797973,2,9,0.550297200679779,3.9042117595672607,8.948898035669435,8.604951033036565,35.46561529472226,31.566405138711733,3.237724376958795e-05,0.0851717442274093,0,0,0
2994,99020.92231699184,2010-09-01 17:00:16,2461.2441667644744,2,9,0.550297200679779,3.905183076858521,8.953484646558849,8.604951033036565,35.48352457218523,31.566405138711733,0.0,0.0851717442274093,0,0,0
2995,99050.93738507688,2010-09-01 17:00:46,2491.2592348445355,2,9,0.5501165986061096,3.9064781665802,8.95807123562784,8.604951033036565,35.50143882688831,31.566405138711733,3.237724376958795e-05,0.0851717442274093,0,0,0
2996,99080.95262279476,2010-09-01 17:01:16,2521.2744725523617,2,9,0.5501165986061096,3.90744948387146,8.96265779248313,8.604951033036565,35.51935829054325,31.566405138711733,3.237724376958795e-05,0.0851717442274093,0,0,0
2997,99110.96779367102,2010-09-01 17:01:46,2551.289643438647,2,9,0.5501165986061096,3.9085826873779297,8.967244333410722,8.604951033036565,35.53728305136811,31.566405138711733,0.0,0.0851717442274093,0,0,0
2998,99140.98298693808,2010-09-01 17:02:16,2581.304836690675,2,9,0.5499359965324402,3.90987777709961,8.971830880034648,8.604951033036565,35.5552133148979,31.566405138711733,0.0,0.0851717442274093,0,0,0
2999,99170.998173724,2010-09-01 17:02:47,2611.3200234916253,2,9,0.5501165986061096,3.911010980606079,8.976417424180324,8.604951033036565,35.57314904766641,31.566405138711733,0.0,0.0851717442274093,0,0,0
3000,99201.01363756544,2010-09-01 17:03:17,2641.3354873280327,2,9,0.5501165986061096,3.912306070327759,8.981003990662227,8.604951033036565,35.591090458400274,31.566405138711733,3.237724376958795e-05,0.0851717442274093,0,0,0
3001,99231.02861945066,2010-09-01 17:03:47,2671.35046921327,2,9,0.5501165986061096,3.9136011600494394,8.985590512936767,8.604951033036565,35.60903730328788,31.566405138711733,3.237724376958795e-05,0.0851717442274093,0,0,0
3002,99261.04369496924,2010-09-01 17:04:17,2701.3655447218453,2,9,0.5501165986061096,3.914734125137329,8.990177039950261,8.604951033036565,35.62698991615672,31.566405138711733,0.0,0.0851717442274093,0,0,0
3003,99291.0589550278,2010-09-01 17:04:47,2731.3808048154638,2,9,0.5499359965324402,3.916029214859009,8.9947636437909,8.604951033036565,35.64494847953672,31.566405138711733,6.47544875391759e-05,0.0851717442274093,0,0,0
3004,99321.07401022574,2010-09-01 17:05:17,2761.395859978331,2,9,0.5499359965324402,3.917324304580689,8.999350125438049,8.604951033036565,35.66291241120555,31.566405138711733,0.0,0.0851717442274093,0,0,0
3005,99351.0891753326,2010-09-01 17:05:47,2791.4110251002494,2,9,0.5501165986061096,3.918619394302368,9.003936635389417,8.604951033036565,35.68088236020583,31.566405138711733,6.47544875391759e-05,0.0851717442274093,0,0,0
3006,99381.10440067462,2010-09-01 17:06:17,2821.4262504272187,2,9,0.5501165986061096,3.919914484024048,9.008523134042644,8.604951033036565,35.698858296102244,31.566405138711733,3.237724376958795e-05,0.0851717442274093,0,0,0
3007,99411.1195458769,2010-09-01 17:06:47,2851.441395639517,2,9,0.5501165986061096,3.9213714599609375,9.013109649118237,8.604951033036565,35.71684027605695,31.566405138711733,6.47544875391759e-05,0.0851717442274093,0,0,0
3008,99441.13468880852,2010-09-01 17:07:17,2881.456538591181,2,9,0.5499359965324402,3.9225046634674072,9.017696136096689,8.604951033036565,35.73482825875126,31.566405138711733,0.0,0.0851717442274093,0,0,0
3009,99471.1500481896,2010-09-01 17:07:47,2911.4718980424286,2,9,0.550297200679779,3.923961639404297,9.022282636355891,8.604951033036565,35.75282243399452,31.566405138711733,3.237724376958795e-05,0.0851717442274093,0,0,0
3010,99501.16504124264,2010-09-01 17:08:17,2941.4868909952497,2,9,0.5501165986061096,3.9254186153411865,9.02686910913878,8.604951033036565,35.77082275056025,31.566405138711733,3.237724376958795e-05,0.0851717442274093,0,0,0
3011,99531.18029766213,2010-09-01 17:08:47,2971.502147449798,2,9,0.5501165986061096,3.926713705062866,9.031455695560872,8.604951033036565,35.78882975019575,31.566405138711733,3.237724376958795e-05,0.0851717442274093,0,0,0
3012,99561.19536989252,2010-09-01 17:09:17,3001.517219645116,2,9,0.5501165986061096,3.928008794784546,9.036042215635607,8.604951033036565,35.80684284964429,31.566405138711733,0.0,0.0851717442274093,0,0,0
3013,99591.21055480377,2010-09-01 17:09:47,3031.5324045713937,2,9,0.550297200679779,3.9296276569366455,9.040628791519218,8.604951033036565,35.82486261168289,31.566405138711733,3.237724376958795e-05,0.0851717442274093,0,0,0
3014,99621.22576589526,2010-09-01 17:10:17,3061.547615682933,2,9,0.5501165986061096,3.930922746658325,9.04521536379244,8.604951033036565,35.84288893224885,31.566405138711733,3.237724376958795e-05,0.0851717442274093,0,0,0
3015,99651.24090851108,2010-09-01 17:10:47,3091.562758288735,2,9,0.550297200679779,3.932541608810425,9.049801913376625,8.604951033036565,35.860921714628006,31.566405138711733,6.47544875391759e-05,0.0851717442274093,0,0,0
3016,99681.25607260544,2010-09-01 17:11:17,3121.577922398131,2,9,0.5501165986061096,3.933836698532105,9.054388421605273,8.604951033036565,35.87896101871339,31.566405138711733,6.47544875391759e-05,0.0851717442274093,0,0,0
3017,99711.27123828376,2010-09-01 17:11:47,3151.593088031324,2,9,0.550297200679779,3.935455560684204,9.058974949100644,8.604951033036565,35.89700718097836,31.566405138711733,6.47544875391759e-05,0.0851717442274093,0,0,0
3018,99741.28642851324,2010-09-01 17:12:17,3181.6082782908943,2,9,0.5501165986061096,3.9369125366210938,9.063561550165668,8.604951033036565,35.915060367399256,31.566405138711733,9.713172767078504e-05,0.0851717442274093,0,0,0
3019,99771.30158928433,2010-09-01 17:12:47,3211.6234390369077,2,9,0.550297200679779,3.938207626342773,9.068148100030228,8.604951033036565,35.933120295253175,31.566405138711733,6.47544875391759e-05,0.0851717442274093,0,0,0
3020,99801.31678527316,2010-09-01 17:13:17,3241.638635020744,2,9,0.5499359965324402,3.939988374710083,9.07273463143995,8.604951033036565,35.9511870750785,31.566405138711733,6.47544875391759e-05,0.0851717442274093,0,0,0
3021,99831.33209876988,2010-09-01 17:13:47,3271.6539485324965,2,9,0.5501165986061096,3.9414453506469727,9.077321153150717,8.604951033036565,35.96926088406697,31.566405138711733,3.237724376958795e-05,0.0851717442274093,0,0,0
3022,99861.34725643822,2010-09-01 17:14:17,3301.669106200839,2,9,0.5501165986061096,3.9429023265838623,9.081907706552997,8.604951033036565,35.98734183383385,31.566405138711733,3.237724376958795e-05,0.0851717442274093,0,0,0
3023,99891.36228372664,2010-09-01 17:14:47,3331.68413347921,2,9,0.5501165986061096,3.944521188735962,9.086494149401044,8.604951033036565,36.005429464072044,31.566405138711733,3.237724376958795e-05,0.0851717442274093,0,0,0
3024,99921.37758447656,2010-09-01 17:15:17,3361.699434234168,2,9,0.5499359965324402,3.945978164672852,9.091080699774524,8.604951033036565,36.023524785552226,31.566405138711733,0.0,0.0851717442274093,0,0,0
3025,99951.39263037636,2010-09-01 17:15:47,3391.714480138962,2,9,0.5499359965324402,3.947597026824951,9.095667229571438,8.604951033036565,36.04162721711223,31.566405138711733,3.237724376958795e-05,0.0851717442274093,0,0,0
3026,99981.40781823994,2010-09-01 17:16:17,3421.7296679925357,2,9,0.5501165986061096,3.949215888977051,9.100253723810104,8.604951033036565,36.05973688208512,31.566405138711733,0.0,0.0851717442274093,0,0,0
3027,100011.42307321582,2010-09-01 17:16:47,3451.744923033561,2,9,0.550297200679779,3.95099663734436,9.104840257483415,8.604951033036565,36.07785411002951,31.566405138711733,6.47544875391759e-05,0.0851717442274093,0,0,0
3028,100041.43816856382,2010-09-01 17:17:17,3481.7600183364693,2,9,0.5501165986061096,3.95261549949646,9.109426793025143,8.604951033036565,36.09597886160604,31.566405138711733,3.237724376958795e-05,0.0851717442274093,0,0,0
3029,100071.45333217198,2010-09-01 17:17:47,3511.7751819496284,2,9,0.5501165986061096,3.95423436164856,9.114013266685976,8.604951033036565,36.114110945505566,31.566405138711733,3.237724376958795e-05,0.0851717442274093,0,0,0
3030,100101.4685000658,2010-09-01 17:18:17,3541.790349828418,2,9,0.550297200679779,3.956015110015869,9.11859975059885,8.604951033036565,36.13225070393478,31.566405138711733,6.47544875391759e-05,0.0851717442274093,0,0,0
3031,100131.4836439548,2010-09-01 17:18:47,3571.805493712406,2,9,0.5499359965324402,3.957472085952759,9.123186239903148,8.604951033036565,36.15039821889103,31.566405138711733,3.237724376958795e-05,0.0851717442274093,0,0,0
3032,100161.4988730662,2010-09-01 17:19:17,3601.820722843857,2,9,0.5501165986061096,3.959252834320069,9.127772712133575,8.604951033036565,36.168553582469485,31.566405138711733,3.237724376958795e-05,0.0851717442274093,0,0,0
3033,100191.51401979728,2010-09-01 17:19:47,3631.835869559903,2,9,0.5501165986061096,3.961033582687378,9.13235963366532,8.604951033036565,36.18671878890649,31.566405138711733,3.237724376958795e-05,0.0851717442274093,0,0,0
3034,100221.52918328514,2010-09-01 17:20:17,3661.851033072812,2,9,0.5501165986061096,3.9629762172698975,9.136947110259456,8.604951033036565,36.20489443684322,31.566405138711733,6.47544875391759e-05,0.0851717442274093,0,0,0
3035,100251.54437396576,2010-09-01 17:20:47,3691.866223728369,2,9,0.550297200679779,3.964756965637207,9.141534330384063,8.604951033036565,36.22307739693922,31.566405138711733,3.237724376958795e-05,0.0851717442274093,0,0,0
3036,100281.55955178432,2010-09-01 17:21:17,3721.8814015318953,2,9,0.5501165986061096,3.9665377140045166,9.14612172035416,8.604951033036565,36.2412694253485,31.566405138711733,3.237724376958795e-05,0.0851717442274093,0,0,0
3037,100311.57469997906,2010-09-01 17:21:47,3751.896549731639,2,9,0.550297200679779,3.968480348587036,9.150709226785516,8.604951033036565,36.259470387221214,31.566405138711733,6.47544875391759e-05,0.0851717442274093,0,0,0
3038,100341.59065218264,2010-09-01 17:22:17,3781.9125019452326,2,9,0.550297200679779,3.970422983169556,9.155296785263651,8.604951033036565,36.27768013797562,31.566405138711733,6.47544875391759e-05,0.0851717442274093,0,0,0
3039,100371.59241587906,2010-09-01 17:22:47,3811.914265751951,2,9,0.5501165986061096,3.972203731536865,9.159881867775672,8.604951033036565,36.29588882225048,31.566405138711733,3.237724376958795e-05,0.0851717442274093,0,0,0
3040,100401.60462181077,2010-09-01 17:23:17,3841.926471583408,2,9,0.5501165986061096,3.973984479904175,9.164468031822306,8.604951033036565,36.31411055143138,31.566405138711733,3.237724376958795e-05,0.0851717442274093,0,0,0
3041,100431.61987971392,2010-09-01 17:23:47,3871.941729486567,2,9,0.5499359965324402,3.976089000701904,9.169054713083275,8.604951033036565,36.33234334039176,31.566405138711733,3.237724376958795e-05,0.0851717442274093,0,0,0
3042,100461.63516463945,2010-09-01 17:24:17,3901.957014402048,2,9,0.5501165986061096,3.977869749069214,9.173641409602071,8.604951033036565,36.350585097248135,31.566405138711733,3.237724376958795e-05,0.0851717442274093,0,0,0
3043,100491.65010221924,2010-09-01 17:24:47,3931.971951986875,2,9,0.5501165986061096,3.980136156082153,9.178227957525284,8.604951033036565,36.36883522078308,31.566405138711733,6.47544875391759e-05,0.0851717442274093,0,0,0
3044,100521.665384037,2010-09-01 17:25:17,3961.987233799624,2,9,0.550297200679779,3.982240676879883,9.182814491500672,8.604951033036565,36.38709473267202,31.566405138711733,0.0001295089750783,0.0851717442274093,0,0,0
3045,100551.68042005216,2010-09-01 17:25:47,3992.002269804744,2,9,0.550297200679779,3.9841833114624015,9.187400968007443,8.604951033036565,36.40536314783335,31.566405138711733,6.47544875391759e-05,0.0851717442274093,0,0,0
3046,100581.69560175038,2010-09-01 17:26:17,4022.017451497964,2,9,0.5501165986061096,3.986125946044922,9.191987499558373,8.604951033036565,36.42364105811774,31.566405138711733,3.237724376958795e-05,0.0851717442274093,0,0,0
3047,100611.7107594087,2010-09-01 17:26:47,4052.032609201394,2,9,0.5501165986061096,3.9880685806274414,9.196574049079032,8.604951033036565,36.441928349042,31.566405138711733,3.237724376958795e-05,0.0851717442274093,0,0,0
3048,100641.72590152832,2010-09-01 17:27:17,4082.047751310959,2,9,0.5501165986061096,3.990173101425171,9.201160529898058,8.604951033036565,36.460224517382976,31.566405138711733,3.237724376958795e-05,0.0851717442274093,0,0,0
3049,100671.74106907124,2010-09-01 17:27:47,4112.0629188489,2,9,0.550297200679779,3.992277622222901,9.205746979831968,8.604951033036565,36.478529945309546,31.566405138711733,6.47544875391759e-05,0.0851717442274093,0,0,0
3050,100701.75623660415,2010-09-01 17:28:17,4142.0780863918535,2,9,0.5501165986061096,3.994220018386841,9.21033344812167,8.604951033036565,36.49684483607278,31.566405138711733,3.237724376958795e-05,0.0851717442274093,0,0,0
3051,100731.77142842764,2010-09-01 17:28:47,4172.093278180234,2,9,0.5501165986061096,3.9963245391845694,9.214919935970547,8.604951033036565,36.51516926716718,31.566405138711733,6.47544875391759e-05,0.0851717442274093,0,0,0
3052,100761.78673129286,2010-09-01 17:29:17,4202.108581045452,2,9,0.5501165986061096,3.9984290599823,9.219506532992858,8.604951033036565,36.53350371039669,31.566405138711733,6.47544875391759e-05,0.0851717442274093,0,0,0
3053,100791.80175380436,2010-09-01 17:29:47,4232.123603566967,2,9,0.550297200679779,4.000533580780029,9.224093048931964,8.604951033036565,36.5518472474809,31.566405138711733,6.47544875391759e-05,0.0851717442274093,0,0,0
3054,100821.81705108064,2010-09-01 17:30:17,4262.138900843255,2,9,0.5499359965324402,4.002476215362549,9.228679584382084,8.604951033036565,36.5702005629487,31.566405138711733,3.23295607813634e-05,0.0851717442274093,0,0,0
3055,100851.83207885524,2010-09-01 17:30:47,4292.153928617863,2,9,0.5501165986061096,4.004742622375488,9.233266114456567,8.604951033036565,36.58856359607593,31.566405138711733,3.23295607813634e-05,0.0851717442274093,0,0,0
3056,100881.84734127468,2010-09-01 17:31:17,4322.169191037277,2,9,0.5499359965324402,4.006847381591797,9.237852645802777,8.604951033036565,36.60693643814123,31.566405138711733,3.24249267578125e-05,0.0851717442274093,0,0,0
3057,100911.8623746382,2010-09-01 17:31:47,4352.184224425877,2,9,0.5501165986061096,4.009113788604736,9.242439200098742,8.604951033036565,36.62531927818135,31.566405138711733,6.47544875391759e-05,0.0851717442274093,0,0,0
3058,100941.87771654571,2010-09-01 17:32:17,4382.199566308337,2,9,0.5501165986061096,4.011218070983887,9.247025789551666,8.604951033036565,36.643712243685954,31.566405138711733,6.47544875391759e-05,0.0851717442274093,0,0,0
3059,100971.89266276208,2010-09-01 17:32:47,4412.214512559764,2,9,0.5501165986061096,4.013646602630615,9.25161222654225,8.604951033036565,36.66211472312842,31.566405138711733,6.47544875391759e-05,0.0851717442274093,0,0,0
3060,101001.90790401874,2010-09-01 17:33:17,4442.2297538064095,2,9,0.550297200679779,4.015750885009766,9.25619864333278,8.604951033036565,36.68052734766111,31.566405138711733,6.47544875391759e-05,0.0851717442274093,0,0,0
3061,101031.9229725098,2010-09-01 17:33:47,4472.244822272433,2,9,0.5501165986061096,4.018017292022705,9.260785100621666,8.604951033036565,36.69895048147642,31.566405138711733,6.47544875391759e-05,0.0851717442274093,0,0,0
3062,101061.9382729089,2010-09-01 17:34:17,4502.2601226815295,2,9,0.5501165986061096,4.0202836990356445,9.265371715310016,8.604951033036565,36.71738462169444,31.566405138711733,6.47544875391759e-05,0.0851717442274093,0,0,0
3063,101091.95345542415,2010-09-01 17:34:47,4532.275305186774,2,9,0.5501165986061096,4.022550106048584,9.269958176516884,8.604951033036565,36.73582876526015,31.566405138711733,3.23295607813634e-05,0.0851717442274093,0,0,0
3064,101121.96861332808,2010-09-01 17:35:18,4562.290463095716,2,9,0.5499359965324402,4.024816513061523,9.2745446617436,8.604951033036565,36.754283716481325,31.566405138711733,0.0,0.0851717442274093,0,0,0
3065,101151.98403765602,2010-09-01 17:35:48,4592.305887418644,2,9,0.5501165986061096,4.027245044708252,9.279131168359656,8.604951033036565,36.772749504445486,31.566405138711733,9.71794142969884e-05,0.0851717442274093,0,0,0
3066,101181.99922015124,2010-09-01 17:36:18,4622.321069918875,2,9,0.5499359965324402,4.029511451721191,9.283717703857226,8.604951033036565,36.791226318793306,31.566405138711733,0.0,0.0851717442274093,0,0,0
3067,101212.01411375646,2010-09-01 17:36:48,4652.335963534116,2,9,0.5501165986061096,4.031939506530762,9.2883041320993,8.604951033036565,36.80971363236287,31.566405138711733,3.23295607813634e-05,0.0851717442274093,0,0,0
3068,101242.02940660172,2010-09-01 17:37:18,4682.351256389386,2,9,0.5499359965324402,4.034529685974121,9.2928905821608,8.604951033036565,36.82821213878803,31.566405138711733,6.47544875391759e-05,0.0851717442274093,0,0,0
3069,101272.0444104968,2010-09-01 17:37:48,4712.366260259416,2,9,0.5501165986061096,4.036957740783691,9.297477080845834,8.604951033036565,36.84672207979459,31.566405138711733,6.47544875391759e-05,0.0851717442274093,0,0,0
3070,101302.05957280671,2010-09-01 17:38:18,4742.381422574339,2,9,0.5501165986061096,4.039547920227051,9.302063585357914,8.604951033036565,36.865243382343216,31.566405138711733,9.70840483205393e-05,0.0851717442274093,0,0,0
3071,101332.0756407688,2010-09-01 17:38:48,4772.397490536414,2,9,0.5501165986061096,4.041976451873779,9.30665022320121,8.604951033036565,36.88377655504189,31.566405138711733,6.47544875391759e-05,0.0851717442274093,0,0,0
3072,101362.07585372028,2010-09-01 17:39:18,4802.397703533036,2,9,0.5501165986061096,4.04440450668335,9.311234426115638,8.604951033036565,36.9023114539208,31.566405138711733,6.47544875391759e-05,0.0851717442274093,0,0,0
3073,101392.08946692938,2010-09-01 17:39:48,4832.411316722061,2,9,0.550297200679779,4.047156810760498,9.315820662114758,8.604951033036565,36.92086622024242,31.566405138711733,9.71794142969884e-05,0.0851717442274093,0,0,0
3074,101422.10470134398,2010-09-01 17:40:18,4862.426551226904,2,9,0.5501165986061096,4.049584865570068,9.32040717901511,8.604951033036565,36.93943393867698,31.566405138711733,6.47544875391759e-05,0.0851717442274093,0,0,0
3075,101452.1200047305,2010-09-01 17:40:48,4892.441854498134,2,9,0.5499359965324402,4.052175045013428,9.324993637836904,8.604951033036565,36.95801327483598,31.566405138711733,6.47544875391759e-05,0.0851717442274093,0,0,0
3076,101482.1349364056,2010-09-01 17:41:18,4922.456786173232,2,9,0.5501165986061096,4.054927349090576,9.32958006808623,8.604951033036565,36.97660456351377,31.566405138711733,6.47544875391759e-05,0.0851717442274093,0,0,0
3077,101512.15021092015,2010-09-01 17:41:48,4952.472060692804,2,9,0.5501165986061096,4.057517528533936,9.334166558946524,8.604951033036565,36.99520820798201,31.566405138711733,6.47544875391759e-05,0.0851717442274093,0,0,0
3078,101542.1652453564,2010-09-01 17:42:18,4982.48709511899,2,9,0.5501165986061096,4.060431480407715,9.338753050399548,8.604951033036565,37.01382417245992,31.566405138711733,9.71794142969884e-05,0.0851717442274093,0,0,0
3079,101572.18041656847,2010-09-01 17:42:48,5012.5022663361,2,9,0.5501165986061096,4.063021659851074,9.343339544317466,8.604951033036565,37.032452098576506,31.566405138711733,9.71794142969884e-05,0.0851717442274093,0,0,0
3080,101602.19559187576,2010-09-01 17:43:18,5042.517441663454,2,9,0.550297200679779,4.065611839294434,9.347925984277124,8.604951033036565,37.05109239052496,31.566405138711733,9.71794142969884e-05,0.0851717442274093,0,0,0
3081,101632.21072633126,2010-09-01 17:43:48,5072.53257609388,2,9,0.5501165986061096,4.068363666534424,9.35251238819452,8.604951033036565,37.06974519536242,31.566405138711733,6.47544875391759e-05,0.0851717442274093,0,0,0
3082,101662.22588406476,2010-09-01 17:44:18,5102.547733832397,2,9,0.5501165986061096,4.070953845977783,9.357098875851612,8.604951033036565,37.088411048045735,31.566405138711733,3.23295607813634e-05,0.0851717442274093,0,0,0
3083,101692.24104925686,2010-09-01 17:44:48,5132.56289901948,2,9,0.5501165986061096,4.0738677978515625,9.361685207984848,8.604951033036565,37.10708901092252,31.566405138711733,6.47544875391759e-05,0.0851717442274093,0,0,0
3084,101722.25621525595,2010-09-01 17:45:18,5162.578065023597,2,9,0.5501165986061096,4.076781749725342,9.36627160884156,8.604951033036565,37.12578023623809,31.566405138711733,6.47544875391759e-05,0.0851717442274093,0,0,0
3085,101752.27148861764,2010-09-01 17:45:48,5192.59333838027,2,9,0.5501165986061096,4.07953405380249,9.370858007564948,8.604951033036565,37.14448452976121,31.566405138711733,6.47544875391759e-05,0.0851717442274093,0,0,0
3086,101782.28665831096,2010-09-01 17:46:18,5222.608508078596,2,9,0.5501165986061096,4.0824480056762695,9.375444441770783,8.604951033036565,37.16320210329598,31.566405138711733,6.47544875391759e-05,0.0851717442274093,0,0,0
3087,101812.30169450156,2010-09-01 17:46:48,5252.623544294241,2,9,0.5501165986061096,4.085361957550049,9.380030832207408,8.604951033036565,37.18193281113536,31.566405138711733,6.47544875391759e-05,0.0851717442274093,0,0,0
3088,101842.31701865984,2010-09-01 17:47:18,5282.638868432478,2,9,0.5501165986061096,4.088437557220459,9.384617260671812,8.604951033036565,37.20067708594782,31.566405138711733,9.70840483205393e-05,0.0851717442274093,0,0,0
3089,101872.33199829448,2010-09-01 17:47:48,5312.653848057081,2,9,0.5499359965324402,4.091351509094238,9.389203658275395,8.604951033036565,37.21943482866845,31.566405138711733,6.47544875391759e-05,0.0851717442274093,0,0,0
3090,101902.34715514578,2010-09-01 17:48:18,5342.6690049134,2,9,0.550297200679779,4.094427585601807,9.393790106938514,8.604951033036565,37.23820642886759,31.566405138711733,6.47544875391759e-05,0.0851717442274093,0,0,0
3091,101932.36232162607,2010-09-01 17:48:48,5372.684171388692,2,9,0.5501165986061096,4.097341537475586,9.39837654757722,8.604951033036565,37.256991889666615,31.566405138711733,9.71794142969884e-05,0.0851717442274093,0,0,0
3092,101962.37750557491,2010-09-01 17:49:18,5402.699355337533,2,9,0.550297200679779,4.100579261779785,9.402963015430611,8.604951033036565,37.275791374285205,31.566405138711733,9.71794142969884e-05,0.0851717442274093,0,0,0
3093,101992.39263653167,2010-09-01 17:49:48,5432.714486304328,2,9,0.5501165986061096,4.1034932136535645,9.407549396864551,8.604951033036565,37.29460448235484,31.566405138711733,6.47544875391759e-05,0.0851717442274093,0,0,0
3094,102022.40780358844,2010-09-01 17:50:18,5462.729653376106,2,9,0.5501165986061096,4.106568813323975,9.412135842690226,8.604951033036565,37.3134321017086,31.566405138711733,9.70840483205393e-05,0.0851717442274093,0,0,0
3095,102052.42307029352,2010-09-01 17:50:48,5492.744920066165,2,9,0.5501165986061096,4.109806537628174,9.416722271876475,8.604951033036565,37.33227386425023,31.566405138711733,0.0001295089750783,0.0851717442274093,0,0,0
3096,102082.43812312558,2010-09-01 17:51:18,5522.759972888199,2,9,0.5501165986061096,4.112720489501953,9.421308741814272,8.604951033036565,37.35113028552102,31.566405138711733,6.47544875391759e-05,0.0851717442274093,0,0,0
3097,102112.45338511892,2010-09-01 17:51:48,5552.775234891576,2,9,0.5499359965324402,4.115958213806152,9.425895168736425,8.604951033036565,37.37000110845938,31.566405138711733,6.47544875391759e-05,0.0851717442274093,0,0,0
3098,102142.46842228192,2010-09-01 17:52:18,5582.7902720495695,2,9,0.5501165986061096,4.119195938110352,9.430481603241512,8.604951033036565,37.38888670711692,31.566405138711733,9.71794142969884e-05,0.0851717442274093,0,0,0
3099,102172.48362202516,2010-09-01 17:52:48,5612.805471797788,2,9,0.5499359965324402,4.122433662414551,9.435068117779624,8.604951033036565,37.40778754919072,31.566405138711733,6.47544875391759e-05,0.0851717442274093,0,0,0
3100,102202.4987382452,2010-09-01 17:53:18,5642.820588012816,2,9,0.5501165986061096,4.125833034515381,9.43965460280436,8.604951033036565,37.42670318601582,31.566405138711733,9.70840483205393e-05,0.0851717442274093,0,0,0
3101,102232.51390366284,2010-09-01 17:53:48,5672.835753455535,2,9,0.5499359965324402,4.129232883453369,9.444241103267595,8.604951033036565,37.44563407302364,31.566405138711733,9.71794142969884e-05,0.0851717442274093,0,0,0
3102,102262.52904230377,2010-09-01 17:54:18,5702.850892066381,2,9,0.550297200679779,4.132632255554199,9.448827630701784,8.604951033036565,37.46458038195488,31.566405138711733,0.0001295089750783,0.0851717442274093,0,0,0
3103,102292.54420767128,2010-09-01 17:54:48,5732.866057433913,2,9,0.5501165986061096,4.136032104492188,9.4534141352079,8.604951033036565,37.483541898588975,31.566405138711733,0.0001295089750783,0.0851717442274093,0,0,0
3104,102322.56203052208,2010-09-01 17:55:18,5762.88388040501,2,9,0.550297200679779,4.139431476593018,9.458001012435002,8.604951033036565,37.50252043689069,31.566405138711733,0.0001295089750783,0.0851717442274093,0,0,0
3105,102352.57452668212,2010-09-01 17:55:48,5792.896376449768,2,9,0.5501165986061096,4.142669200897217,9.462587145138633,8.604951033036565,37.52151157657856,31.566405138711733,9.70840483205393e-05,0.0851717442274093,0,0,0
3106,102382.58965762387,2010-09-01 17:56:18,5822.911507416561,2,9,0.5499359965324402,4.146069049835205,9.467173599125452,8.604951033036565,37.540519886883104,31.566405138711733,9.71794142969884e-05,0.0851717442274093,0,0,0
3107,102412.60503775164,2010-09-01 17:56:48,5852.926887524291,2,9,0.5497553944587708,4.149630546569824,9.471760152240664,8.604951033036565,37.55954470941256,31.566405138711733,3.24249267578125e-05,0.0851717442274093,0,0,0
3108,102442.61997725123,2010-09-01 17:57:18,5882.94182704394,2,9,0.550297200679779,4.153353691101074,9.476346592479985,8.604951033036565,37.57858508291969,31.566405138711733,0.0001295089750783,0.0851717442274093,0,0,0
3109,102472.63519474368,2010-09-01 17:57:48,5912.957044536382,2,9,0.550297200679779,4.156915187835693,9.480933075193809,8.604951033036565,37.59764171187138,31.566405138711733,9.70840483205393e-05,0.0851717442274093,0,0,0
3110,102502.65041918344,2010-09-01 17:58:18,5942.972268946066,2,9,0.5501165986061096,4.160315036773682,9.485519430059991,8.604951033036565,37.6167141255609,31.566405138711733,9.71794142969884e-05,0.0851717442274093,0,0,0
3111,102532.6654446072,2010-09-01 17:58:48,5972.987294379839,2,9,0.5497553944587708,4.163714408874512,9.490105844743685,8.604951033036565,37.63580327610192,31.566405138711733,6.47544875391759e-05,0.0851717442274093,0,0,0
3112,102562.68074308148,2010-09-01 17:59:18,6003.002592849101,2,9,0.5501165986061096,4.16743803024292,9.494692253500812,8.604951033036565,37.654908848810734,31.566405138711733,9.71794142969884e-05,0.0851717442274093,0,0,0
3113,102592.69575439506,2010-09-01 17:59:48,6033.017604167695,2,9,0.5499359965324402,4.170999526977539,9.499278579416805,8.604951033036565,37.674030748348926,31.566405138711733,6.47544875391759e-05,0.0851717442274093,0,0,0
3114,102622.71090964736,2010-09-01 18:00:18,6063.032759420016,2,9,0.550297200679779,4.174722671508789,9.50386494659968,8.604951033036565,37.69316960189541,31.566405138711733,6.47544875391759e-05,0.0851717442274093,0,0,0
3115,102652.72621698874,2010-09-01 18:00:48,6093.048066776428,2,9,0.5501165986061096,4.178770065307617,9.508451370071088,8.604951033036565,37.71232559283165,31.566405138711733,0.0001619339018361,0.0851717442274093,0,0,0
3116,102682.74122388133,2010-09-01 18:01:18,6123.063073643928,2,9,0.5501165986061096,4.182169437408447,9.513037792994634,8.604951033036565,37.73149868134349,31.566405138711733,6.47544875391759e-05,0.0851717442274093,0,0,0
3117,102712.75637326902,2010-09-01 18:01:48,6153.078223036645,2,9,0.5501165986061096,4.186054706573486,9.51762422449358,8.604951033036565,37.75068889600528,31.566405138711733,0.0001295089750783,0.0851717442274093,0,0,0
3118,102742.77152619556,2010-09-01 18:02:18,6183.09337598322,2,9,0.5499359965324402,4.189778327941895,9.522210619614992,8.604951033036565,37.76989624249289,31.566405138711733,9.71794142969884e-05,0.0851717442274093,0,0,0
3119,102772.78679455978,2010-09-01 18:02:48,6213.108644322388,2,9,0.5501165986061096,4.1935014724731445,9.526796987556004,8.604951033036565,37.78912084483935,31.566405138711733,0.0001295089750783,0.0851717442274093,0,0,0
3120,102802.80183836434,2010-09-01 18:03:18,6243.123688136972,2,9,0.5499359965324402,4.197386741638184,9.53138335766432,8.604951033036565,37.80836302732317,31.566405138711733,9.71794142969884e-05,0.0851717442274093,0,0,0
3121,102822.20777807717,2010-09-01 18:03:38,6262.529627844782,2,9,0.5501165986061096,4.200138568878174,9.534348582946745,8.604951033036565,37.82081307250701,31.566405138711733,0.0001618385285837,0.0851717442274093,0,0,0
3122,102852.22392307612,2010-09-01 18:04:08,30.01511196443444,3,9,0.0,4.120005130767822,9.534348582946745,8.604951033036565,37.82081307250701,31.566405138711733,-0.0003885269106831,0.0851717442274093,0,0,0
3123,102882.239151175,2010-09-01 18:04:38,60.030340058299146,3,9,0.0,4.109806537628174,9.534348582946745,8.604951033036565,37.82081307250701,31.566405138711733,-0.0002266883820993,0.0851717442274093,0,0,0
3124,102912.25435057232,2010-09-01 18:05:08,90.04553945564331,3,9,0.0,4.103978633880615,9.534348582946745,8.604951033036565,37.82081307250701,31.566405138711733,-9.71794142969884e-05,0.0851717442274093,0,0,0
3125,102942.22262839168,2010-09-01 18:05:38,120.01381727999012,3,9,0.0,4.100093364715576,9.534348582946745,8.604951033036565,37.82081307250701,31.566405138711733,-0.0001295089750783,0.0851717442274093,0,0,0
3126,102942.22543930056,2010-09-01 18:05:38,2.651608625e-06,4,9,0.9983888268470764,4.199814796447754,9.534348583682114,8.604951033036565,37.82081307559543,31.566405138711733,0.0,0.0851717442274093,0,0,0
3127,102943.2254172934,2010-09-01 18:05:39,0.999980634427342,4,9,0.9478182196617126,4.199814796447754,9.534617321502305,8.604951033036565,37.82194171738925,31.566405138711733,0.0,0.0851717442274093,0,0,0
3128,102945.42862105006,2010-09-01 18:05:41,3.203184396110306,4,9,0.8974282741546631,4.199814796447754,9.535180889147856,8.604951033036565,37.82430857648547,31.566405138711733,0.0,0.0851717442274093,0,0,0
3129,102948.72534610328,2010-09-01 18:05:45,6.499909444307351,4,9,0.8470382690429688,4.199814796447754,9.535978567977274,8.604951033036565,37.82765863949744,31.566405138711733,3.23295607813634e-05,0.0851717442274093,0,0,0
3130,102953.05349742812,2010-09-01 18:05:49,10.828060774160214,4,9,0.7970094680786133,4.199814796447754,9.536965723236507,8.604951033036565,37.831804505188,31.566405138711733,0.0,0.0851717442274093,0,0,0
3131,102958.6471605678,2010-09-01 18:05:54,16.42172390380641,4,9,0.7468001246452332,4.199814796447754,9.53816351031602,8.604951033036565,37.83683496721128,31.566405138711733,0.0,0.0851717442274093,0,0,0
3132,102965.72505665764,2010-09-01 18:06:02,23.499620008714025,4,9,0.6964101195335388,4.199814796447754,9.539580334827988,8.604951033036565,37.84278534624063,31.566405138711733,0.0,0.0851717442274093,0,0,0
3133,102975.09990635767,2010-09-01 18:06:11,32.87446970873562,4,9,0.6463813781738281,4.199976921081543,9.541325917047498,8.604951033036565,37.850116458110186,31.566405138711733,3.24249267578125e-05,0.0851717442274093,0,0,0
3134,102987.8029838755,2010-09-01 18:06:24,45.57754722654924,4,9,0.5963525772094727,4.199653148651123,9.543513696147844,8.604951033036565,37.85930470602547,31.566405138711733,-3.23295607813634e-05,0.0851717442274093,0,0,0
3135,103006.58389964132,2010-09-01 18:06:42,64.35846298235603,4,9,0.546323835849762,4.199976921081543,9.54648542673457,8.604951033036565,37.87178542691744,31.566405138711733,3.24249267578125e-05,0.0851717442274093,0,0,0
3136,103036.91144895076,2010-09-01 18:07:13,94.68601231685123,4,9,0.4962950348854065,4.199653148651123,9.550859146951597,8.604951033036565,37.89015424817998,31.566405138711733,-3.23295607813634e-05,0.0851717442274093,0,0,0
3137,103089.7868777236,2010-09-01 18:08:06,147.56144120500323,4,9,0.4462662935256958,4.199814796447754,9.557751262589465,8.604951033036565,37.91909983471047,31.566405138711733,0.0,0.0851717442274093,0,0,0
3138,103174.73737290622,2010-09-01 18:09:31,232.5119362572874,4,9,0.3962375223636627,4.199814796447754,9.56766130776846,8.604951033036565,37.96072014797736,31.566405138711733,0.0,0.0851717442274093,0,0,0
3139,103286.6731506712,2010-09-01 18:11:23,344.4477141525803,4,9,0.3462087512016296,4.199814796447754,9.579182260158008,8.604951033036565,38.00910606347167,31.566405138711733,0.0,0.0851717442274093,0,0,0
3140,103421.1709802665,2010-09-01 18:13:37,478.9455436075296,4,9,0.2959993481636047,4.199814796447754,9.5911681965281,8.604951033036565,38.05944479073537,31.566405138711733,0.0,0.0851717442274093,0,0,0
3141,103586.51214385536,2010-09-01 18:16:22,644.2867072214596,4,9,0.2459705919027328,4.199814796447754,9.60359554371446,8.604951033036565,38.11163744031267,31.566405138711733,3.23295607813634e-05,0.0851717442274093,0,0,0
3142,103790.29017098492,2010-09-01 18:19:46,848.0647343309479,4,9,0.1959418207406997,4.199653148651123,9.616061667436032,8.604951033036565,38.163992835816416,31.566405138711733,-3.23295607813634e-05,0.0851717442274093,0,0,0
3143,104060.53600475522,2010-09-01 18:24:16,1118.3105681062802,4,9,0.1459130495786667,4.199653148651123,9.628813698344787,8.604951033036565,38.2175490126863,31.566405138711733,-6.47544875391759e-05,0.0851717442274093,0,0,0
3144,104460.54515165904,2010-09-01 18:30:56,1518.3197150251394,4,9,0.0958842858672142,4.199491024017334,9.642067746032714,8.604951033036565,38.273213530310095,31.566405138711733,-9.71794142969884e-05,0.0851717442274093,0,0,0
3145,105118.01919032812,2010-09-01 18:41:54,2175.7937536691447,4,9,0.0498289167881011,4.199814796447754,9.65494442167533,8.604951033036565,38.32729327591676,31.566405138711733,-3.24249267578125e-05,0.0851717442274093,0,0,0
3146,105148.03254569595,2010-09-01 18:42:24,30.0151263603134,5,9,0.0,4.192368507385254,9.65494442167533,8.604951033036565,38.32729327591676,31.566405138711733,-3.23295607813634e-05,0.0851717442274093,0,0,0
3147,105178.03205224192,2010-09-01 18:42:54,60.01463288118078,5,9,0.0,4.191073417663574,9.65494442167533,8.604951033036565,38.32729327591676,31.566405138711733,-6.47544875391759e-05,0.0851717442274093,0,0,0
3148,105178.21857027484,2010-09-01 18:42:54,0.187278821447299,6,9,-1.9243103452026844e-05,4.191073417663574,9.65494442167533,8.604951034037628,38.32729327591676,31.56640514290726,0.0,0.0914954170584678,0,0,0
3149,105183.04664855146,2010-09-01 18:42:59,5.01535709306271,6,9,0.0005225847125984,4.191073417663574,9.654945351947664,8.60495103420466,38.32729717489164,31.56640514360731,-3.23295607813634e-05,0.0914954170584678,0,0,0
3150,105213.06119807147,2010-09-01 18:43:29,30.01527050957772,7,9,-1.099568486213684,4.023845195770264,9.654945351947664,8.614118566333984,38.32729717489164,31.603481903147085,-0.0009065627818927,0.0914954170584678,0,0,0
3151,105243.07622072834,2010-09-01 18:43:59,60.03029317144267,7,9,-1.0993878841400146,3.9984290599823,9.654945351947664,8.623285944514654,38.32729717489164,31.64024461754255,-0.0005828380817547,0.0914954170584678,0,0,0
3152,105273.07644445168,2010-09-01 18:44:29,90.03051691484931,7,9,-1.0993878841400146,3.981107473373413,9.654945351947664,8.632448789657289,38.32729717489164,31.676798245592245,-0.0003885269106831,0.0914954170584678,0,0,0
3153,105303.09090972938,2010-09-01 18:44:59,120.04498217249144,7,9,-1.0993878841400146,3.967832803726196,9.654945351947664,8.641615757003057,38.32729717489164,31.713229300807264,-0.0003237724304199,0.0914954170584678,0,0,0
3154,105333.10618032416,2010-09-01 18:45:29,150.06025276226904,7,9,-1.0993878841400146,3.956662654876709,9.654945351947664,8.650783102178728,38.32729717489164,31.74955011751172,-0.0002266406954731,0.0914954170584678,0,0,0
3155,105363.1211964698,2010-09-01 18:45:59,180.07526892794348,7,9,-1.0997490882873535,3.9464638233184814,9.654945351947664,8.659950924623592,38.32729717489164,31.78577587459465,-0.0002266406954731,0.0914954170584678,0,0,0
3156,105393.13634446404,2010-09-01 18:46:29,210.09041692217528,7,9,-1.099568486213684,3.9372363090515137,9.654945351947664,8.669119061972925,38.32729717489164,31.82191458347527,-0.0002266406954731,0.0914954170584678,0,0,0
3157,105423.15152334025,2010-09-01 18:46:59,240.1055957983744,7,9,-1.0997490882873535,3.928332567214966,9.654945351947664,8.678287158929226,38.32729717489164,31.85797027238451,-0.0002590179501567,0.0914954170584678,0,0,0
3158,105453.16667456752,2010-09-01 18:47:29,270.1207470006015,7,9,-1.0997490882873535,3.919752597808838,9.654945351947664,8.687455256379753,38.32729717489164,31.893946699162715,-0.0002590179501567,0.0914954170584678,0,0,0
3159,105483.18180049171,2010-09-01 18:47:59,300.13587292482805,7,9,-1.099568486213684,3.911658525466919,9.654945351947664,8.696622853085795,38.32729717489164,31.929844927659445,-0.0001942634553415,0.0914954170584678,0,0,0
3160,105513.196947694,2010-09-01 18:48:29,330.15102013209844,7,9,-1.099568486213684,3.903726100921631,9.654945351947664,8.705790211343432,38.32729717489164,31.96566822187524,-0.0002266406954731,0.0914954170584678,0,0,0
3161,105543.2121118084,2010-09-01 18:48:59,360.16618424149414,7,9,-1.099568486213684,3.895793676376343,9.654945351947664,8.714957554254747,38.32729717489164,32.00141899168147,-0.0002266406954731,0.0914954170584678,0,0,0
3162,105573.22737296968,2010-09-01 18:49:29,390.1814454278355,7,9,-1.099568486213684,3.8881850242614746,9.654945351947664,8.724124815413639,38.32729717489164,32.03709891449045,-0.0001942634553415,0.0914954170584678,0,0,0
3163,105603.24239908515,2010-09-01 18:49:59,420.1964715182455,7,9,-1.099568486213684,3.880738258361816,9.654945351947664,8.733292075686647,38.32729717489164,32.07270924362777,-0.0001942634553415,0.0914954170584678,0,0,0
3164,105633.25767654204,2010-09-01 18:50:29,450.211748985163,7,9,-1.099568486213684,3.873291492462158,9.654945351947664,8.74245946082263,38.32729717489164,32.10825131771917,-0.0001942634553415,0.0914954170584678,0,0,0
3165,105663.27272843676,2010-09-01 18:50:59,480.22680089993526,7,9,-1.099568486213684,3.86600661277771,9.654945351947664,8.7516267881889,38.32729717489164,32.14372575672736,-0.0001942634553415,0.0914954170584678,0,0,0
3166,105693.28798370335,2010-09-01 18:51:30,510.2420561364478,7,9,-1.099568486213684,3.8587217330932617,9.654945351947664,8.760794164317318,38.32729717489164,32.17913360959159,-0.0001942634553415,0.0914954170584678,0,0,0
3167,105723.30327953104,2010-09-01 18:52:00,540.2573519691385,7,9,-1.0993878841400146,3.8517606258392334,9.654945351947664,8.769961530561929,38.32729717489164,32.214475568038914,-0.0001618862152099,0.0914954170584678,0,0,0
3168,105753.31827831338,2010-09-01 18:52:30,570.2723507464758,7,9,-1.0993878841400146,3.844799518585205,9.654945351947664,8.779128831020083,38.32729717489164,32.249752816521145,-0.0001618862152099,0.0914954170584678,0,0,0
3169,105783.33331625834,2010-09-01 18:53:00,600.2873886914309,7,9,-1.099568486213684,3.8378384113311768,9.654945351947664,8.788296161699707,38.32729717489164,32.28496636452177,-0.0001942634553415,0.0914954170584678,0,0,0
3170,105813.34845663358,2010-09-01 18:53:30,630.3025290917363,7,9,-1.099568486213684,3.830877542495728,9.654945351947664,8.79746350051835,38.32729717489164,32.320117276682566,-0.0001942634553415,0.0914954170584678,0,0,0
3171,105843.36360457768,2010-09-01 18:54:00,660.3176770157932,7,9,-1.099568486213684,3.824240207672119,9.654945351947664,8.806630889792274,38.32729717489164,32.35520661990822,-0.0001618862152099,0.0914954170584678,0,0,0
3172,105873.37877720332,2010-09-01 18:54:30,690.3328496564515,7,9,-1.099568486213684,3.817602872848511,9.654945351947664,8.81579825407695,38.32729717489164,32.390234959318384,-0.0002266406954731,0.0914954170584678,0,0,0
3173,105903.394120384,2010-09-01 18:55:00,720.348192847173,7,9,-1.099568486213684,3.811127424240112,9.654945351947664,8.824965641051872,38.32729717489164,32.4252030057713,-0.0001618862152099,0.0914954170584678,0,0,0
3174,105933.40918395284,2010-09-01 18:55:30,750.3632563859156,7,9,-1.0993878841400146,3.804813861846924,9.654945351947664,8.834133010981219,38.32729717489164,32.46011145261963,-0.0001295089750783,0.0914954170584678,0,0,0
3175,105963.42427817803,2010-09-01 18:56:00,780.378350626176,7,9,-1.0993878841400146,3.798500299453736,9.654945351947664,8.843300347802055,38.32729717489164,32.49496177013531,-0.0001618862152099,0.0914954170584678,0,0,0
3176,105993.43946256298,2010-09-01 18:56:30,810.3935350010797,7,9,-1.0997490882873535,3.792186737060547,9.654945351947664,8.852467663946621,38.32729717489164,32.529755086101765,-0.0001942634553415,0.0914954170584678,0,0,0
3177,106023.45451118956,2010-09-01 18:57:00,840.408583622644,7,9,-1.099568486213684,3.786358833312988,9.654945351947664,8.8616348698106,38.32729717489164,32.56449215281803,-9.713172767078504e-05,0.0914954170584678,0,0,0
3178,106053.46978524298,2010-09-01 18:57:30,870.4238576760541,7,9,-1.099568486213684,3.78036904335022,9.654945351947664,8.870802191918816,38.32729717489164,32.59917476468536,-0.0001295089750783,0.0914954170584678,0,0,0
3179,106083.48481075694,2010-09-01 18:58:00,900.4388832201024,7,9,-1.0993878841400146,3.774541139602661,9.654945351947664,8.879969391112072,38.32729717489164,32.63380334215269,-0.0001618862152099,0.0914954170584678,0,0,0
3180,106113.49993798442,2010-09-01 18:58:30,930.454010417502,7,9,-1.0997490882873535,3.768875122070313,9.654945351947664,8.8891366771187,38.32729717489164,32.668379370737526,-0.0001295089750783,0.0914954170584678,0,0,0
3181,106143.51510159257,2010-09-01 18:59:00,960.4691740256484,7,9,-1.0993878841400146,3.763370990753174,9.654945351947664,8.898304020178312,38.32729717489164,32.702903972829624,-9.713172767078504e-05,0.0914954170584678,0,0,0
3182,106173.53025402786,2010-09-01 18:59:30,990.4843264659612,7,9,-1.099568486213684,3.757704973220825,9.654945351947664,8.907471345273509,38.32729717489164,32.73737761454653,-0.0001618862152099,0.0914954170584678,0,0,0
3183,106203.54581444498,2010-09-01 19:00:00,1020.4998869783152,7,9,-1.0997490882873535,3.752362966537476,9.654945351947664,8.916638856264623,38.32729717489164,32.77180213903304,-0.0001618385285837,0.0914954170584678,0,0,0
3184,106233.56055114914,2010-09-01 19:00:30,1050.5146235822358,7,9,-1.0993878841400146,3.747182607650757,9.654945351947664,8.9258060729128,38.32729717489164,32.80617681354065,-0.0001295089750783,0.0914954170584678,0,0,0
3185,106263.57571599538,2010-09-01 19:01:00,1080.5297884334802,7,9,-1.0993878841400146,3.742002248764038,9.654945351947664,8.934973408168585,38.32729717489164,32.840504274013874,-0.0001295089750783,0.0914954170584678,0,0,0
3186,106293.59086593946,2010-09-01 19:01:30,1110.5449383976218,7,9,-1.0993878841400146,3.7368218898773193,9.654945351947664,8.9441407316777,38.32729717489164,32.87478492511087,-0.0001618862152099,0.0914954170584678,0,0,0
3187,106323.60599594389,2010-09-01 19:02:00,1140.5600683919922,7,9,-1.099568486213684,3.7321271896362314,9.654945351947664,8.953308068773438,38.32729717489164,32.90901962238485,-6.47544875391759e-05,0.0914954170584678,0,0,0
3188,106353.62126577174,2010-09-01 19:02:30,1170.575338214859,7,9,-1.099568486213684,3.7271087169647217,9.654945351947664,8.962475379651844,38.32729717489164,32.94320911900627,-0.0001295089750783,0.0914954170584678,0,0,0
3189,106383.63632398724,2010-09-01 19:03:00,1200.5903965055213,7,9,-1.099568486213684,3.722252130508423,9.654945351947664,8.971642671699817,38.32729717489164,32.97735419824179,-0.0001295089750783,0.0914954170584678,0,0,0
3190,106413.65144993152,2010-09-01 19:03:30,1230.6055223746107,7,9,-1.0993878841400146,3.717719316482544,9.654945351947664,8.980810057778319,38.32729717489164,33.01145585521871,-9.713172767078504e-05,0.0914954170584678,0,0,0
3191,106443.66659658238,2010-09-01 19:04:00,1260.6206690154693,7,9,-1.099568486213684,3.712862730026245,9.654945351947664,8.98997739902308,38.32729717489164,33.04551435083103,-9.713172767078504e-05,0.0914954170584678,0,0,0
3192,106473.6817563259,2010-09-01 19:04:30,1290.635828758984,7,9,-1.099568486213684,3.708168029785156,9.654945351947664,8.999144727055667,38.32729717489164,33.07953009763658,-0.0001295089750783,0.0914954170584678,0,0,0
3193,106503.69692484126,2010-09-01 19:05:00,1320.6509972743606,7,9,-1.099568486213684,3.7037971019744873,9.654945351947664,9.008312082953546,38.32729717489164,33.11350444172648,-0.0001295089750783,0.0914954170584678,0,0,0
3194,106533.71204909132,2010-09-01 19:05:30,1350.6661215244148,7,9,-1.099568486213684,3.699264287948608,9.654945351947664,9.017479457399924,38.32729717489164,33.14743790101132,-0.0001295089750783,0.0914954170584678,0,0,0
3195,106563.72719867452,2010-09-01 19:06:00,1380.6812711076066,7,9,-1.099568486213684,3.69489336013794,9.654945351947664,9.026646837242271,38.32729717489164,33.18133072331453,-0.0001295089750783,0.0914954170584678,0,0,0
3196,106593.74236171626,2010-09-01 19:06:30,1410.696434154354,7,9,-1.0993878841400146,3.6905224323272714,9.654945351947664,9.03581425985894,38.32729717489164,33.21518357543779,-9.713172767078504e-05,0.0914954170584678,0,0,0
3197,106623.75753244715,2010-09-01 19:07:00,1440.71160488024,7,9,-1.0993878841400146,3.6864752769470215,9.654945351947664,9.044981518637458,38.32729717489164,33.24899627477433,-6.47544875391759e-05,0.0914954170584678,0,0,0
3198,106653.7726577799,2010-09-01 19:07:30,1470.7267302230173,7,9,-1.099568486213684,3.682104349136353,9.654945351947664,9.054148867674698,38.32729717489164,33.282770756304224,-0.0001295089750783,0.0914954170584678,0,0,0
3199,106683.78767993048,2010-09-01 19:08:00,1500.7417523585707,7,9,-1.0993878841400146,3.678057193756104,9.654945351947664,9.063316178295908,38.32729717489164,33.31650687491176,-9.713172767078504e-05,0.0914954170584678,0,0,0
3200,106713.80310394766,2010-09-01 19:08:30,1530.757176380749,7,9,-1.0993878841400146,3.6740100383758554,9.654945351947664,9.072482866665744,38.32729717489164,33.350203513453785,-9.713172767078504e-05,0.0914954170584678,0,0,0
3201,106743.81811426875,2010-09-01 19:09:00,1560.7721867068694,7,9,-1.099568486213684,3.669801235198975,9.654945351947664,9.081649474320264,38.32729717489164,33.38386301586395,-0.0001295089750783,0.0914954170584678,0,0,0
3202,106773.8333813147,2010-09-01 19:09:30,1590.787453747802,7,9,-1.099568486213684,3.6660778522491455,9.654945351947664,9.090816116882475,38.32729717489164,33.41748603511948,-9.713172767078504e-05,0.0914954170584678,0,0,0
3203,106803.84840778109,2010-09-01 19:10:00,1620.8024802191617,7,9,-1.0993878841400146,3.6621925830841056,9.654945351947664,9.099982613667494,38.32729717489164,33.45107253293564,-6.47544875391759e-05,0.0914954170584678,0,0,0
3204,106833.8636901552,2010-09-01 19:10:30,1650.817762588297,7,9,-1.099568486213684,3.6583073139190674,9.654945351947664,9.10915000405318,38.32729717489164,33.48462696024217,-9.713172767078504e-05,0.0914954170584678,0,0,0
3205,106863.88206853054,2010-09-01 19:11:00,1680.83614101877,7,9,-1.099568486213684,3.6545839309692383,9.654945351947664,9.118318274349884,38.32729717489164,33.518149915313046,-9.713172767078504e-05,0.0914954170584678,0,0,0
3206,106893.89392763788,2010-09-01 19:11:30,1710.8480000759585,7,9,-1.0993878841400146,3.650860548019409,9.654945351947664,9.127484496260315,38.32729717489164,33.551631016761014,-9.713172767078504e-05,0.0914954170584678,0,0,0
3207,106923.90908340648,2010-09-01 19:12:00,1740.8631558445663,7,9,-1.099568486213684,3.64713716506958,9.654945351947664,9.136651824970762,38.32729717489164,33.58508255272377,-9.713172767078504e-05,0.0914954170584678,0,0,0
3208,106953.9243059916,2010-09-01 19:12:30,1770.8783784246891,7,9,-1.0993878841400146,3.643737554550171,9.654945351947664,9.145819041795985,38.32729717489164,33.6185004809842,-6.47544875391759e-05,0.0914954170584678,0,0,0
3209,106983.93978112616,2010-09-01 19:13:00,1800.8938535843176,7,9,-1.0993878841400146,3.640176057815552,9.654945351947664,9.154986333811658,38.32729717489164,33.65188672220978,-6.47544875391759e-05,0.0914954170584678,0,0,0
3210,107013.95449220648,2010-09-01 19:13:30,1830.9085646546007,7,9,-1.099568486213684,3.6366145610809326,9.654945351947664,9.164153444180466,38.32729717489164,33.6852406123668,-9.713172767078504e-05,0.0914954170584678,0,0,0
3211,107043.969651549,2010-09-01 19:14:00,1860.9237239820784,7,9,-1.099568486213684,3.633376836776733,9.654945351947664,9.173320729733296,38.32729717489164,33.718564163691674,-9.713172767078504e-05,0.0914954170584678,0,0,0
3212,107073.98482282626,2010-09-01 19:14:30,1890.938895274376,7,9,-1.0997490882873535,3.630139112472534,9.654945351947664,9.182488041503795,38.32729717489164,33.751857680109204,-9.713172767078504e-05,0.0914954170584678,0,0,0
3213,107103.9999771262,2010-09-01 19:15:00,1920.954050426448,7,9,-1.099568486213684,3.627063274383545,9.654945351947664,9.1916553137756,38.32729717489164,33.78512175394009,-6.47544875391759e-05,0.0914954170584678,0,0,0
3214,107134.01510768196,2010-09-01 19:15:30,1950.9691801401184,7,9,-1.099568486213684,3.6238255500793457,9.654945351947664,9.200822574227743,38.32729717489164,33.81835668843419,-9.713172767078504e-05,0.0914954170584678,0,0,0
3215,107164.03023061376,2010-09-01 19:16:00,1980.9843030518368,7,9,-1.0993878841400146,3.620749711990357,9.654945351947664,9.209989861389786,38.32729717489164,33.85156362427088,-9.713172767078504e-05,0.0914954170584678,0,0,0
3216,107194.045381024,2010-09-01 19:16:30,2010.99945348214,7,9,-1.099568486213684,3.617835760116577,9.654945351947664,9.219157160301192,38.32729717489164,33.88474313075884,-9.713172767078504e-05,0.0914954170584678,0,0,0
3217,107224.0605442963,2010-09-01 19:17:00,2041.0146167243747,7,9,-1.0993878841400146,3.614921808242798,9.654945351947664,9.228324464030482,38.32729717489164,33.91789514098766,-3.237724376958795e-05,0.0914954170584678,0,0,0
3218,107254.07568266656,2010-09-01 19:17:30,2071.0297551046456,7,9,-1.0993878841400146,3.6120078563690186,9.654945351947664,9.23749172585009,38.32729717489164,33.951020104484364,-9.713172767078504e-05,0.0914954170584678,0,0,0
3219,107284.09083116704,2010-09-01 19:18:00,2101.0449036001264,7,9,-1.099568486213684,3.6090939044952393,9.654945351947664,9.246659063239443,38.32729717489164,33.9841188474065,-9.713172767078504e-05,0.0914954170584678,0,0,0
3220,107314.10598781284,2010-09-01 19:18:30,2131.060060250933,7,9,-1.0997490882873535,3.60617995262146,9.654945351947664,9.255826380947836,38.32729717489164,34.017191621263486,-9.713172767078504e-05,0.0914954170584678,0,0,0
3221,107344.12115898484,2010-09-01 19:19:00,2161.0752314179185,7,9,-1.0997490882873535,3.60342788696289,9.654945351947664,9.264993598805924,38.32729717489164,34.05023848422435,-9.713172767078504e-05,0.0914954170584678,0,0,0
3222,107374.13628088904,2010-09-01 19:19:30,2191.0903533171136,7,9,-1.0993878841400146,3.6006758213043213,9.654945351947664,9.274160919432186,38.32729717489164,34.08326051194797,-9.713172767078504e-05,0.0914954170584678,0,0,0
3223,107404.1514332642,2010-09-01 19:20:00,2221.1055056972764,7,9,-1.099568486213684,3.598085641860962,9.654945351947664,9.283328201548812,38.32729717489164,34.116257088673166,-6.47544875391759e-05,0.0914954170584678,0,0,0
3224,107434.16657780982,2010-09-01 19:20:30,2251.120650242913,7,9,-1.0993878841400146,3.5951716899871826,9.654945351947664,9.292495526734,38.32729717489164,34.149228467586575,-6.47544875391759e-05,0.0914954170584678,0,0,0
3225,107464.18173995432,2010-09-01 19:21:00,2281.135812377386,7,9,-1.0997490882873535,3.5924196243286133,9.654945351947664,9.301662792573978,38.32729717489164,34.182174440933444,-0.0001295089750783,0.0914954170584678,0,0,0
3226,107494.19687726191,2010-09-01 19:21:30,2311.150949725084,7,9,-1.0993878841400146,3.589667797088623,9.654945351947664,9.310830147513514,38.32729717489164,34.21509548219443,-0.0001295089750783,0.0914954170584678,0,0,0
3227,107524.21202792782,2010-09-01 19:22:00,2341.166100365912,7,9,-1.099568486213684,3.587077617645264,9.654945351947664,9.319997461220783,38.32729717489164,34.247991166363654,-6.47544875391759e-05,0.0914954170584678,0,0,0
3228,107554.22719530034,2010-09-01 19:22:30,2371.1812677434527,7,9,-1.099568486213684,3.5841636657714844,9.654945351947664,9.329164787746883,38.32729717489164,34.28086168009225,-9.713172767078504e-05,0.0914954170584678,0,0,0
3229,107584.24234442238,2010-09-01 19:23:00,2401.1964168454456,7,9,-1.0997490882873535,3.581249713897705,9.654945351947664,9.33833200973854,38.32729717489164,34.31370642605731,-0.0001295089750783,0.0914954170584678,0,0,0
3230,107614.25747987034,2010-09-01 19:23:31,2431.211552308446,7,9,-1.0993878841400146,3.5786595344543457,9.654945351947664,9.347499258486849,38.32729717489164,34.34652552510639,-6.47544875391759e-05,0.0914954170584678,0,0,0
3231,107644.27289980232,2010-09-01 19:24:01,2461.226972255467,7,9,-1.099568486213684,3.5755836963653564,9.654945351947664,9.35666670730768,38.32729717489164,34.379319102977384,-9.713172767078504e-05,0.0914954170584678,0,0,0
3232,107674.28790380768,2010-09-01 19:24:31,2491.241976265848,7,9,-1.099568486213684,3.572831630706787,9.654945351947664,9.365834014672686,38.32729717489164,34.4120854318113,-6.47544875391759e-05,0.0914954170584678,0,0,0
3233,107704.30294926638,2010-09-01 19:25:01,2521.2570216994663,7,9,-1.0993878841400146,3.569755792617798,9.654945351947664,9.375001353575644,38.32729717489164,34.44482466040752,-9.713172767078504e-05,0.0914954170584678,0,0,0
3234,107734.31819600172,2010-09-01 19:25:31,2551.272268464866,7,9,-1.0997490882873535,3.5666799545288086,9.654945351947664,9.384169047485578,38.32729717489164,34.47753740738825,-9.713172767078504e-05,0.0914954170584678,0,0,0
3235,107764.33323661832,2010-09-01 19:26:01,2581.287309071455,7,9,-1.0993878841400146,3.5634422302246094,9.654945351947664,9.393337135694152,38.32729717489164,34.51022287852993,-0.0001295089750783,0.0914954170584678,0,0,0
3236,107794.34839733929,2010-09-01 19:26:31,2611.3024697873934,7,9,-1.0993878841400146,3.56052827835083,9.654945351947664,9.402504869111828,38.32729717489164,34.54287897482634,-6.47544875391759e-05,0.0914954170584678,0,0,0
3237,107824.36376637942,2010-09-01 19:27:01,2641.317838812502,7,9,-1.099568486213684,3.557290554046631,9.654945351947664,9.411672345037044,38.32729717489164,34.57550492423761,-9.713172767078504e-05,0.0914954170584678,0,0,0
3238,107854.3787055883,2010-09-01 19:27:31,2671.332778011352,7,9,-1.099568486213684,3.5538909435272217,9.654945351947664,9.420839630435086,38.32729717489164,34.60809961786864,-6.47544875391759e-05,0.0914954170584678,0,0,0
3239,107884.39386794332,2010-09-01 19:28:01,2701.3479403763995,7,9,-1.0993878841400146,3.5504913330078125,9.654945351947664,9.430006951922534,38.32729717489164,34.64066327336287,-9.713172767078504e-05,0.0914954170584678,0,0,0
3240,107914.40912109464,2010-09-01 19:28:31,2731.363193532728,7,9,-1.099568486213684,3.5467679500579834,9.654945351947664,9.43917435669834,38.32729717489164,34.673195174935586,-9.713172767078504e-05,0.0914954170584678,0,0,0
3241,107944.42421355544,2010-09-01 19:29:01,2761.3782860687406,7,9,-1.099568486213684,3.5432064533233643,9.654945351947664,9.448341682031252,38.32729717489164,34.70569353718564,-9.713172767078504e-05,0.0914954170584678,0,0,0
3242,107974.43938742417,2010-09-01 19:29:31,2791.3934599725467,7,9,-1.0993878841400146,3.539483070373535,9.654945351947664,9.457509008255382,38.32729717489164,34.738157766201525,-9.713172767078504e-05,0.0914954170584678,0,0,0
3243,108004.45444985016,2010-09-01 19:30:01,2821.408522313304,7,9,-1.099568486213684,3.535597801208496,9.654945351947664,9.466676354074512,38.32729717489164,34.77058693620451,-6.47544875391759e-05,0.0914954170584678,0,0,0
3244,108034.46961829536,2010-09-01 19:30:31,2851.423690758506,7,9,-1.099568486213684,3.531388759613037,9.654945351947664,9.475843693849097,38.32729717489164,34.802979471586085,-0.0001295089750783,0.0914954170584678,0,0,0
3245,108064.48476040491,2010-09-01 19:31:01,2881.438832837996,7,9,-1.0993878841400146,3.527179718017578,9.654945351947664,9.485011061698955,38.32729717489164,34.83533415529778,-0.0001295089750783,0.0914954170584678,0,0,0
3246,108094.4999177374,2010-09-01 19:31:31,2911.4539902005768,7,9,-1.099568486213684,3.522808790206909,9.654945351947664,9.494178500146877,38.32729717489164,34.86764978291887,-9.713172767078504e-05,0.0914954170584678,0,0,0
3247,108124.51504209272,2010-09-01 19:32:01,2941.4691145458683,7,9,-1.099568486213684,3.5182759761810303,9.654945351947664,9.50334580747706,38.32729717489164,34.89992444489203,-0.0001618862152099,0.0914954170584678,0,0,0
3248,108154.53019001176,2010-09-01 19:32:31,2971.484262469925,7,9,-1.099568486213684,3.513743162155152,9.654945351947664,9.51251315866425,38.32729717489164,34.93215731142207,-0.0001295089750783,0.0914954170584678,0,0,0
3249,108184.54537806586,2010-09-01 19:33:01,3001.499450529011,7,9,-1.0997490882873535,3.508886814117432,9.654945351947664,9.521680563413716,38.32729717489164,34.96434692875939,-0.0001295089750783,0.0914954170584678,0,0,0
3250,108214.56048435112,2010-09-01 19:33:31,3031.5145567892287,7,9,-1.099568486213684,3.503706455230713,9.654945351947664,9.530847985449403,38.32729717489164,34.99649094086667,-0.0001295089750783,0.0914954170584678,0,0,0
3251,108244.57563991424,2010-09-01 19:34:01,3061.529712357337,7,9,-1.099568486213684,3.498364210128784,9.654945351947664,9.540015417915564,38.32729717489164,35.028586374590354,-0.0001295089750783,0.0914954170584678,0,0,0
3252,108274.59091143632,2010-09-01 19:34:31,3091.544983894475,7,9,-1.099568486213684,3.492374420166016,9.654945351947664,9.549182871554,38.32729717489164,35.060630000207176,-0.0001618862152099,0.0914954170584678,0,0,0
3253,108304.60596914052,2010-09-01 19:35:01,3121.560041558577,7,9,-1.099568486213684,3.4857370853424072,9.654945351947664,9.558350259682504,38.32729717489164,35.09261623369639,-0.0001942634553415,0.0914954170584678,0,0,0
3254,108334.62109247832,2010-09-01 19:35:31,3151.5751649063823,7,9,-1.099568486213684,3.478290319442749,9.654945351947664,9.567517651269506,38.32729717489164,35.12453870916759,-0.0001942634553415,0.0914954170584678,0,0,0
3255,108364.63623706906,2010-09-01 19:36:01,3181.5903095322187,7,9,-1.099568486213684,3.470034122467041,9.654945351947664,9.5766849887722,38.32729717489164,35.15638898423839,-0.0002266406954731,0.0914954170584678,0,0,0
3256,108394.65141612069,2010-09-01 19:36:31,3211.60548855378,7,9,-1.0993878841400146,3.460806608200073,9.654945351947664,9.585852393791724,38.32729717489164,35.18815814505757,-0.0002266406954731,0.0914954170584678,0,0,0
3257,108424.6665496188,2010-09-01 19:37:01,3241.620622051883,7,9,-1.0993878841400146,3.449474573135376,9.654945351947664,9.595019752154988,38.32729717489164,35.21983209759805,-0.0002913951757363,0.0914954170584678,0,0,0
3258,108454.68169101156,2010-09-01 19:37:31,3271.635763444662,7,9,-1.099568486213684,3.4357142448425293,9.654945351947664,9.604187149387997,38.32729717489164,35.25139270613659,-0.0003885269106831,0.0914954170584678,0,0,0
3259,108484.69684700073,2010-09-01 19:38:01,3301.65091943382,7,9,-1.0993878841400146,3.4182307720184326,9.654945351947664,9.613354628169889,38.32729717489164,35.28281233806114,-0.0005180359003134,0.0914954170584678,0,0,0
3260,108514.71198691484,2010-09-01 19:38:31,3331.6660593378883,7,9,-1.0993878841400146,3.395404815673828,9.654945351947664,9.622522104650166,38.32729717489164,35.31404933716166,-0.0006475448608398,0.0914954170584678,0,0,0
3261,108544.72715850286,2010-09-01 19:39:01,3361.681230935948,7,9,-1.099568486213684,3.363189458847046,9.654945351947664,9.631689502187774,38.32729717489164,35.34503667643945,-0.0009713172912597,0.0914954170584678,0,0,0
3262,108574.74229407113,2010-09-01 19:39:31,3391.696366519248,7,9,-1.099568486213684,3.316728353500366,9.654945351947664,9.640856940577535,38.32729717489164,35.37566858009785,-0.0014245987404137,0.0914954170584678,0,0,0
3263,108604.75745539356,2010-09-01 19:40:01,3421.7115278517226,7,9,-1.0993878841400146,3.248574495315552,9.654945351947664,9.650024298370564,38.32729717489164,35.405781445113526,-0.0021045207977294,0.0914954170584678,0,0,0
3264,108634.77259676128,2010-09-01 19:40:31,3451.7266691943764,7,9,-1.0993878841400146,3.1462626457214355,9.654945351947664,9.659191721317304,38.32729717489164,35.43512615751288,-0.0032377243041992,0.0914954170584678,0,0,0
3265,108664.78775769276,2010-09-01 19:41:01,3481.7418301308644,7,9,-1.099568486213684,2.9782252311706543,9.654945351947664,9.668359172832,38.32729717489164,35.463276373768,-0.0058279037475585,0.0914954170584678,0,0,0
3266,108683.5687175134,2010-09-01 19:41:20,3500.522789941469,7,9,-1.0993878841400146,2.77781081199646,9.654945351947664,9.67409533852256,38.32729717489164,35.47984672015676,-0.0108139514923095,0.0914954170584678,0,0,0
3267,108688.55299284616,2010-09-01 19:41:25,3505.507065304297,7,9,-1.099568486213684,2.699943780899048,9.654945351947664,9.675617666805044,38.32729717489164,35.48401753845903,-0.0126270772889256,0.0914954170584678,0,0,0
3268,108748.5676750258,2010-09-01 19:42:25,60.01462187374688,8,9,0.0,3.362218141555786,9.654945351947664,9.675617666805044,38.32729717489164,35.48401753845903,0.0010360718006268,0.0914954170584678,0,0,0
3269,108748.75613314,2010-09-01 19:42:25,0.18744047934853,9,9,-1.9243103452026844e-05,3.362380027770996,9.654945351947664,9.675617667806971,38.32729717489164,35.48401754182789,0.0,0.0867155864834785,0,0,0
3270,108753.58429912022,2010-09-01 19:42:30,5.015606464573244,9,9,0.0007031940040178,3.3683698177337646,9.654946259914045,9.675617667974048,38.32730023101426,35.48401754238967,0.0008741855854168,0.0867155864834785,0,0,0
