Data_Point,Test_Time(s),Date_Time,Step_Time(s),Step_Index,Cycle_Index,Current(A),Voltage(V),Charge_Capacity(Ah),Discharge_Capacity(Ah),Charge_Energy(Wh),Discharge_Energy(Wh),dV/dt(V/s),Internal_Resistance(Ohm),Is_FC_Data,AC_Impedance(Ohm),ACI_Phase_Angle(Deg)
12813,433827.9242058383,2010-09-05 14:00:58,30.01515994401431,1,37,0.0,3.465177536010742,37.928296614848456,37.91157227953544,150.94871090649383,138.7808012697552,0.0006475448608398,0.0873680263757705,0,0,0
12814,433857.9394009801,2010-09-05 14:01:28,60.03035509577717,1,37,0.0,3.485898971557617,37.928296614848456,37.91157227953544,150.94871090649383,138.7808012697552,0.0004532813909463,0.0873680263757705,0,0,0
12815,433887.9545526034,2010-09-05 14:01:58,90.04550670902866,1,37,0.0,3.500630617141724,37.928296614848456,37.91157227953544,150.94871090649383,138.7808012697552,0.0003561496851034,0.0873680263757705,0,0,0
12816,433917.92284397146,2010-09-05 14:02:28,120.01379807713067,1,37,0.0,3.511800527572632,37.928296614848456,37.91157227953544,150.94871090649383,138.7808012697552,0.0002265930233988,0.0873680263757705,0,0,0
12817,433947.93197637534,2010-09-05 14:02:58,30.015187658086305,2,37,0.5501165986061096,3.638395309448242,37.93288322589745,37.91157227953544,150.9652754583796,138.7808012697552,0.0012303352123126,0.0873680263757705,0,0,0
12818,433977.9471394322,2010-09-05 14:03:28,60.03035068979611,2,37,0.5501165986061096,3.6746575832366943,37.93746974198071,37.91157227953544,150.98205126255925,138.7808012697552,0.0008093834039755,0.0873680263757705,0,0,0
12819,434007.962382794,2010-09-05 14:03:58,90.04559414193838,2,37,0.550297200679779,3.701530694961548,37.94205632036676,37.91157227953544,150.99896940950555,138.7808012697552,0.0006799221155233,0.0873680263757705,0,0,0
12820,434037.977633815,2010-09-05 14:04:28,120.0608450727197,2,37,0.5501165986061096,3.7225759029388423,37.94664286021988,37.91157227953544,151.0159964000532,138.7808012697552,0.0005180359003134,0.0873680263757705,0,0,0
12821,434067.99276559387,2010-09-05 14:04:58,150.07597686156268,2,37,0.5499359965324402,3.738926410675049,37.95122937876357,37.91157227953544,151.03310934805089,138.7808012697552,0.0003561496851034,0.0873680263757705,0,0,0
12822,434098.0078278194,2010-09-05 14:05:28,180.0910390820198,2,37,0.5501165986061096,3.751067876815796,37.9558159018651,37.91157227953544,151.05028788560375,138.7808012697552,0.0002590179501567,0.0873680263757705,0,0,0
12823,434128.0229873122,2010-09-05 14:05:58,210.1061985698973,2,37,0.5501165986061096,3.758352518081665,37.9604023460148,37.91157227953544,151.06751047708983,138.7808012697552,0.0001295089750783,0.0873680263757705,0,0,0
12824,434158.03817459947,2010-09-05 14:06:28,240.1213858821216,2,37,0.5501165986061096,3.763370990753174,37.96498886049691,37.91157227953544,151.0847602392602,138.7808012697552,0.0001295089750783,0.0873680263757705,0,0,0
12825,434188.0533210297,2010-09-05 14:06:58,270.13653228739315,2,37,0.5501165986061096,3.766770601272583,37.96957532489758,37.91157227953544,151.1020282720612,138.7808012697552,9.713172767078504e-05,0.0873680263757705,0,0,0
12826,434218.0712983756,2010-09-05 14:07:28,300.15450963825225,2,37,0.5501165986061096,3.7700083255767822,37.97416235954872,37.91157227953544,151.11931410356274,138.7808012697552,6.47544875391759e-05,0.0873680263757705,0,0,0
12827,434248.0836699651,2010-09-05 14:07:59,330.16688122281687,2,37,0.5499359965324402,3.773246049880981,37.97874840615347,37.91157227953544,151.13661088473555,138.7808012697552,9.713172767078504e-05,0.0873680263757705,0,0,0
12828,434278.0992496503,2010-09-05 14:08:29,360.18246091798017,2,37,0.5501165986061096,3.7764837741851807,37.98333501064856,37.91157227953544,151.1539243228424,138.7808012697552,0.0001295089750783,0.0873680263757705,0,0,0
12829,434308.1141688944,2010-09-05 14:08:59,390.1973801570838,2,37,0.5501165986061096,3.77939772605896,37.98792151106565,37.91157227953544,151.1712518804878,138.7808012697552,6.47544875391759e-05,0.0873680263757705,0,0,0
12830,434338.1292061677,2010-09-05 14:09:29,420.2124174253525,2,37,0.5501165986061096,3.782635450363159,37.99250803680948,37.91157227953544,151.18859393001267,138.7808012697552,6.47544875391759e-05,0.0873680263757705,0,0,0
12831,434368.1443824424,2010-09-05 14:09:59,450.2275937251303,2,37,0.5499359965324402,3.785711288452149,37.99709452430118,37.91157227953544,151.20595012745923,138.7808012697552,6.47544875391759e-05,0.0873680263757705,0,0,0
12832,434398.1595354692,2010-09-05 14:10:29,480.2427467368673,2,37,0.5501165986061096,3.7887871265411377,38.00168100572361,37.91157227953544,151.22332042273763,138.7808012697552,6.47544875391759e-05,0.0873680263757705,0,0,0
12833,434428.174699739,2010-09-05 14:10:59,510.25791099663775,2,37,0.5501165986061096,3.792024850845337,38.00626754751436,37.91157227953544,151.2407050541303,138.7808012697552,0.0001295089750783,0.0873680263757705,0,0,0
12834,434458.18989179307,2010-09-05 14:11:29,540.2731030506801,2,37,0.5501165986061096,3.794938802719116,38.01085413090296,37.91157227953544,151.2581038272656,138.7808012697552,9.713172767078504e-05,0.0873680263757705,0,0,0
12835,434488.2050400128,2010-09-05 14:11:59,570.2882512754866,2,37,0.5501165986061096,3.797852754592896,38.01544069783542,37.91157227953544,151.2755164986643,138.7808012697552,3.237724376958795e-05,0.0873680263757705,0,0,0
12836,434518.220217696,2010-09-05 14:12:29,600.3034289587125,2,37,0.5501165986061096,3.8009285926818848,38.02002732003455,37.91157227953544,151.2929433958817,138.7808012697552,6.47544875391759e-05,0.0873680263757705,0,0,0
12837,434548.2355101854,2010-09-05 14:12:59,630.318721443058,2,37,0.5499359965324402,3.804166316986084,38.02461394458614,37.91157227953544,151.31038430751835,138.7808012697552,6.47544875391759e-05,0.0873680263757705,0,0,0
12838,434578.2507834719,2010-09-05 14:13:29,660.3339947295567,2,37,0.550297200679779,3.807242155075073,38.02920049447815,37.91157227953544,151.32783915335293,138.7808012697552,0.0001295089750783,0.0873680263757705,0,0,0
12839,434608.2657417683,2010-09-05 14:13:59,690.3489530260033,2,37,0.5501165986061096,3.810479879379273,38.03378702335576,37.91157227953544,151.34530845386985,138.7808012697552,9.713172767078504e-05,0.0873680263757705,0,0,0
12840,434638.2809165894,2010-09-05 14:14:29,720.3641278470958,2,37,0.5501165986061096,3.8138794898986816,38.038373629279874,37.91157227953544,151.3627930715047,138.7808012697552,9.713172767078504e-05,0.0873680263757705,0,0,0
12841,434668.296076388,2010-09-05 14:14:59,750.3792876407354,2,37,0.5501165986061096,3.817279100418091,38.04296017854326,37.91157227953544,151.38029301490414,138.7808012697552,9.713172767078504e-05,0.0873680263757705,0,0,0
12842,434698.3112607278,2010-09-05 14:15:29,780.394471985564,2,37,0.5501165986061096,3.8206787109375,38.047546695863865,37.91157227953544,151.3978084473863,138.7808012697552,9.713172767078504e-05,0.0873680263757705,0,0,0
12843,434728.32639252674,2010-09-05 14:15:59,810.4096038145069,2,37,0.5501165986061096,3.824078321456909,38.05213323500836,37.91157227953544,151.41533992850958,138.7808012697552,9.713172767078504e-05,0.0873680263757705,0,0,0
12844,434758.34179220325,2010-09-05 14:16:29,840.4250035712082,2,37,0.5501165986061096,3.827639818191528,38.05671981456407,37.91157227953544,151.43288767899347,138.7808012697552,9.713172767078504e-05,0.0873680263757705,0,0,0
12845,434788.3569425033,2010-09-05 14:16:59,870.4401537709366,2,37,0.5501165986061096,3.831201314926148,38.06130634250396,37.91157227953544,151.45045138567252,138.7808012697552,9.713172767078504e-05,0.0873680263757705,0,0,0
12846,434818.3719901724,2010-09-05 14:17:29,900.4552014351152,2,37,0.5501165986061096,3.8346006870269775,38.065892857978135,37.91157227953544,151.46803106581416,138.7808012697552,6.47544875391759e-05,0.0873680263757705,0,0,0
12847,434848.3871448483,2010-09-05 14:17:59,930.4703561059872,2,37,0.5501165986061096,3.8380002975463863,38.07047932724431,37.91157227953544,151.48562639368183,138.7808012697552,9.713172767078504e-05,0.0873680263757705,0,0,0
12848,434878.4023305766,2010-09-05 14:18:29,960.4855418392764,2,37,0.5501165986061096,3.841399908065796,38.07506589160244,37.91157227953544,151.50323764866522,138.7808012697552,6.47544875391759e-05,0.0873680263757705,0,0,0
12849,434908.4174934028,2010-09-05 14:18:59,990.5007046604616,2,37,0.5499359965324402,3.844475746154785,38.07965244805412,37.91157227953544,151.5208640670356,138.7808012697552,6.47544875391759e-05,0.0873680263757705,0,0,0
12850,434938.4326670711,2010-09-05 14:19:29,1020.5158783336932,2,37,0.5501165986061096,3.8478753566741934,38.08423898771897,37.91157227953544,151.5385053150517,138.7808012697552,6.47544875391759e-05,0.0873680263757705,0,0,0
12851,434968.4477946643,2010-09-05 14:19:59,1050.53100594713,2,37,0.550297200679779,3.8511130809783936,38.08882548859463,37.91157227953544,151.5561609826661,138.7808012697552,6.47544875391759e-05,0.0873680263757705,0,0,0
12852,434998.4631268728,2010-09-05 14:20:29,1080.5463381604925,2,37,0.5501165986061096,3.854188919067383,38.0934120688456,37.91157227953544,151.57383125122266,138.7808012697552,9.713172767078504e-05,0.0873680263757705,0,0,0
12853,435028.478271233,2010-09-05 14:20:59,1110.561482490592,2,37,0.5499359965324402,3.856940984725952,38.09799861745942,37.91157227953544,151.59151533659443,138.7808012697552,6.47544875391759e-05,0.0873680263757705,0,0,0
12854,435058.49332338327,2010-09-05 14:21:29,1140.5765346559888,2,37,0.5499359965324402,3.859854936599731,38.10258508848995,37.91157227953544,151.60921255214046,138.7808012697552,3.237724376958795e-05,0.0873680263757705,0,0,0
12855,435088.508493277,2010-09-05 14:21:59,1170.5917045347635,2,37,0.550297200679779,3.862768888473511,38.107171626096346,37.91157227953544,151.6269229307391,138.7808012697552,6.47544875391759e-05,0.0873680263757705,0,0,0
12856,435118.5236651008,2010-09-05 14:22:29,1200.6068763583855,2,37,0.5501165986061096,3.86535906791687,38.11175815325283,37.91157227953544,151.64464550745888,138.7808012697552,6.47544875391759e-05,0.0873680263757705,0,0,0
12857,435148.5388408842,2010-09-05 14:22:59,1230.6220521468892,2,37,0.550297200679779,3.86778736114502,38.11634464491882,37.91157227953544,151.66237956231382,138.7808012697552,6.47544875391759e-05,0.0873680263757705,0,0,0
12858,435178.5540339057,2010-09-05 14:23:29,1260.63724516333,2,37,0.5501165986061096,3.870053768157959,38.1209312127889,37.91157227953544,151.68012480239906,138.7808012697552,3.237724376958795e-05,0.0873680263757705,0,0,0
12859,435208.5691961955,2010-09-05 14:23:59,1290.6524074782535,2,37,0.5501165986061096,3.8723201751708975,38.12551773126077,37.91157227953544,151.69788002803736,138.7808012697552,9.713172767078504e-05,0.0873680263757705,0,0,0
12860,435238.58448429895,2010-09-05 14:24:29,1320.667695556618,2,37,0.5501165986061096,3.874262809753418,38.130104358570414,37.91157227953544,151.71564512635527,138.7808012697552,6.47544875391759e-05,0.0873680263757705,0,0,0
12861,435268.5997412799,2010-09-05 14:24:59,1350.682952537478,2,37,0.5499359965324402,3.876043558120728,38.13469093210118,37.91157227953544,151.73341866418707,138.7808012697552,0.0,0.0873680263757705,0,0,0
12862,435298.614711536,2010-09-05 14:25:29,1380.6979227887196,2,37,0.5501165986061096,3.877662420272827,38.13927749976724,37.91157227953544,151.75120025644685,138.7808012697552,3.237724376958795e-05,0.0873680263757705,0,0,0
12863,435328.6299185023,2010-09-05 14:25:59,1410.7131298451527,2,37,0.550297200679779,3.879281282424927,38.1438640359117,37.91157227953544,151.76898916407524,138.7808012697552,3.237724376958795e-05,0.0873680263757705,0,0,0
12864,435358.64504892775,2010-09-05 14:26:29,1440.7282601853851,2,37,0.5499359965324402,3.8805763721466064,38.14845059117474,37.91157227953544,151.78678490296397,138.7808012697552,-3.237724376958795e-05,0.0873680263757705,0,0,0
12865,435388.6602939388,2010-09-05 14:26:59,1470.7435051964126,2,37,0.5501165986061096,3.881871461868286,38.15303716813568,37.91157227953544,151.8045871854333,138.7808012697552,0.0,0.0873680263757705,0,0,0
12866,435418.6754076926,2010-09-05 14:27:29,1500.7586189954193,2,37,0.5499359965324402,3.883166551589966,38.15762368370998,37.91157227953544,151.8223951925577,138.7808012697552,0.0,0.0873680263757705,0,0,0
12867,435448.69061221776,2010-09-05 14:27:59,1530.7738234954809,2,37,0.5501165986061096,3.884623527526856,38.16221016468636,37.91157227953544,151.84020881296377,138.7808012697552,6.47544875391759e-05,0.0873680263757705,0,0,0
12868,435478.7058367126,2010-09-05 14:28:29,1560.7890479703262,2,37,0.550297200679779,3.885756731033325,38.16679666191317,37.91157227953544,151.85802784357065,138.7808012697552,3.237724376958795e-05,0.0873680263757705,0,0,0
12869,435508.7210204209,2010-09-05 14:28:59,1590.8042316835806,2,37,0.5501165986061096,3.886889934539795,38.17138321530778,37.91157227953544,151.87585251693162,138.7808012697552,6.47544875391759e-05,0.0873680263757705,0,0,0
12870,435538.7362757276,2010-09-05 14:29:29,1620.8194869902682,2,37,0.5501165986061096,3.8880231380462646,38.17596987511335,37.91157227953544,151.89368278563,138.7808012697552,3.237724376958795e-05,0.0873680263757705,0,0,0
12871,435568.7512507106,2010-09-05 14:29:59,1650.83446196829,2,37,0.5501165986061096,3.888994455337525,38.1805564353354,37.91157227953544,151.9115178237111,138.7808012697552,3.237724376958795e-05,0.0873680263757705,0,0,0
12872,435598.7664419727,2010-09-05 14:30:29,1680.8496532303589,2,37,0.5499359965324402,3.890127658843994,38.1851430610406,37.91157227953544,151.92935807714315,138.7808012697552,6.47544875391759e-05,0.0873680263757705,0,0,0
12873,435628.78161822737,2010-09-05 14:30:59,1710.8648295100868,2,37,0.5501165986061096,3.891260862350464,38.18972967193713,37.91157227953544,151.94720330133808,138.7808012697552,3.237724376958795e-05,0.0873680263757705,0,0,0
12874,435658.7967548282,2010-09-05 14:31:29,1740.87996608586,2,37,0.5501165986061096,3.8923940658569336,38.19431630018594,37.91157227953544,151.9650536231908,138.7808012697552,3.237724376958795e-05,0.0873680263757705,0,0,0
12875,435688.8119106519,2010-09-05 14:31:59,1770.8951219096057,2,37,0.5501165986061096,3.893365383148194,38.19890285612762,37.91157227953544,151.9829086073134,138.7808012697552,0.0,0.0873680263757705,0,0,0
12876,435718.8270813277,2010-09-05 14:32:29,1800.9102925853667,2,37,0.5501165986061096,3.894498586654663,38.203489524864445,37.91157227953544,152.0007690810889,138.7808012697552,0.0,0.0873680263757705,0,0,0
12877,435748.8422491613,2010-09-05 14:32:59,1830.9254604190444,2,37,0.5501165986061096,3.895469903945923,38.20807621114255,37.91157227953544,152.01863409663952,138.7808012697552,0.0,0.0873680263757705,0,0,0
12878,435778.8574492104,2010-09-05 14:33:29,1860.9406604780377,2,37,0.5501165986061096,3.8967649936676025,38.21266283850199,37.91157227953544,152.03650402738631,138.7808012697552,6.47544875391759e-05,0.0873680263757705,0,0,0
12879,435808.8727407674,2010-09-05 14:33:59,1890.9559520250475,2,37,0.5499359965324402,3.897574424743652,38.21724947912557,37.91157227953544,152.05437906834004,138.7808012697552,3.237724376958795e-05,0.0873680263757705,0,0,0
12880,435838.8877915844,2010-09-05 14:34:29,1920.9710028671457,2,37,0.5501165986061096,3.898869514465332,38.22183604734786,37.91157227953544,152.07225890271187,138.7808012697552,0.0,0.0873680263757705,0,0,0
12881,435868.9029297491,2010-09-05 14:34:59,1950.986141006817,2,37,0.550297200679779,3.9000027179718018,38.226422639868126,37.91157227953544,152.09014396045345,138.7808012697552,3.237724376958795e-05,0.0873680263757705,0,0,0
12882,435898.91811153264,2010-09-05 14:35:29,1981.0013227952743,2,37,0.5501165986061096,3.901135921478272,38.23100924647158,37.91157227953544,152.1080341332169,138.7808012697552,0.0,0.0873680263757705,0,0,0
12883,435928.933286489,2010-09-05 14:35:59,2011.016497746692,2,37,0.5499359965324402,3.9021072387695312,38.235595835736376,37.91157227953544,152.12592948355405,138.7808012697552,-3.237724376958795e-05,0.0873680263757705,0,0,0
12884,435958.9484764829,2010-09-05 14:36:29,2041.031687745612,2,37,0.5501165986061096,3.903240442276001,38.240182365288085,37.91157227953544,152.1438297841625,138.7808012697552,0.0,0.0873680263757705,0,0,0
12885,435988.9636156201,2010-09-05 14:36:59,2071.0468268777568,2,37,0.5501165986061096,3.90469741821289,38.24476893721232,37.91157227953544,152.16173556129235,138.7808012697552,6.47544875391759e-05,0.0873680263757705,0,0,0
12886,436018.9646952266,2010-09-05 14:37:29,2101.047906599525,2,37,0.5499359965324402,3.905506849288941,38.24935342106942,37.91157227953544,152.17963842538146,138.7808012697552,0.0,0.0873680263757705,0,0,0
12887,436048.978529652,2010-09-05 14:37:59,2131.061741044989,2,37,0.550297200679779,3.90712571144104,38.25393979647743,37.91157227953544,152.19755405198188,138.7808012697552,9.713172767078504e-05,0.0873680263757705,0,0,0
12888,436078.9935356774,2010-09-05 14:38:29,2161.076746935053,2,37,0.5501165986061096,3.9080970287323,38.25852628693155,37.91157227953544,152.215475575027,138.7808012697552,3.237724376958795e-05,0.0873680263757705,0,0,0
12889,436109.0086710652,2010-09-05 14:38:59,2191.091882322866,2,37,0.550297200679779,3.90939211845398,38.26311284796072,37.91157227953544,152.23340286750476,138.7808012697552,3.237724376958795e-05,0.0873680263757705,0,0,0
12890,436139.0238438763,2010-09-05 14:39:29,2221.107055133949,2,37,0.5501165986061096,3.910525321960449,38.2676994464336,37.91157227953544,152.25133589318094,138.7808012697552,3.237724376958795e-05,0.0873680263757705,0,0,0
12891,436169.041846069,2010-09-05 14:39:59,2251.125057326722,2,37,0.5501165986061096,3.911820411682129,38.27228651864484,37.91157227953544,152.26927637194947,138.7808012697552,3.237724376958795e-05,0.0873680263757705,0,0,0
12892,436199.0542343954,2010-09-05 14:40:30,2281.1374456780745,2,37,0.5501165986061096,3.912953615188599,38.27687269738458,37.91157227953544,152.28721907845218,138.7808012697552,6.47544875391759e-05,0.0873680263757705,0,0,0
12893,436229.0696299566,2010-09-05 14:41:00,2311.1528412192697,2,37,0.5501165986061096,3.914248466491699,38.28145932203101,37.91157227953544,152.30516922124488,138.7808012697552,6.47544875391759e-05,0.0873680263757705,0,0,0
12894,436259.08465224254,2010-09-05 14:41:30,2341.167863500185,2,37,0.5499359965324402,3.915543556213379,38.28604596290338,37.91157227953544,152.3231253289866,138.7808012697552,6.47544875391759e-05,0.0873680263757705,0,0,0
12895,436289.099699596,2010-09-05 14:42:00,2371.182910853589,2,37,0.5499359965324402,3.9166767597198486,38.29063256064152,37.91157227953544,152.34108693571602,138.7808012697552,3.237724376958795e-05,0.0873680263757705,0,0,0
12896,436319.11498292745,2010-09-05 14:42:30,2401.1981941851227,2,37,0.5501165986061096,3.9181337356567374,38.29521913732124,37.91157227953544,152.35905453754606,138.7808012697552,3.237724376958795e-05,0.0873680263757705,0,0,0
12897,436349.1300417595,2010-09-05 14:43:00,2431.213253017135,2,37,0.5501165986061096,3.919428825378418,38.29980567934893,37.91157227953544,152.37702796844184,138.7808012697552,6.47544875391759e-05,0.0873680263757705,0,0,0
12898,436379.1453479079,2010-09-05 14:43:30,2461.228559175561,2,37,0.5501165986061096,3.9207239151000977,38.30439232703473,37.91157227953544,152.39500791480137,138.7808012697552,3.237724376958795e-05,0.0873680263757705,0,0,0
12899,436409.1605342477,2010-09-05 14:44:00,2491.2437455053364,2,37,0.5501165986061096,3.922019004821777,38.308978961297925,37.91157227953544,152.41299385724358,138.7808012697552,3.237724376958795e-05,0.0873680263757705,0,0,0
12900,436439.175533035,2010-09-05 14:44:30,2521.258744292699,2,37,0.5501165986061096,3.923475980758667,38.31356549720192,37.91157227953544,152.4309856140617,138.7808012697552,3.237724376958795e-05,0.0873680263757705,0,0,0
12901,436469.1908343865,2010-09-05 14:45:00,2551.2740456541687,2,37,0.550297200679779,3.9247710704803462,38.318152128246126,37.91157227953544,152.44898398651478,138.7808012697552,0.0,0.0873680263757705,0,0,0
12902,436499.206003779,2010-09-05 14:45:30,2581.2892150316943,2,37,0.5499359965324402,3.9260661602020255,38.32273879877821,37.91157227953544,152.466988774904,138.7808012697552,3.237724376958795e-05,0.0873680263757705,0,0,0
12903,436529.2216088324,2010-09-05 14:46:00,2611.3048200900707,2,37,0.5501165986061096,3.927685022354126,38.32732552613169,37.91157227953544,152.48500004158092,138.7808012697552,6.47544875391759e-05,0.0873680263757705,0,0,0
12904,436559.236352539,2010-09-05 14:46:30,2641.3195637966933,2,37,0.5501165986061096,3.9289801120758057,38.33191213482025,37.91157227953544,152.50301729432886,138.7808012697552,3.237724376958795e-05,0.0873680263757705,0,0,0
12905,436589.2513896519,2010-09-05 14:47:00,2671.334600914587,2,37,0.5501165986061096,3.9304370880126953,38.33649877672448,37.91157227953544,152.5210411502572,138.7808012697552,6.47544875391759e-05,0.0873680263757705,0,0,0
12906,436619.26670657215,2010-09-05 14:47:30,2701.349917839847,2,37,0.5501165986061096,3.931732177734375,38.34108547969689,37.91157227953544,152.53907170245685,138.7808012697552,3.237724376958795e-05,0.0873680263757705,0,0,0
12907,436649.28186790965,2010-09-05 14:48:00,2731.365079167309,2,37,0.550297200679779,3.9331891536712646,38.3456721360954,37.91157227953544,152.5571086047991,138.7808012697552,6.47544875391759e-05,0.0873680263757705,0,0,0
12908,436679.29689158406,2010-09-05 14:48:30,2761.3801028416974,2,37,0.5501165986061096,3.9346461296081534,38.35025879287112,37.91157227953544,152.57515207451266,138.7808012697552,6.47544875391759e-05,0.0873680263757705,0,0,0
12909,436709.31206780864,2010-09-05 14:49:00,2791.3952790662884,2,37,0.5499359965324402,3.936103105545044,38.354845436823226,37.91157227953544,152.59320214338638,138.7808012697552,3.237724376958795e-05,0.0873680263757705,0,0,0
12910,436739.3272361486,2010-09-05 14:49:30,2821.410447406228,2,37,0.5499359965324402,3.937398195266724,38.35943209298998,37.91157227953544,152.61125878098707,138.7808012697552,3.237724376958795e-05,0.0873680263757705,0,0,0
12911,436769.3424326987,2010-09-05 14:50:00,2851.4256439614887,2,37,0.550297200679779,3.9390170574188232,38.36401878314146,37.91157227953544,152.6293223504074,138.7808012697552,3.237724376958795e-05,0.0873680263757705,0,0,0
12912,436799.3577056896,2010-09-05 14:50:30,2881.4409169472374,2,37,0.550297200679779,3.940635919570923,38.36860539389591,37.91157227953544,152.64739234793467,138.7808012697552,6.47544875391759e-05,0.0873680263757705,0,0,0
12913,436829.3727753837,2010-09-05 14:51:00,2911.455986641321,2,37,0.550297200679779,3.942092895507813,38.3731920640867,37.91157227953544,152.6654693918715,138.7808012697552,9.713172767078504e-05,0.0873680263757705,0,0,0
12914,436859.38792555325,2010-09-05 14:51:30,2941.471136810975,2,37,0.5501165986061096,3.943387985229492,38.37777867083092,37.91157227953544,152.6835530475571,138.7808012697552,3.237724376958795e-05,0.0873680263757705,0,0,0
12915,436889.4031010312,2010-09-05 14:52:00,2971.4863122887045,2,37,0.5501165986061096,3.945006847381592,38.38236527894161,37.91157227953544,152.70164364252477,138.7808012697552,3.237724376958795e-05,0.0873680263757705,0,0,0
12916,436919.418282649,2010-09-05 14:52:30,3001.501493906737,2,37,0.5499359965324402,3.946301937103272,38.38695192598867,37.91157227953544,152.71974141066588,138.7808012697552,0.0,0.0873680263757705,0,0,0
12917,436949.433438924,2010-09-05 14:53:00,3031.5166501816066,2,37,0.5501165986061096,3.948082685470581,38.39153851193537,37.91157227953544,152.73784580677523,138.7808012697552,3.237724376958795e-05,0.0873680263757705,0,0,0
12918,436979.44861458713,2010-09-05 14:53:30,3061.531825854823,2,37,0.550297200679779,3.949539661407471,38.396125092925246,37.91157227953544,152.7559573437019,138.7808012697552,3.237724376958795e-05,0.0873680263757705,0,0,0
12919,437009.46379316266,2010-09-05 14:54:00,3091.5470044202475,2,37,0.5501165986061096,3.95132040977478,38.40071163642266,37.91157227953544,152.7740759141301,138.7808012697552,9.713172767078504e-05,0.0873680263757705,0,0,0
12920,437039.4789650013,2010-09-05 14:54:30,3121.562176283969,2,37,0.5501165986061096,3.95261549949646,38.40529832733488,37.91157227953544,152.79220231436975,138.7808012697552,3.237724376958795e-05,0.0873680263757705,0,0,0
12921,437069.49424326513,2010-09-05 14:55:00,3151.577454522811,2,37,0.5499359965324402,3.9543962478637695,38.409884986201696,37.91157227953544,152.81033592082272,138.7808012697552,6.47544875391759e-05,0.0873680263757705,0,0,0
12922,437099.5092819068,2010-09-05 14:55:30,3181.592493169515,2,37,0.5501165986061096,3.956015110015869,38.41447162932916,37.91157227953544,152.8284768512792,138.7808012697552,3.237724376958795e-05,0.0873680263757705,0,0,0
12923,437129.5244851588,2010-09-05 14:56:00,3211.6076964164536,2,37,0.5501165986061096,3.9576339721679688,38.4190582070432,37.91157227953544,152.84662494136367,138.7808012697552,3.237724376958795e-05,0.0873680263757705,0,0,0
12924,437159.5396298197,2010-09-05 14:56:30,3241.6228410773774,2,37,0.5501165986061096,3.959252834320069,38.42364483202532,37.91157227953544,152.8647808319955,138.7808012697552,3.237724376958795e-05,0.0873680263757705,0,0,0
12925,437189.55493398814,2010-09-05 14:57:00,3271.638145270906,2,37,0.5499359965324402,3.960871696472168,38.42823150693136,37.91157227953544,152.88294456722173,138.7808012697552,0.0,0.0873680263757705,0,0,0
12926,437219.5699791711,2010-09-05 14:57:30,3301.6531904338503,2,37,0.5499359965324402,3.9626524448394775,38.43281815445612,37.91157227953544,152.90111595580527,138.7808012697552,6.47544875391759e-05,0.0873680263757705,0,0,0
12927,437249.5851714107,2010-09-05 14:58:00,3331.6683826683425,2,37,0.550297200679779,3.964433193206787,38.437404841705145,37.91157227953544,152.91929540077456,138.7808012697552,6.47544875391759e-05,0.0873680263757705,0,0,0
12928,437279.6003185628,2010-09-05 14:58:30,3361.6835298204755,2,37,0.5501165986061096,3.9662139415740967,38.44199145977345,37.91157227953544,152.9374824941838,138.7808012697552,3.237724376958795e-05,0.0873680263757705,0,0,0
12929,437309.6156190421,2010-09-05 14:59:00,3391.698830299747,2,37,0.550297200679779,3.9679946899414062,38.44657817810493,37.91157227953544,152.9556780772095,138.7808012697552,6.47544875391759e-05,0.0873680263757705,0,0,0
12930,437339.6307032223,2010-09-05 14:59:30,3421.713914479935,2,37,0.5501165986061096,3.969775438308716,38.45116476821261,37.91157227953544,152.97388127605322,138.7808012697552,9.713172767078504e-05,0.0873680263757705,0,0,0
12931,437369.64587416366,2010-09-05 15:00:00,3451.729085421358,2,37,0.5499359965324402,3.9715561866760254,38.455751421079285,37.91157227953544,152.99209307773512,138.7808012697552,3.237724376958795e-05,0.0873680263757705,0,0,0
12932,437399.661016148,2010-09-05 15:00:30,3481.744227405611,2,37,0.5501165986061096,3.973336935043335,38.460338085167805,37.91157227953544,153.01031332124285,138.7808012697552,3.237724376958795e-05,0.0873680263757705,0,0,0
12933,437429.6761805731,2010-09-05 15:01:00,3511.759391830793,2,37,0.5501165986061096,3.975117683410645,38.46492474977715,37.91157227953544,153.0285421392097,138.7808012697552,3.237724376958795e-05,0.0873680263757705,0,0,0
12934,437459.6914934834,2010-09-05 15:01:30,3541.774704751072,2,37,0.5501165986061096,3.977060317993164,38.46951142536748,37.91157227953544,153.04677963650514,138.7808012697552,0.0,0.0873680263757705,0,0,0
12935,437489.7067486096,2010-09-05 15:02:00,3571.7899598973595,2,37,0.5501165986061096,3.9791648387908936,38.4740981326487,37.91157227953544,153.0650255925636,138.7808012697552,6.47544875391759e-05,0.0873680263757705,0,0,0
12936,437519.7217041242,2010-09-05 15:02:30,3601.8049153817974,2,37,0.5499359965324402,3.980945587158203,38.4786847411263,37.91157227953544,153.08328049615346,138.7808012697552,3.237724376958795e-05,0.0873680263757705,0,0,0
12937,437549.7368740731,2010-09-05 15:03:00,3631.82008533576,2,37,0.5501165986061096,3.9830501079559326,38.48327133981546,37.91157227953544,153.10154429932246,138.7808012697552,3.237724376958795e-05,0.0873680263757705,0,0,0
12938,437579.75204198697,2010-09-05 15:03:30,3661.8352532446256,2,37,0.5501165986061096,3.984830856323242,38.48785797865346,37.91157227953544,153.11981725064643,138.7808012697552,3.237724376958795e-05,0.0873680263757705,0,0,0
12939,437609.76735813526,2010-09-05 15:04:00,3691.850569392948,2,37,0.5501165986061096,3.986935377120972,38.49244456993454,37.91157227953544,153.13809915920396,138.7808012697552,3.237724376958795e-05,0.0873680263757705,0,0,0
12940,437639.78238296753,2010-09-05 15:04:30,3721.865594225223,2,37,0.550297200679779,3.988878011703491,38.497031194891264,37.91157227953544,153.15639037336047,138.7808012697552,3.237724376958795e-05,0.0873680263757705,0,0,0
12941,437669.79760047,2010-09-05 15:05:00,3751.8808117276894,2,37,0.550297200679779,3.9909825325012207,38.50161782124236,37.91157227953544,153.17469084629806,138.7808012697552,6.47544875391759e-05,0.0873680263757705,0,0,0
12942,437699.8128696864,2010-09-05 15:05:30,3781.8960809540704,2,37,0.5501165986061096,3.99308705329895,38.506204476339306,37.91157227953544,153.19300084725737,138.7808012697552,3.237724376958795e-05,0.0873680263757705,0,0,0
12943,437729.8279199069,2010-09-05 15:06:00,3811.911131174619,2,37,0.5501165986061096,3.9951913356781006,38.51079101742894,37.91157227953544,153.21131972223304,138.7808012697552,9.713172767078504e-05,0.0873680263757705,0,0,0
12944,437759.8431604117,2010-09-05 15:06:30,3841.926371759616,2,37,0.5501165986061096,3.99713397026062,38.515377647716825,37.91157227953544,153.22964851770178,138.7808012697552,6.47544875391759e-05,0.0873680263757705,0,0,0
12945,437789.8582475743,2010-09-05 15:07:00,3871.941458832012,2,37,0.550297200679779,3.9995622634887695,38.51996475754875,37.91157227953544,153.2479887440668,138.7808012697552,0.0001295089750783,0.0873680263757705,0,0,0
12946,437819.87342162855,2010-09-05 15:07:30,3901.956632886194,2,37,0.550297200679779,4.001504898071289,38.52455203439556,37.91157227953544,153.2663392845226,138.7808012697552,9.70840483205393e-05,0.0873680263757705,0,0,0
12947,437849.88872827817,2010-09-05 15:08:00,3931.9719395358434,2,37,0.5501165986061096,4.003447532653809,38.52913933532392,37.91157227953544,153.2846996695038,138.7808012697552,6.47544875391759e-05,0.0873680263757705,0,0,0
12948,437879.9037802731,2010-09-05 15:08:30,3961.986991530815,2,37,0.550297200679779,4.005876064300537,38.53372657965896,37.91157227953544,153.30306953541472,138.7808012697552,9.71794142969884e-05,0.0873680263757705,0,0,0
12949,437909.91905787546,2010-09-05 15:09:00,3992.0022691330714,2,37,0.5501165986061096,4.007818698883057,38.53831331541743,37.91157227953544,153.32144723992994,138.7808012697552,6.47544875391759e-05,0.0873680263757705,0,0,0
12950,437939.93423869647,2010-09-05 15:09:30,4022.017449954116,2,37,0.5499359965324402,4.009922981262207,38.54289989407293,37.91157227953544,153.33983420216836,138.7808012697552,6.47544875391759e-05,0.0873680263757705,0,0,0
12951,437969.9492938042,2010-09-05 15:10:00,4052.032505071872,2,37,0.550297200679779,4.012351512908936,38.54748644710726,37.91157227953544,153.35823105528746,138.7808012697552,9.71794142969884e-05,0.0873680263757705,0,0,0
12952,437999.96446885087,2010-09-05 15:10:30,4082.0476801135137,2,37,0.5501165986061096,4.014294147491455,38.55207305762308,37.91157227953544,153.37663823325445,138.7808012697552,6.47544875391759e-05,0.0873680263757705,0,0,0
12953,438029.9796780025,2010-09-05 15:11:00,4112.062889290231,2,37,0.5501165986061096,4.016722202301025,38.55665962902356,37.91157227953544,153.3950554479734,138.7808012697552,9.70840483205393e-05,0.0873680263757705,0,0,0
12954,438059.9948006436,2010-09-05 15:11:30,4142.078011906212,2,37,0.550297200679779,4.018826961517334,38.56124612531226,37.91157227953544,153.41348263412374,138.7808012697552,6.47544875391759e-05,0.0873680263757705,0,0,0
12955,438090.0129729904,2010-09-05 15:12:00,4172.096184258074,2,37,0.5501165986061096,4.021093368530273,38.56583304860655,37.91157227953544,153.4319217816524,138.7808012697552,6.47544875391759e-05,0.0873680263757705,0,0,0
12956,438120.0251045167,2010-09-05 15:12:31,4202.108315799377,2,37,0.5499359965324402,4.023359775543213,38.57041895323884,37.91157227953544,153.4503673490075,138.7808012697552,6.47544875391759e-05,0.0873680263757705,0,0,0
12957,438150.040554674,2010-09-05 15:13:01,4232.123765936642,2,37,0.5499359965324402,4.025464057922363,38.57500466149162,37.91157227953544,153.46882256084294,138.7808012697552,3.23295607813634e-05,0.0873680263757705,0,0,0
12958,438180.055558088,2010-09-05 15:13:31,4262.138769350535,2,37,0.5501165986061096,4.027892589569092,38.57959035329724,37.91157227953544,153.4872883234339,138.7808012697552,6.47544875391759e-05,0.0873680263757705,0,0,0
12959,438210.0706648292,2010-09-05 15:14:01,4292.153876081928,2,37,0.5501165986061096,4.030320644378662,38.58417602503828,37.91157227953544,153.50576474099682,138.7808012697552,3.23295607813634e-05,0.0873680263757705,0,0,0
12960,438240.08589711867,2010-09-05 15:14:31,4322.169108376261,2,37,0.5501165986061096,4.032749176025391,38.58876165879417,37.91157227953544,153.52425181833615,138.7808012697552,6.47544875391759e-05,0.0873680263757705,0,0,0
12961,438270.1010633935,2010-09-05 15:15:01,4352.184274651054,2,37,0.5501165986061096,4.035015106201172,38.593347240937405,37.91157227953544,153.54274964292156,138.7808012697552,3.23295607813634e-05,0.0873680263757705,0,0,0
12962,438300.11618541786,2010-09-05 15:15:31,4382.1993966905975,2,37,0.5501165986061096,4.037605285644531,38.59793279108279,37.91157227953544,153.56125835100684,138.7808012697552,6.47544875391759e-05,0.0873680263757705,0,0,0
12963,438330.13136817375,2010-09-05 15:16:01,4412.214579431429,2,37,0.5501165986061096,4.04003381729126,38.60251931184935,37.91157227953544,153.5797822755827,138.7808012697552,6.47544875391759e-05,0.0873680263757705,0,0,0
12964,438360.1465524885,2010-09-05 15:16:31,4442.229763801321,2,37,0.550297200679779,4.042623996734619,38.607105903146845,37.91157227953544,153.59831766923665,138.7808012697552,9.71794142969884e-05,0.0873680263757705,0,0,0
12965,438390.1617049991,2010-09-05 15:17:01,4472.244916256671,2,37,0.5501165986061096,4.0450520515441895,38.6116925093784,37.91157227953544,153.61686458201984,138.7808012697552,9.70840483205393e-05,0.0873680263757705,0,0,0
12966,438420.17702292174,2010-09-05 15:17:31,4502.2602341844295,2,37,0.5499359965324402,4.047318458557129,38.61627911271288,37.91157227953544,153.63542288198738,138.7808012697552,6.47544875391759e-05,0.0873680263757705,0,0,0
12967,438450.19225333136,2010-09-05 15:18:01,4532.275464609103,2,37,0.550297200679779,4.050070762634277,38.62086570629802,37.91157227953544,153.65399277905271,138.7808012697552,6.47544875391759e-05,0.0873680263757705,0,0,0
12968,438480.207226951,2010-09-05 15:18:31,4562.290438208689,2,37,0.5499359965324402,4.052498817443848,38.62545233812144,37.91157227953544,153.67257447923416,138.7808012697552,6.47544875391759e-05,0.0873680263757705,0,0,0
12969,438510.2224082232,2010-09-05 15:19:01,4592.3056194808605,2,37,0.5501165986061096,4.055251121520996,38.63003893137702,37.91157227953544,153.6911678538229,138.7808012697552,6.47544875391759e-05,0.0873680263757705,0,0,0
12970,438540.2375584781,2010-09-05 15:19:31,4622.320769735726,2,37,0.550297200679779,4.057841300964356,38.63462557789869,37.91157227953544,153.70977334435636,138.7808012697552,6.47544875391759e-05,0.0873680263757705,0,0,0
12971,438570.252741264,2010-09-05 15:20:01,4652.335952521669,2,37,0.5501165986061096,4.060431480407715,38.639212207945135,37.91157227953544,153.7283907700581,138.7808012697552,9.71794142969884e-05,0.0873680263757705,0,0,0
12972,438600.2680980586,2010-09-05 15:20:31,4682.351309436596,2,37,0.550297200679779,4.062859535217285,38.6437989147945,37.91157227953544,153.7470202007081,138.7808012697552,6.47544875391759e-05,0.0873680263757705,0,0,0
12973,438630.28307645017,2010-09-05 15:21:01,4712.366287732888,2,37,0.5501165986061096,4.0654497146606445,38.64838550112621,37.91157227953544,153.7656614788974,138.7808012697552,0.0,0.0873680263757705,0,0,0
12974,438660.2983240376,2010-09-05 15:21:31,4742.381535325349,2,37,0.5499359965324402,4.068363666534424,38.65297210665931,37.91157227953544,153.78431517121803,138.7808012697552,3.23295607813634e-05,0.0873680263757705,0,0,0
12975,438690.3134502475,2010-09-05 15:22:01,4772.396661505213,2,37,0.5501165986061096,4.071115970611572,38.65755867626526,37.91157227953544,153.80298123912212,138.7808012697552,6.47544875391759e-05,0.0873680263757705,0,0,0
12976,438720.32864379534,2010-09-05 15:22:31,4802.41185507804,2,37,0.5501165986061096,4.0738677978515625,38.66214524817247,37.91157227953544,153.82165985523008,138.7808012697552,9.70840483205393e-05,0.0873680263757705,0,0,0
12977,438750.3437748323,2010-09-05 15:23:01,4832.426986089948,2,37,0.5501165986061096,4.076620101928711,38.66673187735503,37.91157227953544,153.84035144138008,138.7808012697552,6.47544875391759e-05,0.0873680263757705,0,0,0
12978,438780.35895196913,2010-09-05 15:23:31,4862.442163256887,2,37,0.5501165986061096,4.079371929168701,38.67131848821699,37.91157227953544,153.85905575713795,138.7808012697552,3.23295607813634e-05,0.0873680263757705,0,0,0
12979,438810.37412803335,2010-09-05 15:24:01,4892.457339291002,2,37,0.5501165986061096,4.0822858810424805,38.67590513017401,37.91157227953544,153.87777308303532,138.7808012697552,6.47544875391759e-05,0.0873680263757705,0,0,0
12980,438840.3892876515,2010-09-05 15:24:31,4922.47249893928,2,37,0.5501165986061096,4.08519983291626,38.680491712606376,37.91157227953544,153.8965032107122,138.7808012697552,6.47544875391759e-05,0.0873680263757705,0,0,0
12981,438870.40446508414,2010-09-05 15:25:01,4952.487676341806,2,37,0.5499359965324402,4.087952136993408,38.68507834625382,37.91157227953544,153.91524673749063,138.7808012697552,6.47544875391759e-05,0.0873680263757705,0,0,0
12982,438900.4196370782,2010-09-05 15:25:31,4982.502848365927,2,37,0.550297200679779,4.090866088867188,38.689664896907935,37.91157227953544,153.934003245555,138.7808012697552,6.47544875391759e-05,0.0873680263757705,0,0,0
12983,438930.4348369066,2010-09-05 15:26:01,5012.518048164271,2,37,0.5501165986061096,4.093780040740967,38.69425152676626,37.91157227953544,153.95277346305488,138.7808012697552,3.24249267578125e-05,0.0873680263757705,0,0,0
12984,438960.4501077469,2010-09-05 15:26:31,5042.533319004673,2,37,0.5499359965324402,4.096693992614746,38.6988380765207,37.91157227953544,153.97155684524162,138.7808012697552,6.47544875391759e-05,0.0873680263757705,0,0,0
12985,438990.46516093,2010-09-05 15:27:01,5072.548372187606,2,37,0.550297200679779,4.100093364715576,38.70342468798317,37.91157227953544,153.99035413119702,138.7808012697552,0.0001618385285837,0.0873680263757705,0,0,0
12986,439020.48033501423,2010-09-05 15:27:31,5102.563546271863,2,37,0.5501165986061096,4.102845668792725,38.70801127556364,37.91157227953544,154.0091650484964,138.7808012697552,9.71794142969884e-05,0.0873680263757705,0,0,0
12987,439050.4955274893,2010-09-05 15:28:01,5132.5787387469545,2,37,0.5499359965324402,4.105759620666504,38.7125978484292,37.91157227953544,154.0279898246606,138.7808012697552,6.47544875391759e-05,0.0873680263757705,0,0,0
12988,439080.5106750676,2010-09-05 15:28:31,5162.593886325149,2,37,0.5501165986061096,4.108997344970703,38.7171844395218,37.91157227953544,154.0468286652452,138.7808012697552,9.71794142969884e-05,0.0873680263757705,0,0,0
12989,439110.52584859537,2010-09-05 15:29:01,5192.609059853018,2,37,0.5499359965324402,4.111911296844482,38.7217710390414,37.91157227953544,154.06568173247672,138.7808012697552,3.24249267578125e-05,0.0873680263757705,0,0,0
12990,439140.54104552657,2010-09-05 15:29:31,5222.624256784216,2,37,0.550297200679779,4.1153106689453125,38.72635762335241,37.91157227953544,154.0845488993384,138.7808012697552,0.0001295089750783,0.0873680263757705,0,0,0
12991,439170.5562158314,2010-09-05 15:30:01,5252.639427089052,2,37,0.5501165986061096,4.118224620819092,38.730944231073714,37.91157227953544,154.10343058886272,138.7808012697552,6.47544875391759e-05,0.0873680263757705,0,0,0
12992,439200.5713858656,2010-09-05 15:30:31,5282.654597123215,2,37,0.5501165986061096,4.121462345123291,38.73553081427953,37.91157227953544,154.12232670059427,138.7808012697552,6.47544875391759e-05,0.0873680263757705,0,0,0
12993,439230.5865462657,2010-09-05 15:31:01,5312.669757553441,2,37,0.5504778623580933,4.124861717224121,38.74011745920249,37.91157227953544,154.14123770282214,138.7808012697552,0.0001295089750783,0.0873680263757705,0,0,0
12994,439260.6018472263,2010-09-05 15:31:31,5342.68505848885,2,37,0.5501165986061096,4.1279377937316895,38.74470411776567,37.91157227953544,154.16016351310134,138.7808012697552,9.71794142969884e-05,0.0873680263757705,0,0,0
12995,439290.6169072862,2010-09-05 15:32:01,5372.700118543909,2,37,0.5501165986061096,4.1310133934021,38.74929071954113,37.91157227953544,154.17910399536504,138.7808012697552,6.47544875391759e-05,0.0873680263757705,0,0,0
12996,439320.6320806688,2010-09-05 15:32:31,5402.715291956492,2,37,0.5499359965324402,4.134413242340088,38.75387732096103,37.91157227953544,154.19805955441015,138.7808012697552,6.47544875391759e-05,0.0873680263757705,0,0,0
12997,439350.64728311374,2010-09-05 15:33:01,5432.730494391406,2,37,0.5501165986061096,4.137812614440918,38.75846391352949,37.91157227953544,154.21703025945666,138.7808012697552,9.70840483205393e-05,0.0873680263757705,0,0,0
12998,439380.6625465957,2010-09-05 15:33:31,5462.74575785342,2,37,0.5499359965324402,4.141050338745117,38.76305057883695,37.91157227953544,154.23601656494444,138.7808012697552,6.47544875391759e-05,0.0873680263757705,0,0,0
12999,439410.6778316165,2010-09-05 15:34:01,5492.761042874163,2,37,0.5501165986061096,4.1444501876831055,38.767637274203615,37.91157227953544,154.2550185013551,138.7808012697552,9.71794142969884e-05,0.0873680263757705,0,0,0
13000,439440.6927717728,2010-09-05 15:34:31,5522.775983060474,2,37,0.550297200679779,4.148173332214356,38.77222375607517,37.91157227953544,154.2740354672684,138.7808012697552,9.70840483205393e-05,0.0873680263757705,0,0,0
13001,439470.7079576664,2010-09-05 15:35:01,5552.79116894915,2,37,0.5501165986061096,4.151573181152344,38.77681028773304,37.91157227953544,154.29306834367625,138.7808012697552,9.71794142969884e-05,0.0873680263757705,0,0,0
13002,439500.7231265828,2010-09-05 15:35:31,5582.806337870539,2,37,0.5501165986061096,4.154972553253174,38.7813968219847,37.91157227953544,154.3121170552681,138.7808012697552,9.70840483205393e-05,0.0873680263757705,0,0,0
13003,439530.7383039703,2010-09-05 15:36:01,5612.821515258027,2,37,0.550297200679779,4.158534049987793,38.78598330663896,37.91157227953544,154.33118153804276,138.7808012697552,0.0001295089750783,0.0873680263757705,0,0,0
13004,439560.7534771172,2010-09-05 15:36:31,5642.836688404947,2,37,0.5501165986061096,4.161933898925781,38.79056991079731,37.91157227953544,154.35026261365283,138.7808012697552,6.47544875391759e-05,0.0873680263757705,0,0,0
13005,439590.76864407375,2010-09-05 15:37:01,5672.8518553363765,2,37,0.550297200679779,4.1654953956604,38.79515645571635,37.91157227953544,154.3693596919281,138.7808012697552,0.0001295089750783,0.0873680263757705,0,0,0
13006,439620.78380791744,2010-09-05 15:37:31,5702.867019205172,2,37,0.550297200679779,4.16921854019165,38.79974303058208,37.91157227953544,154.38847326659123,138.7808012697552,0.0001295089750783,0.0873680263757705,0,0,0
13007,439650.7989855004,2010-09-05 15:38:01,5732.882196788149,2,37,0.5501165986061096,4.1727800369262695,38.8043295914278,37.91157227953544,154.40760323887608,138.7808012697552,0.0001295089750783,0.0873680263757705,0,0,0
13008,439680.81415102334,2010-09-05 15:38:31,5762.897362311068,2,37,0.5501165986061096,4.176179885864258,38.80891614354633,37.91157227953544,154.4267497729548,138.7808012697552,9.71794142969884e-05,0.0873680263757705,0,0,0
13009,439710.8293282204,2010-09-05 15:39:01,5792.912539508082,2,37,0.5501165986061096,4.180065155029297,38.81350275808095,37.91157227953544,154.44591333269486,138.7808012697552,9.71794142969884e-05,0.0873680263757705,0,0,0
13010,439740.84449051024,2010-09-05 15:39:31,5822.927701797943,2,37,0.5499359965324402,4.183464527130127,38.81808931100552,37.91157227953544,154.46509348015107,138.7808012697552,3.23295607813634e-05,0.0873680263757705,0,0,0
13011,439770.8596913061,2010-09-05 15:40:01,5852.942902563697,2,37,0.5501165986061096,4.187349796295166,38.82267588642618,37.91157227953544,154.48429073735224,138.7808012697552,9.70840483205393e-05,0.0873680263757705,0,0,0
13012,439800.8748390697,2010-09-05 15:40:31,5882.958050357429,2,37,0.5501165986061096,4.191073417663574,38.82726245833263,37.91157227953544,154.50350517775502,138.7808012697552,6.47544875391759e-05,0.0873680263757705,0,0,0
13013,439830.8902008818,2010-09-05 15:41:01,5912.973412159536,2,37,0.5499359965324402,4.195120334625244,38.83184905413909,37.91157227953544,154.52273706779135,138.7808012697552,0.0001295089750783,0.0873680263757705,0,0,0
13014,439860.8910259389,2010-09-05 15:41:31,5942.9742372266255,2,37,0.5501165986061096,4.198681831359863,38.83643338198033,37.91157227953544,154.54197683673087,138.7808012697552,9.71794142969884e-05,0.0873680263757705,0,0,0
13015,439869.42069109896,2010-09-05 15:41:40,5951.5039023867175,2,37,0.550297200679779,4.200138568878174,38.83773680247236,37.91157227953544,154.54745032820972,138.7808012697552,0.0001618385285837,0.0873680263757705,0,0,0
13016,439899.425932616,2010-09-05 15:42:10,30.015194369814,3,37,0.0,4.118872165679932,38.83773680247236,37.91157227953544,154.54745032820972,138.7808012697552,-0.0003885269106831,0.0873680263757705,0,0,0
13017,439929.4411661684,2010-09-05 15:42:40,60.0304279523582,3,37,0.0,4.108673572540283,38.83773680247236,37.91157227953544,154.54745032820972,138.7808012697552,-0.0001942634553415,0.0873680263757705,0,0,0
13018,439959.4562616017,2010-09-05 15:43:10,90.04552335551682,3,37,0.0,4.102359771728516,38.83773680247236,37.91157227953544,154.54745032820972,138.7808012697552,-0.0002266883820993,0.0873680263757705,0,0,0
13019,439989.4245388095,2010-09-05 15:43:40,120.01380059340202,3,37,0.0,4.0987982749938965,38.83773680247236,37.91157227953544,154.54745032820972,138.7808012697552,-6.47544875391759e-05,0.0873680263757705,0,0,0
13020,439989.4320302201,2010-09-05 15:43:40,2.751858478e-06,4,37,1.0077805519104004,4.199653148651123,38.83773680324271,37.91157227953544,154.54745033144494,138.7808012697552,0.0,0.0873680263757705,0,0,0
13021,439990.2601021401,2010-09-05 15:43:41,0.828074757086893,4,37,0.9570293426513672,4.199653148651123,38.83796112296548,37.91157227953544,154.54839241495372,138.7808012697552,0.0,0.0873680263757705,0,0,0
13022,439992.2756286773,2010-09-05 15:43:43,2.843601204154971,4,37,0.9070005416870116,4.199814796447754,38.83848172441868,37.91157227953544,154.55057879469612,138.7808012697552,3.23295607813634e-05,0.0873680263757705,0,0,0
13023,439995.3068154274,2010-09-05 15:43:46,5.874787959221444,4,37,0.8567911386489868,4.199814796447754,38.83922310566001,37.91157227953544,154.5536923967252,138.7808012697552,3.23295607813634e-05,0.0873680263757705,0,0,0
13024,439999.4317556126,2010-09-05 15:43:50,9.999728144375212,4,37,0.8062205910682678,4.199814796447754,38.84017475327521,37.91157227953544,154.55768906509044,138.7808012697552,0.0,0.0873680263757705,0,0,0
13025,440004.7443324687,2010-09-05 15:43:56,15.312304980489836,4,37,0.7561917901039124,4.199814796447754,38.84132618506794,37.91157227953544,154.5625247876202,138.7808012697552,3.23295607813634e-05,0.0873680263757705,0,0,0
13026,440011.494150447,2010-09-05 15:44:02,22.06212294873377,4,37,0.7059824466705322,4.199814796447754,38.84269502990555,37.91157227953544,154.56827358535,138.7808012697552,3.23295607813634e-05,0.0873680263757705,0,0,0
13027,440020.3376868709,2010-09-05 15:44:11,30.905659397652613,4,37,0.6559536457061768,4.199814796447754,38.84436527982622,37.91157227953544,154.57528822200044,138.7808012697552,0.0,0.0873680263757705,0,0,0
13028,440032.43126634206,2010-09-05 15:44:23,42.99923887380858,4,37,0.605383038520813,4.199653148651123,38.84648040377688,37.91157227953544,154.58417123131431,138.7808012697552,-3.23295607813634e-05,0.0873680263757705,0,0,0
13029,440050.0872419008,2010-09-05 15:44:41,60.65521443250872,4,37,0.5553542971611023,4.199491024017334,38.84932009274708,37.91157227953544,154.59609722998377,138.7808012697552,-3.24249267578125e-05,0.0873680263757705,0,0,0
13030,440078.0868219645,2010-09-05 15:45:09,88.6547944662081,4,37,0.5053254961967468,4.199491024017334,38.85343149368947,37.91157227953544,154.61336409576396,138.7808012697552,-6.47544875391759e-05,0.0873680263757705,0,0,0
13031,440127.5704782868,2010-09-05 15:45:58,138.13845081356612,4,37,0.4552967548370361,4.199814796447754,38.860005792236365,37.91157227953544,154.64097451167984,138.7808012697552,0.0,0.0873680263757705,0,0,0
13032,440206.8348875588,2010-09-05 15:47:18,217.40286006045835,4,37,0.4050873517990112,4.199491024017334,38.869451308492245,37.91157227953544,154.68064344248052,138.7808012697552,-6.47544875391759e-05,0.0873680263757705,0,0,0
13033,440314.52089705854,2010-09-05 15:49:05,325.08886956028874,4,37,0.3550585806369781,4.199814796447754,38.88080501205548,37.91157227953544,154.72832617311855,138.7808012697552,3.23295607813634e-05,0.0873680263757705,0,0,0
13034,440443.925254088,2010-09-05 15:51:15,454.49322658973136,4,37,0.3050298392772674,4.199814796447754,38.89265406178082,37.91157227953544,154.77808928131813,138.7808012697552,0.0,0.0873680263757705,0,0,0
13035,440601.3914710066,2010-09-05 15:53:52,611.959443513449,4,37,0.2550010681152344,4.199814796447754,38.90487318691689,37.91157227953544,154.82940667738495,138.7808012697552,3.23295607813634e-05,0.0873680263757705,0,0,0
13036,440792.79485472734,2010-09-05 15:57:04,803.362827229017,4,37,0.2049722820520401,4.199653148651123,38.91706328411964,37.91157227953544,154.88060213999637,138.7808012697552,-3.23295607813634e-05,0.0873680263757705,0,0,0
13037,441047.24416200817,2010-09-05 16:01:18,1057.8121344998303,4,37,0.154943510890007,4.199653148651123,38.92971959436994,37.91157227953544,154.93375551586044,138.7808012697552,-3.23295607813634e-05,0.0873680263757705,0,0,0
13038,441414.7698826438,2010-09-05 16:07:26,1425.3378551755916,4,37,0.1049147471785545,4.199814796447754,38.942827213408336,37.91157227953544,154.98880428864504,138.7808012697552,0.0,0.0873680263757705,0,0,0
13039,442066.8696466568,2010-09-05 16:18:18,2077.437619188593,4,37,0.0548859760165214,4.199653148651123,38.956842916329855,37.91157227953544,155.04766680375403,138.7808012697552,0.0,0.0873680263757705,0,0,0
13040,442180.2741573111,2010-09-05 16:20:11,2190.842129822789,4,37,0.0498289167881011,4.199814796447754,38.95850651827696,37.91157227953544,155.0546535105361,138.7808012697552,0.0,0.0873680263757705,0,0,0
13041,442210.298435926,2010-09-05 16:20:41,30.01529068486073,5,37,0.0,4.192044734954834,38.95850651827696,37.91157227953544,155.0546535105361,138.7808012697552,-9.70840483205393e-05,0.0873680263757705,0,0,0
13042,442240.2980113786,2010-09-05 16:21:11,60.01486613752737,5,37,0.0,4.190911293029785,38.95850651827696,37.91157227953544,155.0546535105361,138.7808012697552,-3.24249267578125e-05,0.0873680263757705,0,0,0
13043,442240.4953519692,2010-09-05 16:21:12,0.187475040485518,6,37,-1.9243103452026844e-05,4.191073417663574,38.95850651827696,37.91157228053756,155.0546535105361,138.78080127395512,0.0,0.090120255947113,0,0,0
13044,442245.3234121608,2010-09-05 16:21:16,5.015535232039853,6,37,0.0007031940040178,4.190911293029785,38.9585074251759,37.9115722806213,155.05465731139313,138.7808012743061,-6.47544875391759e-05,0.090120255947113,0,0,0
13045,442275.3486413792,2010-09-05 16:21:46,30.01516990884975,7,37,-1.0997490882873535,4.020931243896484,38.9585074251759,37.92074021318833,155.05465731139313,138.81786034522378,-0.0009389877086505,0.090120255947113,0,0,0
13046,442305.36662099074,2010-09-05 16:22:16,60.033149490268045,7,37,-1.099568486213684,3.994220018386841,38.9585074251759,37.92990891610616,155.05465731139313,138.85459515209652,-0.0005504131549969,0.090120255947113,0,0,0
13047,442335.3790170463,2010-09-05 16:22:47,90.04554556085938,7,37,-1.0993878841400146,3.976089000701904,38.9585074251759,37.93907590499931,155.05465731139313,138.89112140955322,-0.0003561496851034,0.090120255947113,0,0,0
13048,442365.3944787124,2010-09-05 16:23:17,120.0610072318702,7,37,-1.0993878841400146,3.9620048999786377,38.9585074251759,37.9482436940193,155.05465731139313,138.92750435666355,-0.0002913951757363,0.090120255947113,0,0,0
13049,442395.40948049707,2010-09-05 16:23:47,150.0760089966532,7,37,-1.099568486213684,3.950187206268311,38.9585074251759,37.95741136608687,155.05465731139313,138.96376936155477,-0.0002266406954731,0.090120255947113,0,0,0
13050,442425.42455160967,2010-09-05 16:24:17,180.0910801343348,7,37,-1.099568486213684,3.939502716064453,38.9585074251759,37.96657914905742,155.05465731139313,138.9999337754771,-0.0002913951757363,0.090120255947113,0,0,0
13051,442455.439696015,2010-09-05 16:24:47,210.10622451957184,7,37,-1.099568486213684,3.9301133155822754,38.9585074251759,37.975746889084085,155.05465731139313,139.03600681201235,-0.0001942634553415,0.090120255947113,0,0,0
13052,442485.4548663248,2010-09-05 16:25:17,240.121394829421,7,37,-1.099568486213684,3.9210476875305176,38.9585074251759,37.98491470274261,155.05465731139313,139.07199475317626,-0.0001942634553415,0.090120255947113,0,0,0
13053,442515.4701312356,2010-09-05 16:25:47,270.13665973001946,7,37,-1.0993878841400146,3.9124679565429688,38.9585074251759,37.99408251737114,155.05465731139313,139.1079015930476,-0.0001942634553415,0.090120255947113,0,0,0
13054,442545.4852289093,2010-09-05 16:26:17,300.15175741386224,7,37,-1.0997490882873535,3.903887987136841,38.9585074251759,38.00325029795314,155.05465731139313,139.14373046062877,-0.0002266406954731,0.090120255947113,0,0,0
13055,442575.5004654893,2010-09-05 16:26:47,330.1669940089145,7,37,-1.0997490882873535,3.895793676376343,38.9585074251759,38.01241808369963,155.05465731139313,139.17948381588667,-0.0002266406954731,0.090120255947113,0,0,0
13056,442605.51570538257,2010-09-05 16:27:17,360.182233912212,7,37,-1.099568486213684,3.887861251831055,38.9585074251759,38.0215857995603,155.05465731139313,139.21516365462392,-0.0002266406954731,0.090120255947113,0,0,0
13057,442635.5309611354,2010-09-05 16:27:47,390.1974896449613,7,37,-1.0993878841400146,3.8802525997161865,38.9585074251759,38.03075361240766,155.05465731139313,139.25077180663445,-0.0001942634553415,0.090120255947113,0,0,0
13058,442665.5461420917,2010-09-05 16:28:17,420.2126705913199,7,37,-1.099568486213684,3.872482061386109,38.9585074251759,38.03992141284608,155.05465731139313,139.28630913630653,-0.0002266406954731,0.090120255947113,0,0,0
13059,442695.5612049187,2010-09-05 16:28:47,450.2277334483636,7,37,-1.0993878841400146,3.86503529548645,38.9585074251759,38.04908916029285,155.05465731139313,139.3217765847327,-0.0001942634553415,0.090120255947113,0,0,0
13060,442725.57638937887,2010-09-05 16:29:17,480.2429178784046,7,37,-1.099568486213684,3.857588529586792,38.9585074251759,38.058256965141645,155.05465731139313,139.35717598004865,-0.0002266406954731,0.090120255947113,0,0,0
13061,442755.5915167868,2010-09-05 16:29:47,510.2580452913416,7,37,-1.0993878841400146,3.8504655361175537,38.9585074251759,38.067424722236176,155.05465731139313,139.39250794570114,-0.0001295089750783,0.090120255947113,0,0,0
13062,442785.6066367712,2010-09-05 16:30:17,540.2731652958141,7,37,-1.099568486213684,3.843018770217896,38.9585074251759,38.076592455980325,155.05465731139313,139.42777371542755,-0.0002266406954731,0.090120255947113,0,0,0
13063,442815.6218293466,2010-09-05 16:30:47,570.2883578511058,7,37,-1.0997490882873535,3.836057662963867,38.9585074251759,38.08576024482191,155.05465731139313,139.46297470060242,-0.0002266406954731,0.090120255947113,0,0,0
13064,442845.63700292446,2010-09-05 16:31:17,600.3035314391252,7,37,-1.0993878841400146,3.829258680343628,38.9585074251759,38.094928006371696,155.05465731139313,139.4981115315406,-0.0001618862152099,0.090120255947113,0,0,0
13065,442875.6521572245,2010-09-05 16:31:47,630.3186857541102,7,37,-1.099568486213684,3.8222975730896,38.9585074251759,38.10409582296088,155.05465731139313,139.53318553360873,-0.0002266406954731,0.090120255947113,0,0,0
13066,442905.6673409829,2010-09-05 16:32:17,660.3338694723774,7,37,-1.099568486213684,3.815822124481201,38.9585074251759,38.11326366688502,155.05465731139313,139.5681976956928,-0.0001618862152099,0.090120255947113,0,0,0
13067,442935.6826335824,2010-09-05 16:32:47,690.3491620820353,7,37,-1.099568486213684,3.809022903442383,38.9585074251759,38.12243148637146,155.05465731139313,139.60314827803563,-0.0001618862152099,0.090120255947113,0,0,0
13068,442965.69768245966,2010-09-05 16:33:17,720.3642109893118,7,37,-1.099568486213684,3.802547454833984,38.9585074251759,38.1315993214139,155.05465731139313,139.63803856579958,-0.0001942634553415,0.090120255947113,0,0,0
13069,442995.71285483474,2010-09-05 16:33:47,750.379383334233,7,37,-1.099568486213684,3.796072006225586,38.9585074251759,38.14076714864069,155.05465731139313,139.67286999946396,-0.0001942634553415,0.090120255947113,0,0,0
13070,443025.7280492195,2010-09-05 16:34:17,780.3945777190845,7,37,-1.0993878841400146,3.789920330047608,38.9585074251759,38.14993497598454,155.05465731139313,139.707643625994,-0.0001618862152099,0.090120255947113,0,0,0
13071,443055.74329556886,2010-09-05 16:34:47,810.4098241887472,7,37,-1.0997490882873535,3.783768653869629,38.9585074251759,38.15910284882112,155.05465731139313,139.74236049226457,-0.0001618862152099,0.090120255947113,0,0,0
13072,443085.758362872,2010-09-05 16:35:17,840.4248913715721,7,37,-1.0997490882873535,3.7776169776916495,38.9585074251759,38.16827066912682,155.05465731139313,139.77702148226658,-0.0001618862152099,0.090120255947113,0,0,0
13073,443115.77353135234,2010-09-05 16:35:47,870.4400598418366,7,37,-1.099568486213684,3.7719509601593018,38.9585074251759,38.17743853539555,155.05465731139313,139.81162808895922,-0.0001295089750783,0.090120255947113,0,0,0
13074,443145.7887195317,2010-09-05 16:36:17,900.455248031247,7,37,-1.0993878841400146,3.766123056411743,38.9585074251759,38.186606340287526,155.05465731139313,139.8461808488846,-0.0001295089750783,0.090120255947113,0,0,0
13075,443175.803890022,2010-09-05 16:36:47,930.4704185466084,7,37,-1.0997490882873535,3.760295152664185,38.9585074251759,38.19577417240454,155.05465731139313,139.88068121099695,-0.0001618862152099,0.090120255947113,0,0,0
13076,443205.8190553344,2010-09-05 16:37:17,960.48558383394,7,37,-1.099568486213684,3.754791021347046,38.9585074251759,38.20494202266226,155.05465731139313,139.91513005350745,-0.0001295089750783,0.090120255947113,0,0,0
13077,443235.8342336141,2010-09-05 16:37:47,990.5007621186652,7,37,-1.099568486213684,3.749125242233277,38.9585074251759,38.21410989223499,155.05465731139313,139.94952822966158,-0.0001618862152099,0.090120255947113,0,0,0
13078,443265.84943585854,2010-09-05 16:38:17,1020.5159643881676,7,37,-1.0997490882873535,3.7439448833465576,38.9585074251759,38.22327774990199,155.05465731139313,139.98387686551982,-0.0001295089750783,0.090120255947113,0,0,0
13079,443295.8645749456,2010-09-05 16:38:47,1050.5311034601625,7,37,-1.0997490882873535,3.738764524459839,38.9585074251759,38.23244569842264,155.05465731139313,140.01817727165022,-0.0001295089750783,0.090120255947113,0,0,0
13080,443325.87976857845,2010-09-05 16:39:17,1080.5462970831147,7,37,-1.0997490882873535,3.73358416557312,38.9585074251759,38.24161358933747,155.05465731139313,140.052429946619,-0.0001618862152099,0.090120255947113,0,0,0
13081,443355.8949534096,2010-09-05 16:39:47,1110.561481939218,7,37,-1.099568486213684,3.7285656929016113,38.9585074251759,38.25078145028465,155.05465731139313,140.08663556676626,-9.713172767078504e-05,0.090120255947113,0,0,0
13082,443385.9101182558,2010-09-05 16:40:17,1140.576646755375,7,37,-1.099568486213684,3.723547220230103,38.9585074251759,38.25994922548325,155.05465731139313,140.12079549847047,-0.0001295089750783,0.090120255947113,0,0,0
13083,443415.925274255,2010-09-05 16:40:47,1170.59180275957,7,37,-1.099568486213684,3.7188525199890137,38.9585074251759,38.269117141040304,155.05465731139313,140.15491064800844,-9.713172767078504e-05,0.090120255947113,0,0,0
13084,443445.9404455422,2010-09-05 16:41:17,1200.6069740368305,7,37,-1.0993878841400146,3.713834047317505,38.9585074251759,38.27828498684626,155.05465731139313,140.18898109384287,-0.0001618862152099,0.090120255947113,0,0,0
13085,443475.9556408193,2010-09-05 16:41:47,1230.622169318918,7,37,-1.0997490882873535,3.709139347076416,38.9585074251759,38.28745290635034,155.05465731139313,140.22300789191036,-0.0001295089750783,0.090120255947113,0,0,0
13086,443505.970801049,2010-09-05 16:42:17,1260.6373295787191,7,37,-1.0997490882873535,3.704282760620117,38.9585074251759,38.29662075385695,155.05465731139313,140.2569914563883,-0.0001618862152099,0.090120255947113,0,0,0
13087,443535.98596890783,2010-09-05 16:42:47,1290.6524973973594,7,37,-1.0997490882873535,3.699911832809448,38.9585074251759,38.30578860115929,155.05465731139313,140.2909327431909,-9.713172767078504e-05,0.090120255947113,0,0,0
13088,443566.00114351336,2010-09-05 16:43:17,1320.66767201294,7,37,-1.0997490882873535,3.695379018783569,38.9585074251759,38.31495648490761,155.05465731139313,140.32483246711277,-0.0001295089750783,0.090120255947113,0,0,0
13089,443596.0164465339,2010-09-05 16:43:47,1350.6829750335453,7,37,-1.0993878841400146,3.691008090972901,38.9585074251759,38.32412440930792,155.05465731139313,140.3586915035485,-9.713172767078504e-05,0.090120255947113,0,0,0
13090,443626.0317494844,2010-09-05 16:44:17,1380.698277988988,7,37,-1.099568486213684,3.686637163162232,38.9585074251759,38.33329231829369,155.05465731139313,140.39250992288515,-9.713172767078504e-05,0.090120255947113,0,0,0
13091,443656.0466748237,2010-09-05 16:44:47,1410.7132033232826,7,37,-1.099568486213684,3.6822662353515625,38.9585074251759,38.34246003677675,155.05465731139313,140.42628803331118,-0.0001295089750783,0.090120255947113,0,0,0
13092,443686.0618652587,2010-09-05 16:45:17,1440.7283937833524,7,37,-1.099568486213684,3.6782190799713135,38.9585074251759,38.35162790583385,155.05465731139313,140.46002765385657,-6.47544875391759e-05,0.090120255947113,0,0,0
13093,443716.077018511,2010-09-05 16:45:47,1470.7435470106263,7,37,-1.099568486213684,3.6740100383758554,38.9585074251759,38.3607957321713,155.05465731139313,140.49372898087324,-0.0001295089750783,0.090120255947113,0,0,0
13094,443746.092205302,2010-09-05 16:46:17,1500.7587338015517,7,37,-1.099568486213684,3.669963121414185,38.9585074251759,38.36996361634482,155.05465731139313,140.52739304857488,-9.713172767078504e-05,0.090120255947113,0,0,0
13095,443776.1073648951,2010-09-05 16:46:47,1530.7738933846665,7,37,-1.099568486213684,3.6660778522491455,38.9585074251759,38.37913147702838,155.05465731139313,140.56102014512413,-9.713172767078504e-05,0.090120255947113,0,0,0
13096,443806.1225541823,2010-09-05 16:47:17,1560.7890826818375,7,37,-1.0993878841400146,3.6621925830841056,38.9585074251759,38.38829928240552,155.05465731139313,140.59461112483456,-9.713172767078504e-05,0.090120255947113,0,0,0
13097,443836.1377267277,2010-09-05 16:47:47,1590.8042552573336,7,37,-1.0997490882873535,3.657983541488648,38.9585074251759,38.39746723352038,155.05465731139313,140.62816698027578,-0.0001295089750783,0.090120255947113,0,0,0
13098,443866.1530434073,2010-09-05 16:48:17,1620.8195719169316,7,37,-1.099568486213684,3.6545839309692383,38.9585074251759,38.40663512381787,155.05465731139313,140.66168772192094,-6.47544875391759e-05,0.090120255947113,0,0,0
13099,443896.16820812825,2010-09-05 16:48:47,1650.8347366478763,7,37,-1.099568486213684,3.650698661804199,38.9585074251759,38.41580302876572,155.05465731139313,140.69517411688713,-9.713172767078504e-05,0.090120255947113,0,0,0
13100,443926.1832355169,2010-09-05 16:49:17,1680.8497640415344,7,37,-1.0997490882873535,3.64697527885437,38.9585074251759,38.42497084085674,155.05465731139313,140.72862642024526,-9.713172767078504e-05,0.090120255947113,0,0,0
13101,443956.198536753,2010-09-05 16:49:47,1710.8650652626543,7,37,-1.0997490882873535,3.643251895904541,38.9585074251759,38.43413854677891,155.05465731139313,140.76204481435872,-0.0001295089750783,0.090120255947113,0,0,0
13102,443986.2136302514,2010-09-05 16:50:17,1740.880158791141,7,37,-1.099568486213684,3.640014171600342,38.9585074251759,38.44330625821831,155.05465731139313,140.79543116283747,-9.713172767078504e-05,0.090120255947113,0,0,0
13103,444016.2287646117,2010-09-05 16:50:47,1770.8952931263302,7,37,-1.099568486213684,3.6366145610809326,38.9585074251759,38.45247397165324,155.05465731139313,140.82878612449824,-9.713172767078504e-05,0.090120255947113,0,0,0
13104,444046.24425812205,2010-09-05 16:51:17,1800.9107866166446,7,37,-1.0997490882873535,3.633214950561523,38.9585074251759,38.46164182678607,155.05465731139313,140.86211081877704,-6.47544875391759e-05,0.090120255947113,0,0,0
13105,444076.25910964754,2010-09-05 16:51:47,1830.9256381469968,7,37,-1.099568486213684,3.630139112472534,38.9585074251759,38.47080959038377,155.05465731139313,140.89540519774218,-6.47544875391759e-05,0.090120255947113,0,0,0
13106,444106.27445497847,2010-09-05 16:52:17,1860.940983508128,7,37,-1.099568486213684,3.626901388168335,38.9585074251759,38.4799775335643,155.05465731139313,140.92867074111342,-6.47544875391759e-05,0.090120255947113,0,0,0
13107,444136.2894382773,2010-09-05 16:52:47,1890.9559668018755,7,37,-1.0993878841400146,3.623663663864136,38.9585074251759,38.489145322004624,155.05465731139313,140.96190673803054,-9.713172767078504e-05,0.090120255947113,0,0,0
13108,444166.3046151384,2010-09-05 16:53:17,1920.9711436279647,7,37,-1.0997490882873535,3.6205878257751465,38.9585074251759,38.49831324916038,155.05465731139313,140.99511504480515,-9.713172767078504e-05,0.090120255947113,0,0,0
13109,444196.3198289016,2010-09-05 16:53:47,1950.986357396126,7,37,-1.0997490882873535,3.617673873901367,38.9585074251759,38.50748115373214,155.05465731139313,141.02829552131593,-9.713172767078504e-05,0.090120255947113,0,0,0
13110,444226.3378188889,2010-09-05 16:54:17,1981.0043474085408,7,37,-1.099568486213684,3.614598035812378,38.9585074251759,38.51664992842533,155.05465731139313,141.06145189085623,-9.713172767078504e-05,0.090120255947113,0,0,0
13111,444256.35019265895,2010-09-05 16:54:48,2011.0167211585024,7,37,-1.099568486213684,3.6120078563690186,38.9585074251759,38.52581700170689,155.05465731139313,141.09457552873806,-6.47544875391759e-05,0.090120255947113,0,0,0
13112,444286.36563234014,2010-09-05 16:55:18,2041.032160839708,7,37,-1.099568486213684,3.608932018280029,38.9585074251759,38.534984977780496,155.05465731139313,141.12767610241485,-6.47544875391759e-05,0.090120255947113,0,0,0
13113,444316.3809795759,2010-09-05 16:55:48,2071.047508105586,7,37,-1.099568486213684,3.60634183883667,38.9585074251759,38.544152930960486,155.05465731139313,141.16075032412274,-3.237724376958795e-05,0.090120255947113,0,0,0
13114,444346.3959006196,2010-09-05 16:56:18,2101.0624291191125,7,37,-1.099568486213684,3.6032660007476807,38.9585074251759,38.55332077742176,155.05465731139313,141.19379815577062,-9.713172767078504e-05,0.090120255947113,0,0,0
13115,444376.4110852651,2010-09-05 16:56:48,2131.0776138549154,7,37,-1.099568486213684,3.6006758213043213,38.9585074251759,38.56248866324447,155.05465731139313,141.226820642388,-6.47544875391759e-05,0.090120255947113,0,0,0
13116,444406.4260522933,2010-09-05 16:57:18,2161.092580787887,7,37,-1.0997490882873535,3.597761869430542,38.9585074251759,38.57165652793056,155.05465731139313,141.25981772069807,-6.47544875391759e-05,0.090120255947113,0,0,0
13117,444436.44122915954,2010-09-05 16:57:48,2191.107757664101,7,37,-1.099568486213684,3.5948479175567627,38.9585074251759,38.58082447426572,155.05465731139313,141.29278954747815,-9.713172767078504e-05,0.090120255947113,0,0,0
13118,444466.45641537406,2010-09-05 16:58:18,2221.122943878589,7,37,-1.0993878841400146,3.5922577381134038,38.9585074251759,38.58999243152584,155.05465731139313,141.32573565941607,-6.47544875391759e-05,0.090120255947113,0,0,0
13119,444496.47157604987,2010-09-05 16:58:48,2251.1381045494154,7,37,-1.0997490882873535,3.589344024658203,38.9585074251759,38.59916035406908,155.05465731139313,141.3586559735803,-9.713172767078504e-05,0.090120255947113,0,0,0
13120,444526.48677196354,2010-09-05 16:59:18,2281.1533004881394,7,37,-1.099568486213684,3.586591958999634,38.9585074251759,38.608328336278525,155.05465731139313,141.39155053127934,-6.47544875391759e-05,0.090120255947113,0,0,0
13121,444556.50205168605,2010-09-05 16:59:48,2311.1685801906287,7,37,-1.099568486213684,3.5838398933410645,38.9585074251759,38.61749634073446,155.05465731139313,141.42441901664426,-3.237724376958795e-05,0.090120255947113,0,0,0
13122,444586.5173184363,2010-09-05 17:00:18,2341.1838469358245,7,37,-1.099568486213684,3.580764055252075,38.9585074251759,38.626664353130565,155.05465731139313,141.45726139694358,-6.47544875391759e-05,0.090120255947113,0,0,0
13123,444616.5322813793,2010-09-05 17:00:48,2371.198809908927,7,37,-1.0997490882873535,3.577850103378296,38.9585074251759,38.63583229315592,155.05465731139313,141.49007653934615,-9.713172767078504e-05,0.090120255947113,0,0,0
13124,444646.5474551427,2010-09-05 17:01:18,2401.2139836473207,7,37,-1.0997490882873535,3.574774265289306,38.9585074251759,38.645000271041845,155.05465731139313,141.52286443360308,-6.47544875391759e-05,0.090120255947113,0,0,0
13125,444676.5626687305,2010-09-05 17:01:48,2431.2291972300195,7,37,-1.0993878841400146,3.571860313415528,38.9585074251759,38.65416822194003,155.05465731139313,141.555624417122,-6.47544875391759e-05,0.090120255947113,0,0,0
13126,444706.57779078,2010-09-05 17:02:18,2461.2443193046515,7,37,-1.0997490882873535,3.568622589111328,38.9585074251759,38.663336624125776,155.05465731139313,141.58835738361387,-9.713172767078504e-05,0.090120255947113,0,0,0
13127,444736.5930058514,2010-09-05 17:02:48,2491.25953439611,7,37,-1.0997490882873535,3.565384864807129,38.9585074251759,38.672505431230725,155.05465731139313,141.6210623826767,-9.713172767078504e-05,0.090120255947113,0,0,0
13128,444766.60817157984,2010-09-05 17:03:18,2521.2747000894537,7,37,-1.099568486213684,3.56230902671814,38.9585074251759,38.68167413894444,155.05465731139313,141.65373734010308,-6.47544875391759e-05,0.090120255947113,0,0,0
13129,444796.6233491378,2010-09-05 17:03:48,2551.289877642355,7,37,-1.0997490882873535,3.5587475299835205,38.9585074251759,38.69084294217164,155.05465731139313,141.68638258955454,-6.47544875391759e-05,0.090120255947113,0,0,0
13130,444826.63853884593,2010-09-05 17:04:18,2581.305067355563,7,37,-1.0997490882873535,3.5553479194641118,38.9585074251759,38.70001171711292,155.05465731139313,141.7189965897494,-9.713172767078504e-05,0.090120255947113,0,0,0
13131,444856.6537094967,2010-09-05 17:04:48,2611.3202380062617,7,37,-1.099568486213684,3.551786422729492,38.9585074251759,38.70918046549504,155.05465731139313,141.75157858383758,-6.47544875391759e-05,0.090120255947113,0,0,0
13132,444886.66891053313,2010-09-05 17:05:18,2641.335439062741,7,37,-1.099568486213684,3.548224925994873,38.9585074251759,38.71834893610716,155.05465731139313,141.78412675993073,-9.713172767078504e-05,0.090120255947113,0,0,0
13133,444916.68419853126,2010-09-05 17:05:48,2671.3507270308305,7,37,-1.0997490882873535,3.544339656829834,38.9585074251759,38.72751700136908,155.05465731139313,141.8166395437923,-9.713172767078504e-05,0.090120255947113,0,0,0
13134,444946.6992804007,2010-09-05 17:06:18,2701.365808930334,7,37,-1.099568486213684,3.540778160095215,38.9585074251759,38.73668500912613,155.05465731139313,141.84911706148205,-3.237724376958795e-05,0.090120255947113,0,0,0
13135,444976.7145774865,2010-09-05 17:06:48,2731.3811060261733,7,37,-1.099568486213684,3.536731004714966,38.9585074251759,38.74585306769428,155.05465731139313,141.88155858366284,-9.713172767078504e-05,0.090120255947113,0,0,0
13136,445006.7295986847,2010-09-05 17:07:18,2761.39612718429,7,37,-1.0997490882873535,3.532198190689087,38.9585074251759,38.75502109022467,155.05465731139313,141.91396190861835,-0.0001295089750783,0.090120255947113,0,0,0
13137,445036.74477263365,2010-09-05 17:07:48,2791.411301133209,7,37,-1.099568486213684,3.527989149093628,38.9585074251759,38.76418912604336,155.05465731139313,141.94632627708404,-9.713172767078504e-05,0.090120255947113,0,0,0
13138,445066.760094416,2010-09-05 17:08:18,2821.426622920587,7,37,-1.099568486213684,3.523456335067749,38.9585074251759,38.7733572683799,155.05465731139313,141.9786502436603,-0.0001618862152099,0.090120255947113,0,0,0
13139,445096.775148421,2010-09-05 17:08:48,2851.4416769456184,7,37,-1.0997490882873535,3.51859974861145,38.9585074251759,38.78252530609597,155.05465731139313,142.0109311268177,-0.0001295089750783,0.090120255947113,0,0,0
13140,445126.7904380583,2010-09-05 17:09:18,2881.4569665678305,7,37,-1.099568486213684,3.5135812759399414,38.9585074251759,38.79169344059204,155.05465731139313,142.04316730865568,-9.713172767078504e-05,0.090120255947113,0,0,0
13141,445156.8056479518,2010-09-05 17:09:48,2911.472176461334,7,37,-1.099568486213684,3.508077383041382,38.9585074251759,38.80086154610648,155.05465731139313,142.07535579133406,-0.0001618862152099,0.090120255947113,0,0,0
13142,445186.8206820471,2010-09-05 17:10:18,2941.487210556695,7,37,-1.0997490882873535,3.502411365509033,38.9585074251759,38.810029587730426,155.05465731139313,142.1074934999152,-0.0001618862152099,0.090120255947113,0,0,0
13143,445216.8359579151,2010-09-05 17:10:48,2971.50248642964,7,37,-1.0997490882873535,3.4964215755462646,38.9585074251759,38.81919774943911,155.05465731139313,142.1395771945518,-0.0001618862152099,0.090120255947113,0,0,0
13144,445246.85100890754,2010-09-05 17:11:18,3001.5175374171013,7,37,-1.099568486213684,3.4896223545074463,38.9585074251759,38.82836582033887,155.05465731139313,142.17160107695142,-0.0001618862152099,0.090120255947113,0,0,0
13145,445276.8659750385,2010-09-05 17:11:48,3031.5325035631117,7,37,-1.099568486213684,3.482013702392578,38.9585074251759,38.83753377394217,155.05465731139313,142.2035586771428,-0.0001618862152099,0.090120255947113,0,0,0
13146,445306.8813432265,2010-09-05 17:12:18,3061.547871746121,7,37,-1.099568486213684,3.4731099605560303,38.9585074251759,38.8467017302164,155.05465731139313,142.23544091452064,-0.0002266406954731,0.090120255947113,0,0,0
13147,445336.8965131554,2010-09-05 17:12:48,3091.5630416700083,7,37,-1.099568486213684,3.4629111289978027,38.9585074251759,38.85586959355539,155.05465731139313,142.2672367136789,-0.0002913951757363,0.090120255947113,0,0,0
13148,445366.9116884076,2010-09-05 17:13:18,3121.578216907138,7,37,-1.0997490882873535,3.4506077766418457,38.9585074251759,38.86503751214266,155.05465731139313,142.29893050328496,-0.0003561496851034,0.090120255947113,0,0,0
13149,445396.9267721317,2010-09-05 17:13:48,3151.593300656252,7,37,-1.099568486213684,3.4353904724121094,38.9585074251759,38.874205358640864,155.05465731139313,142.33049856240007,-0.0004532813909463,0.090120255947113,0,0,0
13150,445426.9420327716,2010-09-05 17:14:18,3181.608561271168,7,37,-1.099568486213684,3.415640592575073,38.9585074251759,38.88337328972257,155.05465731139313,142.3619073291407,-0.0005827903514727,0.090120255947113,0,0,0
13151,445456.9571979336,2010-09-05 17:14:48,3211.6237264382,7,37,-1.099568486213684,3.38909125328064,38.9585074251759,38.89254123094798,155.05465731139313,142.39310576190982,-0.0008094310760498,0.090120255947113,0,0,0
13152,445486.97249007714,2010-09-05 17:15:18,3241.6390186017456,7,37,-1.0993878841400146,3.352181196212769,38.9585074251759,38.90170920992204,155.05465731139313,142.4240167497394,-0.0011332035064697,0.090120255947113,0,0,0
13153,445516.9876801663,2010-09-05 17:15:48,3271.6542086658287,7,37,-1.099568486213684,3.2994065284729004,38.9585074251759,38.91087716206412,155.05465731139313,142.45452198595075,-0.0016512393485754,0.090120255947113,0,0,0
13154,445547.00295477104,2010-09-05 17:16:18,3301.669483270613,7,37,-1.099568486213684,3.223158359527588,38.9585074251759,38.92004510444264,155.05465731139313,142.4844440386995,-0.0023635388351976,0.090120255947113,0,0,0
13155,445577.0179265611,2010-09-05 17:16:48,3331.6844550606897,7,37,-1.099568486213684,3.1064388751983643,38.9585074251759,38.92921296238136,155.05465731139313,142.5135003559926,-0.0037880898453295,0.090120255947113,0,0,0
13156,445604.09565397445,2010-09-05 17:17:15,3358.7621824689995,7,37,-1.0997490882873535,2.9063479900360107,38.9585074251759,38.93748371352434,155.05465731139313,142.53848529619327,-0.0085799219086766,0.090120255947113,0,0,0
13157,445618.07978430507,2010-09-05 17:17:29,3372.746312804605,7,37,-1.0997490882873535,2.7060954570770264,38.9585074251759,38.94175504781115,155.05465731139313,142.550496890934,-0.0127242086455225,0.090120255947113,0,0,0
13158,445618.4704246812,2010-09-05 17:17:30,3373.1369531806195,7,37,-1.099568486213684,2.699943780899048,38.9585074251759,38.94187436450236,155.05465731139313,142.55081942121762,-0.0127889635041356,0.090120255947113,0,0,0
13159,445678.4989019259,2010-09-05 17:18:30,60.01471264497671,8,37,0.0,3.421792268753052,38.9585074251759,38.94187436450236,155.05465731139313,142.55081942121762,0.0012627125252038,0.090120255947113,0,0,0
13160,445678.6853845725,2010-09-05 17:18:30,0.187427762654616,9,37,-1.9243103452026844e-05,3.4219541549682617,38.9585074251759,38.94187436550422,155.05465731139313,142.55081942464594,0.0,0.0873680263757705,0,0,0
13161,445683.51354771067,2010-09-05 17:18:35,5.015590900783491,9,37,0.0008838032954372,3.42956280708313,38.958508300296245,38.94187436567128,155.05466030978525,142.5508194252176,0.0010684489971026,0.0873680263757705,0,0,0
