Data_Point,Test_Time(s),Date_Time,Step_Time(s),Step_Index,Cycle_Index,Current(A),Voltage(V),Charge_Capacity(Ah),Discharge_Capacity(Ah),Charge_Energy(Wh),Discharge_Energy(Wh),dV/dt(V/s),Internal_Resistance(Ohm),Is_FC_Data,AC_Impedance(Ohm),ACI_Phase_Angle(Deg)
362,12202.79374684646,2010-08-31 16:53:09,30.015158961565746,1,2,0.0,3.3232038021087646,1.052322023911945,1.097343791451988,4.198137058835394,4.027863942215453,0.0006475448608398,0.0865590572357177,0,0,0
363,12232.808915697671,2010-08-31 16:53:39,60.03032781779204,1,2,0.0,3.3432776927948,1.052322023911945,1.097343791451988,4.198137058835394,4.027863942215453,0.0005504131549969,0.0865590572357177,0,0,0
364,12262.824117826827,2010-08-31 16:54:09,90.04552995195718,1,2,0.0,3.358170986175537,1.052322023911945,1.097343791451988,4.198137058835394,4.027863942215453,0.0004209041653666,0.0865590572357177,0,0,0
365,12292.792405415508,2010-08-31 16:54:39,120.01381755567724,1,2,0.0,3.3698267936706543,1.052322023911945,1.097343791451988,4.198137058835394,4.027863942215453,0.0003237724304199,0.0865590572357177,0,0,0
366,12322.8078762747,2010-08-31 16:55:10,30.01502761922021,2,2,0.5499359965324402,3.5176284313201904,1.056908137949304,1.097343791451988,4.2140983793603,4.027863942215453,0.0017159462440758,0.0865590572357177,0,0,0
367,12352.822942064056,2010-08-31 16:55:40,60.03009341358462,2,2,0.5499359965324402,3.570565223693848,1.061494321288858,1.097343791451988,4.230359269441955,4.027863942215453,0.0011979580158367,0.0865590572357177,0,0,0
368,12382.838094078304,2010-08-31 16:56:10,90.04524542783552,2,2,0.5499359965324402,3.610874652862549,1.066080401885387,1.097343791451988,4.246830226985978,4.027863942215453,0.0009713172912597,0.0865590572357177,0,0,0
369,12412.853288959392,2010-08-31 16:56:40,120.06044033398624,2,2,0.5499359965324402,3.643575668334961,1.070666530106969,1.097343791451988,4.263467107958895,4.027863942215453,0.0008418083307333,0.0865590572357177,0,0,0
370,12442.868472016013,2010-08-31 16:57:10,150.0756233605293,2,2,0.5499359965324402,3.6707725524902335,1.075252615449546,1.097343791451988,4.280240875808376,4.027863942215453,0.0006799221155233,0.0865590572357177,0,0,0
371,12472.883824910918,2010-08-31 16:57:40,180.09097625042415,2,2,0.5499359965324402,3.6944077014923096,1.07983874338672,1.097343791451988,4.297131357999515,4.027863942215453,0.0005827903514727,0.0865590572357177,0,0,0
372,12502.898787212343,2010-08-31 16:58:10,210.1059385568648,2,2,0.5501165986061096,3.7148053646087646,1.084424770142114,1.097343791451988,4.314122002731341,4.027863942215453,0.0005180359003134,0.0865590572357177,0,0,0
373,12532.913977446857,2010-08-31 16:58:40,240.12112879638485,2,2,0.5501165986061096,3.731965303421021,1.089010895907011,1.097343791451988,4.331199124516856,4.027863942215453,0.0004209041653666,0.0865590572357177,0,0,0
374,12562.929255740832,2010-08-31 16:59:10,270.13640711041364,2,2,0.5499359965324402,3.745725631713867,1.093597017233006,1.097343791451988,4.348347574576767,4.027863942215453,0.0002913951757363,0.0865590572357177,0,0,0
375,12592.944326577765,2010-08-31 16:59:40,300.1514779222832,2,2,0.5499359965324402,3.754952907562256,1.098183169832554,1.097343791451988,4.36554979848219,4.027863942215453,0.0001618862152099,0.0865590572357177,0,0,0
376,12622.95949239642,2010-08-31 17:00:10,330.1666437660014,2,2,0.5501165986061096,3.760133266448975,1.102769318734316,1.097343791451988,4.382784173956687,4.027863942215453,6.47544875391759e-05,0.0865590572357177,0,0,0
377,12652.974645939485,2010-08-31 17:00:40,360.18179727898763,2,2,0.550297200679779,3.763370990753174,1.107355492055721,1.097343791451988,4.40003633021958,4.027863942215453,9.713172767078504e-05,0.0865590572357177,0,0,0
378,12682.989822419708,2010-08-31 17:01:10,390.19697378427776,2,2,0.5501165986061096,3.7657992839813232,1.111941606109192,1.097343791451988,4.417300784101394,4.027863942215453,6.47544875391759e-05,0.0865590572357177,0,0,0
379,12713.005000899922,2010-08-31 17:01:40,420.21215224945246,2,2,0.5501165986061096,3.768065690994263,1.116527761539089,1.097343791451988,4.434576553586635,4.027863942215453,3.237724376958795e-05,0.0865590572357177,0,0,0
380,12743.02015117985,2010-08-31 17:02:10,450.2273025343934,2,2,0.5501165986061096,3.770493984222412,1.121113925022825,1.097343791451988,4.451863230446333,4.027863942215453,6.47544875391759e-05,0.0865590572357177,0,0,0
381,12773.035328537262,2010-08-31 17:02:40,480.24247988679474,2,2,0.5499359965324402,3.772760391235352,1.125700089689915,1.097343791451988,4.469160814102867,4.027863942215453,3.237724376958795e-05,0.0865590572357177,0,0,0
382,12803.05066445486,2010-08-31 17:03:10,510.25781583446434,2,2,0.5501165986061096,3.775512456893921,1.130286262914531,1.097343791451988,4.486469721672939,4.027863942215453,9.713172767078504e-05,0.0865590572357177,0,0,0
383,12833.065694104138,2010-08-31 17:03:40,540.272845473719,2,2,0.5501165986061096,3.777778863906861,1.134872442831357,1.097343791451988,4.503789905994731,4.027863942215453,6.47544875391759e-05,0.0865590572357177,0,0,0
384,12863.0810012801,2010-08-31 17:04:10,570.2881526296308,2,2,0.5499359965324402,3.7802071571350098,1.139458658515857,1.097343791451988,4.521121564281439,4.027863942215453,6.47544875391759e-05,0.0865590572357177,0,0,0
385,12893.09602688931,2010-08-31 17:04:40,600.3031782388415,2,2,0.5501165986061096,3.782797336578369,1.144044769324768,1.097343791451988,4.538464177903197,4.027863942215453,6.47544875391759e-05,0.0865590572357177,0,0,0
386,12923.111162417474,2010-08-31 17:05:10,630.3183137670039,2,2,0.5499359965324402,3.7850637435913086,1.148630933494896,1.097343791451988,4.555818486674612,4.027863942215453,3.237724376958795e-05,0.0865590572357177,0,0,0
387,12953.12635189008,2010-08-31 17:05:40,660.3335032496376,2,2,0.5501165986061096,3.787815809249878,1.153217104550694,1.097343791451988,4.573184144928987,4.027863942215453,6.47544875391759e-05,0.0865590572357177,0,0,0
388,12983.141514149867,2010-08-31 17:06:10,690.348665494386,2,2,0.5501165986061096,3.7902441024780273,1.157803257610972,1.097343791451988,4.590561107103814,4.027863942215453,6.47544875391759e-05,0.0865590572357177,0,0,0
389,13013.156691487233,2010-08-31 17:06:40,720.3638428517999,2,2,0.550297200679779,3.7928342819213863,1.162389444830024,1.097343791451988,4.607949572465452,4.027863942215453,6.47544875391759e-05,0.0865590572357177,0,0,0
390,13043.171806368937,2010-08-31 17:07:10,750.3789577385176,2,2,0.5501165986061096,3.795424461364746,1.166975597857493,1.097343791451988,4.62534951585205,4.027863942215453,6.47544875391759e-05,0.0865590572357177,0,0,0
391,13073.1869845484,2010-08-31 17:07:40,780.3941359079552,2,2,0.550297200679779,3.797852754592896,1.171561680483749,1.097343791451988,4.642760990786977,4.027863942215453,6.47544875391759e-05,0.0865590572357177,0,0,0
392,13103.202262195766,2010-08-31 17:08:10,810.4094135503099,2,2,0.5499359965324402,3.800604820251465,1.176147782064992,1.097343791451988,4.660184605224683,4.027863942215453,0.0001295089750783,0.0865590572357177,0,0,0
393,13133.217304777278,2010-08-31 17:08:40,840.4244561418458,2,2,0.550297200679779,3.803518772125244,1.180733881311675,1.097343791451988,4.677620567354492,4.027863942215453,0.0001295089750783,0.0865590572357177,0,0,0
394,13163.232496826307,2010-08-31 17:09:10,870.4396481908758,2,2,0.5499359965324402,3.806108951568604,1.185320114085414,1.097343791451988,4.695069874603838,4.027863942215453,9.713172767078504e-05,0.0865590572357177,0,0,0
395,13193.247685015718,2010-08-31 17:09:40,900.4548363602363,2,2,0.5501165986061096,3.8091847896575928,1.189906531650113,1.097343791451988,4.712533247249283,4.027863942215453,9.713172767078504e-05,0.0865590572357177,0,0,0
396,13223.262817200548,2010-08-31 17:10:10,930.4699685450662,2,2,0.5501165986061096,3.812098741531372,1.194492919812238,1.097343791451988,4.730010338578821,4.027863942215453,6.47544875391759e-05,0.0865590572357177,0,0,0
397,13253.277994066735,2010-08-31 17:10:40,960.4851454112556,2,2,0.5499359965324402,3.8153364658355713,1.199079369577609,1.097343791451988,4.747502273251185,4.027863942215453,9.713172767078504e-05,0.0865590572357177,0,0,0
398,13283.293151449368,2010-08-31 17:11:10,990.5003028139364,2,2,0.5501165986061096,3.818736076354981,1.203665809265233,1.097343791451988,4.765008967930622,4.027863942215453,9.713172767078504e-05,0.0865590572357177,0,0,0
399,13313.308329914542,2010-08-31 17:11:40,1020.5154812590612,2,2,0.5501165986061096,3.8221356868743896,1.208252303888415,1.097343791451988,4.782530903532528,4.027863942215453,9.713172767078504e-05,0.0865590572357177,0,0,0
400,13343.323495808385,2010-08-31 17:12:10,1050.5306471529043,2,2,0.5501165986061096,3.825211524963379,1.21283874249611,1.097343791451988,4.800067574477147,4.027863942215453,6.47544875391759e-05,0.0865590572357177,0,0,0
401,13373.338662439066,2010-08-31 17:12:40,1080.5458137835838,2,2,0.5499359965324402,3.828449249267578,1.21742522461176,1.097343791451988,4.817619495938883,4.027863942215453,6.47544875391759e-05,0.0865590572357177,0,0,0
402,13403.35383245819,2010-08-31 17:13:10,1110.5609838027085,2,2,0.5501165986061096,3.8318488597869873,1.222011605855072,1.097343791451988,4.835185943154393,4.027863942215453,9.713172767078504e-05,0.0865590572357177,0,0,0
403,13433.372319805116,2010-08-31 17:13:40,1140.5794712599093,2,2,0.5499359965324402,3.835086345672608,1.2265986138441,1.097343791451988,4.852769453277976,4.027863942215453,9.713172767078504e-05,0.0865590572357177,0,0,0
404,13463.384250099853,2010-08-31 17:14:10,1170.5914014594066,2,2,0.5499359965324402,3.8380002975463863,1.231184551793545,1.097343791451988,4.870363303323004,4.027863942215453,3.237724376958795e-05,0.0865590572357177,0,0,0
405,13493.399351352587,2010-08-31 17:14:40,1200.6065026920942,2,2,0.5497553944587708,3.840914249420166,1.235771011075539,1.097343791451988,4.887973311129627,4.027863942215453,6.47544875391759e-05,0.0865590572357177,0,0,0
406,13523.414642503612,2010-08-31 17:15:10,1230.6217938431166,2,2,0.5499359965324402,3.8439900875091553,1.240357445228978,1.097343791451988,4.905597130242709,4.027863942215453,3.237724376958795e-05,0.0865590572357177,0,0,0
407,13553.429711906969,2010-08-31 17:15:40,1260.6368632514884,2,2,0.5499359965324402,3.846904039382935,1.244943861833934,1.097343791451988,4.923234599284275,4.027863942215453,3.237724376958795e-05,0.0865590572357177,0,0,0
408,13583.444980306287,2010-08-31 17:16:10,1290.652131645794,2,2,0.5501165986061096,3.849979877471924,1.249530361882639,1.097343791451988,4.940885910989716,4.027863942215453,3.237724376958795e-05,0.0865590572357177,0,0,0
409,13613.460020171027,2010-08-31 17:16:40,1320.667171510534,2,2,0.5499359965324402,3.852731943130493,1.254116847469939,1.097343791451988,4.958550488659481,4.027863942215453,3.237724376958795e-05,0.0865590572357177,0,0,0
410,13643.475327121429,2010-08-31 17:17:10,1350.6824784709584,2,2,0.5499359965324402,3.855645895004273,1.258703350503641,1.097343791451988,4.976227941141235,4.027863942215453,6.47544875391759e-05,0.0865590572357177,0,0,0
411,13673.490405692635,2010-08-31 17:17:40,1380.6975570572042,2,2,0.5501165986061096,3.858397960662842,1.263289759096669,1.097343791451988,4.993917632793494,4.027863942215453,9.713172767078504e-05,0.0865590572357177,0,0,0
412,13703.505661420371,2010-08-31 17:18:10,1410.7128127598785,2,2,0.5499359965324402,3.860826253890991,1.267876231342173,1.097343791451988,5.011619569942855,4.027863942215453,6.47544875391759e-05,0.0865590572357177,0,0,0
413,13733.520699911687,2010-08-31 17:18:40,1440.7278512562075,2,2,0.5501165986061096,3.8632545471191406,1.272462750714375,1.097343791451988,5.029333157440973,4.027863942215453,3.237724376958795e-05,0.0865590572357177,0,0,0
414,13763.536000641585,2010-08-31 17:19:10,1470.7431519861038,2,2,0.5501165986061096,3.86552095413208,1.277049202688641,1.097343791451988,5.047057124179487,4.027863942215453,6.47544875391759e-05,0.0865590572357177,0,0,0
415,13793.551071032403,2010-08-31 17:19:40,1500.7582223719116,2,2,0.5501165986061096,3.8676254749298096,1.28163563517559,1.097343791451988,5.064791090959897,4.027863942215453,0.0,0.0865590572357177,0,0,0
416,13823.566361672154,2010-08-31 17:20:10,1530.7735130166725,2,2,0.5501165986061096,3.869568109512329,1.286222230559732,1.097343791451988,5.082535094220603,4.027863942215453,6.47544875391759e-05,0.0865590572357177,0,0,0
417,13853.581415231023,2010-08-31 17:20:40,1560.7885665805547,2,2,0.5499359965324402,3.871348857879639,1.290808649309761,1.097343791451988,5.100286967963664,4.027863942215453,0.0,0.0865590572357177,0,0,0
418,13883.596590377929,2010-08-31 17:21:10,1590.8037417424966,2,2,0.5501165986061096,3.8729677200317374,1.295395109435404,1.097343791451988,5.118046845243521,4.027863942215453,3.237724376958795e-05,0.0865590572357177,0,0,0
419,13913.611743705453,2010-08-31 17:21:40,1620.8188950499707,2,2,0.5501165986061096,3.874424695968628,1.299981617540426,1.097343791451988,5.135813944164376,4.027863942215453,0.0,0.0865590572357177,0,0,0
420,13943.626907864971,2010-08-31 17:22:10,1650.8340592044788,2,2,0.5499359965324402,3.875719785690308,1.304568103932896,1.097343791451988,5.153587399746413,4.027863942215453,0.0,0.0865590572357177,0,0,0
421,13973.64206775385,2010-08-31 17:22:40,1680.8492190933555,2,2,0.5501165986061096,3.877176761627197,1.309154594832911,1.097343791451988,5.171366729723964,4.027863942215453,6.47544875391759e-05,0.0865590572357177,0,0,0
422,14003.657250058592,2010-08-31 17:23:10,1710.8644014031124,2,2,0.5499359965324402,3.878148078918457,1.313741015980923,1.097343791451988,5.189151201725955,4.027863942215453,0.0,0.0865590572357177,0,0,0
423,14033.672448002317,2010-08-31 17:23:40,1740.8795993418212,2,2,0.5501165986061096,3.879281282424927,1.318327540530564,1.097343791451988,5.206941207351411,4.027863942215453,0.0,0.0865590572357177,0,0,0
424,14063.68758916452,2010-08-31 17:24:10,1770.8947405090378,2,2,0.5501165986061096,3.880090713500977,1.322914047521794,1.097343791451988,5.224735789603942,4.027863942215453,-3.237724376958795e-05,0.0865590572357177,0,0,0
425,14093.702772211112,2010-08-31 17:24:40,1800.909923575681,2,2,0.550297200679779,3.881385803222656,1.327500581652235,1.097343791451988,5.242535126527602,4.027863942215453,3.237724376958795e-05,0.0865590572357177,0,0,0
426,14123.717945799131,2010-08-31 17:25:10,1830.9250971436504,2,2,0.550297200679779,3.882195234298706,1.332087070535222,1.097343791451988,5.260338665129167,4.027863942215453,3.237724376958795e-05,0.0865590572357177,0,0,0
427,14153.73310829952,2010-08-31 17:25:40,1860.9402596390232,2,2,0.5499359965324402,3.883166551589966,1.336673563492573,1.097343791451988,5.2781465779994,4.027863942215453,3.237724376958795e-05,0.0865590572357177,0,0,0
428,14183.748259807506,2010-08-31 17:26:11,1890.9554111570376,2,2,0.550297200679779,3.8841378688812256,1.341260136098915,1.097343791451988,5.295959085664165,4.027863942215453,6.47544875391759e-05,0.0865590572357177,0,0,0
429,14213.763700706748,2010-08-31 17:26:41,1920.9708520462536,2,2,0.5499359965324402,3.8847854137420654,1.345846718278458,1.097343791451988,5.313775626221098,4.027863942215453,-3.237724376958795e-05,0.0865590572357177,0,0,0
430,14243.77872805028,2010-08-31 17:27:11,1950.985879419862,2,2,0.5501165986061096,3.885918617248535,1.35043323014925,1.097343791451988,5.331596037584744,4.027863942215453,3.237724376958795e-05,0.0865590572357177,0,0,0
431,14273.79378976949,2010-08-31 17:27:41,1981.0009411140072,2,2,0.550297200679779,3.886889934539795,1.355019753277308,1.097343791451988,5.349420617437484,4.027863942215453,6.47544875391759e-05,0.0865590572357177,0,0,0
432,14303.80896201416,2010-08-31 17:28:11,2011.0161133787285,2,2,0.5501165986061096,3.8875374794006343,1.359606298864265,1.097343791451988,5.367249296988787,4.027863942215453,0.0,0.0865590572357177,0,0,0
433,14333.824121401787,2010-08-31 17:28:41,2041.0312727412936,2,2,0.550297200679779,3.888670682907105,1.364192788351596,1.097343791451988,5.38508184960967,4.027863942215453,6.47544875391759e-05,0.0865590572357177,0,0,0
434,14363.839288588852,2010-08-31 17:29:11,2071.0464399333723,2,2,0.5499359965324402,3.889318227767944,1.368779418679399,1.097343791451988,5.402919082253199,4.027863942215453,0.0,0.0865590572357177,0,0,0
435,14393.854469299626,2010-08-31 17:29:41,2101.061620644144,2,2,0.5501165986061096,3.890289545059204,1.37336596297831,1.097343791451988,5.420759959511931,4.027863942215453,6.47544875391759e-05,0.0865590572357177,0,0,0
436,14423.86963475738,2010-08-31 17:30:11,2131.0767861019,2,2,0.5501165986061096,3.891098976135254,1.377952507051901,1.097343791451988,5.438604983256401,4.027863942215453,0.0,0.0865590572357177,0,0,0
437,14453.884796515917,2010-08-31 17:30:41,2161.091947860437,2,2,0.5501165986061096,3.8920702934265137,1.382539026794639,1.097343791451988,5.45645408427915,4.027863942215453,0.0,0.0865590572357177,0,0,0
438,14483.900095902463,2010-08-31 17:31:11,2191.1072472419723,2,2,0.5501165986061096,3.892879724502564,1.387125589246362,1.097343791451988,5.474307484833402,4.027863942215453,-3.237724376958795e-05,0.0865590572357177,0,0,0
439,14513.91517050378,2010-08-31 17:31:41,2221.1223218432865,2,2,0.5501165986061096,3.8938510417938232,1.391712025170002,1.097343791451988,5.492164580878889,4.027863942215453,3.237724376958795e-05,0.0865590572357177,0,0,0
440,14543.930305024433,2010-08-31 17:32:11,2251.137456363938,2,2,0.5499359965324402,3.894822359085083,1.396298582397528,1.097343791451988,5.510026458547688,4.027863942215453,0.0,0.0865590572357177,0,0,0
441,14573.94547501348,2010-08-31 17:32:41,2281.152626352987,2,2,0.550297200679779,3.8959555625915527,1.400885116834636,1.097343791451988,5.527891884018197,4.027863942215453,3.237724376958795e-05,0.0865590572357177,0,0,0
442,14603.960644401031,2010-08-31 17:33:11,2311.1677957405377,2,2,0.5499359965324402,3.8966031074523926,1.405471527294673,1.097343791451988,5.545761373594277,4.027863942215453,3.237724376958795e-05,0.0865590572357177,0,0,0
443,14633.97582709174,2010-08-31 17:33:41,2341.182978431244,2,2,0.5501165986061096,3.897574424743652,1.410057979074816,1.097343791451988,5.563635461731139,4.027863942215453,0.0,0.0865590572357177,0,0,0
444,14663.990989281348,2010-08-31 17:34:11,2371.198140620855,2,2,0.550297200679779,3.898707628250122,1.414644449078827,1.097343791451988,5.581514112477255,4.027863942215453,3.237724376958795e-05,0.0865590572357177,0,0,0
445,14694.006153044884,2010-08-31 17:34:41,2401.2133043894014,2,2,0.5501165986061096,3.899678945541382,1.419230986635019,1.097343791451988,5.599397601944658,4.027863942215453,0.0,0.0865590572357177,0,0,0
446,14724.021495243132,2010-08-31 17:35:11,2431.228646612712,2,2,0.5499359965324402,3.9006502628326416,1.423817517776018,1.097343791451988,5.617285561952333,4.027863942215453,6.47544875391759e-05,0.0865590572357177,0,0,0
447,14754.036517664395,2010-08-31 17:35:41,2461.243669003902,2,2,0.550297200679779,3.901621580123901,1.428403943600646,1.097343791451988,5.635177805556823,4.027863942215453,3.237724376958795e-05,0.0865590572357177,0,0,0
448,14784.051790349396,2010-08-31 17:36:11,2491.258941693914,2,2,0.5499359965324402,3.902754783630371,1.432990471579702,1.097343791451988,5.653075162953948,4.027863942215453,6.47544875391759e-05,0.0865590572357177,0,0,0
449,14814.06686991809,2010-08-31 17:36:41,2521.2740212575955,2,2,0.5501165986061096,3.903726100921631,1.437576917627896,1.097343791451988,5.67097700484582,4.027863942215453,3.237724376958795e-05,0.0865590572357177,0,0,0
450,14844.082018649156,2010-08-31 17:37:11,2551.2891699936768,2,2,0.5501165986061096,3.90469741821289,1.442163454628738,1.097343791451988,5.688884123851105,4.027863942215453,0.0,0.0865590572357177,0,0,0
451,14874.097187705884,2010-08-31 17:37:41,2581.304339050402,2,2,0.5499359965324402,3.9059925079345694,1.446750032490884,1.097343791451988,5.706796206071378,4.027863942215453,3.237724376958795e-05,0.0865590572357177,0,0,0
452,14904.112344381754,2010-08-31 17:38:11,2611.319495721259,2,2,0.5501165986061096,3.90696382522583,1.45133649471173,1.097343791451988,5.724712861435556,4.027863942215453,3.237724376958795e-05,0.0865590572357177,0,0,0
453,14934.127529378206,2010-08-31 17:38:41,2641.3346807377616,2,2,0.550297200679779,3.9080970287323,1.455922991211483,1.097343791451988,5.742634734458128,4.027863942215453,3.237724376958795e-05,0.0865590572357177,0,0,0
454,14964.142682881167,2010-08-31 17:39:11,2671.3498342256853,2,2,0.5501165986061096,3.9092302322387695,1.460509471615388,1.097343791451988,5.760561709767311,4.027863942215453,3.237724376958795e-05,0.0865590572357177,0,0,0
455,14994.157870203417,2010-08-31 17:39:41,2701.365021542922,2,2,0.5501165986061096,3.9103634357452393,1.465095966677384,1.097343791451988,5.778494026997108,4.027863942215453,0.0,0.0865590572357177,0,0,0
456,15024.17303577646,2010-08-31 17:40:11,2731.3801871209785,2,2,0.5501165986061096,3.911496639251709,1.469682489015979,1.097343791451988,5.796431636774154,4.027863942215453,0.0,0.0865590572357177,0,0,0
457,15054.188192763104,2010-08-31 17:40:41,2761.395344102609,2,2,0.5499359965324402,3.9126298427581783,1.47426889505961,1.097343791451988,5.814374217423088,4.027863942215453,0.0,0.0865590572357177,0,0,0
458,15084.203348456524,2010-08-31 17:41:11,2791.4104998010425,2,2,0.5499359965324402,3.9139246940612793,1.478855393862736,1.097343791451988,5.832322636505486,4.027863942215453,3.237724376958795e-05,0.0865590572357177,0,0,0
459,15114.218567573014,2010-08-31 17:41:41,2821.425718917533,2,2,0.5501165986061096,3.915057897567749,1.483441851692944,1.097343791451988,5.850276498141033,4.027863942215453,0.0,0.0865590572357177,0,0,0
460,15144.23370924148,2010-08-31 17:42:11,2851.440860606049,2,2,0.5501165986061096,3.9163529872894287,1.488028397724116,1.097343791451988,5.86823620594746,4.027863942215453,0.0,0.0865590572357177,0,0,0
461,15174.248849290912,2010-08-31 17:42:41,2881.456000640442,2,2,0.5501165986061096,3.917648077011109,1.492614876837132,1.097343791451988,5.886201447373733,4.027863942215453,3.237724376958795e-05,0.0865590572357177,0,0,0
462,15204.264143930628,2010-08-31 17:43:11,2911.47129530021,2,2,0.5501165986061096,3.918943166732788,1.497201371767882,1.097343791451988,5.904172510324583,4.027863942215453,3.237724376958795e-05,0.0865590572357177,0,0,0
463,15234.279277549032,2010-08-31 17:43:41,2941.486428983775,2,2,0.5501165986061096,3.920238256454468,1.501787823457388,1.097343791451988,5.922149299384345,4.027863942215453,6.47544875391759e-05,0.0865590572357177,0,0,0
464,15264.294480555373,2010-08-31 17:44:11,2971.5016319049014,2,2,0.5501165986061096,3.9213714599609375,1.506374326539072,1.097343791451988,5.940132184347037,4.027863942215453,3.237724376958795e-05,0.0865590572357177,0,0,0
465,15294.30952363312,2010-08-31 17:44:41,3001.5166749776363,2,2,0.5501165986061096,3.922828435897827,1.510960751367073,1.097343791451988,5.958120789916021,4.027863942215453,3.237724376958795e-05,0.0865590572357177,0,0,0
466,15324.324697577023,2010-08-31 17:45:11,3031.531848921543,2,2,0.5501165986061096,3.924285411834717,1.515547246088809,1.097343791451988,5.976115749401439,4.027863942215453,6.47544875391759e-05,0.0865590572357177,0,0,0
467,15354.342701529182,2010-08-31 17:45:41,3061.5498529238253,2,2,0.550297200679779,3.925580501556397,1.520134188826209,1.097343791451988,5.994118717215989,4.027863942215453,3.237724376958795e-05,0.0865590572357177,0,0,0
468,15384.355061930875,2010-08-31 17:46:11,3091.5622133004563,2,2,0.5499359965324402,3.926875591278076,1.524720223397492,1.097343791451988,6.012124237463803,4.027863942215453,3.237724376958795e-05,0.0865590572357177,0,0,0
469,15414.37020474219,2010-08-31 17:46:41,3121.5773560867087,2,2,0.5501165986061096,3.928170680999756,1.529306638655492,1.097343791451988,6.03013760227908,4.027863942215453,3.237724376958795e-05,0.0865590572357177,0,0,0
470,15444.38550177788,2010-08-31 17:47:11,3151.59265314746,2,2,0.5501165986061096,3.9296276569366455,1.533893118086674,1.097343791451988,6.048157605710133,4.027863942215453,6.47544875391759e-05,0.0865590572357177,0,0,0
471,15474.400558469555,2010-08-31 17:47:41,3181.6077098090627,2,2,0.5501165986061096,3.931084632873535,1.538479595827855,1.097343791451988,6.066184108698655,4.027863942215453,6.47544875391759e-05,0.0865590572357177,0,0,0
472,15504.4157407743,2010-08-31 17:48:11,3211.622892143882,2,2,0.550297200679779,3.9327034950256343,1.54306603974515,1.097343791451988,6.084216933679012,4.027863942215453,6.47544875391759e-05,0.0865590572357177,0,0,0
473,15534.43088212698,2010-08-31 17:48:41,3241.638033466486,2,2,0.5501165986061096,3.933836698532105,1.547652554154172,1.097343791451988,6.102256714606467,4.027863942215453,0.0,0.0865590572357177,0,0,0
474,15564.446067564531,2010-08-31 17:49:11,3271.653218924088,2,2,0.5501165986061096,3.935455560684204,1.552239094857632,1.097343791451988,6.120303343677469,4.027863942215453,6.47544875391759e-05,0.0865590572357177,0,0,0
475,15594.461226606296,2010-08-31 17:49:41,3301.6683779458035,2,2,0.5499359965324402,3.936750650405884,1.556825639055608,1.097343791451988,6.138356634799537,4.027863942215453,3.237724376958795e-05,0.0865590572357177,0,0,0
476,15624.476384480153,2010-08-31 17:50:11,3331.683535824671,2,2,0.5501165986061096,3.938531398773194,1.561412138919798,1.097343791451988,6.156416659802352,4.027863942215453,6.47544875391759e-05,0.0865590572357177,0,0,0
477,15654.491548945434,2010-08-31 17:50:41,3361.698700284941,2,2,0.5499359965324402,3.939664602279663,1.565998621092673,1.097343791451988,6.174483495806902,4.027863942215453,-3.237724376958795e-05,0.0865590572357177,0,0,0
478,15684.506795700809,2010-08-31 17:51:11,3391.7139470453285,2,2,0.5501165986061096,3.9414453506469727,1.570585087104015,1.097343791451988,6.192557293205607,4.027863942215453,3.237724376958795e-05,0.0865590572357177,0,0,0
479,15714.521893469864,2010-08-31 17:51:41,3421.7290448143835,2,2,0.5499359965324402,3.943064212799072,1.575171496551295,1.097343791451988,6.210637853169357,4.027863942215453,9.713172767078504e-05,0.0865590572357177,0,0,0
480,15744.537188400309,2010-08-31 17:52:11,3451.7443397749007,2,2,0.5501165986061096,3.944683074951172,1.579757972016161,1.097343791451988,6.228725851098989,4.027863942215453,6.47544875391759e-05,0.0865590572357177,0,0,0
481,15774.552256420218,2010-08-31 17:52:41,3481.7594077847866,2,2,0.550297200679779,3.9461400508880615,1.584344495393819,1.097343791451988,6.246821303824721,4.027863942215453,3.237724376958795e-05,0.0865590572357177,0,0,0
482,15804.56751165172,2010-08-31 17:53:11,3511.774663001249,2,2,0.550297200679779,3.947758913040161,1.588930947214271,1.097343791451988,6.264923635916754,4.027863942215453,6.47544875391759e-05,0.0865590572357177,0,0,0
483,15834.582590062528,2010-08-31 17:53:41,3541.789741412057,2,2,0.5499359965324402,3.949215888977051,1.593517415797233,1.097343791451988,6.283033469727508,4.027863942215453,0.0,0.0865590572357177,0,0,0
484,15864.597843544669,2010-08-31 17:54:11,3571.804994894197,2,2,0.5499359965324402,3.95099663734436,1.59810395032628,1.097343791451988,6.301151019742513,4.027863942215453,6.47544875391759e-05,0.0865590572357177,0,0,0
485,15894.612921233676,2010-08-31 17:54:41,3601.820072573182,2,2,0.5501165986061096,3.95245361328125,1.602690398820396,1.097343791451988,6.319275759306102,4.027863942215453,0.0,0.0865590572357177,0,0,0
486,15924.628190404916,2010-08-31 17:55:11,3631.8353417544495,2,2,0.5499359965324402,3.95423436164856,1.607276916363597,1.097343791451988,6.337408417355534,4.027863942215453,3.237724376958795e-05,0.0865590572357177,0,0,0
487,15954.643238535258,2010-08-31 17:55:41,3661.850389874765,2,2,0.5497553944587708,3.955853223800659,1.611863370477123,1.097343791451988,6.355548506182534,4.027863942215453,0.0,0.0865590572357177,0,0,0
488,15984.658416198434,2010-08-31 17:56:11,3691.865567537941,2,2,0.550297200679779,3.9579577445983887,1.616449919756027,1.097343791451988,6.373696754601909,4.027863942215453,9.713172767078504e-05,0.0865590572357177,0,0,0
489,16014.673583290263,2010-08-31 17:56:41,3721.880734634783,2,2,0.5501165986061096,3.9594147205352783,1.621036410438922,1.097343791451988,6.391852725253759,4.027863942215453,3.237724376958795e-05,0.0865590572357177,0,0,0
490,16044.688799634843,2010-08-31 17:57:11,3751.895951079614,2,2,0.550297200679779,3.961195468902588,1.625622895749603,1.097343791451988,6.410016641589806,4.027863942215453,6.47544875391759e-05,0.0865590572357177,0,0,0
491,16074.703914516553,2010-08-31 17:57:41,3781.9110658560567,2,2,0.550297200679779,3.9631381034851074,1.630209383912756,1.097343791451988,6.428188645075933,4.027863942215453,6.47544875391759e-05,0.0865590572357177,0,0,0
492,16104.71906081656,2010-08-31 17:58:12,3811.926212156066,2,2,0.5501165986061096,3.964756965637207,1.63479580562039,1.097343791451988,6.446368590108184,4.027863942215453,3.237724376958795e-05,0.0865590572357177,0,0,0
493,16134.734495550436,2010-08-31 17:58:42,3841.9416468949535,2,2,0.5501165986061096,3.9665377140045166,1.639382369488824,1.097343791451988,6.464557486330828,4.027863942215453,3.237724376958795e-05,0.0865590572357177,0,0,0
494,16164.749534272329,2010-08-31 17:59:12,3871.9566856218576,2,2,0.5501165986061096,3.968480348587036,1.643968877168311,1.097343791451988,6.482754570231657,4.027863942215453,6.47544875391759e-05,0.0865590572357177,0,0,0
495,16194.764582041766,2010-08-31 17:59:42,3901.9717333862855,2,2,0.5501165986061096,3.970422983169556,1.648555382466045,1.097343791451988,6.500960169533572,4.027863942215453,3.237724376958795e-05,0.0865590572357177,0,0,0
496,16224.779739524649,2010-08-31 18:00:12,3931.986890869166,2,2,0.550297200679779,3.972365617752075,1.653141873451038,1.097343791451988,6.519174453867608,4.027863942215453,6.47544875391759e-05,0.0865590572357177,0,0,0
497,16254.794890641664,2010-08-31 18:00:42,3962.0020419861808,2,2,0.5501165986061096,3.9743082523345943,1.657728398888371,1.097343791451988,6.537397634628579,4.027863942215453,6.47544875391759e-05,0.0865590572357177,0,0,0
498,16284.810058600651,2010-08-31 18:01:12,3992.0172099401593,2,2,0.5501165986061096,3.9759271144866943,1.66231497134905,1.097343791451988,6.555629908509079,4.027863942215453,0.0,0.0865590572357177,0,0,0
499,16314.825458342317,2010-08-31 18:01:42,4022.032609681823,2,2,0.5501165986061096,3.977869749069214,1.66690154546818,1.097343791451988,6.573871059713281,4.027863942215453,3.237724376958795e-05,0.0865590572357177,0,0,0
500,16344.840526723128,2010-08-31 18:02:12,4052.0476780726585,2,2,0.5497553944587708,3.979974269866944,1.67148804083358,1.097343791451988,6.592120841115565,4.027863942215453,6.47544875391759e-05,0.0865590572357177,0,0,0
501,16374.855437932218,2010-08-31 18:02:42,4082.0625892967855,2,2,0.5499359965324402,3.982078790664673,1.67607440886773,1.097343791451988,6.610379525667417,4.027863942215453,6.47544875391759e-05,0.0865590572357177,0,0,0
502,16404.870843633737,2010-08-31 18:03:12,4112.077994983266,2,2,0.5501165986061096,3.984021425247192,1.680659945400765,1.097343791451988,6.628643937268178,4.027863942215453,3.237724376958795e-05,0.0865590572357177,0,0,0
503,16434.885797444,2010-08-31 18:03:42,4142.092948803556,2,2,0.5501165986061096,3.986125946044922,1.685245400607365,1.097343791451988,6.646917228813366,4.027863942215453,6.47544875391759e-05,0.0865590572357177,0,0,0
504,16464.90116391274,2010-08-31 18:04:12,4172.10831526227,2,2,0.5501165986061096,3.9880685806274414,1.6898310534103,1.097343791451988,6.665200630785604,4.027863942215453,6.47544875391759e-05,0.0865590572357177,0,0,0
505,16494.916210188458,2010-08-31 18:04:42,4202.123361527962,2,2,0.5501165986061096,3.990173101425171,1.69441656572352,1.097343791451988,6.683492643528976,4.027863942215453,3.237724376958795e-05,0.0865590572357177,0,0,0
506,16524.93149671796,2010-08-31 18:05:12,4232.138648087542,2,2,0.5499359965324402,3.9921157360076895,1.699002069253312,1.097343791451988,6.701793966617053,4.027863942215453,3.237724376958795e-05,0.0865590572357177,0,0,0
507,16554.946546788135,2010-08-31 18:05:42,4262.153698152703,2,2,0.5497553944587708,3.994220018386841,1.703587592639627,1.097343791451988,6.720104758810432,4.027863942215453,3.237724376958795e-05,0.0865590572357177,0,0,0
508,16584.96171399024,2010-08-31 18:06:12,4292.168865334757,2,2,0.5501165986061096,3.9963245391845694,1.708173862550248,1.097343791451988,6.738428050752913,4.027863942215453,6.47544875391759e-05,0.0865590572357177,0,0,0
509,16614.976914996594,2010-08-31 18:06:42,4322.184066336099,2,2,0.5501165986061096,3.99826717376709,1.712760341593415,1.097343791451988,6.756761712124646,4.027863942215453,3.237724376958795e-05,0.0865590572357177,0,0,0
510,16644.992006670458,2010-08-31 18:07:12,4352.199158009963,2,2,0.5501165986061096,4.000533580780029,1.717346953848778,1.097343791451988,6.775105283483653,4.027863942215453,6.47544875391759e-05,0.0865590572357177,0,0,0
511,16675.007177576794,2010-08-31 18:07:42,4382.214328946375,2,2,0.5501165986061096,4.002476215362549,1.721934299510509,1.097343791451988,6.79346150262452,4.027863942215453,6.47544875391759e-05,0.0865590572357177,0,0,0
512,16705.02233227273,2010-08-31 18:08:12,4412.229483617246,2,2,0.5501165986061096,4.004742622375488,1.726521524914072,1.097343791451988,6.811826871290248,4.027863942215453,9.70840483205393e-05,0.0865590572357177,0,0,0
513,16735.037550542107,2010-08-31 18:08:42,4442.244701881613,2,2,0.5501165986061096,4.006685256958008,1.731108821623919,1.097343791451988,6.830202182287823,4.027863942215453,3.23295607813634e-05,0.0865590572357177,0,0,0
514,16765.05278340285,2010-08-31 18:09:12,4472.2599347423575,2,2,0.5501165986061096,4.008790016174316,1.735696154039432,1.097343791451988,6.848587510728176,4.027863942215453,3.24249267578125e-05,0.0865590572357177,0,0,0
515,16795.067842089502,2010-08-31 18:09:42,4502.274993459082,2,2,0.550297200679779,4.011056423187256,1.74028345012535,1.097343791451988,6.86698248256435,4.027863942215453,6.47544875391759e-05,0.0865590572357177,0,0,0
516,16825.08314797224,2010-08-31 18:10:12,4532.290299316758,2,2,0.550297200679779,4.013322830200195,1.744870802395065,1.097343791451988,6.885387691657881,4.027863942215453,6.47544875391759e-05,0.0865590572357177,0,0,0
517,16855.09816052892,2010-08-31 18:10:42,4562.305311893489,2,2,0.5501165986061096,4.015427112579346,1.749457408896253,1.097343791451988,6.903799920030542,4.027863942215453,3.23295607813634e-05,0.0865590572357177,0,0,0
518,16885.11334149533,2010-08-31 18:11:12,4592.32049284486,2,2,0.5501165986061096,4.017693519592285,1.754044105664447,1.097343791451988,6.92222275150481,4.027863942215453,6.47544875391759e-05,0.0865590572357177,0,0,0
519,16915.128511344028,2010-08-31 18:11:42,4622.335662688547,2,2,0.550297200679779,4.020122051239014,1.75863078251151,1.097343791451988,6.940655701531012,4.027863942215453,9.71794142969884e-05,0.0865590572357177,0,0,0
520,16945.14366221042,2010-08-31 18:12:12,4652.35081358,2,2,0.5501165986061096,4.022226333618164,1.763217407792318,1.097343791451988,6.959098909171861,4.027863942215453,6.47544875391759e-05,0.0865590572357177,0,0,0
521,16975.15884000893,2010-08-31 18:12:42,4682.365991348438,2,2,0.550297200679779,4.024654865264893,1.767804058918695,1.097343791451988,6.977552771903596,4.027863942215453,6.47544875391759e-05,0.0865590572357177,0,0,0
522,17005.174030594317,2010-08-31 18:13:12,4712.381181958882,2,2,0.5501165986061096,4.026921272277832,1.772390683138391,1.097343791451988,6.996017143099994,4.027863942215453,9.71794142969884e-05,0.0865590572357177,0,0,0
523,17035.189217024337,2010-08-31 18:13:42,4742.396368388908,2,2,0.5501165986061096,4.029349327087402,1.776977323449275,1.097343791451988,7.014492327199016,4.027863942215453,3.23295607813634e-05,0.0865590572357177,0,0,0
524,17065.204333770693,2010-08-31 18:14:12,4772.411485115211,2,2,0.5499359965324402,4.031615734100342,1.78156387654059,1.097343791451988,7.032977939877674,4.027863942215453,6.47544875391759e-05,0.0865590572357177,0,0,0
525,17095.219490356336,2010-08-31 18:14:42,4802.426641705867,2,2,0.5499359965324402,4.033882141113281,1.786150493157802,1.097343791451988,7.051474807268093,4.027863942215453,3.23295607813634e-05,0.0865590572357177,0,0,0
526,17125.234782600084,2010-08-31 18:15:12,4832.441933939588,2,2,0.550297200679779,4.036310195922852,1.790737154754899,1.097343791451988,7.069982882457664,4.027863942215453,6.47544875391759e-05,0.0865590572357177,0,0,0
527,17155.24983477049,2010-08-31 18:15:42,4862.456986120022,2,2,0.5501165986061096,4.0390625,1.795323781582049,1.097343791451988,7.088502016477392,4.027863942215453,9.71794142969884e-05,0.0865590572357177,0,0,0
528,17185.26512175112,2010-08-31 18:16:12,4892.472273090626,2,2,0.550297200679779,4.04149055480957,1.799910516212665,1.097343791451988,7.107032786578002,4.027863942215453,6.47544875391759e-05,0.0865590572357177,0,0,0
529,17215.280156051995,2010-08-31 18:16:42,4922.4873073915,2,2,0.5501165986061096,4.043919086456299,1.804497158417597,1.097343791451988,7.125574624128118,4.027863942215453,6.47544875391759e-05,0.0865590572357177,0,0,0
530,17245.295463774317,2010-08-31 18:17:12,4952.502615143897,2,2,0.5501165986061096,4.046509265899658,1.809083872984809,1.097343791451988,7.144128304488933,4.027863942215453,0.0001295089750783,0.0865590572357177,0,0,0
531,17275.31331102593,2010-08-31 18:17:42,4982.520462420572,2,2,0.5499359965324402,4.0489373207092285,1.813670942288222,1.097343791451988,7.162695056616441,4.027863942215453,3.23295607813634e-05,0.0865590572357177,0,0,0
532,17305.32580177248,2010-08-31 18:18:12,5012.532953122011,2,2,0.5501165986061096,4.051365852355957,1.818257188119157,1.097343791451988,7.181270117142944,4.027863942215453,6.47544875391759e-05,0.0865590572357177,0,0,0
533,17335.340822223836,2010-08-31 18:18:42,5042.547973563343,2,2,0.5499359965324402,4.053956031799316,1.822843800927203,1.097343791451988,7.199858475244366,4.027863942215453,6.47544875391759e-05,0.0865590572357177,0,0,0
534,17365.35622913838,2010-08-31 18:19:12,5072.563380487909,2,2,0.550297200679779,4.056546211242676,1.827430536103765,1.097343791451988,7.218459284732503,4.027863942215453,3.24249267578125e-05,0.0865590572357177,0,0,0
535,17395.371179785758,2010-08-31 18:19:42,5102.578331130279,2,2,0.5501165986061096,4.059298038482666,1.832017188219293,1.097343791451988,7.237071835666955,4.027863942215453,6.47544875391759e-05,0.0865590572357177,0,0,0
536,17425.38632470733,2010-08-31 18:20:12,5132.59347604684,2,2,0.5501165986061096,4.061888217926025,1.836603844213163,1.097343791451988,7.255696243531513,4.027863942215453,9.70840483205393e-05,0.0865590572357177,0,0,0
537,17455.40151171881,2010-08-31 18:20:42,5162.608663068339,2,2,0.5501165986061096,4.064640522003174,1.841190466382492,1.097343791451988,7.274332677321965,4.027863942215453,6.47544875391759e-05,0.0865590572357177,0,0,0
538,17485.416652419866,2010-08-31 18:21:12,5192.623803784432,2,2,0.550297200679779,4.067554473876953,1.845777113803424,1.097343791451988,7.292981599377351,4.027863942215453,9.71794142969884e-05,0.0865590572357177,0,0,0
539,17515.43182906049,2010-08-31 18:21:42,5222.638980425059,2,2,0.5501165986061096,4.0701446533203125,1.850363732928253,1.097343791451988,7.311642901597826,4.027863942215453,9.71794142969884e-05,0.0865590572357177,0,0,0
540,17545.446986413048,2010-08-31 18:22:12,5252.654137757565,2,2,0.5501165986061096,4.072734832763672,1.854950335960091,1.097343791451988,7.330316655776808,4.027863942215453,6.47544875391759e-05,0.0865590572357177,0,0,0
541,17575.462153514898,2010-08-31 18:22:42,5282.669304854406,2,2,0.5501165986061096,4.075486660003662,1.859536948629004,1.097343791451988,7.349003132264311,4.027863942215453,6.47544875391759e-05,0.0865590572357177,0,0,0
542,17605.47731869697,2010-08-31 18:23:12,5312.684470041489,2,2,0.5501165986061096,4.078400611877441,1.864123591470038,1.097343791451988,7.367702510028704,4.027863942215453,9.70840483205393e-05,0.0865590572357177,0,0,0
543,17635.4925034027,2010-08-31 18:23:42,5342.699654747216,2,2,0.5501165986061096,4.08115291595459,1.868710261208453,1.097343791451988,7.386414940805704,4.027863942215453,9.71794142969884e-05,0.0865590572357177,0,0,0
544,17665.507670168714,2010-08-31 18:24:12,5372.714821533284,2,2,0.5501165986061096,4.08390474319458,1.873296909022171,1.097343791451988,7.405140149207987,4.027863942215453,6.47544875391759e-05,0.0865590572357177,0,0,0
545,17695.52283365155,2010-08-31 18:24:42,5402.729984996067,2,2,0.5499359965324402,4.0866570472717285,1.877883535567012,1.097343791451988,7.423878412920747,4.027863942215453,3.24249267578125e-05,0.0865590572357177,0,0,0
546,17725.537982071844,2010-08-31 18:25:12,5432.745133411348,2,2,0.5501165986061096,4.089732646942139,1.882470219166952,1.097343791451988,7.442630163071446,4.027863942215453,6.47544875391759e-05,0.0865590572357177,0,0,0
547,17755.553160912954,2010-08-31 18:25:42,5462.760312257473,2,2,0.550297200679779,4.092808723449707,1.887056921139654,1.097343791451988,7.461395362443181,4.027863942215453,6.47544875391759e-05,0.0865590572357177,0,0,0
548,17785.56832767897,2010-08-31 18:26:12,5492.775479043539,2,2,0.5501165986061096,4.095560550689697,1.891643560498822,1.097343791451988,7.480173717038585,4.027863942215453,6.47544875391759e-05,0.0865590572357177,0,0,0
549,17815.583484690676,2010-08-31 18:26:42,5522.790636030183,2,2,0.550297200679779,4.0987982749938965,1.896230269370512,1.097343791451988,7.498965988814248,4.027863942215453,9.70840483205393e-05,0.0865590572357177,0,0,0
550,17845.59864509083,2010-08-31 18:27:12,5552.805796430334,2,2,0.5499359965324402,4.101550579071045,1.90081690845992,1.097343791451988,7.517771711828959,4.027863942215453,6.47544875391759e-05,0.0865590572357177,0,0,0
551,17875.61384516987,2010-08-31 18:27:42,5582.82099651439,2,2,0.5501165986061096,4.104464530944824,1.905403566645013,1.097343791451988,7.536591269673361,4.027863942215453,6.47544875391759e-05,0.0865590572357177,0,0,0
552,17905.62897537978,2010-08-31 18:28:12,5612.836126719285,2,2,0.5501165986061096,4.107702255249023,1.909990200838294,1.097343791451988,7.555424716543153,4.027863942215453,9.71794142969884e-05,0.0865590572357177,0,0,0
553,17935.64413740899,2010-08-31 18:28:42,5642.851288748496,2,2,0.5499359965324402,4.110777854919434,1.914576914511666,1.097343791451988,7.574272586851515,4.027863942215453,9.70840483205393e-05,0.0865590572357177,0,0,0
554,17965.659338906567,2010-08-31 18:29:12,5672.866490251087,2,2,0.5501165986061096,4.113853931427002,1.919163583446869,1.097343791451988,7.593134384861187,4.027863942215453,6.47544875391759e-05,0.0865590572357177,0,0,0
555,17995.674518339154,2010-08-31 18:29:42,5702.881669678661,2,2,0.5501165986061096,4.116929531097412,1.923750270300274,1.097343791451988,7.612010595852306,4.027863942215453,6.47544875391759e-05,0.0865590572357177,0,0,0
556,18025.689647611725,2010-08-31 18:30:13,5732.896798956245,2,2,0.5499359965324402,4.120167255401611,1.928336989987993,1.097343791451988,7.630901428736061,4.027863942215453,6.47544875391759e-05,0.0865590572357177,0,0,0
557,18055.705129242484,2010-08-31 18:30:43,5762.912280612064,2,2,0.550297200679779,4.1234049797058105,1.932923737875645,1.097343791451988,7.64980690106778,4.027863942215453,9.71794142969884e-05,0.0865590572357177,0,0,0
558,18085.720127508543,2010-08-31 18:31:13,5792.927278873115,2,2,0.5501165986061096,4.126480579376221,1.937510383039968,1.097343791451988,7.668726667815696,4.027863942215453,6.47544875391759e-05,0.0865590572357177,0,0,0
559,18115.735157197927,2010-08-31 18:31:43,5822.942308537432,2,2,0.5501165986061096,4.129880428314209,1.942097102071942,1.097343791451988,7.687661592573942,4.027863942215453,9.71794142969884e-05,0.0865590572357177,0,0,0
560,18145.75042600325,2010-08-31 18:32:13,5852.957577352788,2,2,0.550297200679779,4.133118152618408,1.946683816082424,1.097343791451988,7.706611490643404,4.027863942215453,9.71794142969884e-05,0.0865590572357177,0,0,0
561,18175.765471371717,2010-08-31 18:32:43,5882.972622716231,2,2,0.5501165986061096,4.136355876922607,1.951270495320205,1.097343791451988,7.725576274950557,4.027863942215453,6.47544875391759e-05,0.0865590572357177,0,0,0
562,18205.780636022457,2010-08-31 18:33:13,5912.987787361964,2,2,0.5499359965324402,4.1397552490234375,1.955857231918531,1.097343791451988,7.744556596557255,4.027863942215453,0.0001295089750783,0.0865590572357177,0,0,0
563,18235.796016165277,2010-08-31 18:33:43,5943.003167499768,2,2,0.550297200679779,4.143155097961426,1.960443962125283,1.097343791451988,7.763552252874342,4.027863942215453,6.47544875391759e-05,0.0865590572357177,0,0,0
564,18265.81097612587,2010-08-31 18:34:13,5973.018127470388,2,2,0.5501165986061096,4.146554470062256,1.96503056284693,1.097343791451988,7.782562981526055,4.027863942215453,6.47544875391759e-05,0.0865590572357177,0,0,0
565,18295.826171052067,2010-08-31 18:34:43,6003.033322421651,2,2,0.5499359965324402,4.149954319000244,1.969617243249558,1.097343791451988,7.801589855041494,4.027863942215453,6.47544875391759e-05,0.0865590572357177,0,0,0
566,18325.84143149656,2010-08-31 18:35:13,6033.0485828511055,2,2,0.550297200679779,4.153515815734863,1.974203959519044,1.097343791451988,7.820632653780242,4.027863942215453,9.71794142969884e-05,0.0865590572357177,0,0,0
567,18355.85648537122,2010-08-31 18:35:43,6063.0636367157385,2,2,0.5501165986061096,4.156915187835693,1.978790605046621,1.097343791451988,7.839690948317183,4.027863942215453,9.70840483205393e-05,0.0865590572357177,0,0,0
568,18385.871632543403,2010-08-31 18:36:13,6093.0787838879205,2,2,0.5501165986061096,4.1604766845703125,1.983377312720719,1.097343791451988,7.858765553922254,4.027863942215453,9.70840483205393e-05,0.0865590572357177,0,0,0
569,18415.88678874309,2010-08-31 18:36:43,6123.09394008259,2,2,0.5501165986061096,4.164038181304932,1.987963961196197,1.097343791451988,7.877856065875369,4.027863942215453,9.70840483205393e-05,0.0865590572357177,0,0,0
570,18445.90195825093,2010-08-31 18:37:13,6153.109109590441,2,2,0.5501165986061096,4.167599678039551,1.992550629003961,1.097343791451988,7.896962812218018,4.027863942215453,0.0001295089750783,0.0865590572357177,0,0,0
571,18475.91713896672,2010-08-31 18:37:43,6183.124290306225,2,2,0.5501165986061096,4.170999526977539,1.997137350164852,1.097343791451988,7.916086221894005,4.027863942215453,9.71794142969884e-05,0.0865590572357177,0,0,0
572,18505.932310178818,2010-08-31 18:38:13,6213.139461523336,2,2,0.550297200679779,4.174722671508789,2.001724007971364,1.097343791451988,7.935225886942587,4.027863942215453,9.70840483205393e-05,0.0865590572357177,0,0,0
573,18535.947454769568,2010-08-31 18:38:43,6243.154606134134,2,2,0.5501165986061096,4.178284168243408,2.006310702020948,1.097343791451988,7.954382261681155,4.027863942215453,0.0001295089750783,0.0865590572357177,0,0,0
574,18565.9626281621,2010-08-31 18:39:13,6273.169779501604,2,2,0.5501165986061096,4.182007789611816,2.01089744612848,1.097343791451988,7.973555625041354,4.027863942215453,9.71794142969884e-05,0.0865590572357177,0,0,0
575,18595.977798807784,2010-08-31 18:39:43,6303.184950152303,2,2,0.5499359965324402,4.185569286346436,2.015484188402402,1.097343791451988,7.992745811920329,4.027863942215453,9.71794142969884e-05,0.0865590572357177,0,0,0
576,18625.99295965405,2010-08-31 18:40:13,6333.200110998565,2,2,0.5499359965324402,4.189454555511475,2.02007085885549,1.097343791451988,8.011952812646854,4.027863942215453,9.71794142969884e-05,0.0865590572357177,0,0,0
577,18656.00815723687,2010-08-31 18:40:43,6363.215308576375,2,2,0.550297200679779,4.193177700042725,2.024657550952664,1.097343791451988,8.031177063764352,4.027863942215453,9.70840483205393e-05,0.0865590572357177,0,0,0
578,18686.02341529541,2010-08-31 18:41:13,6393.230566649959,2,2,0.5501165986061096,4.197062969207764,2.029244239017974,1.097343791451988,8.05041859936458,4.027863942215453,0.0001295089750783,0.0865590572357177,0,0,0
579,18709.069801927097,2010-08-31 18:41:36,6416.276953276628,2,2,0.550297200679779,4.200138568878174,2.032766007375457,1.097343791451988,8.065204531186689,4.027863942215453,0.0001295089750783,0.0865590572357177,0,0,0
580,18739.08566753591,2010-08-31 18:42:06,30.015287131003426,3,2,0.0,4.122757434844971,2.032766007375457,1.097343791451988,8.065204531186689,4.027863942215453,-0.0003561019839253,0.0865590572357177,0,0,0
581,18769.10072240304,2010-08-31 18:42:36,60.0303420031463,3,2,0.0,4.113044261932373,2.032766007375457,1.097343791451988,8.065204531186689,4.027863942215453,-0.0002266883820993,0.0865590572357177,0,0,0
582,18799.11588294855,2010-08-31 18:43:06,90.04550254364725,3,2,0.0,4.107378482818604,2.032766007375457,1.097343791451988,8.065204531186689,4.027863942215453,-0.0001618385285837,0.0865590572357177,0,0,0
583,18829.084514965656,2010-08-31 18:43:36,120.01413468105125,3,2,0.0,4.103978633880615,2.032766007375457,1.097343791451988,8.065204531186689,4.027863942215453,-3.24249267578125e-05,0.0865590572357177,0,0,0
584,18829.084628643846,2010-08-31 18:43:36,2.927295722e-06,4,2,0.9922481179237366,4.199814796447754,2.032766008182291,1.097343791451988,8.065204534575244,4.027863942215453,0.0,0.0865590572357177,0,0,0
585,18830.115779318603,2010-08-31 18:43:37,1.031153592029366,4,2,0.9414969086647034,4.199653148651123,2.033041272149416,1.097343791451988,8.06636058459696,4.027863942215453,-3.23295607813634e-05,0.0865590572357177,0,0,0
586,18832.381486778737,2010-08-31 18:43:40,3.296861062185755,4,2,0.8914681673049927,4.199976921081543,2.033616907868654,1.097343791451988,8.06877811583853,4.027863942215453,3.24249267578125e-05,0.0865590572357177,0,0,0
587,18835.70948348052,2010-08-31 18:43:43,6.624857758953083,4,2,0.8414393663406372,4.199814796447754,2.034416718527698,1.097343791451988,8.072137140561969,4.027863942215453,0.0,0.0865590572357177,0,0,0
588,18840.131369676496,2010-08-31 18:43:47,11.046743954933836,4,2,0.7914106249809265,4.199814796447754,2.035418272669552,1.097343791451988,8.076343433726782,4.027863942215453,3.23295607813634e-05,0.0865590572357177,0,0,0
589,18845.81877971228,2010-08-31 18:43:53,16.734153995727816,4,2,0.7410206198692322,4.199653148651123,2.036627296419793,1.097343791451988,8.08142107643397,4.027863942215453,-3.23295607813634e-05,0.0865590572357177,0,0,0
590,18853.021674211646,2010-08-31 18:44:00,23.937048495095468,4,2,0.6909918785095215,4.199653148651123,2.038058085490592,1.097343791451988,8.087430105721426,4.027863942215453,0.0,0.0865590572357177,0,0,0
591,18862.55279320784,2010-08-31 18:44:10,33.468167481260984,4,2,0.640963077545166,4.199653148651123,2.039818702710306,1.097343791451988,8.094824332273088,4.027863942215453,-3.23295607813634e-05,0.0865590572357177,0,0,0
592,18875.64634605532,2010-08-31 18:44:23,46.56172036382985,4,2,0.5907536745071411,4.199653148651123,2.042054594444059,1.097343791451988,8.104214609945327,4.027863942215453,-3.23295607813634e-05,0.0865590572357177,0,0,0
593,18895.130547660858,2010-08-31 18:44:42,66.04592193929486,4,2,0.5407249331474304,4.199653148651123,2.04510807839506,1.097343791451988,8.117038613337579,4.027863942215453,0.0,0.0865590572357177,0,0,0
594,18926.66134472893,2010-08-31 18:45:14,97.5767190224097,4,2,0.4906961619853973,4.199814796447754,2.049606921924736,1.097343791451988,8.135932840873227,4.027863942215453,0.0,0.0865590572357177,0,0,0
595,18981.05097875219,2010-08-31 18:46:08,151.96635303564267,4,2,0.4406673908233642,4.199814796447754,2.056612954205744,1.097343791451988,8.165356787276146,4.027863942215453,0.0,0.0865590572357177,0,0,0
596,19065.534286916,2010-08-31 18:47:33,236.44966119945093,4,2,0.3906386196613312,4.199814796447754,2.066341535387283,1.097343791451988,8.206214844908992,4.027863942215453,3.23295607813634e-05,0.0865590572357177,0,0,0
597,19175.39197892185,2010-08-31 18:49:23,346.30735322033377,4,2,0.3406098484992981,4.199653148651123,2.077484669860849,1.097343791451988,8.253013812903164,4.027863942215453,-3.23295607813634e-05,0.0865590572357177,0,0,0
598,19309.62417206437,2010-08-31 18:51:37,480.5395463327832,4,2,0.290581077337265,4.199653148651123,2.089235781902205,1.097343791451988,8.3023661782889,4.027863942215453,-3.23295607813634e-05,0.0865590572357177,0,0,0
599,19471.871687194387,2010-08-31 18:54:19,642.787061467812,4,2,0.2405523210763931,4.199653148651123,2.101176871887079,1.097343791451988,8.35251638602068,4.027863942215453,-3.23295607813634e-05,0.0865590572357177,0,0,0
600,19673.727860217157,2010-08-31 18:57:41,844.6432344805515,4,2,0.19052354991436,4.199814796447754,2.113223587554588,1.097343791451988,8.40311016054739,4.027863942215453,3.23295607813634e-05,0.0865590572357177,0,0,0
601,19945.66118678876,2010-08-31 19:02:13,1116.576561062186,4,2,0.1404947787523269,4.199814796447754,2.125650966372136,1.097343791451988,8.455302596521438,4.027863942215453,0.0,0.0865590572357177,0,0,0
602,20353.045558802856,2010-08-31 19:09:00,1523.9609330762826,4,2,0.0904660075902938,4.199491024017334,2.138524298577485,1.097343791451988,8.509367928846643,4.027863942215453,-6.47544875391759e-05,0.0865590572357177,0,0,0
603,20940.38058601414,2010-08-31 19:18:48,2111.2959602925757,4,2,0.0496483072638511,4.199653148651123,2.149663727108875,1.097343791451988,8.556151235824249,4.027863942215453,-3.23295607813634e-05,0.0865590572357177,0,0,0
604,20970.39715395988,2010-08-31 19:19:18,30.015280624787938,5,2,0.0,4.192692279815674,2.149663727108875,1.097343791451988,8.556151235824249,4.027863942215453,0.0,0.0865590572357177,0,0,0
605,21000.39677116661,2010-08-31 19:19:48,60.01489786159351,5,2,0.0,4.191397190093994,2.149663727108875,1.097343791451988,8.556151235824249,4.027863942215453,-6.47544875391759e-05,0.0865590572357177,0,0,0
606,21000.58456144847,2010-08-31 19:19:48,0.187462424041457,6,2,-1.9243103452026844e-05,4.191558837890625,2.149663727108875,1.097343792454033,8.556151235824249,4.027863946415581,0.0,0.0897949114441871,0,0,0
607,21005.41266455699,2010-08-31 19:19:53,5.015565542583053,6,2,0.0005225847125984,4.191558837890625,2.149664689572905,1.097343792538232,8.5561552701029,4.027863946768508,-3.24249267578125e-05,0.0897949114441871,0,0,0
608,21035.42844772674,2010-08-31 19:20:23,30.015291907908946,7,2,-1.099568486213684,4.031454086303711,2.149664689572905,1.106511684780416,8.5561552701029,4.065001369649522,-0.000841712928377,0.0897949114441871,0,0,0
609,21065.443518017302,2010-08-31 19:20:53,60.030362178429314,7,2,-1.0997490882873535,4.007818698883057,2.149664689572905,1.115679584325462,8.5561552701029,4.101844927464519,-0.0005180359003134,0.0897949114441871,0,0,0
610,21095.45879542408,2010-08-31 19:21:23,90.0456396202844,7,2,-1.099568486213684,3.991630077362061,2.149664689572905,1.124847412344087,8.5561552701029,4.13851066577161,-0.0004532813909463,0.0897949114441871,0,0,0
611,21125.47381866739,2010-08-31 19:21:53,120.06066283853605,7,2,-1.099568486213684,3.979326725006104,2.149664689572905,1.134015208569076,8.5561552701029,4.175046839454389,-0.0002590179501567,0.0897949114441871,0,0,0
612,21155.488978120185,2010-08-31 19:22:23,150.07582229633857,7,2,-1.099568486213684,3.968318462371826,2.149664689572905,1.14318292992976,8.5561552701029,4.211476823810837,-0.0002913951757363,0.0897949114441871,0,0,0
613,21185.504203918324,2010-08-31 19:22:53,180.09104809949417,7,2,-1.0997490882873535,3.958929061889648,2.149664689572905,1.152350686275601,8.5561552701029,4.247814648867009,-0.0002590179501567,0.0897949114441871,0,0,0
614,21215.51931234393,2010-08-31 19:23:23,210.10615651508377,7,2,-1.099568486213684,3.94986343383789,2.149664689572905,1.16151840506946,8.5561552701029,4.284067353091248,-0.0002266406954731,0.0897949114441871,0,0,0
615,21245.53492837465,2010-08-31 19:23:53,240.1217725658564,7,2,-1.099568486213684,3.9412834644317623,2.149664689572905,1.170686288760803,8.5561552701029,4.320240827841388,-0.0002590179501567,0.0897949114441871,0,0,0
616,21275.54963372068,2010-08-31 19:24:23,270.1364778868102,7,2,-1.0993878841400146,3.9333510398864746,2.149664689572905,1.179853981205011,8.5561552701029,4.356336748752645,-0.0001618862152099,0.0897949114441871,0,0,0
617,21305.56481645148,2010-08-31 19:24:53,300.15166061260373,7,2,-1.099568486213684,3.925256729125977,2.149664689572905,1.189021835780895,8.5561552701029,4.392358817797991,-0.0002266406954731,0.0897949114441871,0,0,0
618,21335.57997363863,2010-08-31 19:25:23,330.16681779974704,7,2,-1.099568486213684,3.917324304580689,2.149664689572905,1.19818959458318,8.5561552701029,4.428308205906715,-0.0002266406954731,0.0897949114441871,0,0,0
619,21365.595133913463,2010-08-31 19:25:53,360.1819780745859,7,2,-1.0997490882873535,3.9097158908844,2.149664689572905,1.207357405531721,8.5561552701029,4.464186884770719,-0.0002266406954731,0.0897949114441871,0,0,0
620,21395.61044202175,2010-08-31 19:26:23,390.1972861979086,7,2,-1.0993878841400146,3.902431011199951,2.149664689572905,1.216525270931684,8.5561552701029,4.499996222881499,-0.0001295089750783,0.0897949114441871,0,0,0
621,21425.625674195784,2010-08-31 19:26:53,420.21251836692994,7,2,-1.0993878841400146,3.894822359085083,2.149664689572905,1.225693091706412,8.5561552701029,4.535736860061891,-0.0001942634553415,0.0897949114441871,0,0,0
622,21455.62781755346,2010-08-31 19:27:23,450.2146618348808,7,2,-1.0997490882873535,3.887375593185425,2.149664689572905,1.234856885095363,8.5561552701029,4.571395043760917,-0.0002266406954731,0.0897949114441871,0,0,0
623,21485.640312440333,2010-08-31 19:27:53,480.2271566315279,7,2,-1.0997490882873535,3.8802525997161865,2.149664689572905,1.244023903053063,8.5561552701029,4.606999012153319,-0.0001942634553415,0.0897949114441871,0,0,0
624,21515.65534071619,2010-08-31 19:28:23,510.2421848773096,7,2,-1.099568486213684,3.873129606246948,2.149664689572905,1.253191680023493,8.5561552701029,4.642539686230669,-0.0001942634553415,0.0897949114441871,0,0,0
625,21545.670780567816,2010-08-31 19:28:53,540.2576247489898,7,2,-1.099568486213684,3.86600661277771,2.149664689572905,1.262359666810641,8.5561552701029,4.678015825320212,-0.0001942634553415,0.0897949114441871,0,0,0
626,21575.68568698497,2010-08-31 19:29:23,570.2725311460872,7,2,-1.099568486213684,3.8590455055236816,2.149664689572905,1.271527438272392,8.5561552701029,4.713426779401877,-0.0001942634553415,0.0897949114441871,0,0,0
627,21605.70083703432,2010-08-31 19:29:53,600.2876812054659,7,2,-1.099568486213684,3.852084398269653,2.149664689572905,1.280695284506498,8.5561552701029,4.748774324184097,-0.0001942634553415,0.0897949114441871,0,0,0
628,21635.716011379227,2010-08-31 19:30:23,630.3028555403467,7,2,-1.099568486213684,3.845285177230835,2.149664689572905,1.28986313838354,8.5561552701029,4.784059034492783,-0.0001942634553415,0.0897949114441871,0,0,0
629,21665.73118855619,2010-08-31 19:30:53,660.3180327223233,7,2,-1.0997490882873535,3.8386478424072266,2.149664689572905,1.299030998632792,8.5561552701029,4.819281864698896,-0.0001942634553415,0.0897949114441871,0,0,0
630,21695.74635643999,2010-08-31 19:31:23,690.3332006011135,7,2,-1.099568486213684,3.832010746002197,2.149664689572905,1.308198831413806,8.5561552701029,4.854443475950957,-0.0001295089750783,0.0897949114441871,0,0,0
631,21725.7615031811,2010-08-31 19:31:53,720.3483473372096,7,2,-1.0997490882873535,3.825373411178589,2.149664689572905,1.317366635186856,8.5561552701029,4.889544648225446,-0.0001942634553415,0.0897949114441871,0,0,0
632,21755.77681202121,2010-08-31 19:32:23,750.3636562224314,7,2,-1.0997490882873535,3.8190598487854,2.149664689572905,1.326534545383022,8.5561552701029,4.924586660492854,-0.0001618862152099,0.0897949114441871,0,0,0
633,21785.79183034727,2010-08-31 19:32:53,780.3786745134025,7,2,-1.099568486213684,3.812746286392212,2.149664689572905,1.335702383259211,8.5561552701029,4.959569911546745,-0.0001618862152099,0.0897949114441871,0,0,0
634,21815.807141979338,2010-08-31 19:33:23,810.3939861605079,7,2,-1.0997490882873535,3.8062708377838135,2.149664689572905,1.344870217927004,8.5561552701029,4.99449475210213,-0.0001942634553415,0.0897949114441871,0,0,0
635,21845.82231467012,2010-08-31 19:33:53,840.4091588412659,7,2,-1.0997490882873535,3.800119161605835,2.149664689572905,1.354038063502355,8.5561552701029,5.029362701850833,-0.0001618862152099,0.0897949114441871,0,0,0
636,21875.837350700305,2010-08-31 19:34:23,870.4241948614236,7,2,-1.0997490882873535,3.793967485427856,2.149664689572905,1.363205836526491,8.5561552701029,5.064174581591288,-0.0002266406954731,0.0897949114441871,0,0,0
637,21905.85250009803,2010-08-31 19:34:53,900.4393442591536,7,2,-1.0993878841400146,3.788301467895508,2.149664689572905,1.372373679211699,8.5561552701029,5.098931856916932,-0.0001618862152099,0.0897949114441871,0,0,0
638,21935.86782220621,2010-08-31 19:35:23,930.4546663673308,7,2,-1.099568486213684,3.782473564147949,2.149664689572905,1.381541573290054,8.5561552701029,5.133636065798494,-0.0001618862152099,0.0897949114441871,0,0,0
639,21965.882874707444,2010-08-31 19:35:53,960.4697188936271,7,2,-1.0993878841400146,3.7769694328308105,2.149664689572905,1.390709462349618,8.5561552701029,5.168287755582352,-0.0001295089750783,0.0897949114441871,0,0,0
640,21995.898130766003,2010-08-31 19:36:23,990.4849749421636,7,2,-1.099568486213684,3.771141529083252,2.149664689572905,1.399877464028261,8.5561552701029,5.202888380783115,-0.0001942634553415,0.0897949114441871,0,0,0
641,22025.913167643303,2010-08-31 19:36:53,1020.5000118044204,7,2,-1.099568486213684,3.7657992839813232,2.149664689572905,1.409045277515568,8.5561552701029,5.237437750843323,-0.0001942634553415,0.0897949114441871,0,0,0
642,22055.928490628663,2010-08-31 19:37:23,1050.5153348198587,7,2,-1.099568486213684,3.7604570388793945,2.149664689572905,1.418213157028792,8.5561552701029,5.271937906376499,-0.0001295089750783,0.0897949114441871,0,0,0
643,22085.94350329562,2010-08-31 19:37:53,1080.5303474617508,7,2,-1.099568486213684,3.755276679992676,2.149664689572905,1.4273810097028,8.5561552701029,5.306389581704254,-0.0001295089750783,0.0897949114441871,0,0,0
644,22115.9587970782,2010-08-31 19:38:23,1110.5456412593694,7,2,-1.099568486213684,3.750258445739746,2.149664689572905,1.436548934339984,8.5561552701029,5.340793959153965,-9.713172767078504e-05,0.0897949114441871,0,0,0
645,22145.973835108365,2010-08-31 19:38:53,1140.5606792744993,7,2,-1.099568486213684,3.7450780868530273,2.149664689572905,1.44571678207431,8.5561552701029,5.375151656620111,-0.0001618862152099,0.0897949114441871,0,0,0
646,22175.98916629918,2010-08-31 19:39:23,1170.5760104653134,7,2,-1.099568486213684,3.740059614181519,2.149664689572905,1.454884772499769,8.5561552701029,5.409464151897455,-0.0001618862152099,0.0897949114441871,0,0,0
647,22206.00429825344,2010-08-31 19:39:54,1200.5911424346064,7,2,-1.099568486213684,3.7353649139404297,2.149664689572905,1.464052639760709,8.5561552701029,5.443731149954111,-0.0001295089750783,0.0897949114441871,0,0,0
648,22236.019619975657,2010-08-31 19:40:24,1230.6064641518092,7,2,-1.099568486213684,3.730508327484131,2.149664689572905,1.473220597596772,8.5561552701029,5.477954226283853,-0.0001295089750783,0.0897949114441871,0,0,0
649,22266.03476542855,2010-08-31 19:40:54,1260.6216095996947,7,2,-1.099568486213684,3.725813627243042,2.149664689572905,1.482388482501165,8.5561552701029,5.512133712118539,-0.0001295089750783,0.0897949114441871,0,0,0
650,22296.049697103645,2010-08-31 19:41:24,1290.6365412747923,7,2,-1.099568486213684,3.721280813217163,2.149664689572905,1.491556262539295,8.5561552701029,5.546270280374654,-9.713172767078504e-05,0.0897949114441871,0,0,0
651,22326.06484804021,2010-08-31 19:41:54,1320.65169221637,7,2,-1.0993878841400146,3.716747999191284,2.149664689572905,1.500724197976845,8.5561552701029,5.580365228424697,-9.713172767078504e-05,0.0897949114441871,0,0,0
652,22356.080017618235,2010-08-31 19:42:24,1350.6668617793578,7,2,-1.099568486213684,3.7120532989501953,2.149664689572905,1.509892112748163,8.5561552701029,5.614418665253087,-0.0001618862152099,0.0897949114441871,0,0,0
653,22386.09518236923,2010-08-31 19:42:54,1380.6820265403776,7,2,-1.099568486213684,3.707844257354736,2.149664689572905,1.519060029425172,8.5561552701029,5.648431196567417,-9.713172767078504e-05,0.0897949114441871,0,0,0
654,22416.11053711375,2010-08-31 19:43:24,1410.6973812899073,7,2,-1.099568486213684,3.7034733295440674,2.149664689572905,1.528227965066785,8.5561552701029,5.682403603916789,-0.0001295089750783,0.0897949114441871,0,0,0
655,22446.12566981988,2010-08-31 19:43:54,1440.712514031124,7,2,-1.099568486213684,3.699264287948608,2.149664689572905,1.53739591200739,8.5561552701029,5.716336524624309,-9.713172767078504e-05,0.0897949114441871,0,0,0
656,22476.14072252161,2010-08-31 19:44:24,1470.7275666977698,7,2,-1.0993878841400146,3.69489336013794,2.149664689572905,1.54656380544485,8.5561552701029,5.750230355059697,-0.0001295089750783,0.0897949114441871,0,0,0
657,22506.15601167265,2010-08-31 19:44:54,1500.7428558538202,7,2,-1.0997490882873535,3.690684318542481,2.149664689572905,1.555731745772522,8.5561552701029,5.784086001878054,-9.713172767078504e-05,0.0897949114441871,0,0,0
658,22536.17106702098,2010-08-31 19:45:24,1530.7579111821,7,2,-1.0997490882873535,3.6864752769470215,2.149664689572905,1.56489962734313,8.5561552701029,5.81790315835128,-0.0001295089750783,0.0897949114441871,0,0,0
659,22566.18621995753,2010-08-31 19:45:54,1560.7730641186497,7,2,-1.0993878841400146,3.6825900077819824,2.149664689572905,1.574067513572703,8.5561552701029,5.851683035991436,-9.713172767078504e-05,0.0897949114441871,0,0,0
660,22596.201382538115,2010-08-31 19:46:24,1590.7882267293098,7,2,-1.0997490882873535,3.678542852401733,2.149664689572905,1.583235436499543,8.5561552701029,5.885426265271032,-6.47544875391759e-05,0.0897949114441871,0,0,0
661,22626.216675338244,2010-08-31 19:46:54,1620.8035194943552,7,2,-1.099568486213684,3.6746575832366943,2.149664689572905,1.592403436716753,8.5561552701029,5.919133253020966,-0.0001295089750783,0.0897949114441871,0,0,0
662,22656.231761999617,2010-08-31 19:47:24,1650.818606190814,7,2,-1.099568486213684,3.670934438705444,2.149664689572905,1.601571285838072,8.5561552701029,5.952804174973926,-6.47544875391759e-05,0.0897949114441871,0,0,0
663,22686.24694872538,2010-08-31 19:47:54,1680.8337928965266,7,2,-1.099568486213684,3.6668872833251953,2.149664689572905,1.610739125214307,8.5561552701029,5.986440077430361,-0.0001295089750783,0.0897949114441871,0,0,0
664,22716.262113175628,2010-08-31 19:48:24,1710.8489573517843,7,2,-1.0997490882873535,3.663325786590576,2.149664689572905,1.619907124918337,8.5561552701029,6.020042282284951,-9.713172767078504e-05,0.0897949114441871,0,0,0
665,22746.277280738628,2010-08-31 19:48:54,1740.864124909775,7,2,-1.0997490882873535,3.659602403640747,2.149664689572905,1.629075045258321,8.5561552701029,6.053610434287078,-9.713172767078504e-05,0.0897949114441871,0,0,0
666,22776.29246543433,2010-08-31 19:49:24,1770.8793096054785,7,2,-1.0997490882873535,3.656040906906128,2.149664689572905,1.638242945560851,8.5561552701029,6.087145295323295,-9.713172767078504e-05,0.0897949114441871,0,0,0
667,22806.30763673665,2010-08-31 19:49:54,1800.8944809328634,7,2,-1.0997490882873535,3.652479410171509,2.149664689572905,1.647410915582836,8.5561552701029,6.120647696173404,-0.0001295089750783,0.0897949114441871,0,0,0
668,22836.3228174374,2010-08-31 19:50:24,1830.90966161356,7,2,-1.099568486213684,3.6490797996521,2.149664689572905,1.65657884738694,8.5561552701029,6.154117783747373,-6.47544875391759e-05,0.0897949114441871,0,0,0
669,22866.337964559458,2010-08-31 19:50:54,1860.924808735618,7,2,-1.099568486213684,3.6456801891326895,2.149664689572905,1.665746810450305,8.5561552701029,6.187556243615279,-6.47544875391759e-05,0.0897949114441871,0,0,0
670,22896.353134077337,2010-08-31 19:51:24,1890.939978278556,7,2,-1.099568486213684,3.642280578613281,2.149664689572905,1.674914723039643,8.5561552701029,6.220963929349788,-9.713172767078504e-05,0.0897949114441871,0,0,0
671,22926.36828990108,2010-08-31 19:51:54,1920.9551340972887,7,2,-1.099568486213684,3.639204740524292,2.149664689572905,1.684082689711266,8.5561552701029,6.254341858382491,-3.237724376958795e-05,0.0897949114441871,0,0,0
672,22956.383462075577,2010-08-31 19:52:24,1950.9703062366973,7,2,-1.0997490882873535,3.635805130004883,2.149664689572905,1.693250637824503,8.5561552701029,6.287690270427914,-9.713172767078504e-05,0.0897949114441871,0,0,0
673,22986.398614871778,2010-08-31 19:52:54,1980.985459047935,7,2,-1.099568486213684,3.632891178131104,2.149664689572905,1.702418593667607,8.5561552701029,6.321010468326027,-6.47544875391759e-05,0.0897949114441871,0,0,0
674,23016.413830008347,2010-08-31 19:53:24,2011.000674194531,7,2,-1.0993878841400146,3.629977226257324,2.149664689572905,1.711586529549112,8.5561552701029,6.354302843348857,-6.47544875391759e-05,0.0897949114441871,0,0,0
675,23046.429059981896,2010-08-31 19:53:54,2041.0159041580555,7,2,-1.099568486213684,3.626901388168335,2.149664689572905,1.720754456064493,8.5561552701029,6.387568127744657,-0.0001295089750783,0.0897949114441871,0,0,0
676,23076.44415880859,2010-08-31 19:54:24,2071.0310029797342,7,2,-1.099568486213684,3.6241493225097656,2.149664689572905,1.729922423066643,8.5561552701029,6.420807030875329,-9.713172767078504e-05,0.0897949114441871,0,0,0
677,23106.45946338808,2010-08-31 19:54:54,2101.0463075692496,7,2,-1.0997490882873535,3.621397256851196,2.149664689572905,1.739090525124784,8.5561552701029,6.454020444917567,-6.47544875391759e-05,0.0897949114441871,0,0,0
678,23136.47454430012,2010-08-31 19:55:24,2131.06138847628,7,2,-1.0997490882873535,3.618483304977417,2.149664689572905,1.748258532614228,8.5561552701029,6.487208121719455,-6.47544875391759e-05,0.0897949114441871,0,0,0
679,23166.48968447988,2010-08-31 19:55:54,2161.0765286560354,7,2,-1.0997490882873535,3.6158931255340576,2.149664689572905,1.757427248066861,8.5561552701029,6.520373216116528,-6.47544875391759e-05,0.0897949114441871,0,0,0
680,23196.50484114071,2010-08-31 19:56:24,2191.0916853369167,7,2,-1.099568486213684,3.613302946090698,2.149664689572905,1.766596088887009,8.5561552701029,6.553514325124263,-3.237724376958795e-05,0.0897949114441871,0,0,0
681,23226.52004210195,2010-08-31 19:56:54,2221.106886303171,7,2,-1.0997490882873535,3.610550880432129,2.149664689572905,1.77576495630569,8.5561552701029,6.586631202193074,-6.47544875391759e-05,0.0897949114441871,0,0,0
682,23256.53518972024,2010-08-31 19:57:24,2251.122033891391,7,2,-1.099568486213684,3.60812258720398,2.149664689572905,1.784933450214272,8.5561552701029,6.619722736962959,-6.47544875391759e-05,0.0897949114441871,0,0,0
683,23286.55035646621,2010-08-31 19:57:54,2281.1372006423703,7,2,-1.099568486213684,3.60537052154541,2.149664689572905,1.794101028530607,8.5561552701029,6.652787265033818,-6.47544875391759e-05,0.0897949114441871,0,0,0
684,23316.565516440303,2010-08-31 19:58:24,2311.15236061646,7,2,-1.099568486213684,3.6029422283172607,2.149664689572905,1.803268328680615,8.5561552701029,6.685827012560185,0.0,0.0897949114441871,0,0,0
685,23346.580692554617,2010-08-31 19:58:54,2341.1675367307757,7,2,-1.0993878841400146,3.6003520488739014,2.149664689572905,1.812435656486675,8.5561552701029,6.718843192056144,0.0,0.0897949114441871,0,0,0
686,23376.59607741419,2010-08-31 19:59:24,2371.182921585336,7,2,-1.099568486213684,3.597761869430542,2.149664689572905,1.821603424593117,8.5561552701029,6.751837167066616,-6.47544875391759e-05,0.0897949114441871,0,0,0
687,23406.598218330782,2010-08-31 19:59:54,2401.185062532003,7,2,-1.099568486213684,3.5950098037719727,2.149664689572905,1.830767549980921,8.5561552701029,6.784794205774952,-6.47544875391759e-05,0.0897949114441871,0,0,0
688,23436.61060749917,2010-08-31 20:00:24,2431.197451700392,7,2,-1.099568486213684,3.5924196243286133,2.149664689572905,1.839934773447427,8.5561552701029,6.817738609822002,-6.47544875391759e-05,0.0897949114441871,0,0,0
689,23466.625805327607,2010-08-31 20:00:54,2461.212649523813,7,2,-1.0993878841400146,3.589991569519043,2.149664689572905,1.849102861225873,8.5561552701029,6.850662613354595,-3.237724376958795e-05,0.0897949114441871,0,0,0
690,23496.64105262433,2010-08-31 20:01:24,2491.227896800487,7,2,-1.0997490882873535,3.587401390075684,2.149664689572905,1.858271057600677,8.5561552701029,6.883563184463795,-3.237724376958795e-05,0.0897949114441871,0,0,0
691,23526.65611090997,2010-08-31 20:01:54,2521.242955096163,7,2,-1.099929690361023,3.5844874382019043,2.149664689572905,1.867439177134062,8.5561552701029,6.916439691757745,-9.713172767078504e-05,0.0897949114441871,0,0,0
692,23556.671398251507,2010-08-31 20:02:24,2551.258242457741,7,2,-1.099568486213684,3.582059144973755,2.149664689572905,1.876607321957526,8.5561552701029,6.949292046305452,-6.47544875391759e-05,0.0897949114441871,0,0,0
693,23586.686460146157,2010-08-31 20:02:54,2581.273304342362,7,2,-1.0997490882873535,3.579307079315185,2.149664689572905,1.885775490005091,8.5561552701029,6.982119747233802,-3.237724376958795e-05,0.0897949114441871,0,0,0
694,23616.70174229975,2010-08-31 20:03:24,2611.288586500972,7,2,-1.099568486213684,3.576555013656616,2.149664689572905,1.894943743699248,8.5561552701029,7.014922510625473,-6.47544875391759e-05,0.0897949114441871,0,0,0
695,23646.71692972225,2010-08-31 20:03:54,2641.303773893396,7,2,-1.099568486213684,3.573641061782837,2.149664689572905,1.904112002720317,8.5561552701029,7.047699518109705,-3.237724376958795e-05,0.0897949114441871,0,0,0
696,23676.73195831389,2010-08-31 20:04:24,2671.3188025101026,7,2,-1.099568486213684,3.5707271099090576,2.149664689572905,1.913280306560904,8.5561552701029,7.080450302644269,-6.47544875391759e-05,0.0897949114441871,0,0,0
697,23706.747263474837,2010-08-31 20:04:54,2701.334107645979,7,2,-1.0997490882873535,3.5678131580352783,2.149664689572905,1.922448716998934,8.5561552701029,7.11317419483406,-6.47544875391759e-05,0.0897949114441871,0,0,0
698,23736.762311635248,2010-08-31 20:05:24,2731.3491558114065,7,2,-1.099568486213684,3.564575433731079,2.149664689572905,1.931617072004507,8.5561552701029,7.145869730731313,-6.47544875391759e-05,0.0897949114441871,0,0,0
699,23766.777508817067,2010-08-31 20:05:54,2761.3643529882165,7,2,-1.099568486213684,3.56149959564209,2.149664689572905,1.940785409249146,8.5561552701029,7.178536351026091,-6.47544875391759e-05,0.0897949114441871,0,0,0
700,23796.79282214336,2010-08-31 20:06:24,2791.379666324532,7,2,-1.099568486213684,3.5579380989074707,2.149664689572905,1.949953799760399,8.5561552701029,7.211173311140383,-0.0001295089750783,0.0897949114441871,0,0,0
701,23826.80786007328,2010-08-31 20:06:54,2821.3947042744994,7,2,-1.0997490882873535,3.554376602172852,2.149664689572905,1.959122149671185,8.5561552701029,7.24377886359042,-0.0001295089750783,0.0897949114441871,0,0,0
702,23856.82315956008,2010-08-31 20:07:24,2851.410003751272,7,2,-1.0997490882873535,3.5508151054382324,2.149664689572905,1.968290640878676,8.5561552701029,7.276352315551143,-9.713172767078504e-05,0.0897949114441871,0,0,0
703,23886.83821404626,2010-08-31 20:07:54,2881.425058222416,7,2,-1.0997490882873535,3.5472536087036133,2.149664689572905,1.97745908491916,8.5561552701029,7.308891990281786,-9.713172767078504e-05,0.0897949114441871,0,0,0
704,23916.85352645025,2010-08-31 20:08:24,2911.44037063142,7,2,-1.099929690361023,3.543368339538574,2.149664689572905,1.986627627210229,8.5561552701029,7.341397251423009,-9.713172767078504e-05,0.0897949114441871,0,0,0
705,23946.868558249887,2010-08-31 20:08:54,2941.455402451109,7,2,-1.099568486213684,3.539483070373535,2.149664689572905,1.995796038940381,8.5561552701029,7.373866254907182,-6.47544875391759e-05,0.0897949114441871,0,0,0
706,23976.883871821792,2010-08-31 20:09:24,2971.470716023011,7,2,-1.0997490882873535,3.535435914993286,2.149664689572905,2.004964675193235,8.5561552701029,7.406299405015924,-9.713172767078504e-05,0.0897949114441871,0,0,0
707,24006.89895791675,2010-08-31 20:09:54,3001.4858021129585,7,2,-1.099568486213684,3.531226873397827,2.149664689572905,2.014133279944381,8.5561552701029,7.438694680940936,-0.0001618862152099,0.0897949114441871,0,0,0
708,24036.91423946384,2010-08-31 20:10:24,3031.5010836550323,7,2,-1.099568486213684,3.527017831802368,2.149664689572905,2.023301864607009,8.5561552701029,7.471051379324757,-9.713172767078504e-05,0.0897949114441871,0,0,0
709,24066.92928518818,2010-08-31 20:10:54,3061.5161293593264,7,2,-1.099568486213684,3.522646903991699,2.149664689572905,2.032470429071902,8.5561552701029,7.503367942815816,-6.47544875391759e-05,0.0897949114441871,0,0,0
710,24096.9446050257,2010-08-31 20:11:24,3091.5314492219068,7,2,-1.099568486213684,3.5177903175354004,2.149664689572905,2.041639072928203,8.5561552701029,7.535642845538555,-0.0001618862152099,0.0897949114441871,0,0,0
711,24126.95969132617,2010-08-31 20:11:54,3121.546535497316,7,2,-1.0997490882873535,3.512771844863892,2.149664689572905,2.050807675497208,8.5561552701029,7.567872952568005,-9.713172767078504e-05,0.0897949114441871,0,0,0
712,24156.97497172038,2010-08-31 20:12:25,3151.561815901555,7,2,-1.099568486213684,3.507267951965332,2.149664689572905,2.059976344709392,8.5561552701029,7.600055050207946,-0.0001295089750783,0.0897949114441871,0,0,0
713,24186.99040597807,2010-08-31 20:12:55,3181.577250239443,7,2,-1.0997490882873535,3.501116275787353,2.149664689572905,2.069145107256858,8.5561552701029,7.632184843785979,-0.0001942634553415,0.0897949114441871,0,0,0
714,24217.005516488884,2010-08-31 20:13:25,3211.5923606901047,7,2,-1.099568486213684,3.494640827178955,2.149664689572905,2.078313772384728,8.5561552701029,7.664256513910287,-0.0001618862152099,0.0897949114441871,0,0,0
715,24247.02042311656,2010-08-31 20:13:55,3241.6072672927144,7,2,-1.099568486213684,3.487194061279297,2.149664689572905,2.087482442889633,8.5561552701029,7.696263473155089,-0.0001942634553415,0.0897949114441871,0,0,0
716,24277.035725901573,2010-08-31 20:14:25,3271.6225700827445,7,2,-1.099568486213684,3.478614091873169,2.149664689572905,2.096651110613807,8.5561552701029,7.728196736597792,-0.0002266406954731,0.0897949114441871,0,0,0
717,24307.05020617664,2010-08-31 20:14:55,3301.6370503477897,7,2,-1.0997490882873535,3.4682533740997314,2.149664689572905,2.105815008831652,8.5561552701029,7.76002773456368,-0.0003237724304199,0.0897949114441871,0,0,0
718,24337.050343409443,2010-08-31 20:15:25,3331.637187585598,7,2,-1.0997490882873535,3.4559500217437744,2.149664689572905,2.114983598426919,8.5561552701029,7.791773137638516,-0.0003561496851034,0.0897949114441871,0,0,0
719,24367.06568277563,2010-08-31 20:15:55,3361.6525269568,7,2,-1.099568486213684,3.440570831298828,2.149664689572905,2.124152352312258,8.5561552701029,7.823392569380054,-0.0004532813909463,0.0897949114441871,0,0,0
720,24397.080943972,2010-08-31 20:16:25,3391.6677881982787,7,2,-1.099929690361023,3.419849634170532,2.149664689572905,2.13332107309239,8.5561552701029,7.854847380646951,-0.0006475448608398,0.0897949114441871,0,0,0
721,24427.096054101858,2010-08-31 20:16:55,3421.6828982830284,7,2,-1.099568486213684,3.391195774078369,2.149664689572905,2.142489800235309,8.5561552701029,7.886079062173701,-0.0008741855854168,0.0897949114441871,0,0,0
722,24457.111104537944,2010-08-31 20:17:25,3451.6979487141025,7,2,-1.0997490882873535,3.351047992706299,2.149664689572905,2.151658558832648,8.5561552701029,7.91699858122207,-0.0012303352123126,0.0897949114441871,0,0,0
723,24487.126444270045,2010-08-31 20:17:55,3481.7132885314168,7,2,-1.0997490882873535,3.2939023971557617,2.149664689572905,2.160827297421338,8.5561552701029,7.947476080501915,-0.0017159938579425,0.0897949114441871,0,0,0
724,24517.14178354601,2010-08-31 20:18:25,3511.728627747232,7,2,-1.0997490882873535,3.2129595279693604,2.149664689572905,2.169996045136811,8.5561552701029,7.977328974309292,-0.0025254250504076,0.0897949114441871,0,0,0
725,24547.15714388447,2010-08-31 20:18:55,3541.74398806564,7,2,-1.099568486213684,3.091059684753418,2.149664689572905,2.179164864305708,8.5561552701029,8.006272686274684,-0.0039499760605394,0.0897949114441871,0,0,0
726,24573.18757026136,2010-08-31 20:19:21,3567.774414432509,7,2,-1.0997490882873535,2.8908069133758545,2.149664689572905,2.187116372773254,8.5561552701029,8.030172463132875,-0.0089684966951608,0.0897949114441871,0,0,0
727,24585.734379279995,2010-08-31 20:19:33,3580.32122345114,7,2,-1.099568486213684,2.699781894683838,2.149664689572905,2.19094909228293,8.5561552701029,8.040906754806915,-0.0134365083649754,0.0897949114441871,0,0,0
728,24645.74887266993,2010-08-31 20:20:33,60.01477980235356,8,2,0.0,3.2822465896606445,2.149664689572905,2.19094909228293,8.5561552701029,8.040906754806915,0.0010684489971026,0.0897949114441871,0,0,0
729,24645.93689396288,2010-08-31 20:20:34,0.187362585212375,9,2,-1.9243103452026844e-05,3.2824084758758545,2.149664689572905,2.19094909328444,8.5561552701029,8.04090675809428,0.0,0.0851717442274093,0,0,0
730,24650.765067948043,2010-08-31 20:20:39,5.015536550325426,9,2,0.0008838032954372,3.289369583129883,2.149665492833128,2.190949093369006,8.55615790983722,8.040906758371861,0.0010036944877356,0.0851717442274093,0,0,0
