Data_Point,Test_Time(s),Date_Time,Step_Time(s),Step_Index,Cycle_Index,Current(A),Voltage(V),Charge_Capacity(Ah),Discharge_Capacity(Ah),Charge_Energy(Wh),Discharge_Energy(Wh),dV/dt(V/s),Internal_Resistance(Ohm),Is_FC_Data,AC_Impedance(Ohm),ACI_Phase_Angle(Deg)
7200,242473.86779978676,2010-09-03 08:51:24,30.015126866575155,1,21,0.0,3.461616039276123,21.31033341195971,21.308452542144327,84.7306780384519,78.04279707391949,0.0006151676061563,0.0859051570296287,0,0,0
7201,242503.88294848776,2010-09-03 08:51:54,60.03027556255591,1,21,0.0,3.4797472953796387,21.31033341195971,21.308452542144327,84.7306780384519,78.04279707391949,0.0004209041653666,0.0859051570296287,0,0,0
7202,242533.89810223127,2010-09-03 08:52:24,90.04542930611679,1,21,0.0,3.4930219650268555,21.31033341195971,21.308452542144327,84.7306780384519,78.04279707391949,0.0003237724304199,0.0859051570296287,0,0,0
7203,242563.86636311343,2010-09-03 08:52:54,120.0136901882384,1,21,0.0,3.503058910369873,21.31033341195971,21.308452542144327,84.7306780384519,78.04279707391949,0.0002590179501567,0.0859051570296287,0,0,0
7204,242593.8885313207,2010-09-03 08:53:24,30.01515819966686,2,21,0.5501165986061096,3.631757974624634,21.314920074169333,21.308452542144327,84.74721056591436,78.04279707391949,0.0012627125252038,0.0859051570296287,0,0,0
7205,242623.90367808184,2010-09-03 08:53:54,60.03030495581295,2,21,0.5499359965324402,3.668991804122925,21.31950638781286,21.308452542144327,84.76395730757575,78.04279707391949,0.0008418083307333,0.0859051570296287,0,0,0
7206,242653.91885368488,2010-09-03 08:54:24,90.04548058892935,2,21,0.5499359965324402,3.696835994720459,21.32409264567926,21.308452542144327,84.78085067842525,78.04279707391949,0.0006799221155233,0.0859051570296287,0,0,0
7207,242683.9339955689,2010-09-03 08:54:54,120.06062244787007,2,21,0.5499359965324402,3.7188525199890137,21.328678949412723,21.308452542144327,84.79785776355244,78.04279707391949,0.0005504131549969,0.0859051570296287,0,0,0
7208,242713.94927847933,2010-09-03 08:55:24,150.0759053533422,2,21,0.5501165986061096,3.7364981174468994,21.333265238237164,21.308452542144327,84.81495558710061,78.04279707391949,0.0004209041653666,0.0859051570296287,0,0,0
7209,242743.96426063028,2010-09-03 08:55:54,180.09088750424135,2,21,0.5499359965324402,3.749772787094116,21.337851471470756,21.308452542144327,84.83212406191808,78.04279707391949,0.0002590179501567,0.0859051570296287,0,0,0
7210,242773.9822603569,2010-09-03 08:56:24,210.1088872509177,2,21,0.5501165986061096,3.758190631866455,21.342438192161566,21.308452542144327,84.84934365051068,78.04279707391949,0.0001942634553415,0.0859051570296287,0,0,0
7211,242803.9945704031,2010-09-03 08:56:55,240.1211973071347,2,21,0.5501165986061096,3.763047218322754,21.34702403114351,21.308452542144327,84.86658974765379,78.04279707391949,0.0001295089750783,0.0859051570296287,0,0,0
7212,242834.00998415967,2010-09-03 08:57:25,270.1366110336531,2,21,0.5501165986061096,3.766608715057373,21.351610385016222,21.308452542144327,84.8838569160117,78.04279707391949,9.713172767078504e-05,0.0859051570296287,0,0,0
7213,242864.024993774,2010-09-03 08:57:55,300.1516206530121,2,21,0.5501165986061096,3.769846439361572,21.356196704358386,21.308452542144327,84.9011393889826,78.04279707391949,9.713172767078504e-05,0.0859051570296287,0,0,0
7214,242894.04006681143,2010-09-03 08:58:25,330.16669368040345,2,21,0.5501165986061096,3.7729222774505615,21.360783027037865,21.308452542144327,84.91843607082278,78.04279707391949,9.713172767078504e-05,0.0859051570296287,0,0,0
7215,242924.05518028463,2010-09-03 08:58:55,360.1818071535982,2,21,0.5501165986061096,3.775836229324341,21.36536941048624,21.308452542144327,84.93574708142847,78.04279707391949,3.237724376958795e-05,0.0859051570296287,0,0,0
7216,242954.0703047001,2010-09-03 08:59:25,390.196931564052,2,21,0.550297200679779,3.77891206741333,21.369955789239345,21.308452542144327,84.95307206131062,78.04279707391949,3.237724376958795e-05,0.0859051570296287,0,0,0
7217,242984.0854448548,2010-09-03 08:59:55,420.2120717588451,2,21,0.5501165986061096,3.782149791717529,21.374542151407425,21.308452542144327,84.97041091879461,78.04279707391949,9.713172767078504e-05,0.0859051570296287,0,0,0
7218,243014.10062876355,2010-09-03 09:00:25,450.2272556525495,2,21,0.5501165986061096,3.7850637435913086,21.37912847387252,21.308452542144327,84.98776349792601,78.04279707391949,9.713172767078504e-05,0.0859051570296287,0,0,0
7219,243044.11571872816,2010-09-03 09:00:55,480.24234562717845,2,21,0.5501165986061096,3.788139581680298,21.383714792368316,21.308452542144327,85.00512989592386,78.04279707391949,9.713172767078504e-05,0.0859051570296287,0,0,0
7220,243074.1308720707,2010-09-03 09:01:25,510.2574989446776,2,21,0.5501165986061096,3.791053533554077,21.38830114251274,21.308452542144327,85.02251011709367,78.04279707391949,6.47544875391759e-05,0.0859051570296287,0,0,0
7221,243104.14627996768,2010-09-03 09:01:55,540.2729068416669,2,21,0.5501165986061096,3.793967485427856,21.39288753376674,21.308452542144327,85.03990398827024,78.04279707391949,6.47544875391759e-05,0.0859051570296287,0,0,0
7222,243134.16145160585,2010-09-03 09:02:25,570.2880784998766,2,21,0.5501165986061096,3.7970433235168457,21.39747382919938,21.308452542144327,85.05731110677202,78.04279707391949,6.47544875391759e-05,0.0859051570296287,0,0,0
7223,243164.17637457425,2010-09-03 09:02:55,600.3030014782997,2,21,0.5499359965324402,3.799957275390625,21.4020601577112,21.308452542144327,85.07473200732439,78.04279707391949,6.47544875391759e-05,0.0859051570296287,0,0,0
7224,243194.19147517532,2010-09-03 09:03:25,630.3181020543509,2,21,0.5499359965324402,3.802871227264404,21.40664650456756,21.308452542144327,85.09216666455582,78.04279707391949,9.713172767078504e-05,0.0859051570296287,0,0,0
7225,243224.2066239716,2010-09-03 09:03:55,660.3332508706314,2,21,0.5501165986061096,3.806108951568604,21.411232784000617,21.308452542144327,85.10961493004916,78.04279707391949,9.713172767078504e-05,0.0859051570296287,0,0,0
7226,243254.2217908078,2010-09-03 09:04:25,690.3484176917857,2,21,0.5501165986061096,3.809022903442383,21.4158191432468,21.308452542144327,85.1270776318976,78.04279707391949,6.47544875391759e-05,0.0859051570296287,0,0,0
7227,243284.23692441612,2010-09-03 09:04:55,720.3635513001635,2,21,0.5501165986061096,3.812260627746582,21.420405474626875,21.308452542144327,85.14455465133874,78.04279707391949,9.713172767078504e-05,0.0859051570296287,0,0,0
7228,243314.25211062565,2010-09-03 09:05:25,750.3787375296895,2,21,0.5499359965324402,3.815498352050781,21.424991809369377,21.308452542144327,85.16204675231972,78.04279707391949,3.237724376958795e-05,0.0859051570296287,0,0,0
7229,243344.26723992327,2010-09-03 09:05:55,780.3938667972485,2,21,0.5501165986061096,3.8190598487854,21.42957819690099,21.308452542144327,85.17955436205114,78.04279707391949,9.713172767078504e-05,0.0859051570296287,0,0,0
7230,243374.28238140128,2010-09-03 09:06:25,810.4090082852648,2,21,0.5501165986061096,3.8224594593048096,21.43416455760362,21.308452542144327,85.19707747307707,78.04279707391949,9.713172767078504e-05,0.0859051570296287,0,0,0
7231,243404.29770018617,2010-09-03 09:06:55,840.424327085197,2,21,0.550297200679779,3.8260209560394287,21.43875095382165,21.308452542144327,85.21461665616447,78.04279707391949,6.47544875391759e-05,0.0859051570296287,0,0,0
7232,243434.31267604136,2010-09-03 09:07:25,870.4393029153429,2,21,0.5501165986061096,3.829582452774048,21.4433373171641,21.308452542144327,85.23217192658853,78.04279707391949,0.0001295089750783,0.0859051570296287,0,0,0
7233,243464.32788871683,2010-09-03 09:07:55,900.4545156158425,2,21,0.5501165986061096,3.832820177078247,21.4479237378086,21.308452542144327,85.2497435354166,78.04279707391949,6.47544875391759e-05,0.0859051570296287,0,0,0
7234,243494.34298783925,2010-09-03 09:08:25,930.4696147132084,2,21,0.5499359965324402,3.836381435394287,21.452510028642777,21.308452542144327,85.26733057054577,78.04279707391949,6.47544875391759e-05,0.0859051570296287,0,0,0
7235,243524.3582018079,2010-09-03 09:08:55,960.4848286818686,2,21,0.5501165986061096,3.839942932128906,21.45709635911654,21.308452542144327,85.28493347856161,78.04279707391949,0.0001295089750783,0.0859051570296287,0,0,0
7236,243554.37328163223,2010-09-03 09:09:25,990.4999085312626,2,21,0.5499359965324402,3.843018770217896,21.461682653692463,21.308452542144327,85.30255164464893,78.04279707391949,6.47544875391759e-05,0.0859051570296287,0,0,0
7237,243584.3885570691,2010-09-03 09:09:55,1020.515183943058,2,21,0.5499359965324402,3.846256494522095,21.466269100566468,21.308452542144327,85.32018548282099,78.04279707391949,6.47544875391759e-05,0.0859051570296287,0,0,0
7238,243614.40357062823,2010-09-03 09:10:25,1050.5301975323114,2,21,0.5499359965324402,3.849494218826294,21.47085539941221,21.308452542144327,85.33783356596015,78.04279707391949,6.47544875391759e-05,0.0859051570296287,0,0,0
7239,243644.41885938327,2010-09-03 09:10:55,1080.5454862773374,2,21,0.5501165986061096,3.852731943130493,21.475441805420697,21.308452542144327,85.35549664073991,78.04279707391949,9.713172767078504e-05,0.0859051570296287,0,0,0
7240,243674.43399925737,2010-09-03 09:11:25,1110.560626141306,2,21,0.5501165986061096,3.855645895004273,21.48002820925637,21.308452542144327,85.37317395905552,78.04279707391949,3.237724376958795e-05,0.0859051570296287,0,0,0
7241,243704.44909225445,2010-09-03 09:11:55,1140.5757191484931,2,21,0.5501165986061096,3.8587217330932617,21.484614549794053,21.308452542144327,85.39086500130342,78.04279707391949,6.47544875391759e-05,0.0859051570296287,0,0,0
7242,243734.46417517657,2010-09-03 09:12:25,1170.5908020504953,2,21,0.5499359965324402,3.861635684967041,21.48920087744429,21.308452542144327,85.40856950294388,78.04279707391949,6.47544875391759e-05,0.0859051570296287,0,0,0
7243,243764.47931794275,2010-09-03 09:12:55,1200.6059448217095,2,21,0.5499359965324402,3.8643877506256095,21.49378724580986,21.308452542144327,85.42628712148773,78.04279707391949,3.237724376958795e-05,0.0859051570296287,0,0,0
7244,243794.49443740083,2010-09-03 09:13:25,1230.6210642647827,2,21,0.5501165986061096,3.86713981628418,21.49837349434186,21.308452542144327,85.444016549411,78.04279707391949,6.47544875391759e-05,0.0859051570296287,0,0,0
7245,243824.5095633451,2010-09-03 09:13:55,1260.6361902090596,2,21,0.5499359965324402,3.869568109512329,21.502959773744504,21.308452542144327,85.461757747797,78.04279707391949,6.47544875391759e-05,0.0859051570296287,0,0,0
7246,243854.52473099832,2010-09-03 09:14:25,1290.6513578923625,2,21,0.5499359965324402,3.871834516525269,21.507546030963464,21.308452542144327,85.47950985738207,78.04279707391949,6.47544875391759e-05,0.0859051570296287,0,0,0
7247,243884.5399126364,2010-09-03 09:14:55,1320.6665395053826,2,21,0.550297200679779,3.874100923538208,21.51213232274116,21.308452542144327,85.4972723593526,78.04279707391949,6.47544875391759e-05,0.0859051570296287,0,0,0
7248,243914.5550533475,2010-09-03 09:15:25,1350.6816802264875,2,21,0.5501165986061096,3.876043558120728,21.516718641617647,21.308452542144327,85.51504428404772,78.04279707391949,6.47544875391759e-05,0.0859051570296287,0,0,0
7249,243944.57019825405,2010-09-03 09:15:55,1380.6968251280114,2,21,0.5499359965324402,3.877824306488037,21.521304961684,21.308452542144327,85.53282496688348,78.04279707391949,3.237724376958795e-05,0.0859051570296287,0,0,0
7250,243974.5857346162,2010-09-03 09:16:25,1410.712361495188,2,21,0.5501165986061096,3.8794431686401367,21.52589130874997,21.308452542144327,85.55061371198445,78.04279707391949,6.47544875391759e-05,0.0859051570296287,0,0,0
7251,244004.60050516977,2010-09-03 09:16:55,1440.7271320437087,2,21,0.5501165986061096,3.881062030792236,21.53047757454793,21.308452542144327,85.56840935405802,78.04279707391949,6.47544875391759e-05,0.0859051570296287,0,0,0
7252,244034.61564400612,2010-09-03 09:17:25,1470.7422708851293,2,21,0.5501165986061096,3.882357120513916,21.53506387666889,21.308452542144327,85.58621174867449,78.04279707391949,6.47544875391759e-05,0.0859051570296287,0,0,0
7253,244064.63091999936,2010-09-03 09:17:55,1500.7575468833863,2,21,0.550297200679779,3.883652210235596,21.53965022011133,21.308452542144327,85.60402040854709,78.04279707391949,6.47544875391759e-05,0.0859051570296287,0,0,0
7254,244094.6461655568,2010-09-03 09:18:25,1530.7727924307503,2,21,0.5501165986061096,3.8847854137420654,21.54423657672191,21.308452542144327,85.6218347585011,78.04279707391949,6.47544875391759e-05,0.0859051570296287,0,0,0
7255,244124.66109613416,2010-09-03 09:18:55,1560.7877230081126,2,21,0.550297200679779,3.886242389678955,21.548822810009053,21.308452542144327,85.6396539975216,78.04279707391949,6.47544875391759e-05,0.0859051570296287,0,0,0
7256,244154.67644452283,2010-09-03 09:19:25,1590.803071426864,2,21,0.5501165986061096,3.887213706970215,21.55340912928222,21.308452542144327,85.65747878241311,78.04279707391949,6.47544875391759e-05,0.0859051570296287,0,0,0
7257,244184.691406704,2010-09-03 09:19:55,1620.8180335779173,2,21,0.5501165986061096,3.888346910476685,21.557995423767927,21.308452542144327,85.6753084149187,78.04279707391949,9.713172767078504e-05,0.0859051570296287,0,0,0
7258,244214.70654713936,2010-09-03 09:20:25,1650.8331740082974,2,21,0.5501165986061096,3.8891563415527344,21.56258178032112,21.308452542144327,85.69314320593939,78.04279707391949,3.237724376958795e-05,0.0859051570296287,0,0,0
7259,244244.72168735412,2010-09-03 09:20:55,1680.8483142582284,2,21,0.5501165986061096,3.890289545059204,21.567168105048204,21.308452542144327,85.71098260276693,78.04279707391949,3.237724376958795e-05,0.0859051570296287,0,0,0
7260,244274.7368294587,2010-09-03 09:21:25,1710.863456362781,2,21,0.550297200679779,3.891260862350464,21.57175439956529,21.308452542144327,85.72882661510894,78.04279707391949,3.237724376958795e-05,0.0859051570296287,0,0,0
7261,244304.7521144945,2010-09-03 09:21:55,1740.8787413785126,2,21,0.5501165986061096,3.892232179641724,21.576340733671984,21.308452542144327,85.74667548452561,78.04279707391949,0.0,0.0859051570296287,0,0,0
7262,244334.7672288148,2010-09-03 09:22:25,1770.8938557439312,2,21,0.5501165986061096,3.893203496932984,21.580927111959404,21.308452542144327,85.76452915411895,78.04279707391949,3.237724376958795e-05,0.0859051570296287,0,0,0
7263,244364.78227755168,2010-09-03 09:22:55,1800.9089044256457,2,21,0.550297200679779,3.894336700439453,21.585513440207908,21.308452542144327,85.78238735213304,78.04279707391949,3.237724376958795e-05,0.0859051570296287,0,0,0
7264,244394.79744148563,2010-09-03 09:23:25,1830.9240683846665,2,21,0.5499359965324402,3.895146131515503,21.59009983336743,21.308452542144327,85.8002500916198,78.04279707391949,3.237724376958795e-05,0.0859051570296287,0,0,0
7265,244424.81256400136,2010-09-03 09:23:55,1860.939190880348,2,21,0.5499359965324402,3.8961174488067623,21.594686090143263,21.308452542144327,85.81811683243501,78.04279707391949,0.0,0.0859051570296287,0,0,0
7266,244454.8277386219,2010-09-03 09:24:25,1890.9543655009409,2,21,0.5501165986061096,3.8970887660980233,21.599272374145546,21.308452542144327,85.83598849062622,78.04279707391949,-3.237724376958795e-05,0.0859051570296287,0,0,0
7267,244484.8429146911,2010-09-03 09:24:55,1920.9695415651315,2,21,0.550297200679779,3.898383855819702,21.6038586217125,21.308452542144327,85.85386465027118,78.04279707391949,6.47544875391759e-05,0.0859051570296287,0,0,0
7268,244514.8580127409,2010-09-03 09:25:25,1950.9846396148864,2,21,0.5501165986061096,3.899193286895752,21.608444969657377,21.308452542144327,85.87174600508123,78.04279707391949,0.0,0.0859051570296287,0,0,0
7269,244544.87316421885,2010-09-03 09:25:55,1980.9997910928005,2,21,0.550297200679779,3.9003264904022217,21.613031285088045,21.308452542144327,85.88963194442417,78.04279707391949,3.237724376958795e-05,0.0859051570296287,0,0,0
7270,244574.8883291052,2010-09-03 09:26:25,2011.0149559791323,2,21,0.5501165986061096,3.9014596939086914,21.61761756815254,21.308452542144327,85.90752254009797,78.04279707391949,3.237724376958795e-05,0.0859051570296287,0,0,0
7271,244604.9034744528,2010-09-03 09:26:55,2041.0301013267683,2,21,0.5499359965324402,3.902431011199951,21.62220381341545,21.308452542144327,85.92541787629403,78.04279707391949,6.47544875391759e-05,0.0859051570296287,0,0,0
7272,244634.9186124521,2010-09-03 09:27:25,2071.04523932609,2,21,0.5499359965324402,3.903564214706421,21.62679015156105,21.308452542144327,85.9433184561842,78.04279707391949,3.237724376958795e-05,0.0859051570296287,0,0,0
7273,244664.93376900267,2010-09-03 09:27:55,2101.0603958766465,2,21,0.5501165986061096,3.90469741821289,21.63137652165077,21.308452542144327,85.9612241786394,78.04279707391949,3.237724376958795e-05,0.0859051570296287,0,0,0
7274,244694.94905015372,2010-09-03 09:28:25,2131.075677027746,2,21,0.5499359965324402,3.9056687355041504,21.63596281609865,21.308452542144327,85.97913448331855,78.04279707391949,0.0,0.0859051570296287,0,0,0
7275,244724.9491504896,2010-09-03 09:28:55,2161.075777373608,2,21,0.550297200679779,3.90696382522583,21.64054675101432,21.308452542144327,85.9970406727953,78.04279707391949,6.47544875391759e-05,0.0859051570296287,0,0,0
7276,244754.9507748889,2010-09-03 09:29:25,2191.077401762855,2,21,0.5501165986061096,3.9080970287323,21.64513094136633,21.308452542144327,86.01495296758853,78.04279707391949,6.47544875391759e-05,0.0859051570296287,0,0,0
7277,244784.9632764173,2010-09-03 09:29:56,2221.0899033013047,2,21,0.5499359965324402,3.90906834602356,21.649716816150235,21.308452542144327,86.03287699620367,78.04279707391949,3.237724376958795e-05,0.0859051570296287,0,0,0
7278,244814.9785090024,2010-09-03 09:30:26,2251.105135876338,2,21,0.5501165986061096,3.9103634357452393,21.654303111586792,21.308452542144327,86.05080791778839,78.04279707391949,3.237724376958795e-05,0.0859051570296287,0,0,0
7279,244844.9934988374,2010-09-03 09:30:56,2281.1201257214134,2,21,0.5501165986061096,3.911496639251709,21.65888938990365,21.308452542144327,86.06874396788554,78.04279707391949,6.47544875391759e-05,0.0859051570296287,0,0,0
7280,244875.0085305719,2010-09-03 09:31:26,2311.1351574408523,2,21,0.5499359965324402,3.9124679565429688,21.66347563183584,21.308452542144327,86.08668528211898,78.04279707391949,0.0,0.0859051570296287,0,0,0
7281,244905.02367590956,2010-09-03 09:31:56,2341.1503028135508,2,21,0.5501165986061096,3.9139246940612793,21.66806192104473,21.308452542144327,86.10463217457034,78.04279707391949,6.470680091297254e-05,0.0859051570296287,0,0,0
7282,244935.03882190376,2010-09-03 09:32:26,2371.165448777723,2,21,0.550297200679779,3.915057897567749,21.6726482722678,21.308452542144327,86.12258487765747,78.04279707391949,3.237724376958795e-05,0.0859051570296287,0,0,0
7283,244965.0539534721,2010-09-03 09:32:56,2401.180580346016,2,21,0.550297200679779,3.9163529872894287,21.67723460582692,21.308452542144327,86.14054285577213,78.04279707391949,6.47544875391759e-05,0.0859051570296287,0,0,0
7284,244995.069115,2010-09-03 09:33:26,2431.195741873978,2,21,0.5499359965324402,3.9174861907958975,21.68182088959255,21.308452542144327,86.15850631356204,78.04279707391949,6.47544875391759e-05,0.0859051570296287,0,0,0
7285,245025.08425563088,2010-09-03 09:33:56,2461.210882504858,2,21,0.5501165986061096,3.918619394302368,21.686407235011583,21.308452542144327,86.1764757863326,78.04279707391949,0.0,0.0859051570296287,0,0,0
7286,245055.099399154,2010-09-03 09:34:26,2491.226026027947,2,21,0.550297200679779,3.920076370239258,21.69099347542801,21.308452542144327,86.19445058785102,78.04279707391949,6.47544875391759e-05,0.0859051570296287,0,0,0
7287,245085.11467149312,2010-09-03 09:34:56,2521.241298367084,2,21,0.5501165986061096,3.921209573745728,21.695579845031727,21.308452542144327,86.2124316721879,78.04279707391949,3.237724376958795e-05,0.0859051570296287,0,0,0
7288,245115.12992822332,2010-09-03 09:35:26,2551.2565551173698,2,21,0.5501165986061096,3.9225046634674072,21.700166151165348,21.308452542144327,86.23041839395957,78.04279707391949,3.237724376958795e-05,0.0859051570296287,0,0,0
7289,245145.1448417432,2010-09-03 09:35:56,2581.271468617169,2,21,0.5501165986061096,3.923961639404297,21.704752414823293,21.308452542144327,86.24841087517511,78.04279707391949,9.713172767078504e-05,0.0859051570296287,0,0,0
7290,245175.16011640316,2010-09-03 09:36:26,2611.286743307165,2,21,0.5501165986061096,3.925094842910767,21.709338793711943,21.308452542144327,86.26640983196704,78.04279707391949,3.237724376958795e-05,0.0859051570296287,0,0,0
7291,245205.1751327242,2010-09-03 09:36:56,2641.3017595981523,2,21,0.5499359965324402,3.9263899326324463,21.71392511046415,21.308452542144327,86.28441453121864,78.04279707391949,6.47544875391759e-05,0.0859051570296287,0,0,0
7292,245235.1902967684,2010-09-03 09:37:26,2671.316923642386,2,21,0.5501165986061096,3.927846908569336,21.718511445352352,21.308452542144327,86.30242542633293,78.04279707391949,6.47544875391759e-05,0.0859051570296287,0,0,0
7293,245265.20543503345,2010-09-03 09:37:56,2701.3320619073693,2,21,0.550297200679779,3.929141998291016,21.723097814205488,21.308452542144327,86.32044264244323,78.04279707391949,3.237724376958795e-05,0.0859051570296287,0,0,0
7294,245295.22060647607,2010-09-03 09:38:26,2731.3472333801164,2,21,0.5501165986061096,3.930598974227905,21.727684161750155,21.308452542144327,86.33846603561209,78.04279707391949,3.237724376958795e-05,0.0859051570296287,0,0,0
7295,245325.23587462973,2010-09-03 09:38:56,2761.362501503748,2,21,0.5501165986061096,3.931894063949585,21.732270580024828,21.308452542144327,86.35649595622985,78.04279707391949,3.237724376958795e-05,0.0859051570296287,0,0,0
7296,245355.25101341103,2010-09-03 09:39:26,2791.377640310081,2,21,0.5501165986061096,3.933027267456055,21.736856916812325,21.308452542144327,86.37453192903146,78.04279707391949,-3.237724376958795e-05,0.0859051570296287,0,0,0
7297,245385.26602175724,2010-09-03 09:39:56,2821.392648636216,2,21,0.5501165986061096,3.9346461296081534,21.74144323166981,21.308452542144327,86.39257417525438,78.04279707391949,0.0,0.0859051570296287,0,0,0
7298,245415.28119694424,2010-09-03 09:40:26,2851.4078238182087,2,21,0.5501165986061096,3.936103105545044,21.74602956999503,21.308452542144327,86.41062299918545,78.04279707391949,3.237724376958795e-05,0.0859051570296287,0,0,0
7299,245445.29661850023,2010-09-03 09:40:56,2881.423245409328,2,21,0.5501165986061096,3.937398195266724,21.75061604351585,21.308452542144327,86.42867872291919,78.04279707391949,3.237724376958795e-05,0.0859051570296287,0,0,0
7300,245475.31148648163,2010-09-03 09:41:26,2911.438113355594,2,21,0.5501165986061096,3.938855171203613,21.75520236841893,21.308452542144327,86.4467405132959,78.04279707391949,3.237724376958795e-05,0.0859051570296287,0,0,0
7301,245505.32661553365,2010-09-03 09:41:56,2941.453242407616,2,21,0.5499359965324402,3.940312147140503,21.75978870874026,21.308452542144327,86.46480890436224,78.04279707391949,3.237724376958795e-05,0.0859051570296287,0,0,0
7302,245535.3417826004,2010-09-03 09:42:26,2971.468409499445,2,21,0.5499359965324402,3.941607236862183,21.764375077309147,21.308452542144327,86.48288411746647,78.04279707391949,0.0,0.0859051570296287,0,0,0
7303,245565.3569164193,2010-09-03 09:42:56,3001.4835432982973,2,21,0.5499359965324402,3.943226099014282,21.76896143395408,21.308452542144327,86.50096597073673,78.04279707391949,0.0,0.0859051570296287,0,0,0
7304,245595.37207320044,2010-09-03 09:43:26,3031.4987000794285,2,21,0.5501165986061096,3.944844961166382,21.773547803677783,21.308452542144327,86.51905467711964,78.04279707391949,3.237724376958795e-05,0.0859051570296287,0,0,0
7305,245625.387214894,2010-09-03 09:43:56,3061.513841767945,2,21,0.550297200679779,3.946301937103272,21.77813417687099,21.308452542144327,86.53715027428505,78.04279707391949,6.47544875391759e-05,0.0859051570296287,0,0,0
7306,245655.4024869875,2010-09-03 09:44:26,3091.52911386147,2,21,0.5501165986061096,3.947597026824951,21.782720544817835,21.308452542144327,86.55525256927113,78.04279707391949,0.0,0.0859051570296287,0,0,0
7307,245685.417527955,2010-09-03 09:44:56,3121.544154828958,2,21,0.550297200679779,3.949215888977051,21.787306864181875,21.308452542144327,86.57336164286573,78.04279707391949,0.0,0.0859051570296287,0,0,0
7308,245715.4327021495,2010-09-03 09:45:26,3151.559329023489,2,21,0.5501165986061096,3.9508347511291504,21.79189323385093,21.308452542144327,86.59147788399855,78.04279707391949,3.237724376958795e-05,0.0859051570296287,0,0,0
7309,245745.4479561881,2010-09-03 09:45:56,3181.5745830870787,2,21,0.5501165986061096,3.95229172706604,21.79647965889393,21.308452542144327,86.60960143324188,78.04279707391949,3.237724376958795e-05,0.0859051570296287,0,0,0
7310,245775.4629576872,2010-09-03 09:46:26,3211.58958456615,2,21,0.5497553944587708,3.9537487030029297,21.801065980460617,21.308452542144327,86.62773169338486,78.04279707391949,3.237724376958795e-05,0.0859051570296287,0,0,0
7311,245805.4781234808,2010-09-03 09:46:56,3241.60475035473,2,21,0.5501165986061096,3.9555294513702393,21.80565232413529,21.308452542144327,86.64586927470701,78.04279707391949,9.713172767078504e-05,0.0859051570296287,0,0,0
7312,245835.4932733998,2010-09-03 09:47:26,3271.6199002737594,2,21,0.5499359965324402,3.956986427307129,21.81023868696384,21.308452542144327,86.6640143063574,78.04279707391949,0.0,0.0859051570296287,0,0,0
7313,245865.5084020057,2010-09-03 09:47:56,3301.6350288796693,2,21,0.5499359965324402,3.9587671756744394,21.81482502688884,21.308452542144327,86.68216648986697,78.04279707391949,3.237724376958795e-05,0.0859051570296287,0,0,0
7314,245895.52359762363,2010-09-03 09:48:26,3331.650224497594,2,21,0.5501165986061096,3.960224151611328,21.81941135840734,21.308452542144327,86.70032618164677,78.04279707391949,3.237724376958795e-05,0.0859051570296287,0,0,0
7315,245925.5386942348,2010-09-03 09:48:56,3361.665321113776,2,21,0.5499359965324402,3.9620048999786377,21.823997698907664,21.308452542144327,86.71849356444217,78.04279707391949,3.237724376958795e-05,0.0859051570296287,0,0,0
7316,245955.55391671468,2010-09-03 09:49:26,3391.6805436036734,2,21,0.5501165986061096,3.963623762130737,21.828584062369664,21.308452542144327,86.7366687281655,78.04279707391949,3.237724376958795e-05,0.0859051570296287,0,0,0
7317,245985.5689956919,2010-09-03 09:49:56,3421.695622565857,2,21,0.5499359965324402,3.965404510498047,21.83317040720337,21.308452542144327,86.75485174541785,78.04279707391949,6.47544875391759e-05,0.0859051570296287,0,0,0
7318,246015.58416932,2010-09-03 09:50:26,3451.7107961889637,2,21,0.5499359965324402,3.967185258865357,21.83775626634683,21.308452542144327,86.77304075857197,78.04279707391949,6.47544875391759e-05,0.0859051570296287,0,0,0
7319,246045.59939913315,2010-09-03 09:50:56,3481.7260260572502,2,21,0.5501165986061096,3.968966007232666,21.8423417050782,21.308452542144327,86.79123599708714,78.04279707391949,3.237724376958795e-05,0.0859051570296287,0,0,0
7320,246075.6147307751,2010-09-03 09:51:26,3511.741357639039,2,21,0.5501165986061096,3.9709086418151855,21.846927337852296,21.308452542144327,86.8094402958819,78.04279707391949,6.47544875391759e-05,0.0859051570296287,0,0,0
7321,246105.6296126812,2010-09-03 09:51:56,3541.756239550109,2,21,0.5501165986061096,3.972527503967285,21.85151280354043,21.308452542144327,86.82765231369238,78.04279707391949,3.237724376958795e-05,0.0859051570296287,0,0,0
7322,246135.64473398388,2010-09-03 09:52:26,3571.771360852818,2,21,0.5499359965324402,3.9744701385498047,21.85609829851895,21.308452542144327,86.84587284748277,78.04279707391949,6.47544875391759e-05,0.0859051570296287,0,0,0
7323,246165.659882334,2010-09-03 09:52:56,3601.7865092229868,2,21,0.5499359965324402,3.976412773132324,21.86068380583905,21.308452542144327,86.86410198234725,78.04279707391949,6.47544875391759e-05,0.0859051570296287,0,0,0
7324,246195.6750342179,2010-09-03 09:53:26,3631.801661096887,2,21,0.5501165986061096,3.977869749069214,21.86526964132843,21.308452542144327,86.88234086936981,78.04279707391949,0.0,0.0859051570296287,0,0,0
7325,246225.6902817953,2010-09-03 09:53:56,3661.8169086993735,2,21,0.5501165986061096,3.980136156082153,21.86985604488876,21.308452542144327,86.90059097723726,78.04279707391949,3.237724376958795e-05,0.0859051570296287,0,0,0
7326,246255.70530712383,2010-09-03 09:54:26,3691.8319339978098,2,21,0.5501165986061096,3.982240676879883,21.87444232417937,21.308452542144327,86.9188496160342,78.04279707391949,3.237724376958795e-05,0.0859051570296287,0,0,0
7327,246285.72057996425,2010-09-03 09:54:56,3721.8472068381966,2,21,0.5501165986061096,3.9841833114624015,21.879028699251776,21.308452542144327,86.9371175140041,78.04279707391949,6.47544875391759e-05,0.0859051570296287,0,0,0
7328,246315.73574491573,2010-09-03 09:55:26,3751.8623718147537,2,21,0.5501165986061096,3.985964059829712,21.88361500130299,21.308452542144327,86.95539404062008,78.04279707391949,3.237724376958795e-05,0.0859051570296287,0,0,0
7329,246345.75075043488,2010-09-03 09:55:56,3781.8773773038192,2,21,0.5501165986061096,3.987906694412232,21.888201355640437,21.308452542144327,86.97367986834836,78.04279707391949,3.237724376958795e-05,0.0859051570296287,0,0,0
7330,246375.76604682897,2010-09-03 09:56:26,3811.8926737079337,2,21,0.5499359965324402,3.990011215209961,21.89278774190432,21.308452542144327,86.99197477767514,78.04279707391949,9.713172767078504e-05,0.0859051570296287,0,0,0
7331,246405.78104027803,2010-09-03 09:56:56,3841.907667167016,2,21,0.5501165986061096,3.9921157360076895,21.89737397452861,21.308452542144327,87.01027827949794,78.04279707391949,9.713172767078504e-05,0.0859051570296287,0,0,0
7332,246435.7962140064,2010-09-03 09:57:26,3871.9228408903728,2,21,0.5501165986061096,3.994058132171631,21.901960425642542,21.308452542144327,87.02859196431967,78.04279707391949,6.470680091297254e-05,0.0859051570296287,0,0,0
7333,246465.8114654334,2010-09-03 09:57:56,3901.938092322403,2,21,0.5501165986061096,3.99616265296936,21.906546745261668,21.308452542144327,87.04691439051162,78.04279707391949,6.47544875391759e-05,0.0859051570296287,0,0,0
7334,246495.82648322813,2010-09-03 09:58:26,3931.9531101021007,2,21,0.5501165986061096,3.99826717376709,21.91113311777488,21.308452542144327,87.06524644646434,78.04279707391949,9.713172767078504e-05,0.0859051570296287,0,0,0
7335,246525.8416127864,2010-09-03 09:58:56,3961.9682396854473,2,21,0.5501165986061096,4.000209808349609,21.915719463083786,21.308452542144327,87.08358762271294,78.04279707391949,9.713172767078504e-05,0.0859051570296287,0,0,0
7336,246555.85689960665,2010-09-03 09:59:26,3991.983526500663,2,21,0.550297200679779,4.002314567565918,21.9203057779892,21.308452542144327,87.10193819200785,78.04279707391949,6.47544875391759e-05,0.0859051570296287,0,0,0
7337,246585.8719699624,2010-09-03 09:59:56,4021.998596851384,2,21,0.5499359965324402,4.004418849945068,21.92489204159133,21.308452542144327,87.12029810206617,78.04279707391949,9.70840483205393e-05,0.0859051570296287,0,0,0
7338,246615.88718521423,2010-09-03 10:00:26,4052.0138120882048,2,21,0.5501165986061096,4.006361484527588,21.929478311417128,21.308452542144327,87.13866759315277,78.04279707391949,3.23295607813634e-05,0.0859051570296287,0,0,0
7339,246645.90220726456,2010-09-03 10:00:56,4082.028834138546,2,21,0.5499359965324402,4.008627891540527,21.934064595502985,21.308452542144327,87.15704684750912,78.04279707391949,6.47544875391759e-05,0.0859051570296287,0,0,0
7340,246675.92031522092,2010-09-03 10:01:26,4112.046942124988,2,21,0.5501165986061096,4.010570526123047,21.93865136748833,21.308452542144327,87.17543772199085,78.04279707391949,3.23295607813634e-05,0.0859051570296287,0,0,0
7341,246705.93251404,2010-09-03 10:01:57,4142.059140913893,2,21,0.5501165986061096,4.012675285339356,21.943237182168406,21.308452542144327,87.19383459756372,78.04279707391949,3.24249267578125e-05,0.0859051570296287,0,0,0
7342,246735.94792800705,2010-09-03 10:02:27,4172.074554881011,2,21,0.5501165986061096,4.014779567718506,21.947823561960167,21.308452542144327,87.21224368039948,78.04279707391949,3.23295607813634e-05,0.0859051570296287,0,0,0
7343,246765.96294087448,2010-09-03 10:02:57,4202.089567748466,2,21,0.5501165986061096,4.017045974731445,21.952409910734698,21.308452542144327,87.23066264169397,78.04279707391949,6.47544875391759e-05,0.0859051570296287,0,0,0
7344,246795.97800276417,2010-09-03 10:03:27,4232.104629638098,2,21,0.5501165986061096,4.019312381744385,21.95699630375857,21.308452542144327,87.24909193133918,78.04279707391949,3.23295607813634e-05,0.0859051570296287,0,0,0
7345,246825.99310049307,2010-09-03 10:03:57,4262.119727367053,2,21,0.5501165986061096,4.021578788757324,21.961582631556382,21.308452542144327,87.26753109831488,78.04279707391949,3.23295607813634e-05,0.0859051570296287,0,0,0
7346,246856.0082373596,2010-09-03 10:04:27,4292.134864233552,2,21,0.5501165986061096,4.023845195770264,21.966168928976835,21.308452542144327,87.28598058122935,78.04279707391949,6.47544875391759e-05,0.0859051570296287,0,0,0
7347,246886.0233864716,2010-09-03 10:04:57,4322.1500133505815,2,21,0.5499359965324402,4.026111602783203,21.970755257898816,21.308452542144327,87.30444058112703,78.04279707391949,6.47544875391759e-05,0.0859051570296287,0,0,0
7348,246916.0385606611,2010-09-03 10:05:27,4352.165187535087,2,21,0.5501165986061096,4.028378009796143,21.97534163187082,21.308452542144327,87.322911341502,78.04279707391949,6.47544875391759e-05,0.0859051570296287,0,0,0
7349,246946.0537686048,2010-09-03 10:05:57,4382.180395503794,2,21,0.5497553944587708,4.030644416809082,21.97992803925836,21.308452542144327,87.34139285748628,78.04279707391949,3.23295607813634e-05,0.0859051570296287,0,0,0
7350,246976.0688563789,2010-09-03 10:06:27,4412.195483252876,2,21,0.5499359965324402,4.0330729484558105,21.98451441669036,21.308452542144327,87.35988504484227,78.04279707391949,3.24249267578125e-05,0.0859051570296287,0,0,0
7351,247006.08412227692,2010-09-03 10:06:57,4442.210749176024,2,21,0.5501165986061096,4.035501003265381,21.989100775920317,21.308452542144327,87.37838798122336,78.04279707391949,6.47544875391759e-05,0.0859051570296287,0,0,0
7352,247036.0993629873,2010-09-03 10:07:27,4472.225989891344,2,21,0.550297200679779,4.038252830505371,21.993687046413864,21.308452542144327,87.39690149865056,78.04279707391949,0.0001295089750783,0.0859051570296287,0,0,0
7353,247066.1142675247,2010-09-03 10:07:57,4502.240894398732,2,21,0.550297200679779,4.04035758972168,21.99827338388302,21.308452542144327,87.41542631666816,78.04279707391949,9.71794142969884e-05,0.0859051570296287,0,0,0
7354,247096.1295401045,2010-09-03 10:08:27,4532.256167003532,2,21,0.5501165986061096,4.042947769165039,22.002859742042222,21.308452542144327,87.43396236656186,78.04279707391949,9.71794142969884e-05,0.0859051570296287,0,0,0
7355,247126.1445572276,2010-09-03 10:08:57,4562.271184101531,2,21,0.5501165986061096,4.0452141761779785,22.007446046212625,21.308452542144327,87.45250949844053,78.04279707391949,6.47544875391759e-05,0.0859051570296287,0,0,0
7356,247156.1597070764,2010-09-03 10:09:27,4592.286333950384,2,21,0.550297200679779,4.047804355621338,22.01203244218481,21.308452542144327,87.47106832845748,78.04279707391949,9.71794142969884e-05,0.0859051570296287,0,0,0
7357,247186.1748534516,2010-09-03 10:09:57,4622.301480330593,2,21,0.5501165986061096,4.050232410430908,22.01661884850081,21.308452542144327,87.4896387184763,78.04279707391949,6.47544875391759e-05,0.0859051570296287,0,0,0
7358,247216.19009088376,2010-09-03 10:10:27,4652.31671775772,2,21,0.550297200679779,4.052984714508057,22.02120520395442,21.308452542144327,87.5082204145641,78.04279707391949,9.71794142969884e-05,0.0859051570296287,0,0,0
7359,247246.2051751491,2010-09-03 10:10:57,4682.331802018107,2,21,0.5501165986061096,4.055412769317627,22.02579152731005,21.308452542144327,87.52681370210328,78.04279707391949,9.70840483205393e-05,0.0859051570296287,0,0,0
7360,247276.22033954423,2010-09-03 10:11:27,4712.346966418228,2,21,0.550297200679779,4.058002948760986,22.030377890119237,21.308452542144327,87.54541897188811,78.04279707391949,3.23295607813634e-05,0.0859051570296287,0,0,0
7361,247306.23546200484,2010-09-03 10:11:57,4742.362088883834,2,21,0.5501165986061096,4.060593128204346,22.0349643207458,21.308452542144327,87.56403651531924,78.04279707391949,6.47544875391759e-05,0.0859051570296287,0,0,0
7362,247336.2507663588,2010-09-03 10:12:27,4772.377393262824,2,21,0.5499359965324402,4.063021659851074,22.039550717385225,21.308452542144327,87.58266546702687,78.04279707391949,6.47544875391759e-05,0.0859051570296287,0,0,0
7363,247366.26576009355,2010-09-03 10:12:57,4802.392386977544,2,21,0.550297200679779,4.0657734870910645,22.044137062169003,21.308452542144327,87.60130646345782,78.04279707391949,6.47544875391759e-05,0.0859051570296287,0,0,0
7364,247396.2809170501,2010-09-03 10:13:27,4832.407543934112,2,21,0.5499359965324402,4.068363666534424,22.04872340729263,21.308452542144327,87.61995974111494,78.04279707391949,9.70840483205393e-05,0.0859051570296287,0,0,0
7365,247426.29620566985,2010-09-03 10:13:57,4862.422832558838,2,21,0.5499359965324402,4.071115970611572,22.053309804363003,21.308452542144327,87.63862564721792,78.04279707391949,9.71794142969884e-05,0.0859051570296287,0,0,0
7366,247456.311196748,2010-09-03 10:14:27,4892.437823647013,2,21,0.5501165986061096,4.0738677978515625,22.05789609430389,21.308452542144327,87.65730352168501,78.04279707391949,6.47544875391759e-05,0.0859051570296287,0,0,0
7367,247486.32648093664,2010-09-03 10:14:57,4922.453107815632,2,21,0.5501165986061096,4.076620101928711,22.06248247626396,21.308452542144327,87.67599445037008,78.04279707391949,6.47544875391759e-05,0.0859051570296287,0,0,0
7368,247516.34164324155,2010-09-03 10:15:27,4952.468270125543,2,21,0.5501165986061096,4.07953405380249,22.06706884436841,21.308452542144327,87.69469810604096,78.04279707391949,9.71794142969884e-05,0.0859051570296287,0,0,0
7369,247546.35664262532,2010-09-03 10:15:57,4982.483269514405,2,21,0.5499359965324402,4.08212423324585,22.071655136607298,21.308452542144327,87.713414209589,78.04279707391949,3.24249267578125e-05,0.0859051570296287,0,0,0
7370,247576.37180010328,2010-09-03 10:16:27,5012.498426977236,2,21,0.5499359965324402,4.085038185119629,22.0762414224287,21.308452542144327,87.73214326064887,78.04279707391949,3.24249267578125e-05,0.0859051570296287,0,0,0
7371,247606.38694873912,2010-09-03 10:16:57,5042.513575613067,2,21,0.5501165986061096,4.088113784790039,22.080827852263543,21.308452542144327,87.75088601385976,78.04279707391949,9.70840483205393e-05,0.0859051570296287,0,0,0
7372,247636.40213273303,2010-09-03 10:17:27,5072.528759612033,2,21,0.5499359965324402,4.090866088867188,22.08541414705941,21.308452542144327,87.76964144419156,78.04279707391949,9.71794142969884e-05,0.0859051570296287,0,0,0
7373,247666.4172407777,2010-09-03 10:17:57,5102.543867656698,2,21,0.5501165986061096,4.093780040740967,22.090000491954505,21.308452542144327,87.78841037834415,78.04279707391949,6.47544875391759e-05,0.0859051570296287,0,0,0
7374,247696.43238401008,2010-09-03 10:18:27,5132.55901088405,2,21,0.5501165986061096,4.096855640411377,22.09458685543717,21.308452542144327,87.80719294468886,78.04279707391949,6.47544875391759e-05,0.0859051570296287,0,0,0
7375,247726.4475355532,2010-09-03 10:18:57,5162.574162432139,2,21,0.5501165986061096,4.099769592285156,22.09917319693309,21.308452542144327,87.8259890384827,78.04279707391949,6.47544875391759e-05,0.0859051570296287,0,0,0
7376,247756.4627122539,2010-09-03 10:19:27,5192.589339127904,2,21,0.5501165986061096,4.102683544158936,22.103759664828587,21.308452542144327,87.84479932792928,78.04279707391949,9.70840483205393e-05,0.0859051570296287,0,0,0
7377,247786.47785610787,2010-09-03 10:19:57,5222.604482986828,2,21,0.5499359965324402,4.105759620666504,22.10834601802753,21.308452542144327,87.86362297721053,78.04279707391949,9.71794142969884e-05,0.0859051570296287,0,0,0
7378,247816.49307143487,2010-09-03 10:20:27,5252.619698333925,2,21,0.5501165986061096,4.108997344970703,22.11293238548371,21.308452542144327,87.88246066299608,78.04279707391949,9.71794142969884e-05,0.0859051570296287,0,0,0
7379,247846.50814276809,2010-09-03 10:20:57,5282.634769642031,2,21,0.5501165986061096,4.111911296844482,22.11751875492747,21.308452542144327,87.90131249542492,78.04279707391949,9.71794142969884e-05,0.0859051570296287,0,0,0
7380,247876.52328841144,2010-09-03 10:21:27,5312.649915315479,2,21,0.5501165986061096,4.115148544311523,22.12210508631815,21.308452542144327,87.92017835889067,78.04279707391949,9.70840483205393e-05,0.0859051570296287,0,0,0
7381,247906.5384252027,2010-09-03 10:21:57,5342.665052081727,2,21,0.5501165986061096,4.118224620819092,22.126691428737317,21.308452542144327,87.93905859905949,78.04279707391949,9.71794142969884e-05,0.0859051570296287,0,0,0
7382,247936.55356424465,2010-09-03 10:22:27,5372.680191123647,2,21,0.5501165986061096,4.121462345123291,22.131277767085383,21.308452542144327,87.95795325649009,78.04279707391949,9.71794142969884e-05,0.0859051570296287,0,0,0
7383,247966.5691591527,2010-09-03 10:22:57,5402.695786167063,2,21,0.5501165986061096,4.124537944793701,22.135864191414043,21.308452542144327,87.97686283477083,78.04279707391949,6.47544875391759e-05,0.0859051570296287,0,0,0
7384,247996.58423386436,2010-09-03 10:23:27,5432.710860738302,2,21,0.5499359965324402,4.1276140213012695,22.140450509985804,21.308452542144327,87.99578672121186,78.04279707391949,6.47544875391759e-05,0.0859051570296287,0,0,0
7385,248026.5990193,2010-09-03 10:23:57,5462.725646183951,2,21,0.5501165986061096,4.1310133934021,22.1450367961898,21.308452542144327,88.01472534288821,78.04279707391949,9.70840483205393e-05,0.0859051570296287,0,0,0
7386,248056.61418549457,2010-09-03 10:24:27,5492.740812368519,2,21,0.5501165986061096,4.134413242340088,22.149623175743365,21.308452542144327,88.0336794135441,78.04279707391949,9.71794142969884e-05,0.0859051570296287,0,0,0
7387,248086.62931287743,2010-09-03 10:24:57,5522.7559397513805,2,21,0.5501165986061096,4.137488842010498,22.15420957459578,21.308452542144327,88.05264871794586,78.04279707391949,6.47544875391759e-05,0.0859051570296287,0,0,0
7388,248116.64447217985,2010-09-03 10:25:27,5552.771099083871,2,21,0.5499359965324402,4.140888690948486,22.158795892778063,21.308452542144327,88.07163300668503,78.04279707391949,6.47544875391759e-05,0.0859051570296287,0,0,0
7389,248146.6597369601,2010-09-03 10:25:57,5582.786363839106,2,21,0.5501165986061096,4.1444501876831055,22.16338230354524,21.308452542144327,88.09063306383372,78.04279707391949,0.0001295089750783,0.0859051570296287,0,0,0
7390,248176.67476117087,2010-09-03 10:26:27,5612.801388049832,2,21,0.5499359965324402,4.147849559783936,22.16796863581636,21.308452542144327,88.10964873584257,78.04279707391949,9.70840483205393e-05,0.0859051570296287,0,0,0
7391,248206.68991752592,2010-09-03 10:26:57,5642.8165443948765,2,21,0.5501165986061096,4.151249408721924,22.172554951835604,21.308452542144327,88.12868001237695,78.04279707391949,9.71794142969884e-05,0.0859051570296287,0,0,0
7392,248236.70507289356,2010-09-03 10:27:27,5672.831699767497,2,21,0.5501165986061096,4.154810905456543,22.17714132436855,21.308452542144327,88.1477273700252,78.04279707391949,0.0001295089750783,0.0859051570296287,0,0,0
7393,248266.72025899272,2010-09-03 10:27:57,5702.846885881736,2,21,0.5501165986061096,4.158372402191162,22.181727612537397,21.308452542144327,88.16679026132175,78.04279707391949,0.0001295089750783,0.0859051570296287,0,0,0
7394,248296.7353643858,2010-09-03 10:28:27,5732.861991259755,2,21,0.5501165986061096,4.161771774291992,22.18631393255863,21.308452542144327,88.18586940343974,78.04279707391949,0.0001295089750783,0.0859051570296287,0,0,0
7395,248326.7505904145,2010-09-03 10:28:57,5762.877217293485,2,21,0.5501165986061096,4.1654953956604,22.19090033318749,21.308452542144327,88.20496508280769,78.04279707391949,0.0001295089750783,0.0859051570296287,0,0,0
7396,248356.7656780132,2010-09-03 10:29:27,5792.892304882168,2,21,0.550297200679779,4.168894767761231,22.1954865379369,21.308452542144327,88.224076243281,78.04279707391949,9.70840483205393e-05,0.0859051570296287,0,0,0
7397,248386.78102157987,2010-09-03 10:29:57,5822.907648463864,2,21,0.5501165986061096,4.17245626449585,22.200072801705108,21.308452542144327,88.24320405517342,78.04279707391949,9.70840483205393e-05,0.0859051570296287,0,0,0
7398,248416.7961018152,2010-09-03 10:30:27,5852.922728699219,2,21,0.5501165986061096,4.176179885864258,22.2046591125275,21.308452542144327,88.26234877581706,78.04279707391949,9.71794142969884e-05,0.0859051570296287,0,0,0
7399,248446.81119469207,2010-09-03 10:30:57,5882.937821566057,2,21,0.5501165986061096,4.179741382598877,22.20924542794821,21.308452542144327,88.28151029903796,78.04279707391949,6.47544875391759e-05,0.0859051570296287,0,0,0
7400,248476.8262947017,2010-09-03 10:31:27,5912.952921595746,2,21,0.5499359965324402,4.183464527130127,22.213831808305272,21.308452542144327,88.30068906613363,78.04279707391949,6.47544875391759e-05,0.0859051570296287,0,0,0
7401,248506.84145896148,2010-09-03 10:31:57,5942.968085840479,2,21,0.5501165986061096,4.187349796295166,22.21841819688789,21.308452542144327,88.3198849157001,78.04279707391949,9.70840483205393e-05,0.0859051570296287,0,0,0
7402,248536.8565502444,2010-09-03 10:32:27,5972.9831771233685,2,21,0.5501165986061096,4.190911293029785,22.22300448293169,21.308452542144327,88.33909754162472,78.04279707391949,6.47544875391759e-05,0.0859051570296287,0,0,0
7403,248566.87172185248,2010-09-03 10:32:57,6002.998348726441,2,21,0.5501165986061096,4.194796562194824,22.227590803481625,21.308452542144327,88.35832768729556,78.04279707391949,6.47544875391759e-05,0.0859051570296287,0,0,0
7404,248596.88966822613,2010-09-03 10:33:27,6033.016295100096,2,21,0.5499359965324402,4.198681831359863,22.23217755039365,21.308452542144327,88.37757712140115,78.04279707391949,0.0001295089750783,0.0859051570296287,0,0,0
7405,248606.90245621465,2010-09-03 10:33:38,6043.029083098646,2,21,0.5501165986061096,4.200138568878174,22.23370748825248,21.308452542144327,88.38400181659485,78.04279707391949,0.0001618385285837,0.0859051570296287,0,0,0
7406,248636.9111276804,2010-09-03 10:34:08,30.01513707201024,3,21,0.0,4.118386268615723,22.23370748825248,21.308452542144327,88.38400181659485,78.04279707391949,-0.0003561973571777,0.0859051570296287,0,0,0
7407,248666.92628478733,2010-09-03 10:34:38,60.0302941789537,3,21,0.0,4.107863903045654,22.23370748825248,21.308452542144327,88.38400181659485,78.04279707391949,-0.0002266883820993,0.0859051570296287,0,0,0
7408,248696.9415736827,2010-09-03 10:35:08,90.04558307936703,3,21,0.0,4.102035999298096,22.23370748825248,21.308452542144327,88.38400181659485,78.04279707391949,-9.71794142969884e-05,0.0859051570296287,0,0,0
7409,248726.90969253087,2010-09-03 10:35:38,120.01370191747124,3,21,0.0,4.097989082336426,22.23370748825248,21.308452542144327,88.38400181659485,78.04279707391949,-9.70840483205393e-05,0.0859051570296287,0,0,0
7410,248726.9208986639,2010-09-03 10:35:38,0.015626766710879,4,21,1.0007367134094238,4.199814796447754,22.23371185339037,21.308452542144327,88.38402014936557,78.04279707391949,0.0,0.0859051570296287,0,0,0
7411,248727.90522530372,2010-09-03 10:35:39,0.999953376492181,4,21,0.9503467679023744,4.199814796447754,22.233977082565392,21.308452542144327,88.38513404988737,78.04279707391949,0.0,0.0859051570296287,0,0,0
7412,248730.0926888209,2010-09-03 10:35:41,3.187416893642617,4,21,0.9001373648643494,4.199814796447754,22.234538182754097,21.308452542144327,88.38749053488583,78.04279707391949,0.0,0.0859051570296287,0,0,0
7413,248733.3270110771,2010-09-03 10:35:44,6.421739149881242,4,21,0.8497474193572998,4.199653148651123,22.23532304806785,21.308452542144327,88.39078680311259,78.04279707391949,3.24249267578125e-05,0.0859051570296287,0,0,0
7414,248737.61099460724,2010-09-03 10:35:48,10.705722679987044,4,21,0.7997186183929443,4.199814796447754,22.23630322143928,21.308452542144327,88.39490332617838,78.04279707391949,0.0,0.0859051570296287,0,0,0
7415,248743.10814226064,2010-09-03 10:35:54,16.202870338381814,4,21,0.7496898770332336,4.199814796447754,22.237484628623506,21.308452542144327,88.39986500242127,78.04279707391949,0.0,0.0859051570296287,0,0,0
7416,248750.1236391124,2010-09-03 10:36:01,23.218367180125853,4,21,0.6996610760688782,4.199653148651123,22.238894813750825,21.308452542144327,88.40578750611425,78.04279707391949,-3.23295607813634e-05,0.0859051570296287,0,0,0
7417,248759.2328774572,2010-09-03 10:36:10,32.32760553494864,4,21,0.6496323347091675,4.199814796447754,22.24059980657353,21.308452542144327,88.412948153877,78.04279707391949,0.0,0.0859051570296287,0,0,0
7418,248771.98266999825,2010-09-03 10:36:23,45.07739807597397,4,21,0.599603533744812,4.199653148651123,22.242807974840247,21.308452542144327,88.42222203473808,78.04279707391949,0.0,0.0859051570296287,0,0,0
7419,248790.5292280024,2010-09-03 10:36:41,63.62395607514112,4,21,0.5495747923851013,4.199814796447754,22.245759153105677,21.308452542144327,88.43461644397182,78.04279707391949,3.23295607813634e-05,0.0859051570296287,0,0,0
7420,248820.51313539044,2010-09-03 10:37:11,93.60786349324472,4,21,0.4995460212230682,4.199653148651123,22.25011099716727,21.308452542144327,88.4528933412723,78.04279707391949,-3.23295607813634e-05,0.0859051570296287,0,0,0
7421,248873.8717878504,2010-09-03 10:38:05,146.9665159532219,4,21,0.4495172500610351,4.199653148651123,22.257111786025405,21.308452542144327,88.48229529588265,78.04279707391949,0.0,0.0859051570296287,0,0,0
7422,248958.57344859105,2010-09-03 10:39:29,231.6681766687745,4,21,0.3994884788990021,4.199814796447754,22.267066172079524,21.308452542144327,88.52410187928871,78.04279707391949,0.0,0.0859051570296287,0,0,0
7423,249069.6811954131,2010-09-03 10:41:21,342.77592349586666,4,21,0.349459707736969,4.199814796447754,22.27860276898189,21.308452542144327,88.5725534458714,78.04279707391949,0.0,0.0859051570296287,0,0,0
7424,249204.39766710176,2010-09-03 10:43:35,477.4923951745119,4,21,0.299069732427597,4.199653148651123,22.29072696262121,21.308452542144327,88.62347265732133,78.04279707391949,-3.23295607813634e-05,0.0859051570296287,0,0,0
7425,249368.70756140025,2010-09-03 10:46:20,641.8022894980568,4,21,0.2490409463644027,4.199653148651123,22.303222703387306,21.308452542144327,88.67595236913924,78.04279707391949,-3.23295607813634e-05,0.0859051570296287,0,0,0
7426,249570.22008935377,2010-09-03 10:49:41,843.3148174265091,4,21,0.1988315731287002,4.199653148651123,22.31572803205673,21.308452542144327,88.7284722936965,78.04279707391949,0.0,0.0859051570296287,0,0,0
7427,249838.2156513294,2010-09-03 10:54:09,1111.310379427188,4,21,0.1488028019666671,4.199653148651123,22.328614340311923,21.308452542144327,88.78259230919254,78.04279707391949,-3.23295607813634e-05,0.0859051570296287,0,0,0
7428,250229.9282006793,2010-09-03 11:00:41,1503.0229287520435,4,21,0.0987740308046341,4.199653148651123,22.34193732990717,21.308452542144327,88.8385463616211,78.04279707391949,-3.23295607813634e-05,0.0859051570296287,0,0,0
7429,250942.58872242467,2010-09-03 11:12:34,2215.6834504873686,4,21,0.0498289167881011,4.199814796447754,22.356104045128905,21.308452542144327,88.89804374621536,78.04279707391949,-3.24249267578125e-05,0.0859051570296287,0,0,0
7430,250972.60350342465,2010-09-03 11:13:04,30.01518475084055,5,21,0.0,4.192206382751465,22.356104045128905,21.308452542144327,88.89804374621536,78.04279707391949,-3.24249267578125e-05,0.0859051570296287,0,0,0
7431,251002.6030085621,2010-09-03 11:13:34,60.01468988825997,5,21,0.0,4.190911293029785,22.356104045128905,21.308452542144327,88.89804374621536,78.04279707391949,-6.47544875391759e-05,0.0859051570296287,0,0,0
7432,251002.79099639875,2010-09-03 11:13:34,0.18742284038681,6,21,-1.9243103452026844e-05,4.190911293029785,22.356104045128905,21.30845254314616,88.89804374621536,78.04279707811807,0.0,0.0931989923119545,0,0,0
7433,251007.61918607305,2010-09-03 11:13:39,5.015612479564453,6,21,0.0007031940040178,4.190749645233154,22.356105041564984,21.308452543230963,88.89804792233546,78.04279707847348,-9.70840483205393e-05,0.0931989923119545,0,0,0
7434,251037.63478761195,2010-09-03 11:14:09,30.015092074863507,7,21,-1.0993878841400146,4.019959926605225,22.356105041564984,21.31761961695581,88.89804792233546,78.07984312646037,-0.0008742332574911,0.0931989923119545,0,0,0
7435,251067.6499500171,2010-09-03 11:14:39,60.03025448502421,7,21,-1.0993878841400146,3.99341082572937,22.356105041564984,21.32678669633655,88.89804792233546,78.11656272757136,-0.0005503654247149,0.0931989923119545,0,0,0
7436,251097.66512504368,2010-09-03 11:15:09,90.04542951664148,7,21,-1.099568486213684,3.9749557971954346,22.356105041564984,21.335953622724777,88.89804792233546,78.15308084185708,-0.0004856586456298,0.0931989923119545,0,0,0
7437,251127.6802538451,2010-09-03 11:15:39,120.06055833808875,7,21,-1.0993878841400146,3.961033582687378,22.356105041564984,21.345120444868257,88.89804792233546,78.18945256974436,-0.0003237724304199,0.0931989923119545,0,0,0
7438,251157.6954034032,2010-09-03 11:16:09,150.0757078761683,7,21,-1.099568486213684,3.949215888977051,22.356105041564984,21.354287334816824,88.89804792233546,78.22570772404126,-0.0002913951757363,0.0931989923119545,0,0,0
7439,251187.71055411425,2010-09-03 11:16:39,180.0908585721336,7,21,-1.099568486213684,3.9390170574188232,22.356105041564984,21.36345417940735,88.89804792233546,78.26186229976764,-0.0002590179501567,0.0931989923119545,0,0,0
7440,251217.7257100833,2010-09-03 11:17:09,210.10601455627872,7,21,-1.0993878841400146,3.929465770721436,22.356105041564984,21.37262108522205,88.89804792233546,78.29792636818502,-0.0002590179501567,0.0931989923119545,0,0,0
7441,251247.7408284838,2010-09-03 11:17:39,240.1211329517413,7,21,-1.0993878841400146,3.920562028884888,22.356105041564984,21.38178796997126,88.89804792233546,78.33390575493384,-0.0002266406954731,0.0931989923119545,0,0,0
7442,251277.7559869792,2010-09-03 11:18:09,270.13629143712024,7,21,-1.0993878841400146,3.911982297897339,22.356105041564984,21.39095487585138,88.89804792233546,78.36980490413309,-0.0001942634553415,0.0931989923119545,0,0,0
7443,251307.7711602164,2010-09-03 11:18:39,300.15146468429003,7,21,-1.099568486213684,3.903726100921631,22.356105041564984,21.40012179016434,88.89804792233546,78.40562679201612,-0.0002266406954731,0.0931989923119545,0,0,0
7444,251337.78640958323,2010-09-03 11:19:09,330.1667141063111,7,21,-1.0992072820663452,3.895631790161133,22.356105041564984,21.4092887029226,88.89804792233546,78.44137358565341,-0.0001942634553415,0.0931989923119545,0,0,0
7445,251367.8014309669,2010-09-03 11:19:39,360.181735434853,7,21,-1.099568486213684,3.8875374794006343,22.356105041564984,21.418455498935653,88.89804792233546,78.47704733899253,-0.0002590179501567,0.0931989923119545,0,0,0
7446,251397.8165816779,2010-09-03 11:20:09,390.1968861759308,7,21,-1.099568486213684,3.879928827285767,22.356105041564984,21.427622393793172,88.89804792233546,78.51264997050201,-0.0002266406954731,0.0931989923119545,0,0,0
7447,251427.8317406896,2010-09-03 11:20:39,420.2120451575466,7,21,-1.0993878841400146,3.8723201751708975,22.356105041564984,21.436789305331853,88.89804792233546,78.54818240755743,-0.0002266406954731,0.0931989923119545,0,0,0
7448,251457.84687576664,2010-09-03 11:21:09,450.2271802345847,7,21,-1.099568486213684,3.86503529548645,22.356105041564984,21.445956173988343,88.89804792233546,78.58364572688755,-0.0001618862152099,0.0931989923119545,0,0,0
7449,251487.86201588123,2010-09-03 11:21:39,480.24232034917793,7,21,-1.099568486213684,3.857588529586792,22.356105041564984,21.455123067826943,88.89804792233546,78.61904117011572,-0.0001942634553415,0.0931989923119545,0,0,0
7450,251517.87717542925,2010-09-03 11:22:09,510.2574798871803,7,21,-1.0993878841400146,3.8504655361175537,22.356105041564984,21.46428996372538,88.89804792233546,78.65436954606723,-0.0001942634553415,0.0931989923119545,0,0,0
7451,251547.8923411828,2010-09-03 11:22:39,540.2726456506987,7,21,-1.099568486213684,3.843018770217896,22.356105041564984,21.47345686791933,88.89804792233546,78.68963192880605,-0.0002266406954731,0.0931989923119545,0,0,0
7452,251577.90746456065,2010-09-03 11:23:09,570.287769018554,7,21,-1.0993878841400146,3.836057662963867,22.356105041564984,21.482623859850797,88.89804792233546,78.72482974679744,-0.0001942634553415,0.0931989923119545,0,0,0
7453,251607.92260727676,2010-09-03 11:23:39,600.302911744656,7,21,-1.099568486213684,3.829258680343628,22.356105041564984,21.49179073740039,88.89804792233546,78.75996334569108,-0.0001618862152099,0.0931989923119545,0,0,0
7454,251637.93788812205,2010-09-03 11:24:09,630.3181926000185,7,21,-1.0993878841400146,3.8222975730896,22.356105041564984,21.500957748948327,88.89804792233546,78.7950344063189,-0.0001942634553415,0.0931989923119545,0,0,0
7455,251667.95312542387,2010-09-03 11:24:39,660.3334298968198,7,21,-1.0993878841400146,3.815660238265991,22.356105041564984,21.51012464850397,88.89804792233546,78.83004305795056,-0.0001618862152099,0.0931989923119545,0,0,0
7456,251697.96805969544,2010-09-03 11:25:09,690.3483641633763,7,21,-1.0993878841400146,3.8091847896575928,22.356105041564984,21.519291467360123,88.89804792233546,78.86499016512866,-0.0001295089750783,0.0931989923119545,0,0,0
7457,251727.98319829625,2010-09-03 11:25:39,720.3635027641969,7,21,-1.0993878841400146,3.8027093410491934,22.356105041564984,21.528458322112076,88.89804792233546,78.89987749248044,-0.0001618862152099,0.0931989923119545,0,0,0
7458,251757.99837114743,2010-09-03 11:26:09,750.3786756053548,7,21,-1.0993878841400146,3.796233892440796,22.356105041564984,21.53762520024295,88.89804792233546,78.93470603420738,-0.0001618862152099,0.0931989923119545,0,0,0
7459,251788.01352092111,2010-09-03 11:26:39,780.3938253890466,7,21,-1.099568486213684,3.789920330047608,22.356105041564984,21.54679213022272,88.89804792233546,78.96947715005578,-0.0001942634553415,0.0931989923119545,0,0,0
7460,251818.0286652863,2010-09-03 11:27:09,810.4089697542336,7,21,-1.099568486213684,3.783768653869629,22.356105041564984,21.555959052150502,88.89804792233546,79.00419167451672,-0.0001942634553415,0.0931989923119545,0,0,0
7461,251848.04379705508,2010-09-03 11:27:39,840.4241015230266,7,21,-1.0993878841400146,3.777778863906861,22.356105041564984,21.56512602064695,88.89804792233546,79.0388503660902,-0.0001618862152099,0.0931989923119545,0,0,0
7462,251878.05893724988,2010-09-03 11:28:09,870.4392417178199,7,21,-1.099568486213684,3.7719509601593018,22.356105041564984,21.574292903178147,88.89804792233546,79.07345393793634,-0.0001618862152099,0.0931989923119545,0,0,0
7463,251908.0741018605,2010-09-03 11:28:39,900.4544063284648,7,21,-1.099568486213684,3.766123056411743,22.356105041564984,21.58345985874396,88.89804792233546,79.10800367533618,-0.0001295089750783,0.0931989923119545,0,0,0
7464,251938.0892341807,2010-09-03 11:29:09,930.469538648632,7,21,-1.099568486213684,3.760295152664185,22.356105041564984,21.59262678424169,88.89804792233546,79.14250016705327,-0.0001618862152099,0.0931989923119545,0,0,0
7465,251968.10440399937,2010-09-03 11:29:39,960.4847084923192,7,21,-1.0993878841400146,3.754791021347046,22.356105041564984,21.60179379634135,88.89804792233546,79.17694528162941,-0.0001295089750783,0.0931989923119545,0,0,0
7466,251998.11953204885,2010-09-03 11:30:09,990.4998365167804,7,21,-1.0993878841400146,3.7492871284484863,22.356105041564984,21.610960740171,88.89804792233546,79.2113395262799,-0.0001618862152099,0.0931989923119545,0,0,0
7467,252028.13469048915,2010-09-03 11:30:39,1020.5149949871218,7,21,-1.099568486213684,3.7439448833465576,22.356105041564984,21.62012771078013,88.89804792233546,79.24568422034594,-0.0001295089750783,0.0931989923119545,0,0,0
7468,252058.14982539573,2010-09-03 11:31:09,1050.5301298686727,7,21,-1.099568486213684,3.738602638244629,22.356105041564984,21.62929465896072,88.89804792233546,79.27998014383694,-0.0001618862152099,0.0931989923119545,0,0,0
7469,252088.16497363057,2010-09-03 11:31:39,1080.5452780984915,7,21,-1.0993878841400146,3.73358416557312,22.356105041564984,21.63846160092623,88.89804792233546,79.31422835462156,-0.0001295089750783,0.0931989923119545,0,0,0
7470,252118.18011953452,2010-09-03 11:32:09,1110.5604240075263,7,21,-1.099568486213684,3.7285656929016113,22.356105041564984,21.647628599463467,88.89804792233546,79.34842981098524,-9.713172767078504e-05,0.0931989923119545,0,0,0
7471,252148.1954202394,2010-09-03 11:32:39,1140.57572471236,7,21,-1.0993878841400146,3.723547220230103,22.356105041564984,21.65679553697685,88.89804792233546,79.3825855723787,-0.0001295089750783,0.0931989923119545,0,0,0
7472,252178.2104608861,2010-09-03 11:33:09,1170.590765374086,7,21,-1.0993878841400146,3.718690633773804,22.356105041564984,21.665962413134803,88.89804792233546,79.41669590664652,-9.713172767078504e-05,0.0931989923119545,0,0,0
7473,252208.22559708596,2010-09-03 11:33:39,1200.6059015538726,7,21,-1.0993878841400146,3.713672161102295,22.356105041564984,21.675129321695284,88.89804792233546,79.45076204944793,-0.0001618862152099,0.0931989923119545,0,0,0
7474,252238.2408399366,2010-09-03 11:34:09,1230.6211444095284,7,21,-1.0993878841400146,3.709139347076416,22.356105041564984,21.68429629911461,88.89804792233546,79.48478475027194,-9.713172767078504e-05,0.0931989923119545,0,0,0
7475,252268.2587084412,2010-09-03 11:34:39,1260.6390129090964,7,21,-1.099568486213684,3.704444646835327,22.356105041564984,21.693464133460168,88.89804792233546,79.51876771651736,-0.0001295089750783,0.0931989923119545,0,0,0
7476,252298.2710513693,2010-09-03 11:35:10,1290.6513558372403,7,21,-1.0993878841400146,3.700073719024658,22.356105041564984,21.70263016178032,88.89804792233546,79.55270181909297,-6.47544875391759e-05,0.0931989923119545,0,0,0
7477,252328.28656096972,2010-09-03 11:35:40,1320.6668654377063,7,21,-1.0993878841400146,3.695379018783569,22.356105041564984,21.71179689890386,88.89804792233546,79.58659701647314,-0.0001295089750783,0.0931989923119545,0,0,0
7478,252358.3014266604,2010-09-03 11:36:10,1350.6817311534132,7,21,-1.099568486213684,3.691008090972901,22.356105041564984,21.72096343280829,88.89804792233546,79.62045093492515,-0.0001295089750783,0.0931989923119545,0,0,0
7479,252388.3166376266,2010-09-03 11:36:40,1380.6969421045528,7,21,-1.099568486213684,3.6867990493774414,22.356105041564984,21.730129972325557,88.89804792233546,79.65426486356164,-9.713172767078504e-05,0.0931989923119545,0,0,0
7480,252418.3316013666,2010-09-03 11:37:10,1410.7119058245164,7,21,-1.0997490882873535,3.6822662353515625,22.356105041564984,21.73929664682262,88.89804792233546,79.68803987663716,-9.713172767078504e-05,0.0931989923119545,0,0,0
7481,252448.3468815102,2010-09-03 11:37:40,1440.7271860132175,7,21,-1.099568486213684,3.678380966186523,22.356105041564984,21.74846370510989,88.89804792233546,79.72177746540372,-9.713172767078504e-05,0.0931989923119545,0,0,0
7482,252478.36202110347,2010-09-03 11:38:10,1470.742325581449,7,21,-1.099568486213684,3.6740100383758554,22.356105041564984,21.757630674369345,88.89804792233546,79.7554766365206,-9.713172767078504e-05,0.0931989923119545,0,0,0
7483,252508.3770606123,2010-09-03 11:38:40,1500.757365070252,7,21,-1.0992072820663452,3.6701250076293945,22.356105041564984,21.766797638870617,88.89804792233546,79.78913811232917,-6.47544875391759e-05,0.0931989923119545,0,0,0
7484,252538.3922775584,2010-09-03 11:39:10,1530.7725820564333,7,21,-1.099568486213684,3.665915966033936,22.356105041564984,21.77596467825357,88.89804792233546,79.82276275035755,-0.0001295089750783,0.0931989923119545,0,0,0
7485,252568.40744042973,2010-09-03 11:39:40,1560.7877449026803,7,21,-1.0993878841400146,3.662030696868897,22.356105041564984,21.785131701376876,88.89804792233546,79.85635097472229,-0.0001295089750783,0.0931989923119545,0,0,0
7486,252598.4225895668,2010-09-03 11:40:10,1590.8028940347483,7,21,-1.0997490882873535,3.6581454277038574,22.356105041564984,21.79429902245321,88.89804792233546,79.88990413608525,-0.0001295089750783,0.0931989923119545,0,0,0
7487,252628.438009579,2010-09-03 11:40:40,1620.8183140519448,7,21,-1.099568486213684,3.654422044754028,22.356105041564984,21.80346693954253,88.89804792233546,79.92342436079544,-9.713172767078504e-05,0.0931989923119545,0,0,0
7488,252658.45288767555,2010-09-03 11:41:10,1650.833192143496,7,21,-1.099568486213684,3.650698661804199,22.356105041564984,21.81263469470435,88.89804792233546,79.95690950520537,-6.47544875391759e-05,0.0931989923119545,0,0,0
7489,252688.46794561532,2010-09-03 11:41:40,1680.8482500832845,7,21,-1.0997490882873535,3.64681339263916,22.356105041564984,21.8218025268435,88.89804792233546,79.99036069770092,-9.713172767078504e-05,0.0931989923119545,0,0,0
7490,252718.48317639087,2010-09-03 11:42:10,1710.8634808588329,7,21,-1.099568486213684,3.643251895904541,22.356105041564984,21.830970001944973,88.89804792233546,80.02377668088305,-6.47544875391759e-05,0.0931989923119545,0,0,0
7491,252748.49826802465,2010-09-03 11:42:40,1740.8785724976096,7,21,-1.0993878841400146,3.639852285385132,22.356105041564984,21.840136964541973,88.89804792233546,80.05715861769743,-9.713172767078504e-05,0.0931989923119545,0,0,0
7492,252778.513476645,2010-09-03 11:43:10,1770.8937811129276,7,21,-1.099568486213684,3.6362907886505127,22.356105041564984,21.84930397854363,88.89804792233546,80.09050894788638,-0.0001295089750783,0.0931989923119545,0,0,0
7493,252808.52869264872,2010-09-03 11:43:40,1800.9089971266849,7,21,-1.0993878841400146,3.6330530643463135,22.356105041564984,21.85847093430427,88.89804792233546,80.1238279284694,-6.47544875391759e-05,0.0931989923119545,0,0,0
7494,252838.5437684881,2010-09-03 11:44:10,1830.924072961072,7,21,-1.099568486213684,3.629815340042114,22.356105041564984,21.86763793597831,88.89804792233546,80.15711693584097,-6.47544875391759e-05,0.0931989923119545,0,0,0
7495,252868.55886221208,2010-09-03 11:44:40,1860.9391666750207,7,21,-1.099568486213684,3.626577615737915,22.356105041564984,21.87680495476448,88.89804792233546,80.19037652578851,-9.713172767078504e-05,0.0931989923119545,0,0,0
7496,252898.57400768003,2010-09-03 11:45:10,1890.9543121479687,7,21,-1.0993878841400146,3.623501777648926,22.356105041564984,21.885971962973727,88.89804792233546,80.22360729233777,-9.713172767078504e-05,0.0931989923119545,0,0,0
7497,252928.58913991,2010-09-03 11:45:40,1920.969444377911,7,21,-1.0993878841400146,3.620425939559937,22.356105041564984,21.895138959696645,88.89804792233546,80.25680984245514,-9.713172767078504e-05,0.0931989923119545,0,0,0
7498,252958.6043101095,2010-09-03 11:46:10,1950.9846145925228,7,21,-1.0992072820663452,3.6173501014709473,22.356105041564984,21.90430602421145,88.89804792233546,80.28998437382661,-6.47544875391759e-05,0.0931989923119545,0,0,0
7499,252988.61943843475,2010-09-03 11:46:40,1980.999742902696,7,21,-1.099568486213684,3.614274263381958,22.356105041564984,21.91347304384774,88.89804792233546,80.32313105618795,-0.0001295089750783,0.0931989923119545,0,0,0
7500,253018.63473732007,2010-09-03 11:47:10,2011.01504179802,7,21,-1.0997490882873535,3.6113603115081783,22.356105041564984,21.922640168146117,88.89804792233546,80.356251181357,-6.47544875391759e-05,0.0931989923119545,0,0,0
7501,253048.64985036216,2010-09-03 11:47:40,2041.03015484014,7,21,-1.0992072820663452,3.60860824584961,22.356105041564984,21.931807186891017,88.89804792233546,80.38934457414224,-9.713172767078504e-05,0.0931989923119545,0,0,0
7502,253078.66488987603,2010-09-03 11:48:10,2071.0451943439803,7,21,-1.0993878841400146,3.60585618019104,22.356105041564984,21.94097428040462,88.89804792233546,80.42241232716685,-6.47544875391759e-05,0.0931989923119545,0,0,0
7503,253108.6801780947,2010-09-03 11:48:40,2101.0604825827445,7,21,-1.099568486213684,3.603104114532471,22.356105041564984,21.95014131672267,88.89804792233546,80.45545421344934,-6.47544875391759e-05,0.0931989923119545,0,0,0
7504,253138.69519185944,2010-09-03 11:49:10,2131.0754963273853,7,21,-1.0993878841400146,3.6003520488739014,22.356105041564984,21.95930828416003,88.89804792233546,80.48847050202681,-3.237724376958795e-05,0.0931989923119545,0,0,0
7505,253168.71034546767,2010-09-03 11:49:40,2161.090649945634,7,21,-1.0992072820663452,3.597599983215332,22.356105041564984,21.968475340122417,88.89804792233546,80.5214614517633,-6.47544875391759e-05,0.0931989923119545,0,0,0
7506,253198.72559930568,2010-09-03 11:50:10,2191.1059037736354,7,21,-1.099568486213684,3.5948479175567627,22.356105041564984,21.977642441066525,88.89804792233546,80.55442690601055,-3.237724376958795e-05,0.0931989923119545,0,0,0
7507,253228.7406622229,2010-09-03 11:50:40,2221.120966715892,7,21,-1.0997490882873535,3.5917723178863525,22.356105041564984,21.98680951496943,88.89804792233546,80.58736665601998,-6.47544875391759e-05,0.0931989923119545,0,0,0
7508,253258.7559050836,2010-09-03 11:51:10,2251.136209591597,7,21,-1.0993878841400146,3.589020252227783,22.356105041564984,21.99597666831491,88.89804792233546,80.62028072479774,-3.237724376958795e-05,0.0931989923119545,0,0,0
7509,253288.77104145885,2010-09-03 11:51:40,2281.1513459267712,7,21,-1.0993878841400146,3.586106300354004,22.356105041564984,22.005143845963644,88.89804792233546,80.65316877338383,-6.47544875391759e-05,0.0931989923119545,0,0,0
7510,253318.7860677598,2010-09-03 11:52:10,2311.1663722277062,7,21,-1.0993878841400146,3.5833542346954346,22.356105041564984,22.014310862312445,88.89804792233546,80.68603021214699,-6.47544875391759e-05,0.0931989923119545,0,0,0
7511,253348.8012304256,2010-09-03 11:52:40,2341.181534893504,7,21,-1.0997490882873535,3.5804402828216557,22.356105041564984,22.023477936970107,88.89804792233546,80.7188655390485,-9.713172767078504e-05,0.0931989923119545,0,0,0
7512,253378.8163707106,2010-09-03 11:53:10,2371.1966751785217,7,21,-1.099568486213684,3.577526330947876,22.356105041564984,22.03264502366452,88.89804792233546,80.75167413799038,-6.47544875391759e-05,0.0931989923119545,0,0,0
7513,253408.83153722092,2010-09-03 11:53:40,2401.211842541026,7,21,-1.0993878841400146,3.5746123790740967,22.356105041564984,22.041812053441287,88.89804792233546,80.7844553878014,-6.47544875391759e-05,0.0931989923119545,0,0,0
7514,253438.84669795196,2010-09-03 11:54:10,2431.2270024299023,7,21,-1.0993878841400146,3.571374654769897,22.356105041564984,22.05097913493178,88.89804792233546,80.8172088507551,-9.713172767078504e-05,0.0931989923119545,0,0,0
7515,253468.8618331192,2010-09-03 11:54:40,2461.2421375871404,7,21,-1.0993878841400146,3.568298816680908,22.356105041564984,22.06014615357916,88.89804792233546,80.84993381067096,-9.713172767078504e-05,0.0931989923119545,0,0,0
7516,253498.8769550234,2010-09-03 11:55:10,2491.25725949636,7,21,-1.099568486213684,3.565061092376709,22.356105041564984,22.06931321288885,88.89804792233546,80.88263043091165,-0.0001295089750783,0.0931989923119545,0,0,0
7517,253528.89222916204,2010-09-03 11:55:40,2521.272533639995,7,21,-1.099568486213684,3.56198525428772,22.356105041564984,22.07848026144276,88.89804792233546,80.9152977848191,-6.47544875391759e-05,0.0931989923119545,0,0,0
7518,253558.9073816324,2010-09-03 11:56:10,2551.287686100358,7,21,-1.099568486213684,3.5585856437683105,22.356105041564984,22.087647271874992,88.89804792233546,80.94793565393334,-0.0001295089750783,0.0931989923119545,0,0,0
7519,253588.9228556041,2010-09-03 11:56:40,2581.3031601021007,7,21,-1.099568486213684,3.5553479194641118,22.356105041564984,22.09681441749507,88.89804792233546,80.98054339183655,-6.47544875391759e-05,0.0931989923119545,0,0,0
7520,253618.93755998267,2010-09-03 11:57:10,2611.3178644506306,7,21,-1.0993878841400146,3.551948308944702,22.356105041564984,22.10598130043049,88.89804792233546,81.01311866916659,-3.237724376958795e-05,0.0931989923119545,0,0,0
7521,253648.952718443,2010-09-03 11:57:40,2641.3330229109474,7,21,-1.099568486213684,3.548224925994873,22.356105041564984,22.115148368274426,88.89804792233546,81.04566203517578,-9.713172767078504e-05,0.0931989923119545,0,0,0
7522,253678.96785376567,2010-09-03 11:58:10,2671.3481582386103,7,21,-1.099568486213684,3.544501543045044,22.356105041564984,22.12431546531927,88.89804792233546,81.07817226107267,-9.713172767078504e-05,0.0931989923119545,0,0,0
7523,253708.98301287257,2010-09-03 11:58:40,2701.3633173455382,7,21,-1.099568486213684,3.540778160095215,22.356105041564984,22.133482436298227,88.89804792233546,81.11064757930296,-6.47544875391759e-05,0.0931989923119545,0,0,0
7524,253738.9981495236,2010-09-03 11:59:10,2731.378453996499,7,21,-1.099568486213684,3.536731004714966,22.356105041564984,22.142649462298746,88.89804792233546,81.14308736582166,-0.0001295089750783,0.0931989923119545,0,0,0
7525,253769.0133094425,2010-09-03 11:59:40,2761.3936139104385,7,21,-1.0993878841400146,3.5328457355499268,22.356105041564984,22.15181656286048,88.89804792233546,81.1754907942146,-6.47544875391759e-05,0.0931989923119545,0,0,0
7526,253799.0284787047,2010-09-03 12:00:10,2791.408783162652,7,21,-1.0993878841400146,3.528474807739258,22.356105041564984,22.16098358696793,88.89804792233546,81.20785609429653,-9.713172767078504e-05,0.0931989923119545,0,0,0
7527,253829.04362159123,2010-09-03 12:00:40,2821.423926059178,7,21,-1.0993878841400146,3.524265766143799,22.356105041564984,22.170150545367683,88.89804792233546,81.24018155598749,-6.47544875391759e-05,0.0931989923119545,0,0,0
7528,253859.05876586612,2010-09-03 12:01:10,2851.439070359203,7,21,-1.0992072820663452,3.5194091796875,22.356105041564984,22.17931754559531,88.89804792233546,81.27246600297147,-0.0001618862152099,0.0931989923119545,0,0,0
7529,253889.0739122815,2010-09-03 12:01:40,2881.454216749438,7,21,-1.099568486213684,3.514714479446411,22.356105041564984,22.188484578290858,88.89804792233546,81.30470768709958,-0.0001295089750783,0.0931989923119545,0,0,0
7530,253919.08916969845,2010-09-03 12:02:10,2911.469474166384,7,21,-1.0993878841400146,3.5095343589782715,22.356105041564984,22.19765165823426,88.89804792233546,81.33690434980493,-0.0001618862152099,0.0931989923119545,0,0,0
7531,253949.10421790896,2010-09-03 12:02:40,2941.484522376924,7,21,-1.099568486213684,3.5045158863067627,22.356105041564984,22.206818715729888,88.89804792233546,81.36905373430459,-9.713172767078504e-05,0.0931989923119545,0,0,0
7532,253979.11934618407,2010-09-03 12:03:10,2971.499650657022,7,21,-1.0992072820663452,3.498849868774414,22.356105041564984,22.21598576079485,88.89804792233546,81.40115333411676,-0.0001295089750783,0.0931989923119545,0,0,0
7533,254009.13449791764,2010-09-03 12:03:40,3001.5148023855613,7,21,-1.099568486213684,3.492860078811645,22.356105041564984,22.225152792169727,88.89804792233546,81.43319969383073,-0.0001295089750783,0.0931989923119545,0,0,0
7534,254039.1496491549,2010-09-03 12:04:10,3031.529953627888,7,21,-1.0993878841400146,3.486384630203247,22.356105041564984,22.234319838915205,88.89804792233546,81.46518879575707,-0.0001618862152099,0.0931989923119545,0,0,0
7535,254069.1647998108,2010-09-03 12:04:40,3061.545104278741,7,21,-1.099568486213684,3.478937864303589,22.356105041564984,22.2434867738576,88.89804792233546,81.49711522618756,-0.0002266406954731,0.0931989923119545,0,0,0
7536,254099.1799196047,2010-09-03 12:05:10,3091.560224072689,7,21,-1.0997490882873535,3.471005439758301,22.356105041564984,22.2526537192976,88.89804792233546,81.52897180846516,-0.0002590179501567,0.0931989923119545,0,0,0
7537,254129.19508567904,2010-09-03 12:05:40,3121.5753901519943,7,21,-1.0993878841400146,3.461777925491333,22.356105041564984,22.261820762199797,88.89804792233546,81.56074897558092,-0.0002590179501567,0.0931989923119545,0,0,0
7538,254159.2102590465,2010-09-03 12:06:10,3151.590563514452,7,21,-1.099568486213684,3.4506077766418457,22.356105041564984,22.270987745127243,88.89804792233546,81.59243351163683,-0.0003237724304199,0.0931989923119545,0,0,0
7539,254189.22899432137,2010-09-03 12:06:40,3181.609298879515,7,21,-1.099568486213684,3.437171220779419,22.356105041564984,22.28015581352295,88.89804792233546,81.6240097882743,-0.0003561496851034,0.0931989923119545,0,0,0
7540,254219.2406111147,2010-09-03 12:07:11,3211.620915587695,7,21,-1.099568486213684,3.420011520385742,22.356105041564984,22.289321762435883,88.89804792233546,81.65543946198926,-0.0005180359003134,0.0931989923119545,0,0,0
7541,254249.25598360348,2010-09-03 12:07:41,3241.636288071424,7,21,-1.099568486213684,3.397671222686768,22.356105041564984,22.29848891754759,88.89804792233546,81.68669392822014,-0.0006799221155233,0.0931989923119545,0,0,0
7542,254279.27100789943,2010-09-03 12:08:11,3271.651312392424,7,21,-1.0992072820663452,3.367398500442505,22.356105041564984,22.30765592964531,88.89804792233546,81.71770841050001,-0.0008741855854168,0.0931989923119545,0,0,0
7543,254309.2860249724,2010-09-03 12:08:41,3301.666329440297,7,21,-1.099568486213684,3.3240132331848145,22.356105041564984,22.316822932237724,88.89804792233546,81.74838927799831,-0.0013274669181555,0.0931989923119545,0,0,0
7544,254339.30115451053,2010-09-03 12:09:11,3331.681458983544,7,21,-1.099568486213684,3.2616872787475586,22.356105041564984,22.32598989581751,88.89804792233546,81.77859206937526,-0.0019425868522375,0.0931989923119545,0,0,0
7545,254369.3163012016,2010-09-03 12:09:41,3361.6966056745277,7,21,-1.099568486213684,3.16860294342041,22.356105041564984,22.335156885982887,88.89804792233546,81.80809524560627,-0.002978706266731,0.0931989923119545,0,0,0
7546,254399.33144900537,2010-09-03 12:10:11,3391.7117534782847,7,21,-1.099568486213684,3.016754150390625,22.356105041564984,22.34432388206736,88.89804792233546,81.83651335708463,-0.0051803113892674,0.0931989923119545,0,0,0
7547,254419.6748758796,2010-09-03 12:10:31,3412.055180352571,7,21,-1.099568486213684,2.8166632652282715,22.356105041564984,22.350537028196168,88.89804792233546,81.85470423902075,-0.0101340766996145,0.0931989923119545,0,0,0
7548,254427.6747521528,2010-09-03 12:10:39,3420.055056620732,7,21,-1.0997490882873535,2.699781894683838,22.356105041564984,22.35298030631209,88.89804792233546,81.86144705443347,-0.0121090412139892,0.0931989923119545,0,0,0
7549,254487.6974542612,2010-09-03 12:11:39,60.014650500092536,8,21,0.0,3.4271345138549805,22.356105041564984,22.35298030631209,88.89804792233546,81.86144705443347,0.0011655807029455,0.0931989923119545,0,0,0
7550,254487.87825650105,2010-09-03 12:11:39,0.187415873021993,9,21,-1.9243103452026844e-05,3.4271345138549805,22.356105041564984,22.352980307313885,88.89804792233546,81.86144705786676,0.0,0.086637258529663,0,0,0
7551,254492.7064367318,2010-09-03 12:11:44,5.015596088713409,9,21,0.0007031940040178,3.43393349647522,22.35610598333428,22.35298030748091,88.89805115353849,81.86144705843917,0.0009712696191854,0.086637258529663,0,0,0
