Data_Point,Test_Time(s),Date_Time,Step_Time(s),Step_Index,Cycle_Index,Current(A),Voltage(V),Charge_Capacity(Ah),Discharge_Capacity(Ah),Charge_Energy(Wh),Discharge_Energy(Wh),dV/dt(V/s),Internal_Resistance(Ohm),Is_FC_Data,AC_Impedance(Ohm),ACI_Phase_Angle(Deg)
12117,410046.21609403874,2010-09-05 07:24:34,30.015161482849564,1,35,0.0,3.465825080871582,35.865746667242945,35.85051990636418,142.7284957410265,131.24090341109016,0.0006799221155233,0.0881769880652427,0,0,0
12118,410076.2312635265,2010-09-05 07:25:04,60.03033097566242,1,35,0.0,3.486060857772827,35.865746667242945,35.85051990636418,142.7284957410265,131.24090341109016,0.0004532813909463,0.0881769880652427,0,0,0
12119,410106.2464548438,2010-09-05 07:25:34,90.04552230790587,1,35,0.0,3.500630617141724,35.865746667242945,35.85051990636418,142.7284957410265,131.24090341109016,0.0003561496851034,0.0881769880652427,0,0,0
12120,410136.2147891438,2010-09-05 07:26:04,120.01385659297016,1,35,0.0,3.511800527572632,35.865746667242945,35.85051990636418,142.7284957410265,131.24090341109016,0.0002265930233988,0.0881769880652427,0,0,0
12121,410166.2377637968,2010-09-05 07:26:34,30.01495718367315,2,35,0.5501165986061096,3.638233423233032,35.870333196020745,35.85051990636418,142.7450599164556,131.24090341109016,0.0011979580158367,0.0881769880652427,0,0,0
12122,410196.25289496913,2010-09-05 07:27:04,60.03008835597952,2,35,0.5501165986061096,3.6746575832366943,35.87491968115219,35.85051990636418,142.76183538426918,131.24090341109016,0.0008741378551349,0.0881769880652427,0,0,0
12123,410226.26805289305,2010-09-05 07:27:34,90.04524628497178,2,35,0.550297200679779,3.701530694961548,35.87950620914452,35.85051990636418,142.7787532689584,131.24090341109016,0.0006799221155233,0.0881769880652427,0,0,0
12124,410256.2832356239,2010-09-05 07:28:04,120.06042901076528,2,35,0.5499359965324402,3.722414016723633,35.88409271562439,35.85051990636418,142.79578011123374,131.24090341109016,0.0004856586456298,0.0881769880652427,0,0,0
12125,410286.2983912272,2010-09-05 07:28:34,150.0755846440359,2,35,0.5501165986061096,3.7392501831054688,35.88867919444607,35.85051990636418,142.81289291494767,131.24090341109016,0.0004209041653666,0.0881769880652427,0,0,0
12126,410316.3135840832,2010-09-05 07:29:04,180.0907775000771,2,35,0.5501165986061096,3.751067876815796,35.893265685473764,35.85051990636418,142.8300715101884,131.24090341109016,0.0002590179501567,0.0881769880652427,0,0,0
12127,410346.3288643922,2010-09-05 07:29:34,210.10605778401555,2,35,0.5499359965324402,3.758514404296875,35.89785219921855,35.85051990636418,142.84729470532574,131.24090341109016,0.0001295089750783,0.0881769880652427,0,0,0
12128,410376.3439133746,2010-09-05 07:30:04,240.12110676146705,2,35,0.5501165986061096,3.763209104537964,35.902438706378064,35.85051990636418,142.86454486864972,131.24090341109016,9.713172767078504e-05,0.0881769880652427,0,0,0
12129,410406.35907492257,2010-09-05 07:30:34,270.1362683144915,2,35,0.5499359965324402,3.766770601272583,35.90702522316563,35.85051990636418,142.88181356869703,131.24090341109016,6.47544875391759e-05,0.0881769880652427,0,0,0
12130,410436.3742419593,2010-09-05 07:31:04,300.15143534115793,2,35,0.5501165986061096,3.770170211791992,35.91161169916825,35.85051990636418,142.89909771088608,131.24090341109016,9.713172767078504e-05,0.0881769880652427,0,0,0
12131,410466.3894144296,2010-09-05 07:31:34,330.16660781640394,2,35,0.5501165986061096,3.773246049880981,35.91619814711779,35.85051990636418,142.91639642587148,131.24090341109016,3.237724376958795e-05,0.0881769880652427,0,0,0
12132,410496.40472018695,2010-09-05 07:32:04,360.1819135738302,2,35,0.5499359965324402,3.7764837741851807,35.92078465557243,35.85051990636418,142.93370991332793,131.24090341109016,0.0001295089750783,0.0881769880652427,0,0,0
12133,410526.4197857407,2010-09-05 07:32:34,390.1969791275949,2,35,0.5501165986061096,3.77955961227417,35.92537117521957,35.85051990636418,142.95103781451854,131.24090341109016,6.47544875391759e-05,0.0881769880652427,0,0,0
12134,410556.43507838045,2010-09-05 07:33:04,420.2122717773528,2,35,0.5501165986061096,3.782797336578369,35.92995764887879,35.85051990636418,142.9683798320065,131.24090341109016,6.47544875391759e-05,0.0881769880652427,0,0,0
12135,410586.4500903707,2010-09-05 07:33:34,450.22728376762086,2,35,0.5499359965324402,3.785711288452149,35.934544093005115,35.85051990636418,142.98573601393397,131.24090341109016,6.47544875391759e-05,0.0881769880652427,0,0,0
12136,410616.46543838346,2010-09-05 07:34:04,480.24263178036034,2,35,0.5501165986061096,3.7887871265411377,35.93913062256637,35.85051990636418,143.0031066675908,131.24090341109016,6.47544875391759e-05,0.0881769880652427,0,0,0
12137,410646.4804363689,2010-09-05 07:34:34,510.2576297556988,2,35,0.5501165986061096,3.791862964630127,35.94371721487071,35.85051990636418,143.02049160404692,131.24090341109016,9.713172767078504e-05,0.0881769880652427,0,0,0
12138,410676.495610032,2010-09-05 07:35:04,540.2728034189056,2,35,0.5501165986061096,3.794938802719116,35.948303785554,35.85051990636418,143.037890350275,131.24090341109016,9.713172767078504e-05,0.0881769880652427,0,0,0
12139,410706.5107797203,2010-09-05 07:35:34,570.2879731072057,2,35,0.5501165986061096,3.7980146408081055,35.95289032156145,35.85051990636418,143.05530284981918,131.24090341109016,9.713172767078504e-05,0.0881769880652427,0,0,0
12140,410736.5288941126,2010-09-05 07:36:04,600.3060875046269,2,35,0.550297200679779,3.801090478897095,35.95747736128932,35.85051990636418,143.07273119154536,131.24090341109016,9.713172767078504e-05,0.0881769880652427,0,0,0
12141,410766.5411705903,2010-09-05 07:36:35,630.3183639771431,2,35,0.5499359965324402,3.804004430770874,35.96206347550023,35.85051990636418,143.0901700000503,131.24090341109016,6.47544875391759e-05,0.0881769880652427,0,0,0
12142,410796.5565681765,2010-09-05 07:37:05,660.3337615634351,2,35,0.550297200679779,3.807404041290283,35.96665008676114,35.85051990636418,143.1076249378236,131.24090341109016,0.0001295089750783,0.0881769880652427,0,0,0
12143,410826.5715800666,2010-09-05 07:37:35,690.3487734534532,2,35,0.5501165986061096,3.8103179931640634,35.971236647686304,35.85051990636418,143.12509421394395,131.24090341109016,9.713172767078504e-05,0.0881769880652427,0,0,0
12144,410856.58663946,2010-09-05 07:38:05,720.363832851877,2,35,0.5501165986061096,3.813717603683472,35.97582320146441,35.85051990636418,143.1425783796166,131.24090341109016,9.713172767078504e-05,0.0881769880652427,0,0,0
12145,410886.601799785,2010-09-05 07:38:35,750.3789931768406,2,35,0.5501165986061096,3.817117214202881,35.98040970087187,35.85051990636418,143.16007786500666,131.24090341109016,9.713172767078504e-05,0.0881769880652427,0,0,0
12146,410916.6171020638,2010-09-05 07:39:05,780.3942954606094,2,35,0.5501165986061096,3.8206787109375,35.98499621096342,35.85051990636418,143.17759298218772,131.24090341109016,0.0001295089750783,0.0881769880652427,0,0,0
12147,410946.6321783291,2010-09-05 07:39:35,810.4093717160463,2,35,0.5501165986061096,3.824240207672119,35.989582701182584,35.85051990636418,143.19512393717932,131.24090341109016,0.0001295089750783,0.0881769880652427,0,0,0
12148,410976.64745018206,2010-09-05 07:40:05,840.4246435689719,2,35,0.550297200679779,3.827639818191528,35.99416922128728,35.85051990636418,143.21267110708214,131.24090341109016,9.713172767078504e-05,0.0881769880652427,0,0,0
12149,411006.6624707839,2010-09-05 07:40:35,870.4396641807274,2,35,0.5501165986061096,3.831201314926148,35.998755726384104,35.85051990636418,143.23023437450493,131.24090341109016,9.713172767078504e-05,0.0881769880652427,0,0,0
12150,411036.6776427027,2010-09-05 07:41:05,900.4548360895617,2,35,0.5499359965324402,3.834438800811768,36.003342195942565,35.85051990636418,143.24781351458367,131.24090341109016,3.237724376958795e-05,0.0881769880652427,0,0,0
12151,411066.6929465704,2010-09-05 07:41:35,930.4701399622908,2,35,0.550297200679779,3.8380002975463863,36.00792868234671,35.85051990636418,143.26540855710826,131.24090341109016,9.713172767078504e-05,0.0881769880652427,0,0,0
12152,411096.7082216714,2010-09-05 07:42:05,960.4854150532868,2,35,0.5501165986061096,3.841238021850586,36.01251520479436,35.85051990636418,143.28301927864194,131.24090341109016,6.47544875391759e-05,0.0881769880652427,0,0,0
12153,411126.72317781247,2010-09-05 07:42:35,990.5003711943616,2,35,0.5499359965324402,3.844475746154785,36.01710159576557,35.85051990636418,143.30064464648345,131.24090341109016,6.47544875391759e-05,0.0881769880652427,0,0,0
12154,411156.73837636766,2010-09-05 07:43:05,1020.5155697546192,2,35,0.5501165986061096,3.848037242889404,36.0216881384359,35.85051990636418,143.31828549736915,131.24090341109016,0.0001295089750783,0.0881769880652427,0,0,0
12155,411186.7535077305,2010-09-05 07:43:35,1050.5307011174002,2,35,0.5501165986061096,3.850951194763184,36.026274695392225,35.85051990636418,143.33594103178973,131.24090341109016,6.47544875391759e-05,0.0881769880652427,0,0,0
12156,411216.7686902558,2010-09-05 07:44:05,1080.5458836426942,2,35,0.5499359965324402,3.853865146636963,36.0308612342968,35.85051990636418,143.3536107641754,131.24090341109016,3.237724376958795e-05,0.0881769880652427,0,0,0
12157,411246.7838404455,2010-09-05 07:44:35,1110.5610338374102,2,35,0.550297200679779,3.857102870941162,36.03544775582752,35.85051990636418,143.3712944123252,131.24090341109016,6.47544875391759e-05,0.0881769880652427,0,0,0
12158,411276.7990445196,2010-09-05 07:45:05,1140.57623791141,2,35,0.5501165986061096,3.860016822814941,36.04003430132414,35.85051990636418,143.38899164231177,131.24090341109016,9.713172767078504e-05,0.0881769880652427,0,0,0
12159,411306.81418564665,2010-09-05 07:45:35,1170.5913790335144,2,35,0.5501165986061096,3.862768888473511,36.044620811778735,35.85051990636418,143.4067016871135,131.24090341109016,9.713172767078504e-05,0.0881769880652427,0,0,0
12160,411336.82937159046,2010-09-05 07:46:05,1200.6065650023909,2,35,0.550297200679779,3.86519718170166,36.04920733332618,35.85051990636418,143.42442408764052,131.24090341109016,3.237724376958795e-05,0.0881769880652427,0,0,0
12161,411366.8445398452,2010-09-05 07:46:35,1230.6217332521053,2,35,0.550297200679779,3.86778736114502,36.053793847593546,35.85051990636418,143.4421580942269,131.24090341109016,9.713172767078504e-05,0.0881769880652427,0,0,0
12162,411396.8452736046,2010-09-05 07:47:05,1260.6224670467166,2,35,0.550297200679779,3.870053768157959,36.05837816321614,35.85051990636418,143.4598945248276,131.24090341109016,6.47544875391759e-05,0.0881769880652427,0,0,0
12163,411426.8592826153,2010-09-05 07:47:35,1290.636476007125,2,35,0.5501165986061096,3.8723201751708975,36.06296455305385,35.85051990636418,143.4776492408707,131.24090341109016,3.237724376958795e-05,0.0881769880652427,0,0,0
12164,411456.87441305566,2010-09-05 07:48:05,1320.6516064425953,2,35,0.550297200679779,3.874100923538208,36.06755108389174,35.85051990636418,143.49541397556305,131.24090341109016,0.0,0.0881769880652427,0,0,0
12165,411486.8896428689,2010-09-05 07:48:35,1350.6668362507326,2,35,0.5501165986061096,3.8758816719055176,36.07213767536982,35.85051990636418,143.51318755682814,131.24090341109016,3.237724376958795e-05,0.0881769880652427,0,0,0
12166,411516.9048958748,2010-09-05 07:49:05,1380.6820892867609,2,35,0.5499359965324402,3.877662420272827,36.07672414956376,35.85051990636418,143.5309687846816,131.24090341109016,0.0,0.0881769880652427,0,0,0
12167,411546.91992560925,2010-09-05 07:49:35,1410.6971189961905,2,35,0.5501165986061096,3.879281282424927,36.08131065975759,35.85051990636418,143.5487576699934,131.24090341109016,3.237724376958795e-05,0.0881769880652427,0,0,0
12168,411576.9350973076,2010-09-05 07:50:05,1440.7122906945,2,35,0.5499359965324402,3.8805763721466064,36.08589716511326,35.85051990636418,143.56655331348944,131.24090341109016,0.0,0.0881769880652427,0,0,0
12169,411606.9502952914,2010-09-05 07:50:35,1470.7274886783212,2,35,0.5499359965324402,3.881871461868286,36.09048364811426,35.85051990636418,143.58435530332443,131.24090341109016,0.0,0.0881769880652427,0,0,0
12170,411636.9654557567,2010-09-05 07:51:05,1500.7426491436347,2,35,0.5499359965324402,3.883328437805176,36.09507012421033,35.85051990636418,143.60216325654446,131.24090341109016,3.237724376958795e-05,0.0881769880652427,0,0,0
12171,411666.980617405,2010-09-05 07:51:35,1530.7578107918966,2,35,0.5501165986061096,3.8844616413116455,36.09965663420742,35.85051990636418,143.61997710420346,131.24090341109016,0.0,0.0881769880652427,0,0,0
12172,411696.9957837901,2010-09-05 07:52:05,1560.772977176964,2,35,0.5499359965324402,3.8855948448181152,36.1042431404527,35.85051990636418,143.63779628972927,131.24090341109016,0.0,0.0881769880652427,0,0,0
12173,411727.0110087161,2010-09-05 07:52:35,1590.7882021330086,2,35,0.5501165986061096,3.886889934539795,36.10882962025852,35.85051990636418,143.65562070123573,131.24090341109016,6.47544875391759e-05,0.0881769880652427,0,0,0
12174,411757.0261232268,2010-09-05 07:53:05,1620.803316633764,2,35,0.5501165986061096,3.8881850242614746,36.11341618936276,35.85051990636418,143.67345065924846,131.24090341109016,6.47544875391759e-05,0.0881769880652427,0,0,0
12175,411787.0412852711,2010-09-05 07:53:35,1650.8184786579627,2,35,0.550297200679779,3.8891563415527344,36.11800269581795,35.85051990636418,143.69128552913764,131.24090341109016,3.237724376958795e-05,0.0881769880652427,0,0,0
12176,411817.05658567016,2010-09-05 07:54:05,1680.8337790570345,2,35,0.5501165986061096,3.890289545059204,36.12258927046388,35.85051990636418,143.70912560443335,131.24090341109016,3.237724376958795e-05,0.0881769880652427,0,0,0
12177,411847.0716380309,2010-09-05 07:54:35,1710.848831412906,2,35,0.5499359965324402,3.891260862350464,36.12717570166081,35.85051990636418,143.72697011150058,131.24090341109016,3.237724376958795e-05,0.0881769880652427,0,0,0
12178,411877.0867926268,2010-09-05 07:55:05,1740.8639860186156,2,35,0.5501165986061096,3.892232179641724,36.13176218216723,35.85051990636418,143.7448197942542,131.24090341109016,0.0,0.0881769880652427,0,0,0
12179,411907.1020969405,2010-09-05 07:55:35,1770.879290332444,2,35,0.5501165986061096,3.893365383148194,36.13634871773302,35.85051990636418,143.76267463266277,131.24090341109016,3.237724376958795e-05,0.0881769880652427,0,0,0
12180,411937.1171518127,2010-09-05 07:56:05,1800.8943451995742,2,35,0.5499359965324402,3.894498586654663,36.1409352440352,35.85051990636418,143.7805344700797,131.24090341109016,0.0,0.0881769880652427,0,0,0
12181,411967.1323219721,2010-09-05 07:56:35,1830.9095153590488,2,35,0.5501165986061096,3.895469903945923,36.14552181478952,35.85051990636418,143.79839888063054,131.24090341109016,6.47544875391759e-05,0.0881769880652427,0,0,0
12182,411997.14748412673,2010-09-05 07:57:05,1860.9246775185848,2,35,0.5501165986061096,3.8966031074523926,36.15010832119398,35.85051990636418,143.8162680992651,131.24090341109016,3.237724376958795e-05,0.0881769880652427,0,0,0
12183,412027.16264384513,2010-09-05 07:57:35,1890.939837237037,2,35,0.5501165986061096,3.897574424743652,36.15469479839424,35.85051990636418,143.83414222001787,131.24090341109016,3.237724376958795e-05,0.0881769880652427,0,0,0
12184,412057.17793854,2010-09-05 07:58:05,1920.9551319369043,2,35,0.5499359965324402,3.898707628250122,36.15928128191036,35.85051990636418,143.852021363473,131.24090341109016,3.237724376958795e-05,0.0881769880652427,0,0,0
12185,412087.1931819219,2010-09-05 07:58:35,1950.9703753088463,2,35,0.5501165986061096,3.899840831756592,36.1638678273054,35.85051990636418,143.86990584194817,131.24090341109016,6.47544875391759e-05,0.0881769880652427,0,0,0
12186,412117.20815769694,2010-09-05 07:59:05,1980.9853510838552,2,35,0.5499359965324402,3.9009740352630615,36.16845430520009,35.85051990636418,143.88779502225572,131.24090341109016,-3.237724376958795e-05,0.0881769880652427,0,0,0
12187,412147.22334656806,2010-09-05 07:59:35,2011.0005399599768,2,35,0.5499359965324402,3.9021072387695312,36.173040833962375,35.85051990636418,143.90568961169507,131.24090341109016,0.0,0.0881769880652427,0,0,0
12188,412177.2384641716,2010-09-05 08:00:05,2041.0156575785031,2,35,0.5499359965324402,3.903240442276001,36.17762730943485,35.85051990636418,143.92358912910845,131.24090341109016,3.237724376958795e-05,0.0881769880652427,0,0,0
12189,412207.2536516592,2010-09-05 08:00:35,2071.03084505614,2,35,0.5501165986061096,3.904373645782471,36.18221375092029,35.85051990636418,143.9414937639096,131.24090341109016,3.237724376958795e-05,0.0881769880652427,0,0,0
12190,412237.26892772265,2010-09-05 08:01:05,2101.046121124572,2,35,0.5501165986061096,3.905506849288941,36.1867997021921,35.85051990636418,143.95940160602072,131.24090341109016,6.47544875391759e-05,0.0881769880652427,0,0,0
12191,412267.2839647704,2010-09-05 08:01:35,2131.0611581672783,2,35,0.5499359965324402,3.90664005279541,36.19138515186287,35.85051990636418,143.97731267898516,131.24090341109016,3.237724376958795e-05,0.0881769880652427,0,0,0
12192,412297.2992692696,2010-09-05 08:02:05,2161.0764626615564,2,35,0.5499359965324402,3.90793514251709,36.19597065609832,35.85051990636418,143.99522944549832,131.24090341109016,3.237724376958795e-05,0.0881769880652427,0,0,0
12193,412327.3144097702,2010-09-05 08:02:35,2191.091603157099,2,35,0.5499359965324402,3.90906834602356,36.20055616224862,35.85051990636418,144.01315169411683,131.24090341109016,3.237724376958795e-05,0.0881769880652427,0,0,0
12194,412357.3295235992,2010-09-05 08:03:05,2221.106717016256,2,35,0.550297200679779,3.9103634357452393,36.20514227845922,35.85051990636418,144.0310820106853,131.24090341109016,3.237724376958795e-05,0.0881769880652427,0,0,0
12195,412387.344729528,2010-09-05 08:03:35,2251.1219229398653,2,35,0.5501165986061096,3.911496639251709,36.20972883393065,35.85051990636418,144.04901962138337,131.24090341109016,3.237724376958795e-05,0.0881769880652427,0,0,0
12196,412417.3600596661,2010-09-05 08:04:05,2281.137253138206,2,35,0.5501165986061096,3.9127917289733887,36.21431530327891,35.85051990636418,144.06696256258738,131.24090341109016,3.237724376958795e-05,0.0881769880652427,0,0,0
12197,412447.375236407,2010-09-05 08:04:35,2311.152429803896,2,35,0.5501165986061096,3.9139246940612793,36.21890186120429,35.85051990636418,144.08491154236518,131.24090341109016,0.0,0.0881769880652427,0,0,0
12198,412477.3902848431,2010-09-05 08:05:05,2341.167478229973,2,35,0.5499359965324402,3.915219783782959,36.2234883253656,35.85051990636418,144.10286592496627,131.24090341109016,0.0,0.0881769880652427,0,0,0
12199,412507.4053537352,2010-09-05 08:05:35,2371.1825471220586,2,35,0.5499359965324402,3.9163529872894287,36.228074796059175,35.85051990636418,144.12082596523993,131.24090341109016,3.237724376958795e-05,0.0881769880652427,0,0,0
12200,412537.4205066767,2010-09-05 08:06:05,2401.197700053595,2,35,0.5501165986061096,3.9178099632263184,36.23266132475966,35.85051990636418,144.13879221106936,131.24090341109016,0.0,0.0881769880652427,0,0,0
12201,412567.435721693,2010-09-05 08:06:35,2431.212915094929,2,35,0.5501165986061096,3.919105052947998,36.237247806389874,35.85051990636418,144.1567641670304,131.24090341109016,3.237724376958795e-05,0.0881769880652427,0,0,0
12202,412597.4508610408,2010-09-05 08:07:05,2461.2280544175483,2,35,0.5501165986061096,3.9204001426696777,36.241834277813474,35.85051990636418,144.17474211164577,131.24090341109016,0.0,0.0881769880652427,0,0,0
12203,412627.46602124535,2010-09-05 08:07:35,2491.243214622212,2,35,0.550297200679779,3.922019004821777,36.2464207048613,35.85051990636418,144.19272587865984,131.24090341109016,9.713172767078504e-05,0.0881769880652427,0,0,0
12204,412657.4811752294,2010-09-05 08:08:05,2521.258368616398,2,35,0.5499359965324402,3.923152208328247,36.25100711322394,35.85051990636418,144.2107156838851,131.24090341109016,6.47544875391759e-05,0.0881769880652427,0,0,0
12205,412687.49912676105,2010-09-05 08:08:35,2551.276320147907,2,35,0.5501165986061096,3.924285411834717,36.25559398753996,35.85051990636418,144.22871347195456,131.24090341109016,3.237724376958795e-05,0.0881769880652427,0,0,0
12206,412717.5116535875,2010-09-05 08:09:06,2581.288846974382,2,35,0.5499359965324402,3.9257423877716064,36.26018003308289,35.85051990636418,144.24671427887162,131.24090341109016,3.237724376958795e-05,0.0881769880652427,0,0,0
12207,412747.5268920622,2010-09-05 08:09:36,2611.30408544912,2,35,0.550297200679779,3.927361249923706,36.26476644308175,35.85051990636418,144.2647226323666,131.24090341109016,9.713172767078504e-05,0.0881769880652427,0,0,0
12208,412777.5421149932,2010-09-05 08:10:06,2641.319308370092,2,35,0.5499359965324402,3.928494453430176,36.26935291911244,35.85051990636418,144.2827376204254,131.24090341109016,3.237724376958795e-05,0.0881769880652427,0,0,0
12209,412807.55700996687,2010-09-05 08:10:36,2671.334203353743,2,35,0.5497553944587708,3.9299514293670654,36.27393928144821,35.85051990636418,144.300758500521,131.24090341109016,3.237724376958795e-05,0.0881769880652427,0,0,0
12210,412837.5721626077,2010-09-05 08:11:06,2701.349356009593,2,35,0.5501165986061096,3.931246519088745,36.27852572970816,35.85051990636418,144.31878619029888,131.24090341109016,3.237724376958795e-05,0.0881769880652427,0,0,0
12211,412867.5873430026,2010-09-05 08:11:36,2731.364536379516,2,35,0.5501165986061096,3.932541608810425,36.28311217551754,35.85051990636418,144.33682030817803,131.24090341109016,0.0,0.0881769880652427,0,0,0
12212,412897.6025025506,2010-09-05 08:12:06,2761.379695927543,2,35,0.5499359965324402,3.9339985847473145,36.28769862128085,35.85051990636418,144.35486095511686,131.24090341109016,0.0,0.0881769880652427,0,0,0
12213,412927.6176946046,2010-09-05 08:12:36,2791.394887981585,2,35,0.550297200679779,3.935617446899414,36.29228515538438,35.85051990636418,144.37290854078188,131.24090341109016,3.237724376958795e-05,0.0881769880652427,0,0,0
12214,412957.63287643326,2010-09-05 08:13:06,2821.4100698051298,2,35,0.550297200679779,3.937074422836304,36.29687165166079,35.85051990636418,144.39096246518653,131.24090341109016,3.237724376958795e-05,0.0881769880652427,0,0,0
12215,412987.6480697756,2010-09-05 08:13:36,2851.4252631924955,2,35,0.5499359965324402,3.938531398773194,36.30145818546087,35.85051990636418,144.40902334378902,131.24090341109016,3.237724376958795e-05,0.0881769880652427,0,0,0
12216,413017.6634314373,2010-09-05 08:14:06,2881.440624844227,2,35,0.5499359965324402,3.939988374710083,36.30604469151294,35.85051990636418,144.42709080095028,131.24090341109016,3.237724376958795e-05,0.0881769880652427,0,0,0
12217,413047.6783672377,2010-09-05 08:14:36,2911.455560614532,2,35,0.5501165986061096,3.941607236862183,36.3106311648217,35.85051990636418,144.44516496213822,131.24090341109016,6.47544875391759e-05,0.0881769880652427,0,0,0
12218,413077.6935292769,2010-09-05 08:15:06,2941.4707226788305,2,35,0.550297200679779,3.9429023265838623,36.31521762048232,35.85051990636418,144.46324575388357,131.24090341109016,3.237724376958795e-05,0.0881769880652427,0,0,0
12219,413107.70869686495,2010-09-05 08:15:36,2971.485890241833,2,35,0.550297200679779,3.944521188735962,36.31980414537714,35.85051990636418,144.48133376996103,131.24090341109016,3.237724376958795e-05,0.0881769880652427,0,0,0
12220,413137.7238693001,2010-09-05 08:16:06,3001.5010626970297,2,35,0.5501165986061096,3.945978164672852,36.324390593050666,35.85051990636418,144.49942840742438,131.24090341109016,3.237724376958795e-05,0.0881769880652427,0,0,0
12221,413167.739174857,2010-09-05 08:16:36,3031.516368243931,2,35,0.550297200679779,3.947758913040161,36.32897710763321,35.85051990636418,144.51753018281,131.24090341109016,9.713172767078504e-05,0.0881769880652427,0,0,0
12222,413197.7543718685,2010-09-05 08:17:06,3061.531565270366,2,35,0.5499359965324402,3.949054002761841,36.333563568690685,35.85051990636418,144.535638855379,131.24090341109016,3.237724376958795e-05,0.0881769880652427,0,0,0
12223,413227.7693990365,2010-09-05 08:17:36,3091.5465924134,2,35,0.5499359965324402,3.9505109786987305,36.3381499921673,35.85051990636418,144.55375442289974,131.24090341109016,0.0,0.0881769880652427,0,0,0
12224,413257.7845414168,2010-09-05 08:18:06,3121.5617347936395,2,35,0.5501165986061096,3.95212984085083,36.34273647867072,35.85051990636418,144.57187743726726,131.24090341109016,3.237724376958795e-05,0.0881769880652427,0,0,0
12225,413287.79972556606,2010-09-05 08:18:36,3151.576918968043,2,35,0.5501165986061096,3.95391058921814,36.34732297600228,35.85051990636418,144.590007769666,131.24090341109016,6.47544875391759e-05,0.0881769880652427,0,0,0
12226,413317.8148789387,2010-09-05 08:19:06,3181.5920723156173,2,35,0.5501165986061096,3.955367565155029,36.35190951893535,35.85051990636418,144.60814562074802,131.24090341109016,3.237724376958795e-05,0.0881769880652427,0,0,0
12227,413347.8300798348,2010-09-05 08:19:36,3211.6072732217217,2,35,0.5501165986061096,3.956986427307129,36.356496119086586,35.85051990636418,144.6262911879474,131.24090341109016,0.0,0.0881769880652427,0,0,0
12228,413377.8452171775,2010-09-05 08:20:06,3241.622410554381,2,35,0.5501165986061096,3.958605289459229,36.36108273162599,35.85051990636418,144.64444420245422,131.24090341109016,3.237724376958795e-05,0.0881769880652427,0,0,0
12229,413407.8604149709,2010-09-05 08:20:36,3271.637608357753,2,35,0.5501165986061096,3.960386037826538,36.36566924187824,35.85051990636418,144.6626044648126,131.24090341109016,3.237724376958795e-05,0.0881769880652427,0,0,0
12230,413437.87555901526,2010-09-05 08:21:06,3301.652752407153,2,35,0.550297200679779,3.9620048999786377,36.37025572101475,35.85051990636418,144.68077235273964,131.24090341109016,3.237724376958795e-05,0.0881769880652427,0,0,0
12231,413467.8907320118,2010-09-05 08:21:36,3331.667925388661,2,35,0.5501165986061096,3.9637856483459473,36.37484230853213,35.85051990636418,144.69894843951866,131.24090341109016,6.47544875391759e-05,0.0881769880652427,0,0,0
12232,413497.9060333983,2010-09-05 08:22:06,3361.6832267852183,2,35,0.5501165986061096,3.965404510498047,36.379428836660495,35.85051990636418,144.7171322501156,131.24090341109016,0.0,0.0881769880652427,0,0,0
12233,413527.9211040548,2010-09-05 08:22:36,3391.6982975219007,2,35,0.5499359965324402,3.9670233726501465,36.38401533892628,35.85051990636418,144.73532399523722,131.24090341109016,0.0,0.0881769880652427,0,0,0
12234,413557.9362685703,2010-09-05 08:23:06,3421.7134619470835,2,35,0.5499359965324402,3.968966007232666,36.38860188107759,35.85051990636418,144.75352389289895,131.24090341109016,3.237724376958795e-05,0.0881769880652427,0,0,0
12235,413587.95155225263,2010-09-05 08:23:36,3451.728745639517,2,35,0.5501165986061096,3.970746755599976,36.39318841364422,35.85051990636418,144.77173198408954,131.24090341109016,3.237724376958795e-05,0.0881769880652427,0,0,0
12236,413617.96661437786,2010-09-05 08:24:06,3481.743807774761,2,35,0.5501165986061096,3.972689390182495,36.39777489885902,35.85051990636418,144.78994824472915,131.24090341109016,6.47544875391759e-05,0.0881769880652427,0,0,0
12237,413647.9819019349,2010-09-05 08:24:36,3511.759095321802,2,35,0.5501165986061096,3.9744701385498047,36.40236156214296,35.85051990636418,144.80817364582057,131.24090341109016,6.47544875391759e-05,0.0881769880652427,0,0,0
12238,413677.9970721044,2010-09-05 08:25:06,3541.7742654913013,2,35,0.5501165986061096,3.976412773132324,36.40694807235607,35.85051990636418,144.8264069935409,131.24090341109016,6.47544875391759e-05,0.0881769880652427,0,0,0
12239,413707.9977509421,2010-09-05 08:25:36,3571.774944354005,2,35,0.5501165986061096,3.977869749069214,36.4115324690131,35.85051990636418,144.84464036874246,131.24090341109016,3.237724376958795e-05,0.0881769880652427,0,0,0
12240,413738.0116370413,2010-09-05 08:26:06,3601.7888304431817,2,35,0.5499359965324402,3.979974269866944,36.416118688888304,35.85051990636418,144.86288984322746,131.24090341109016,3.237724376958795e-05,0.0881769880652427,0,0,0
12241,413768.0269554553,2010-09-05 08:26:36,3631.8041488320887,2,35,0.5501165986061096,3.982078790664673,36.420705165032274,35.85051990636418,144.88114940779718,131.24090341109016,0.0,0.0881769880652427,0,0,0
12242,413798.0421200709,2010-09-05 08:27:06,3661.819313457772,2,35,0.550297200679779,3.9841833114624015,36.42529157514893,35.85051990636418,144.89941765133568,131.24090341109016,6.47544875391759e-05,0.0881769880652427,0,0,0
12243,413828.0571655748,2010-09-05 08:27:36,3691.834358956553,2,35,0.5501165986061096,3.986125946044922,36.429877992970525,35.85051990636418,144.9176950215376,131.24090341109016,6.47544875391759e-05,0.0881769880652427,0,0,0
12244,413858.0723226916,2010-09-05 08:28:06,3721.8495160835473,2,35,0.5501165986061096,3.9880685806274414,36.43446443283111,35.85051990636418,144.93598167255695,131.24090341109016,0.0,0.0881769880652427,0,0,0
12245,413888.08749315183,2010-09-05 08:28:36,3751.8646865437695,2,35,0.5499359965324402,3.990011215209961,36.43905088683571,35.85051990636418,144.95427746903684,131.24090341109016,0.0,0.0881769880652427,0,0,0
12246,413918.10267869465,2010-09-05 08:29:06,3781.879872081573,2,35,0.550297200679779,3.9921157360076895,36.44363730383099,35.85051990636418,144.97258240559225,131.24090341109016,6.47544875391759e-05,0.0881769880652427,0,0,0
12247,413948.11783876905,2010-09-05 08:29:36,3811.895032155912,2,35,0.5501165986061096,3.993896484375,36.44822374291666,35.85051990636418,144.99089676527012,131.24090341109016,0.0,0.0881769880652427,0,0,0
12248,413978.1330237504,2010-09-05 08:30:06,3841.910217137327,2,35,0.5501165986061096,3.99616265296936,36.452810186610925,35.85051990636418,145.00922056473377,131.24090341109016,3.237724376958795e-05,0.0881769880652427,0,0,0
12249,414008.1482976835,2010-09-05 08:30:36,3871.92549107545,2,35,0.5499359965324402,3.99826717376709,36.45739658316372,35.85051990636418,145.0275536694713,131.24090341109016,6.47544875391759e-05,0.0881769880652427,0,0,0
12250,414038.163704172,2010-09-05 08:31:06,3901.940897553904,2,35,0.5501165986061096,4.000371932983398,36.46198309756462,35.85051990636418,145.04589665903933,131.24090341109016,6.47544875391759e-05,0.0881769880652427,0,0,0
12251,414068.1785176325,2010-09-05 08:31:36,3931.9557110093615,2,35,0.5499359965324402,4.002476215362549,36.46656938519455,35.85051990636418,145.06424843791652,131.24090341109016,6.47544875391759e-05,0.0881769880652427,0,0,0
12252,414098.19369973673,2010-09-05 08:32:06,3961.970893123632,2,35,0.5501165986061096,4.004580974578857,36.47115586481384,35.85051990636418,145.08261068218926,131.24090341109016,3.24249267578125e-05,0.0881769880652427,0,0,0
12253,414128.2088586032,2010-09-05 08:32:36,3991.986051979936,2,35,0.5501165986061096,4.006847381591797,36.475742295270216,35.85051990636418,145.10098253979405,131.24090341109016,6.47544875391759e-05,0.0881769880652427,0,0,0
12254,414158.2240341861,2010-09-05 08:33:06,4022.001227577963,2,35,0.550297200679779,4.008951663970947,36.48032878579146,35.85051990636418,145.1193645707604,131.24090341109016,3.23295607813634e-05,0.0881769880652427,0,0,0
12255,414188.2392223254,2010-09-05 08:33:36,4052.016415737299,2,35,0.5499359965324402,4.011056423187256,36.484915282568565,35.85051990636418,145.1377564700027,131.24090341109016,3.24249267578125e-05,0.0881769880652427,0,0,0
12256,414218.2543645102,2010-09-05 08:34:06,4082.031557886965,2,35,0.5501165986061096,4.013484477996826,36.489501782761344,35.85051990636418,145.1561584715251,131.24090341109016,9.70840483205393e-05,0.0881769880652427,0,0,0
12257,414248.2695465993,2010-09-05 08:34:36,4112.046739986196,2,35,0.550297200679779,4.015589237213135,36.494088271243655,35.85051990636418,145.1745705513033,131.24090341109016,6.47544875391759e-05,0.0881769880652427,0,0,0
12258,414278.28474389145,2010-09-05 08:35:06,4142.061937268269,2,35,0.5501165986061096,4.017855644226074,36.49867474067683,35.85051990636418,145.1929928395021,131.24090341109016,6.47544875391759e-05,0.0881769880652427,0,0,0
12259,414308.2998855498,2010-09-05 08:35:36,4172.077078941748,2,35,0.5501165986061096,4.020122051239014,36.50326122631719,35.85051990636418,145.21142543039775,131.24090341109016,6.47544875391759e-05,0.0881769880652427,0,0,0
12260,414338.3150492783,2010-09-05 08:36:06,4202.092242660168,2,35,0.5499359965324402,4.022226333618164,36.50784765853253,35.85051990636418,145.2298683228018,131.24090341109016,3.23295607813634e-05,0.0881769880652427,0,0,0
12261,414368.3302111271,2010-09-05 08:36:36,4232.107404513942,2,35,0.5501165986061096,4.024654865264893,36.51243407650458,35.85051990636418,145.24832169829872,131.24090341109016,6.47544875391759e-05,0.0881769880652427,0,0,0
12262,414398.345405928,2010-09-05 08:37:06,4262.1225993298685,2,35,0.5501165986061096,4.027082920074463,36.517020495696855,35.85051990636418,145.26678569500282,131.24090341109016,9.70840483205393e-05,0.0881769880652427,0,0,0
12263,414428.3605592855,2010-09-05 08:37:36,4292.137752677442,2,35,0.5499359965324402,4.029187679290772,36.52160701049275,35.85051990636418,145.28526087757132,131.24090341109016,3.24249267578125e-05,0.0881769880652427,0,0,0
12264,414458.3757272796,2010-09-05 08:38:06,4322.152920666507,2,35,0.5501165986061096,4.031615734100342,36.5261935505873,35.85051990636418,145.30374683482165,131.24090341109016,6.47544875391759e-05,0.0881769880652427,0,0,0
12265,414488.3908957198,2010-09-05 08:38:36,4352.168089096672,2,35,0.5501165986061096,4.034205913543701,36.53078001846023,35.85051990636418,145.322243412357,131.24090341109016,9.70840483205393e-05,0.0881769880652427,0,0,0
12266,414518.40607365366,2010-09-05 08:39:06,4382.183267035534,2,35,0.5501165986061096,4.036633968353272,36.53536641582853,35.85051990636418,145.34075072709138,131.24090341109016,9.70840483205393e-05,0.0881769880652427,0,0,0
12267,414548.4212565198,2010-09-05 08:39:36,4412.198449896665,2,35,0.5499359965324402,4.03873872756958,36.539952878418255,35.85051990636418,145.35926944346215,131.24090341109016,3.24249267578125e-05,0.0881769880652427,0,0,0
12268,414578.4364066293,2010-09-05 08:40:06,4442.21360000617,2,35,0.5501165986061096,4.04132890701294,36.54453934208475,35.85051990636418,145.37779938581002,131.24090341109016,6.47544875391759e-05,0.0881769880652427,0,0,0
12269,414608.4515936107,2010-09-05 08:40:36,4472.2287869975935,2,35,0.5501165986061096,4.04375696182251,36.54912579109804,35.85051990636418,145.396340616031,131.24090341109016,6.47544875391759e-05,0.0881769880652427,0,0,0
12270,414638.469622475,2010-09-05 08:41:06,4502.24681594204,2,35,0.5501165986061096,4.046509265899658,36.5537119446038,35.85051990636418,145.4148919980372,131.24090341109016,9.71794142969884e-05,0.0881769880652427,0,0,0
12271,414668.4819192731,2010-09-05 08:41:37,4532.259112685077,2,35,0.5501165986061096,4.0489373207092285,36.55829710420771,35.85051990636418,145.4334509304528,131.24090341109016,9.70840483205393e-05,0.0881769880652427,0,0,0
12272,414698.4973765632,2010-09-05 08:42:07,4562.274569960131,2,35,0.5501165986061096,4.051527500152588,36.56288354201319,35.85051990636418,145.4520267958039,131.24090341109016,6.47544875391759e-05,0.0881769880652427,0,0,0
12273,414728.51240134536,2010-09-05 08:42:37,4592.289594732256,2,35,0.5499359965324402,4.053956031799316,36.56746994668183,35.85051990636418,145.47061436322528,131.24090341109016,3.24249267578125e-05,0.0881769880652427,0,0,0
12274,414758.52745965606,2010-09-05 08:43:07,4622.304653042968,2,35,0.5499359965324402,4.056546211242676,36.57205642591128,35.85051990636418,145.489214173888,131.24090341109016,3.24249267578125e-05,0.0881769880652427,0,0,0
12275,414788.5426072242,2010-09-05 08:43:37,4652.319800616151,2,35,0.550297200679779,4.059298038482666,36.57664289040893,35.85051990636418,145.50782591936257,131.24090341109016,6.47544875391759e-05,0.0881769880652427,0,0,0
12276,414818.557803163,2010-09-05 08:44:07,4682.334996549863,2,35,0.5501165986061096,4.061888217926025,36.581229402145,35.85051990636418,145.5264497535741,131.24090341109016,3.23295607813634e-05,0.0881769880652427,0,0,0
12277,414848.5730778129,2010-09-05 08:44:37,4712.350271204771,2,35,0.5499359965324402,4.064478397369385,36.58581578879729,35.85051990636418,145.5450851810935,131.24090341109016,6.47544875391759e-05,0.0881769880652427,0,0,0
12278,414878.5882556715,2010-09-05 08:45:07,4742.365449088497,2,35,0.5501165986061096,4.067392349243164,36.59040222149615,35.85051990636418,145.5637331389553,131.24090341109016,9.70840483205393e-05,0.0881769880652427,0,0,0
12279,414908.60337017226,2010-09-05 08:45:37,4772.380563589253,2,35,0.550297200679779,4.0701446533203125,36.594989149550365,35.85051990636418,145.58239559722196,131.24090341109016,9.71794142969884e-05,0.0881769880652427,0,0,0
12280,414938.6184499015,2010-09-05 08:46:07,4802.395643288272,2,35,0.550297200679779,4.072734832763672,36.59957644412879,35.85051990636418,145.60107213262918,131.24090341109016,6.47544875391759e-05,0.0881769880652427,0,0,0
12281,414968.6337339798,2010-09-05 08:46:37,4832.410927366667,2,35,0.5501165986061096,4.075486660003662,36.60416364315043,35.85051990636418,145.61976092287463,131.24090341109016,9.70840483205393e-05,0.0881769880652427,0,0,0
12282,414998.6493939801,2010-09-05 08:47:07,4862.426587452188,2,35,0.550297200679779,4.078400611877441,36.60875100300117,35.85051990636418,145.63846313631151,131.24090341109016,9.70840483205393e-05,0.0881769880652427,0,0,0
12283,415028.66395601886,2010-09-05 08:47:37,4892.441149405827,2,35,0.550297200679779,4.081314563751221,36.613338202691054,35.85051990636418,145.65717768996956,131.24090341109016,9.70840483205393e-05,0.0881769880652427,0,0,0
12284,415058.6791737419,2010-09-05 08:48:07,4922.4563671338565,2,35,0.5501165986061096,4.08390474319458,36.617925443285216,35.85051990636418,145.67590535442147,131.24090341109016,3.23295607813634e-05,0.0881769880652427,0,0,0
12285,415088.6943012852,2010-09-05 08:48:37,4952.471494672106,2,35,0.5501165986061096,4.086818695068359,36.62251232652677,35.85051990636418,145.6946447602742,131.24090341109016,9.70840483205393e-05,0.0881769880652427,0,0,0
12286,415118.709486848,2010-09-05 08:49:07,4982.486680244995,2,35,0.5501165986061096,4.089732646942139,36.62709883804397,35.85051990636418,145.7133958506428,131.24090341109016,9.70840483205393e-05,0.0881769880652427,0,0,0
12287,415148.7246118049,2010-09-05 08:49:37,5012.501805196798,2,35,0.5499359965324402,4.092646598815918,36.63168530435056,35.85051990636418,145.73216015986725,131.24090341109016,6.47544875391759e-05,0.0881769880652427,0,0,0
12288,415178.739911793,2010-09-05 08:50:07,5042.51710531517,2,35,0.550297200679779,4.095722675323486,36.63627181400915,35.85051990636418,145.75093815643623,131.24090341109016,9.71794142969884e-05,0.0881769880652427,0,0,0
12289,415208.75495020906,2010-09-05 08:50:37,5072.532143595962,2,35,0.5501165986061096,4.098636627197266,36.640858400931165,35.85051990636418,145.76973014144866,131.24090341109016,9.71794142969884e-05,0.0881769880652427,0,0,0
12290,415238.7701904582,2010-09-05 08:51:07,5102.547383875197,2,35,0.5501165986061096,4.101712226867676,36.6454449376753,35.85051990636418,145.7885356838424,131.24090341109016,9.70840483205393e-05,0.0881769880652427,0,0,0
12291,415268.7853116357,2010-09-05 08:51:37,5132.562505022517,2,35,0.5501165986061096,4.104626178741455,36.6500314836829,35.85051990636418,145.80735504916728,131.24090341109016,6.47544875391759e-05,0.0881769880652427,0,0,0
12292,415298.8005376944,2010-09-05 08:52:07,5162.577731081311,2,35,0.5501165986061096,4.107863903045654,36.65461805759897,35.85051990636418,145.82618860949125,131.24090341109016,9.70840483205393e-05,0.0881769880652427,0,0,0
12293,415328.81574805407,2010-09-05 08:52:37,5192.592941440977,2,35,0.5501165986061096,4.110777854919434,36.6592045698562,35.85051990636418,145.84503606233827,131.24090341109016,3.23295607813634e-05,0.0881769880652427,0,0,0
12294,415358.8308139237,2010-09-05 08:53:07,5222.608007310528,2,35,0.5501165986061096,4.114015579223633,36.66379114560423,35.85051990636418,145.8638980245285,131.24090341109016,9.70840483205393e-05,0.0881769880652427,0,0,0
12295,415388.8459637775,2010-09-05 08:53:37,5252.623157164394,2,35,0.5501165986061096,4.117091178894043,36.66837771179715,35.85051990636418,145.88277433256073,131.24090341109016,6.47544875391759e-05,0.0881769880652427,0,0,0
12296,415418.8611321576,2010-09-05 08:54:07,5282.638325544433,2,35,0.5501165986061096,4.120167255401611,36.67296436582602,35.85051990636418,145.90166551748885,131.24090341109016,6.47544875391759e-05,0.0881769880652427,0,0,0
12297,415448.8763243068,2010-09-05 08:54:37,5312.653517693713,2,35,0.5499359965324402,4.123566627502441,36.67755101752351,35.85051990636418,145.92057131762215,131.24090341109016,0.0001295089750783,0.0881769880652427,0,0,0
12298,415478.8914782058,2010-09-05 08:55:07,5342.668671617724,2,35,0.5501165986061096,4.12664270401001,36.68213757547547,35.85051990636418,145.93949144831572,131.24090341109016,6.47544875391759e-05,0.0881769880652427,0,0,0
12299,415508.9066302852,2010-09-05 08:55:37,5372.683823677087,2,35,0.550297200679779,4.130204200744629,36.68672418937711,35.85051990636418,145.9584267317168,131.24090341109016,9.71794142969884e-05,0.0881769880652427,0,0,0
12300,415538.92180486064,2010-09-05 08:56:07,5402.698998272618,2,35,0.5501165986061096,4.133279800415039,36.69131078624974,35.85051990636418,145.97737701970885,131.24090341109016,6.47544875391759e-05,0.0881769880652427,0,0,0
12301,415568.9369686343,2010-09-05 08:56:37,5432.714162026127,2,35,0.550297200679779,4.136679649353027,36.69589738089863,35.85051990636418,145.99634249057897,131.24090341109016,0.0001295089750783,0.0881769880652427,0,0,0
12302,415598.95218294376,2010-09-05 08:57:07,5462.729376330624,2,35,0.550297200679779,4.140241146087647,36.70048400331829,35.85051990636418,146.01532342260663,131.24090341109016,0.0001295089750783,0.0881769880652427,0,0,0
12303,415628.9673140659,2010-09-05 08:57:37,5492.744507452806,2,35,0.5501165986061096,4.143316745758057,36.70507070764364,35.85051990636418,146.03432020552762,131.24090341109016,6.47544875391759e-05,0.0881769880652427,0,0,0
12304,415658.9825067616,2010-09-05 08:58:07,5522.759700148446,2,35,0.5501165986061096,4.146716594696045,36.7096573461896,35.85051990636418,146.05333236990046,131.24090341109016,9.71794142969884e-05,0.0881769880652427,0,0,0
12305,415688.9976489614,2010-09-05 08:58:37,5552.774842348237,2,35,0.5501165986061096,4.150439739227295,36.7142438026476,35.85051990636418,146.07235967615748,131.24090341109016,0.0001295089750783,0.0881769880652427,0,0,0
12306,415719.01283317583,2010-09-05 08:59:07,5582.790026587804,2,35,0.5501165986061096,4.153839588165283,36.71883024400439,35.85051990636418,146.09140279032206,131.24090341109016,9.71794142969884e-05,0.0881769880652427,0,0,0
12307,415749.0280062326,2010-09-05 08:59:37,5612.805199634474,2,35,0.550297200679779,4.157238960266113,36.72341669611812,35.85051990636418,146.11046181618448,131.24090341109016,6.47544875391759e-05,0.0881769880652427,0,0,0
12308,415779.043159926,2010-09-05 09:00:07,5642.820353337935,2,35,0.5499359965324402,4.160638809204102,36.72800310457662,35.85051990636418,146.12953680833246,131.24090341109016,6.47544875391759e-05,0.0881769880652427,0,0,0
12309,415809.0583270579,2010-09-05 09:00:37,5672.835520444801,2,35,0.5501165986061096,4.164200305938721,36.73258964874843,35.85051990636418,146.1486286177771,131.24090341109016,6.47544875391759e-05,0.0881769880652427,0,0,0
12310,415839.0735150168,2010-09-05 09:01:07,5702.850708403636,2,35,0.5501165986061096,4.16808557510376,36.73717620138624,35.85051990636418,146.16773671800942,131.24090341109016,0.0001295089750783,0.0881769880652427,0,0,0
12311,415869.0887148452,2010-09-05 09:01:37,5732.86590822203,2,35,0.5499359965324402,4.17148494720459,36.74176272730182,35.85051990636418,146.18686121985584,131.24090341109016,9.70840483205393e-05,0.0881769880652427,0,0,0
12312,415899.1038416917,2010-09-05 09:02:07,5762.881035078581,2,35,0.5501165986061096,4.175208568572998,36.74634934332478,35.85051990636418,146.20600273078463,131.24090341109016,9.71794142969884e-05,0.0881769880652427,0,0,0
12313,415929.11912914354,2010-09-05 09:02:37,5792.896322540408,2,35,0.5501165986061096,4.178931713104248,36.75093591521818,35.85051990636418,146.22516076443063,131.24090341109016,0.0001295089750783,0.0881769880652427,0,0,0
12314,415959.13418540405,2010-09-05 09:03:07,5822.911378790986,2,35,0.5501165986061096,4.182493209838867,36.75552250612816,35.85051990636418,146.24433579100992,131.24090341109016,6.47544875391759e-05,0.0881769880652427,0,0,0
12315,415989.14933040587,2010-09-05 09:03:37,5852.92652381281,2,35,0.5501165986061096,4.186378479003906,36.76010918956285,35.85051990636418,146.26352825698015,131.24090341109016,9.70840483205393e-05,0.0881769880652427,0,0,0
12316,416019.164630855,2010-09-05 09:04:07,5882.941824241957,2,35,0.5501165986061096,4.1901021003723145,36.76469579925725,35.85051990636418,146.28273762372,131.24090341109016,0.0001295089750783,0.0881769880652427,0,0,0
12317,416049.17969888,2010-09-05 09:04:37,5912.9568922668805,2,35,0.5501165986061096,4.1938252449035645,36.76928235633014,35.85051990636418,146.3019640922993,131.24090341109016,9.70840483205393e-05,0.0881769880652427,0,0,0
12318,416079.19490338507,2010-09-05 09:05:07,5942.972096771955,2,35,0.5499359965324402,4.197548389434815,36.77386890554817,35.85051990636418,146.32120797347093,131.24090341109016,6.47544875391759e-05,0.0881769880652427,0,0,0
12319,416096.52285826026,2010-09-05 09:05:25,5960.300051657207,2,35,0.5501165986061096,4.200138568878174,36.77651671673102,35.85051990636418,146.33232543831025,131.24090341109016,0.0001618385285837,0.0881769880652427,0,0,0
12320,416126.52682813,2010-09-05 09:05:55,30.01494946443444,3,35,0.0,4.118872165679932,36.77651671673102,35.85051990636418,146.33232543831025,131.24090341109016,-0.0003237724304199,0.0881769880652427,0,0,0
12321,416156.5420000088,2010-09-05 09:06:25,60.030121343193805,3,35,0.0,4.108673572540283,36.77651671673102,35.85051990636418,146.33232543831025,131.24090341109016,-0.0001618385285837,0.0881769880652427,0,0,0
12322,416186.557161246,2010-09-05 09:06:55,90.04528258043123,3,35,0.0,4.102359771728516,36.77651671673102,35.85051990636418,146.33232543831025,131.24090341109016,-0.0001619339018361,0.0881769880652427,0,0,0
12323,416216.525468233,2010-09-05 09:07:25,120.01358957247294,3,35,0.0,4.098636627197266,36.77651671673102,35.85051990636418,146.33232543831025,131.24090341109016,-9.70840483205393e-05,0.0881769880652427,0,0,0
12324,416216.53204246034,2010-09-05 09:07:25,0.015618586322835,4,35,1.0043489933013916,4.199814796447754,36.77652107409519,35.85051990636418,146.33234373843277,131.24090341109016,0.0,0.0881769880652427,0,0,0
12325,416217.4070292818,2010-09-05 09:07:26,0.890605407708443,4,35,0.9541395902633668,4.199653148651123,36.77675755192925,35.85051990636418,146.33333688089533,131.24090341109016,-3.23295607813634e-05,0.0881769880652427,0,0,0
12326,416219.5007456471,2010-09-05 09:07:28,2.984321773111447,4,35,0.9037495851516724,4.199653148651123,36.7772968185978,35.85051990636418,146.3356016509055,131.24090341109016,-3.23295607813634e-05,0.0881769880652427,0,0,0
12327,416222.5944476746,2010-09-05 09:07:31,6.078023800471946,4,35,0.8535401821136475,4.199653148651123,36.77805098103457,35.85051990636418,146.33876892315925,131.24090341109016,0.0,0.0881769880652427,0,0,0
12328,416226.797561347,2010-09-05 09:07:35,10.28113750308461,4,35,0.8035114407539368,4.199814796447754,36.779017198606,35.85051990636418,146.34282677262084,131.24090341109016,3.23295607813634e-05,0.0881769880652427,0,0,0
12329,416232.0943059794,2010-09-05 09:07:40,15.577882110413643,4,35,0.7534826397895813,4.199814796447754,36.780161358463694,35.85051990636418,146.34763192136248,131.24090341109016,0.0,0.0881769880652427,0,0,0
12330,416238.95356581046,2010-09-05 09:07:47,22.43714193644159,4,35,0.7034538984298706,4.199653148651123,36.781547904838106,35.85051990636418,146.3534550569141,131.24090341109016,-6.47544875391759e-05,0.0881769880652427,0,0,0
12331,416247.93780125456,2010-09-05 09:07:56,31.42137738054845,4,35,0.6534250974655151,4.199653148651123,36.78323855837619,35.85051990636418,146.3605553641894,131.24090341109016,-3.23295607813634e-05,0.0881769880652427,0,0,0
12332,416260.2657561614,2010-09-05 09:08:09,43.74933229240568,4,35,0.6030351519584656,4.199653148651123,36.78538597638975,35.85051990636418,146.3695739606108,131.24090341109016,0.0,0.0881769880652427,0,0,0
12333,416278.3123549182,2010-09-05 09:08:27,61.79593104429502,4,35,0.5530063509941101,4.199653148651123,36.78827577741216,35.85051990636418,146.38171041546704,131.24090341109016,-3.23295607813634e-05,0.0881769880652427,0,0,0
12334,416307.2806782333,2010-09-05 09:08:56,90.76425435932632,4,35,0.5029776096343994,4.199653148651123,36.79250773740105,35.85051990636418,146.39948361396006,131.24090341109016,0.0,0.0881769880652427,0,0,0
12335,416357.82689185033,2010-09-05 09:09:46,141.310467986366,4,35,0.4529488086700439,4.199653148651123,36.79918798123846,35.85051990636418,146.4275389609026,131.24090341109016,-3.23295607813634e-05,0.0881769880652427,0,0,0
12336,416439.1225249571,2010-09-05 09:11:07,222.60610108809647,4,35,0.4027394354343414,4.199814796447754,36.80882022186452,35.85051990636418,146.46799203521385,131.24090341109016,0.0,0.0881769880652427,0,0,0
12337,416547.3397580947,2010-09-05 09:12:56,330.8233342206731,4,35,0.3527106642723083,4.199653148651123,36.820159288511725,35.85051990636418,146.51561339352295,131.24090341109016,0.0,0.0881769880652427,0,0,0
12338,416679.00938864273,2010-09-05 09:15:07,462.4929647687314,4,35,0.3026818931102752,4.199814796447754,36.83212686407536,35.85051990636418,146.56587436611375,131.24090341109016,0.0,0.0881769880652427,0,0,0
12339,416836.97600697575,2010-09-05 09:17:45,620.4595831368179,4,35,0.2524725198745727,4.199653148651123,36.84428314749275,35.85051990636418,146.61692792647614,131.24090341109016,0.0,0.0881769880652427,0,0,0
12340,417034.1133878415,2010-09-05 09:21:02,817.5969639574787,4,35,0.2024437636137008,4.199814796447754,36.85669740404493,35.85051990636418,146.66906489002335,131.24090341109016,0.0,0.0881769880652427,0,0,0
12341,417290.9532686322,2010-09-05 09:25:19,1074.4368447580894,4,35,0.1524149924516677,4.199653148651123,36.86927954001708,35.85051990636418,146.72190691595782,131.24090341109016,-3.23295607813634e-05,0.0881769880652427,0,0,0
12342,417667.16667824186,2010-09-05 09:31:36,1450.650254377834,4,35,0.1023862138390541,4.199814796447754,36.88242980072402,35.85051990636418,146.77713485117724,131.24090341109016,0.0,0.0881769880652427,0,0,0
12343,418348.7968207694,2010-09-05 09:42:57,2132.2803970306763,4,35,0.0523574464023113,4.199653148651123,36.89657123721432,35.85051990636418,146.8365255587409,131.24090341109016,-3.23295607813634e-05,0.0881769880652427,0,0,0
12344,418406.90503851743,2010-09-05 09:43:55,2190.3886146434197,4,35,0.0498289167881011,4.199814796447754,36.89740460973773,35.85051990636418,146.8400255267733,131.24090341109016,0.0,0.0881769880652427,0,0,0
12345,418436.928796133,2010-09-05 09:44:25,30.015176159428112,5,35,0.0,4.192044734954834,36.89740460973773,35.85051990636418,146.8400255267733,131.24090341109016,-6.47544875391759e-05,0.0881769880652427,0,0,0
12346,418466.9283264632,2010-09-05 09:44:55,60.0147064946482,5,35,0.0,4.190749645233154,36.89740460973773,35.85051990636418,146.8400255267733,131.24090341109016,-3.23295607813634e-05,0.0881769880652427,0,0,0
12347,418467.12504606624,2010-09-05 09:44:56,0.187216350751103,6,35,0.0008838032954372,4.191235065460205,36.89740465569951,35.85051990636418,146.84002571940994,131.24090341109016,0.0,0.0916610211133956,0,0,0
12348,418471.9532313896,2010-09-05 09:45:01,5.015401659135075,6,35,0.0007031940040178,4.190749645233154,36.89740556542283,35.85051990636418,146.84002953210032,131.24090341109016,-6.47544875391759e-05,0.0916610211133956,0,0,0
12349,418501.9622820272,2010-09-05 09:45:31,30.015235532403835,7,35,-1.099568486213684,4.020122051239014,36.89740556542283,35.85968765007496,146.84002953210032,131.27795664188017,-0.0009388923645019,0.0916610211133956,0,0,0
12350,418531.977374473,2010-09-05 09:46:01,60.030327983204295,7,35,-1.0997490882873535,3.99341082572937,36.89740556542283,35.86885541153668,146.84002953210032,131.3146813532493,-0.000615119934082,0.0916610211133956,0,0,0
12351,418561.9926645814,2010-09-05 09:46:31,90.04561808661587,7,35,-1.0997490882873535,3.9749557971954346,36.89740556542283,35.87802309253332,146.84002953210032,131.35120330370367,-0.0004532813909463,0.0916610211133956,0,0,0
12352,418592.0079417676,2010-09-05 09:47:01,120.06089526280884,7,35,-1.0997490882873535,3.960871696472168,36.89740556542283,35.88719076272041,146.84002953210032,131.38757836116756,-0.0003561496851034,0.0916610211133956,0,0,0
12353,418622.02290131216,2010-09-05 09:47:31,150.07585480736606,7,35,-1.099568486213684,3.949215888977051,36.89740556542283,35.8963584173997,146.84002953210032,131.42383553179857,-0.0002913951757363,0.0916610211133956,0,0,0
12354,418652.0381805034,2010-09-05 09:48:01,180.09113399858109,7,35,-1.0993878841400146,3.9386932849884033,36.89740556542283,35.90552616756842,146.84002953210032,131.45999194842852,-0.0002913951757363,0.0916610211133956,0,0,0
12355,418682.05321371154,2010-09-05 09:48:31,210.10616719670568,7,35,-1.0993878841400146,3.929141998291016,36.89740556542283,35.91469370809397,146.84002953210032,131.49605627388124,-0.0002913951757363,0.0916610211133956,0,0,0
12356,418712.0683959712,2010-09-05 09:49:01,240.12134946636232,7,35,-1.099568486213684,3.920076370239258,36.89740556542283,35.923861419376614,146.84002953210032,131.53203624235033,-0.0002590179501567,0.0916610211133956,0,0,0
12357,418742.0836870471,2010-09-05 09:49:31,270.1366405421974,7,35,-1.099568486213684,3.911496639251709,36.89740556542283,35.93302914569939,146.84002953210032,131.56793542028694,-0.0002266406954731,0.0916610211133956,0,0,0
12358,418772.0987690166,2010-09-05 09:50:01,300.1517225018508,7,35,-1.0993878841400146,3.903402328491211,36.89740556542283,35.94219687699688,146.84002953210032,131.60375672455635,-0.0001618862152099,0.0916610211133956,0,0,0
12359,418802.1139245498,2010-09-05 09:50:31,330.1668780348716,7,35,-1.0993878841400146,3.894984245300293,36.89740556542283,35.9513645696668,146.84002953210032,131.63950246817885,-0.0002266406954731,0.0916610211133956,0,0,0
12360,418832.12909772166,2010-09-05 09:51:01,360.182051206854,7,35,-1.099568486213684,3.887213706970215,36.89740556542283,35.96053225430091,146.84002953210032,131.6751753157963,-0.0001942634553415,0.0916610211133956,0,0,0
12361,418862.144240508,2010-09-05 09:51:31,390.19719399310594,7,35,-1.099568486213684,3.8794431686401367,36.89740556542283,35.96969990758139,146.84002953210032,131.71077614153518,-0.0001942634553415,0.0916610211133956,0,0,0
12362,418892.1595472729,2010-09-05 09:52:01,420.2125007580431,7,35,-1.099568486213684,3.8716726303100586,36.89740556542283,35.9788676686391,146.84002953210032,131.7463066706127,-0.0002266406954731,0.0916610211133956,0,0,0
12363,418922.1745619899,2010-09-05 09:52:31,450.2275154851322,7,35,-1.0993878841400146,3.8642258644104,36.89740556542283,35.988035412573524,146.84002953210032,131.78176786103904,-0.0002266406954731,0.0916610211133956,0,0,0
12364,418952.1897467558,2010-09-05 09:53:01,480.2427002510103,7,35,-1.0997490882873535,3.856779098510742,36.89740556542283,35.99720318763084,146.84002953210032,131.81716128584682,-0.0002266406954731,0.0916610211133956,0,0,0
12365,418982.2050765531,2010-09-05 09:53:31,510.25803004835126,7,35,-1.099568486213684,3.849817991256714,36.89740556542283,36.006370955708746,146.84002953210032,131.85248783166898,-0.0001618862152099,0.0916610211133956,0,0,0
12366,419012.2201361371,2010-09-05 09:54:01,540.2730896572997,7,35,-1.099568486213684,3.8425331115722656,36.89740556542283,36.015538645260804,146.84002953210032,131.8877481008075,-0.0001942634553415,0.0916610211133956,0,0,0
12367,419042.2352964069,2010-09-05 09:54:31,570.2882499020636,7,35,-1.099568486213684,3.8357338905334473,36.89740556542283,36.02470642495353,146.84002953210032,131.92294393915842,-0.0001295089750783,0.0916610211133956,0,0,0
12368,419072.250474877,2010-09-05 09:55:01,600.3034283722509,7,35,-1.099568486213684,3.828773021697998,36.89740556542283,36.0338742146605,146.84002953210032,131.95807604454865,-0.0001942634553415,0.0916610211133956,0,0,0
12369,419102.2656282798,2010-09-05 09:55:31,630.3185817649372,7,35,-1.099568486213684,3.82197380065918,36.89740556542283,36.04304195286264,146.84002953210032,131.99314517822407,-0.0001618862152099,0.0916610211133956,0,0,0
12370,419132.28079602827,2010-09-05 09:56:01,660.3337495134026,7,35,-1.099568486213684,3.815174579620361,36.89740556542283,36.05220968320526,146.84002953210032,132.02815262156562,-0.0001942634553415,0.0916610211133956,0,0,0
12371,419162.2959564585,2010-09-05 09:56:31,690.3489099536537,7,35,-1.099568486213684,3.808699131011963,36.89740556542283,36.0613774058996,146.84002953210032,132.0630989372981,-0.0001295089750783,0.0916610211133956,0,0,0
12372,419192.3111415001,2010-09-05 09:57:01,720.3640950052438,7,35,-1.0997490882873535,3.8020617961883545,36.89740556542283,36.07054511754817,146.84002953210032,132.0979852415461,-0.0001942634553415,0.0916610211133956,0,0,0
12373,419222.3263179652,2010-09-05 09:57:31,750.379271480459,7,35,-1.099568486213684,3.795910120010376,36.89740556542283,36.07971282098192,146.84002953210032,132.13281270465268,-9.713172767078504e-05,0.0916610211133956,0,0,0
12374,419252.34150170354,2010-09-05 09:58:01,780.3944551887012,7,35,-1.0997490882873535,3.7894346714019775,36.89740556542283,36.08888049308862,146.84002953210032,132.16758231208033,-0.0001618862152099,0.0916610211133956,0,0,0
12375,419282.35667411366,2010-09-05 09:58:31,810.4096276138221,7,35,-1.0993878841400146,3.783444881439209,36.89740556542283,36.09804821376103,146.84002953210032,132.20229538384768,-0.0001618862152099,0.0916610211133956,0,0,0
12376,419312.37185926543,2010-09-05 09:59:01,840.4248127606496,7,35,-1.099568486213684,3.77745509147644,36.89740556542283,36.10721595446677,146.84002953210032,132.23695291090533,-0.0001295089750783,0.0916610211133956,0,0,0
12377,419342.3870297307,2010-09-05 09:59:31,870.4399832258861,7,35,-1.0997490882873535,3.771465301513672,36.89740556542283,36.11638371186195,146.84002953210032,132.27155600229483,-0.0001618862152099,0.0916610211133956,0,0,0
12378,419372.4021996947,2010-09-05 10:00:01,900.4551531948857,7,35,-1.099568486213684,3.765637397766113,36.89740556542283,36.12555143149656,146.84002953210032,132.3061052257183,-0.0001618862152099,0.0916610211133956,0,0,0
12379,419402.4173980595,2010-09-05 10:00:31,930.4703515546438,7,35,-1.0993878841400146,3.7599713802337646,36.89740556542283,36.13471920738503,146.84002953210032,132.340601991274,-0.0001618862152099,0.0916610211133956,0,0,0
12380,419432.43254339707,2010-09-05 10:01:01,960.485496887242,7,35,-1.0997490882873535,3.754305362701416,36.89740556542283,36.14388696625497,146.84002953210032,132.37504702999783,-0.0001618862152099,0.0916610211133956,0,0,0
12381,419462.447708529,2010-09-05 10:01:31,990.5006620592862,7,35,-1.0993878841400146,3.749125242233277,36.89740556542283,36.15305460235378,146.84002953210032,132.40944071186513,-9.713172767078504e-05,0.0916610211133956,0,0,0
12382,419492.46283713,2010-09-05 10:02:01,1020.515790620084,7,35,-1.0993878841400146,3.7436211109161377,36.89740556542283,36.16222218556848,146.84002953210032,132.44378453884477,-9.713172767078504e-05,0.0916610211133956,0,0,0
12383,419522.478245483,2010-09-05 10:02:31,1050.5311989832353,7,35,-1.099568486213684,3.738278865814209,36.89740556542283,36.17138986646514,146.84002953210032,132.4780797344837,-0.0001295089750783,0.0916610211133956,0,0,0
12384,419552.4934299532,2010-09-05 10:03:01,1080.5463834533762,7,35,-1.0997490882873535,3.73309850692749,36.89740556542283,36.18055745996036,146.84002953210032,132.5123266794448,-0.0001618862152099,0.0916610211133956,0,0,0
12385,419582.5083601395,2010-09-05 10:03:31,1110.5613136347513,7,35,-1.0997490882873535,3.728080034255981,36.89740556542283,36.18972503295451,146.84002953210032,132.54652670566023,-0.0001618862152099,0.0916610211133956,0,0,0
12386,419612.5235236626,2010-09-05 10:04:01,1140.5764771576853,7,35,-1.0993878841400146,3.7232234477996826,36.89740556542283,36.19889255618346,146.84002953210032,132.58068116514949,-0.0001295089750783,0.0916610211133956,0,0,0
12387,419642.5387085687,2010-09-05 10:04:31,1170.5916620639132,7,35,-1.0993878841400146,3.718204975128174,36.89740556542283,36.20806018001298,146.84002953210032,132.61479050845597,-9.713172767078504e-05,0.0916610211133956,0,0,0
12388,419672.5538711644,2010-09-05 10:05:01,1200.6068246595362,7,35,-1.099568486213684,3.713348388671875,36.89740556542283,36.21722778855966,146.84002953210032,132.64885545984671,-0.0001295089750783,0.0916610211133956,0,0,0
12389,419702.5690305018,2010-09-05 10:05:31,1230.6219839970388,7,35,-1.0993878841400146,3.708815574645996,36.89740556542283,36.22639538547743,146.84002953210032,132.68287662112755,-9.713172767078504e-05,0.0916610211133956,0,0,0
12390,419732.58419395966,2010-09-05 10:06:01,1260.6371474447856,7,35,-1.0993878841400146,3.7041208744049072,36.89740556542283,36.23556299208209,146.84002953210032,132.7168548054978,-9.713172767078504e-05,0.0916610211133956,0,0,0
12391,419762.59943213867,2010-09-05 10:06:31,1290.6523857440852,7,35,-1.099568486213684,3.699588060379028,36.89740556542283,36.24473066112224,146.84002953210032,132.75079094670346,-0.0001295089750783,0.0916610211133956,0,0,0
12392,419792.61454749655,2010-09-05 10:07:01,1320.6675009917024,7,35,-1.099568486213684,3.695055246353149,36.89740556542283,36.25389825305751,146.84002953210032,132.78468542341375,-9.713172767078504e-05,0.0916610211133956,0,0,0
12393,419822.62970696937,2010-09-05 10:07:31,1350.6826604695548,7,35,-1.0993878841400146,3.6905224323272714,36.89740556542283,36.263065951795525,146.84002953210032,132.81853945312002,-9.713172767078504e-05,0.0916610211133956,0,0,0
12394,419852.6450192982,2010-09-05 10:08:01,1380.6979727933465,7,35,-1.099568486213684,3.6861515045166016,36.89740556542283,36.27223365036681,146.84002953210032,132.85235316551172,-0.0001295089750783,0.0916610211133956,0,0,0
12395,419882.6600404312,2010-09-05 10:08:31,1410.7129939264012,7,35,-1.099568486213684,3.681942462921143,36.89740556542283,36.28140125491193,146.84002953210032,132.8861269897874,-9.713172767078504e-05,0.0916610211133956,0,0,0
12396,419912.6752217485,2010-09-05 10:09:01,1440.7281752486967,7,35,-1.0997490882873535,3.6775715351104736,36.89740556542283,36.29056899487058,146.84002953210032,132.91986231164677,-0.0001295089750783,0.0916610211133956,0,0,0
12397,419942.6903868403,2010-09-05 10:09:31,1470.7433403255036,7,35,-1.099568486213684,3.6736862659454346,36.89740556542283,36.29973667788072,146.84002953210032,132.95355936025484,-9.713172767078504e-05,0.0916610211133956,0,0,0
12398,419972.70555232815,2010-09-05 10:10:01,1500.7585058333848,7,35,-1.0997490882873535,3.6694774627685542,36.89740556542283,36.308904373862006,146.84002953210032,132.98721887434652,-0.0001295089750783,0.0916610211133956,0,0,0
12399,420002.7208073893,2010-09-05 10:10:31,1530.7737608894474,7,35,-1.099568486213684,3.665592193603516,36.89740556542283,36.31807203417158,146.84002953210032,133.0208410948959,-9.713172767078504e-05,0.0916610211133956,0,0,0
12400,420032.7359089126,2010-09-05 10:11:01,1560.788862407847,7,35,-1.099568486213684,3.6615450382232666,36.89740556542283,36.32723966770049,146.84002953210032,133.05442681328554,-9.713172767078504e-05,0.0916610211133956,0,0,0
12401,420062.751152816,2010-09-05 10:11:31,1590.8041063361763,7,35,-1.0993878841400146,3.657659769058228,36.89740556542283,36.33640737327264,146.84002953210032,133.08797697314398,-9.713172767078504e-05,0.0916610211133956,0,0,0
12402,420092.7662396026,2010-09-05 10:12:01,1620.81919310281,7,35,-1.099568486213684,3.653774499893189,36.89740556542283,36.34557502504726,146.84002953210032,133.12149184531768,-0.0001295089750783,0.0916610211133956,0,0,0
12403,420122.7814820824,2010-09-05 10:12:31,1650.8344355825288,7,35,-1.099568486213684,3.650213003158569,36.89740556542283,36.35474267706589,146.84002953210032,133.15497256851208,-0.0001295089750783,0.0916610211133956,0,0,0
12404,420152.80015360325,2010-09-05 10:13:01,1680.853107098461,7,35,-1.099568486213684,3.6463277339935294,36.89740556542283,36.36391142826138,146.84002953210032,133.1884235236914,-0.0001295089750783,0.0916610211133956,0,0,0
12405,420182.8117771134,2010-09-05 10:13:32,1710.8647306186188,7,35,-1.0993878841400146,3.643090009689331,36.89740556542283,36.37307780283973,146.84002953210032,133.22183262314127,-9.713172767078504e-05,0.0916610211133956,0,0,0
12406,420212.82719528605,2010-09-05 10:14:02,1740.8801487862056,7,35,-1.0993878841400146,3.639690399169922,36.89740556542283,36.38224542725966,146.84002953210032,133.2552139904494,-6.47544875391759e-05,0.0916610211133956,0,0,0
12407,420242.84225188754,2010-09-05 10:14:32,1770.895205402696,7,35,-1.099568486213684,3.6359670162200928,36.89740556542283,36.39141296292541,146.84002953210032,133.28856327073171,-9.713172767078504e-05,0.0916610211133956,0,0,0
12408,420272.85729833366,2010-09-05 10:15:02,1800.9102518538512,7,35,-1.099568486213684,3.6327292919158936,36.89740556542283,36.40058053830951,146.84002953210032,133.32188185038788,-6.47544875391759e-05,0.0916610211133956,0,0,0
12409,420302.8724159672,2010-09-05 10:15:32,1830.925369462352,7,35,-1.0997490882873535,3.629329681396485,36.89740556542283,36.40974810606516,146.84002953210032,133.35517021381716,-9.713172767078504e-05,0.0916610211133956,0,0,0
12410,420332.88771494274,2010-09-05 10:16:02,1860.940668437876,7,35,-1.0997490882873535,3.626253843307495,36.89740556542283,36.41891572115944,146.84002953210032,133.38842916280754,-6.47544875391759e-05,0.0916610211133956,0,0,0
12411,420362.9027608675,2010-09-05 10:16:32,1890.9557143526945,7,35,-1.099568486213684,3.623178005218506,36.89740556542283,36.428083270489466,146.84002953210032,133.4216591019556,-6.47544875391759e-05,0.0916610211133956,0,0,0
12412,420392.9179600845,2010-09-05 10:17:02,1920.9709135796136,7,35,-1.0997490882873535,3.6201021671295166,36.89740556542283,36.437250897791145,146.84002953210032,133.4548613650792,-0.0001295089750783,0.0916610211133956,0,0,0
12413,420422.9331013268,2010-09-05 10:17:32,1950.986054822018,7,35,-1.099568486213684,3.617188215255737,36.89740556542283,36.44641852812797,146.84002953210032,133.48803604786983,-6.47544875391759e-05,0.0916610211133956,0,0,0
12414,420452.94826249394,2010-09-05 10:18:02,1981.0012159890805,7,35,-1.099568486213684,3.614274263381958,36.89740556542283,36.45558614822777,146.84002953210032,133.52118340794493,-6.47544875391759e-05,0.0916610211133956,0,0,0
12415,420482.9635709029,2010-09-05 10:18:32,2011.016524423177,7,35,-1.0997490882873535,3.6111984252929688,36.89740556542283,36.46475385216269,146.84002953210032,133.55430434422055,-6.47544875391759e-05,0.0916610211133956,0,0,0
12416,420512.9788193726,2010-09-05 10:19:02,2041.0317728677628,7,35,-1.0993878841400146,3.60860824584961,36.89740556542283,36.47392155780368,146.84002953210032,133.58739870296571,-3.237724376958795e-05,0.0916610211133956,0,0,0
12417,420542.9937896289,2010-09-05 10:19:32,2071.046743129029,7,35,-1.0993878841400146,3.60569429397583,36.89740556542283,36.483089181090406,146.84002953210032,133.6204664353669,-6.47544875391759e-05,0.0916610211133956,0,0,0
12418,420573.008941583,2010-09-05 10:20:02,2101.061895078118,7,35,-1.0993878841400146,3.602780342102051,36.89740556542283,36.4922567999495,146.84002953210032,133.6535081156952,-9.713172767078504e-05,0.0916610211133956,0,0,0
12419,420603.02451865154,2010-09-05 10:20:32,2131.077472166785,7,35,-1.0993878841400146,3.600028276443481,36.89740556542283,36.50142461659822,146.84002953210032,133.6865248936619,-6.47544875391759e-05,0.0916610211133956,0,0,0
12420,420633.0393081173,2010-09-05 10:21:02,2161.092261612403,7,35,-1.099568486213684,3.597276210784912,36.89740556542283,36.51059216404439,146.84002953210032,133.71951509850842,-6.47544875391759e-05,0.0916610211133956,0,0,0
12421,420663.0548800782,2010-09-05 10:21:32,2191.107833603365,7,35,-1.099568486213684,3.594362258911133,36.89740556542283,36.5197599497481,146.84002953210032,133.75248032660244,-0.0001295089750783,0.0916610211133956,0,0,0
12422,420693.0696574937,2010-09-05 10:22:02,2221.1226110139887,7,35,-1.099568486213684,3.5916104316711426,36.89740556542283,36.52892752950723,146.84002953210032,133.78541900205212,-6.47544875391759e-05,0.0916610211133956,0,0,0
12423,420723.0847912575,2010-09-05 10:22:32,2251.137744752691,7,35,-1.099568486213684,3.5886964797973637,36.89740556542283,36.53809517536698,146.84002953210032,133.81833184677208,-9.713172767078504e-05,0.0916610211133956,0,0,0
12424,420753.09997394826,2010-09-05 10:23:02,2281.1529274433974,7,35,-1.099568486213684,3.585782527923584,36.89740556542283,36.54726288424963,146.84002953210032,133.8512187946111,-9.713172767078504e-05,0.0916610211133956,0,0,0
12425,420783.1151238823,2010-09-05 10:23:32,2311.168077377464,7,35,-1.099568486213684,3.5828685760498047,36.89740556542283,36.5564306024915,146.84002953210032,133.8840794172264,-9.713172767078504e-05,0.0916610211133956,0,0,0
12426,420813.13044174487,2010-09-05 10:24:02,2341.183395230035,7,35,-1.099568486213684,3.5799546241760254,36.89740556542283,36.56559830701731,146.84002953210032,133.9169133818396,-9.713172767078504e-05,0.0916610211133956,0,0,0
12427,420843.1454627326,2010-09-05 10:24:32,2371.1984162127146,7,35,-1.099568486213684,3.577040672302246,36.89740556542283,36.57476589277278,146.84002953210032,133.94971962554138,-6.47544875391759e-05,0.0916610211133956,0,0,0
12428,420873.1606427315,2010-09-05 10:25:02,2401.2135962568245,7,35,-1.0993878841400146,3.574126720428467,36.89740556542283,36.583933576604935,146.84002953210032,133.98249858443558,-6.47544875391759e-05,0.0916610211133956,0,0,0
12429,420903.1758236529,2010-09-05 10:25:32,2431.228777148046,7,35,-1.099568486213684,3.570888996124268,36.89740556542283,36.59310124303083,146.84002953210032,134.0152497345702,-9.713172767078504e-05,0.0916610211133956,0,0,0
12430,420933.1909777172,2010-09-05 10:26:02,2461.243931212406,7,35,-1.099568486213684,3.5678131580352783,36.89740556542283,36.60226890071456,146.84002953210032,134.04797244007796,-6.47544875391759e-05,0.0916610211133956,0,0,0
12431,420963.2061489796,2010-09-05 10:26:32,2491.259102464604,7,35,-1.0993878841400146,3.564575433731079,36.89740556542283,36.61143662998423,146.84002953210032,134.08066614229816,-6.47544875391759e-05,0.0916610211133956,0,0,0
12432,420993.22132617154,2010-09-05 10:27:02,2521.2742796666307,7,35,-1.099568486213684,3.56133770942688,36.89740556542283,36.620604248535145,146.84002953210032,134.1133298748576,-9.713172767078504e-05,0.0916610211133956,0,0,0
12433,421023.2365277542,2010-09-05 10:27:32,2551.289481254434,7,35,-1.099568486213684,3.5579380989074707,36.89740556542283,36.62977190164979,146.84002953210032,134.14596332652658,-0.0001295089750783,0.0916610211133956,0,0,0
12434,421053.251655107,2010-09-05 10:28:02,2581.304608607221,7,35,-1.0997490882873535,3.554376602172852,36.89740556542283,36.63893956021695,146.84002953210032,134.17856559203705,-0.0001295089750783,0.0916610211133956,0,0,0
12435,421083.2669489448,2010-09-05 10:28:32,2611.319902449952,7,35,-1.0993878841400146,3.5508151054382324,36.89740556542283,36.648107300662005,146.84002953210032,134.21113605456057,-9.713172767078504e-05,0.0916610211133956,0,0,0
12436,421113.2820334608,2010-09-05 10:29:02,2641.3349869810145,7,35,-1.0993878841400146,3.5474154949188232,36.89740556542283,36.6572749562349,146.84002953210032,134.24367314048413,-6.47544875391759e-05,0.0916610211133956,0,0,0
12437,421143.2971661268,2010-09-05 10:29:32,2671.350119621981,7,35,-1.099568486213684,3.543530225753784,36.89740556542283,36.66644263230664,146.84002953210032,134.2761764583628,-6.47544875391759e-05,0.0916610211133956,0,0,0
12438,421173.312336191,2010-09-05 10:30:02,2701.3652896862177,7,35,-1.099568486213684,3.539806842803955,36.89740556542283,36.67561035925736,146.84002953210032,134.30864483426618,-6.47544875391759e-05,0.0916610211133956,0,0,0
12439,421203.32763771794,2010-09-05 10:30:32,2731.380591218113,7,35,-1.099568486213684,3.535759687423706,36.89740556542283,36.68477815926316,146.84002953210032,134.34107724692217,-6.47544875391759e-05,0.0916610211133956,0,0,0
12440,421233.3428120528,2010-09-05 10:31:02,2761.395765547981,7,35,-1.0993878841400146,3.531550645828247,36.89740556542283,36.69394590033386,146.84002953210032,134.3734716260091,-9.713172767078504e-05,0.0916610211133956,0,0,0
12441,421263.35784082994,2010-09-05 10:31:32,2791.4107943250874,7,35,-1.0993878841400146,3.527017831802368,36.89740556542283,36.70311361360002,146.84002953210032,134.40582672343365,-0.0001295089750783,0.0916610211133956,0,0,0
12442,421293.3730158665,2010-09-05 10:32:02,2821.425969366729,7,35,-1.0997490882873535,3.522646903991699,36.89740556542283,36.712281414331,146.84002953210032,134.43814132649933,-9.713172767078504e-05,0.0916610211133956,0,0,0
12443,421323.3881990134,2010-09-05 10:32:32,2851.44115250856,7,35,-1.099568486213684,3.5177903175354004,36.89740556542283,36.72144851225792,146.84002953210032,134.47041093598529,-0.0001618862152099,0.0916610211133956,0,0,0
12444,421353.4033846113,2010-09-05 10:33:02,2881.456338111524,7,35,-1.099568486213684,3.5126099586486816,36.89740556542283,36.730615539695656,146.84002953210032,134.502635708617,-0.0001618862152099,0.0916610211133956,0,0,0
12445,421383.4185712469,2010-09-05 10:33:32,2911.471524742049,7,35,-1.099568486213684,3.507429838180542,36.89740556542283,36.7397825880469,146.84002953210032,134.5348132009793,-0.0001618862152099,0.0916610211133956,0,0,0
12446,421413.43370545167,2010-09-05 10:34:02,2941.4866589469134,7,35,-1.099568486213684,3.5017638206481934,36.89740556542283,36.74894956076263,146.84002953210032,134.5669401038338,-0.0001942634553415,0.0916610211133956,0,0,0
12447,421443.448994688,2010-09-05 10:34:32,2971.501948193189,7,35,-1.099568486213684,3.495612144470215,36.89740556542283,36.75811719927323,146.84002953210032,134.5990151641387,-0.0001942634553415,0.0916610211133956,0,0,0
12448,421473.4642471175,2010-09-05 10:35:02,3001.517200612681,7,35,-1.0997490882873535,3.4888129234313965,36.89740556542283,36.767284978309135,146.84002953210032,134.631031695512,-0.0001942634553415,0.0916610211133956,0,0,0
12449,421503.4792203362,2010-09-05 10:35:32,3031.5321738363305,7,35,-1.0997490882873535,3.4812042713165283,36.89740556542283,36.77645267411156,146.84002953210032,134.66298242559546,-0.0002266406954731,0.0916610211133956,0,0,0
12450,421533.4945273468,2010-09-05 10:36:02,3061.547480841868,7,35,-1.0993878841400146,3.4727861881256104,36.89740556542283,36.785620430926016,146.84002953210032,134.69485886096993,-0.0001942634553415,0.0916610211133956,0,0,0
12451,421563.5095423444,2010-09-05 10:36:32,3091.562495829606,7,35,-1.0997490882873535,3.462425470352173,36.89740556542283,36.79478809995695,146.84002953210032,134.72664975133995,-0.0003237724304199,0.0916610211133956,0,0,0
12452,421593.524723752,2010-09-05 10:37:02,3121.577677252152,7,35,-1.099568486213684,3.450445890426636,36.89740556542283,36.803955875819184,146.84002953210032,134.75834010418933,-0.0003561496851034,0.0916610211133956,0,0,0
12453,421623.5400107827,2010-09-05 10:37:32,3151.5929642778924,7,35,-1.099568486213684,3.4357142448425293,36.89740556542283,36.81312366889096,146.84002953210032,134.78990699849297,-0.0003885269106831,0.0916610211133956,0,0,0
12454,421653.5550551938,2010-09-05 10:38:02,3181.608008693976,7,35,-1.099568486213684,3.415964365005493,36.89740556542283,36.82229137707435,146.84002953210032,134.82131691649838,-0.0005827903514727,0.0916610211133956,0,0,0
12455,421683.5702429421,2010-09-05 10:38:32,3211.623196427249,7,35,-1.099568486213684,3.389900684356689,36.89740556542283,36.83145919770499,146.84002953210032,134.85252101338185,-0.0008094310760498,0.0916610211133956,0,0,0
12456,421713.585386019,2010-09-05 10:39:02,3241.638339539313,7,35,-1.099568486213684,3.353961944580078,36.89740556542283,36.8406269775336,146.84002953210032,134.88344379112243,-0.0011008263099938,0.0916610211133956,0,0,0
12457,421743.600565562,2010-09-05 10:39:32,3271.653519057111,7,35,-1.0997490882873535,3.3024823665618896,36.89740556542283,36.8497947711274,146.84002953210032,134.91397091413825,-0.0015864849556237,0.0916610211133956,0,0,0
12458,421773.6157601072,2010-09-05 10:40:02,3301.6687136023625,7,35,-1.099568486213684,3.228338718414306,36.89740556542283,36.85896251716278,146.84002953210032,134.9439292495858,-0.0022987842094153,0.0916610211133956,0,0,0
12459,421803.6309502616,2010-09-05 10:40:32,3331.6839037666955,7,35,-1.099568486213684,3.115018606185913,36.89740556542283,36.86813029142389,146.84002953210032,134.97304689174095,-0.0036910057533532,0.0916610211133956,0,0,0
12460,421832.0055314685,2010-09-05 10:41:01,3360.058484963679,7,35,-1.0997490882873535,2.9146041870117188,36.89740556542283,36.87679695279278,146.84002953210032,134.9993008015243,-0.0081913946196436,0.0916610211133956,0,0,0
12461,421846.4430460924,2010-09-05 10:41:15,3374.495999597458,7,35,-1.0993878841400146,2.714513301849365,36.89740556542283,36.881206702373085,146.84002953210032,135.01174034770364,-0.0124976160004735,0.0916610211133956,0,0,0
12462,421847.3646564589,2010-09-05 10:41:16,3375.4176099640645,7,35,-1.099568486213684,2.699458122253418,36.89740556542283,36.881488192322735,146.84002953210032,135.0125023564017,-0.0125946998596191,0.0916610211133956,0,0,0
12463,421907.37744643074,2010-09-05 10:42:16,60.0145856634998,8,35,0.0,3.425515651702881,36.89740556542283,36.881488192322735,146.84002953210032,135.0125023564017,0.0012627125252038,0.0916610211133956,0,0,0
12464,421907.57982842217,2010-09-05 10:42:17,0.187728211465499,9,35,-1.9243103452026844e-05,3.4260013103485107,36.89740556542283,36.8814881933262,146.84002953210032,135.0125023598396,0.0,0.0859051570296287,0,0,0
12465,421912.4076985901,2010-09-05 10:42:21,5.015598379422562,9,35,0.0005225847125984,3.43344783782959,36.897406181975214,36.88148819340926,146.84003164697785,135.0125023601242,0.0011331557761877,0.0859051570296287,0,0,0
