Data_Point,Test_Time(s),Date_Time,Step_Time(s),Step_Index,Cycle_Index,Current(A),Voltage(V),Charge_Capacity(Ah),Discharge_Capacity(Ah),Charge_Energy(Wh),Discharge_Energy(Wh),dV/dt(V/s),Internal_Resistance(Ohm),Is_FC_Data,AC_Impedance(Ohm),ACI_Phase_Angle(Deg)
6847,230399.90767111012,2010-09-03 05:30:09,30.015275697507636,1,20,0.0,3.458540201187134,20.26299732771692,20.262958907340064,80.55691578496486,74.22152770428062,0.0006151676061563,0.0882566422224044,0,0,0
6848,230429.92270182207,2010-09-03 05:30:39,60.03030640943582,1,20,0.0,3.4765095710754395,20.26299732771692,20.262958907340064,80.55691578496486,74.22152770428062,0.0004209041653666,0.0882566422224044,0,0,0
6849,230459.93796839184,2010-09-03 05:31:09,90.0455729842068,1,20,0.0,3.4894604682922363,20.26299732771692,20.262958907340064,80.55691578496486,74.22152770428062,0.0002913951757363,0.0882566422224044,0,0,0
6850,230489.90610958563,2010-09-03 05:31:39,120.0137141830408,1,20,0.0,3.499659299850464,20.26299732771692,20.262958907340064,80.55691578496486,74.22152770428062,0.0002590179501567,0.0882566422224044,0,0,0
6851,230519.923439194,2010-09-03 05:32:09,30.015138355208364,2,20,0.5499359965324402,3.6288440227508554,20.267583734358016,20.262958907340064,80.57343298540714,74.22152770428062,0.0012627125252038,0.0882566422224044,0,0,0
6852,230549.93865372907,2010-09-03 05:32:39,60.03035291534285,2,20,0.5501165986061096,3.666563510894776,20.272170206303464,20.262958907340064,80.59016806464811,74.22152770428062,0.0008418083307333,0.0882566422224044,0,0,0
6853,230579.9538358684,2010-09-03 05:33:09,90.0455350697122,2,20,0.5501165986061096,3.69456958770752,20.27675654270841,20.262958907340064,80.6070511041387,74.22152770428062,0.0006475448608398,0.0882566422224044,0,0,0
6854,230609.9689761334,2010-09-03 05:33:39,120.06067530460533,2,20,0.550297200679779,3.717233657836914,20.281342920501647,20.262958907340064,80.6240494390116,74.22152770428062,0.0005827903514727,0.0882566422224044,0,0,0
6855,230639.984044434,2010-09-03 05:34:09,150.07574362526603,2,20,0.5501165986061096,3.73520302772522,20.285929262915985,20.262958907340064,80.64114027336235,74.22152770428062,0.0004532813909463,0.0882566422224044,0,0,0
6856,230669.9994002211,2010-09-03 05:34:39,180.09109939233167,2,20,0.5501165986061096,3.748801469802856,20.29051560185312,20.262958907340064,80.65830377543826,74.22152770428062,0.0003237724304199,0.0882566422224044,0,0,0
6857,230700.01446019096,2010-09-03 05:35:09,210.1061593571671,2,20,0.5501165986061096,3.757381200790405,20.295101900102296,20.262958907340064,80.67551851787506,74.22152770428062,0.0001618862152099,0.0882566422224044,0,0,0
6858,230730.02955050644,2010-09-03 05:35:39,240.1212496676332,2,20,0.5499359965324402,3.762561559677124,20.299688251860832,20.262958907340064,80.69276462167288,74.22152770428062,9.713172767078504e-05,0.0882566422224044,0,0,0
6859,230760.04478906136,2010-09-03 05:36:09,270.13648823259507,2,20,0.5499359965324402,3.766284942626953,20.304274611435865,20.262958907340064,80.71003035591777,74.22152770428062,6.47544875391759e-05,0.0882566422224044,0,0,0
6860,230790.05993852927,2010-09-03 05:36:39,300.15163770049975,2,20,0.5501165986061096,3.769522666931152,20.308860967332876,20.262958907340064,80.72731158950641,74.22152770428062,6.47544875391759e-05,0.0882566422224044,0,0,0
6861,230820.07494093064,2010-09-03 05:37:09,330.1666400868318,2,20,0.5501165986061096,3.7725985050201416,20.313447281202716,20.262958907340064,80.74460691985739,74.22152770428062,0.0001295089750783,0.0882566422224044,0,0,0
6862,230850.0901723829,2010-09-03 05:37:39,360.18187157415406,2,20,0.5499359965324402,3.775512456893921,20.31803355009838,20.262958907340064,80.76191603174344,74.22152770428062,3.237724376958795e-05,0.0882566422224044,0,0,0
6863,230880.10522721996,2010-09-03 05:38:09,390.1969263811346,2,20,0.5499359965324402,3.77858829498291,20.32261982394244,20.262958907340064,80.77923897848734,74.22152770428062,6.47544875391759e-05,0.0882566422224044,0,0,0
6864,230910.12038019652,2010-09-03 05:38:39,420.212079357784,2,20,0.5501165986061096,3.7815022468566895,20.327206142982792,20.262958907340064,80.79657599454625,74.22152770428062,3.237724376958795e-05,0.0882566422224044,0,0,0
6865,230940.13579061488,2010-09-03 05:39:09,450.2274897810698,2,20,0.5499359965324402,3.784578084945679,20.33179253410032,20.262958907340064,80.81392707759365,74.22152770428062,3.237724376958795e-05,0.0882566422224044,0,0,0
6866,230970.15072814457,2010-09-03 05:39:39,480.2424273308091,2,20,0.550297200679779,3.787815809249878,20.336378764810764,20.262958907340064,80.8312913602704,74.22152770428062,9.713172767078504e-05,0.0882566422224044,0,0,0
6867,231000.16583074065,2010-09-03 05:40:09,510.2575299018323,2,20,0.5499359965324402,3.790729761123657,20.34096512163732,20.262958907340064,80.84866992616277,74.22152770428062,9.713172767078504e-05,0.0882566422224044,0,0,0
6868,231030.1809727299,2010-09-03 05:40:39,540.2726719061353,2,20,0.5501165986061096,3.7938055992126474,20.345551426181604,20.262958907340064,80.86606198593063,74.22152770428062,0.0001295089750783,0.0882566422224044,0,0,0
6869,231060.1991448111,2010-09-03 05:41:09,570.2908440725346,2,20,0.5501165986061096,3.796719551086426,20.35013826960936,20.262958907340064,80.88346986110328,74.22152770428062,9.713172767078504e-05,0.0882566422224044,0,0,0
6870,231090.2114452483,2010-09-03 05:41:40,600.3031444195533,2,20,0.5499359965324402,3.799471616744995,20.354724123541843,20.262958907340064,80.90088763218407,74.22152770428062,9.713172767078504e-05,0.0882566422224044,0,0,0
6871,231120.22670474043,2010-09-03 05:42:10,630.3184039016472,2,20,0.5499359965324402,3.8027093410491934,20.359310509309143,20.262958907340064,80.9183211250131,74.22152770428062,9.713172767078504e-05,0.0882566422224044,0,0,0
6872,231150.24170911676,2010-09-03 05:42:40,660.3334083030013,2,20,0.5501165986061096,3.8056232929229736,20.36389676076152,20.262958907340064,80.93576799576121,74.22152770428062,6.47544875391759e-05,0.0882566422224044,0,0,0
6873,231180.2567900739,2010-09-03 05:43:10,690.3484892300811,2,20,0.5501165986061096,3.808861017227173,20.36848313473467,20.262958907340064,80.95322955793438,74.22152770428062,6.47544875391759e-05,0.0882566422224044,0,0,0
6874,231210.2718724095,2010-09-03 05:43:40,720.3635715706838,2,20,0.5501165986061096,3.811936855316162,20.3730694731512,20.262958907340064,80.97070544169371,74.22152770428062,6.47544875391759e-05,0.0882566422224044,0,0,0
6875,231240.28711535537,2010-09-03 05:44:10,750.3788146017768,2,20,0.5501165986061096,3.815174579620361,20.37765586359084,20.262958907340064,80.98819650021117,74.22152770428062,9.713172767078504e-05,0.0882566422224044,0,0,0
6876,231270.30220041776,2010-09-03 05:44:40,780.393899583963,2,20,0.550297200679779,3.818736076354981,20.38224218020729,20.262958907340064,81.00570265062333,74.22152770428062,9.713172767078504e-05,0.0882566422224044,0,0,0
6877,231300.31734314383,2010-09-03 05:45:10,810.4090423050526,2,20,0.550297200679779,3.8222975730896,20.38682845173475,20.262958907340064,81.02322437602757,74.22152770428062,0.0001295089750783,0.0882566422224044,0,0,0
6878,231330.33260510716,2010-09-03 05:45:40,840.4243042783554,2,20,0.5501165986061096,3.825697183609009,20.391414734227343,20.262958907340064,81.04076200108105,74.22152770428062,9.713172767078504e-05,0.0882566422224044,0,0,0
6879,231360.3476154132,2010-09-03 05:46:10,870.4393145794132,2,20,0.5499359965324402,3.829096794128418,20.3960010207695,20.262958907340064,81.05831574849103,74.22152770428062,6.47544875391759e-05,0.0882566422224044,0,0,0
6880,231390.3630318164,2010-09-03 05:46:40,900.4547310126777,2,20,0.5501165986061096,3.832658290863037,20.400587380239777,20.262958907340064,81.0758859903631,74.22152770428062,9.713172767078504e-05,0.0882566422224044,0,0,0
6881,231420.37814225705,2010-09-03 05:47:10,930.4698414182268,2,20,0.5499359965324402,3.836057662963867,20.405173710185103,20.262958907340064,81.09347209843938,74.22152770428062,6.47544875391759e-05,0.0882566422224044,0,0,0
6882,231450.39314439276,2010-09-03 05:47:40,960.4848435840092,2,20,0.5501165986061096,3.8396191596984863,20.40975999489555,20.262958907340064,81.1110738476927,74.22152770428062,9.713172767078504e-05,0.0882566422224044,0,0,0
6883,231480.40833767483,2010-09-03 05:48:10,990.50003684105,2,20,0.5499359965324402,3.8428568840026855,20.41434632034595,20.262958907340064,81.12869117296229,74.22152770428062,6.47544875391759e-05,0.0882566422224044,0,0,0
6884,231510.42336084292,2010-09-03 05:48:40,1020.5150600141892,2,20,0.5501165986061096,3.846256494522095,20.41893259518644,20.262958907340064,81.14632334835326,74.22152770428062,0.0001295089750783,0.0882566422224044,0,0,0
6885,231540.4386538837,2010-09-03 05:49:10,1050.5303530448966,2,20,0.5501165986061096,3.849170446395874,20.4235189207245,20.262958907340064,81.1639706180164,74.22152770428062,3.237724376958795e-05,0.0882566422224044,0,0,0
6886,231570.45378985297,2010-09-03 05:49:40,1080.545489009146,2,20,0.5501165986061096,3.852570056915283,20.42810521143486,20.262958907340064,81.18163230045289,74.22152770428062,9.713172767078504e-05,0.0882566422224044,0,0,0
6887,231600.4688530208,2010-09-03 05:50:10,1110.5605521819766,2,20,0.5501165986061096,3.8558077812194815,20.43269156444737,20.262958907340064,81.19930850024504,74.22152770428062,9.713172767078504e-05,0.0882566422224044,0,0,0
6888,231630.4839570956,2010-09-03 05:50:40,1140.5756562517352,2,20,0.5501165986061096,3.858559846878052,20.43727782799249,20.262958907340064,81.21699845162128,74.22152770428062,6.47544875391759e-05,0.0882566422224044,0,0,0
6889,231660.49911719497,2010-09-03 05:51:10,1170.5908163561492,2,20,0.5501165986061096,3.861473798751831,20.441864145607347,20.262958907340064,81.23470213221228,74.22152770428062,3.237724376958795e-05,0.0882566422224044,0,0,0
6890,231690.5142489938,2010-09-03 05:51:40,1200.6059481800796,2,20,0.5501165986061096,3.86454963684082,20.44645049492407,20.262958907340064,81.25241904737514,74.22152770428062,0.0001295089750783,0.0882566422224044,0,0,0
6891,231720.52953039057,2010-09-03 05:52:10,1230.6212295567414,2,20,0.5501165986061096,3.86713981628418,20.451036836855177,20.262958907340064,81.27014833717249,74.22152770428062,9.713172767078504e-05,0.0882566422224044,0,0,0
6892,231750.54468018925,2010-09-03 05:52:40,1260.6363793654957,2,20,0.5501165986061096,3.869568109512329,20.45562309201057,20.262958907340064,81.2878890649862,74.22152770428062,9.713172767078504e-05,0.0882566422224044,0,0,0
6893,231780.55978938172,2010-09-03 05:53:10,1290.651488547997,2,20,0.5501165986061096,3.871834516525269,20.46020940316748,20.262958907340064,81.30564109422625,74.22152770428062,6.47544875391759e-05,0.0882566422224044,0,0,0
6894,231810.57486388285,2010-09-03 05:53:40,1320.6665630440482,2,20,0.5501165986061096,3.874100923538208,20.464795690968025,20.262958907340064,81.32340339421827,74.22152770428062,6.47544875391759e-05,0.0882566422224044,0,0,0
6895,231840.5899870402,2010-09-03 05:54:10,1350.6816862013789,2,20,0.5501165986061096,3.876043558120728,20.46938202549568,20.262958907340064,81.34117525644756,74.22152770428062,3.237724376958795e-05,0.0882566422224044,0,0,0
6896,231870.60513680385,2010-09-03 05:54:40,1380.696835965021,2,20,0.5501165986061096,3.877824306488037,20.473968373653733,20.262958907340064,81.35895600938336,74.22152770428062,6.47544875391759e-05,0.0882566422224044,0,0,0
6897,231900.6202970486,2010-09-03 05:55:10,1410.7119962097845,2,20,0.5499359965324402,3.879281282424927,20.47855473167673,20.262958907340064,81.37674486434175,74.22152770428062,3.237724376958795e-05,0.0882566422224044,0,0,0
6898,231930.63544251653,2010-09-03 05:55:40,1440.7271416777198,2,20,0.5499359965324402,3.8809001445770255,20.48314105603549,20.262958907340064,81.39454085314664,74.22152770428062,3.237724376958795e-05,0.0882566422224044,0,0,0
6899,231960.65060117232,2010-09-03 05:56:10,1470.742300338536,2,20,0.5499359965324402,3.882357120513916,20.487727410127896,20.262958907340064,81.41234372587132,74.22152770428062,0.0,0.0882566422224044,0,0,0
6900,231990.6657278785,2010-09-03 05:56:40,1500.757427039699,2,20,0.5499359965324402,3.8838140964508057,20.492313745456272,20.262958907340064,81.43015274062216,74.22152770428062,3.237724376958795e-05,0.0882566422224044,0,0,0
6901,232020.6810080321,2010-09-03 05:57:10,1530.772707218375,2,20,0.5499359965324402,3.8847854137420654,20.49690016902736,20.262958907340064,81.447967779691,74.22152770428062,0.0,0.0882566422224044,0,0,0
6902,232050.6961155405,2010-09-03 05:57:40,1560.787814731716,2,20,0.5501165986061096,3.886080503463745,20.501486465490977,20.262958907340064,81.46578769242802,74.22152770428062,3.237724376958795e-05,0.0882566422224044,0,0,0
6903,232080.71114037777,2010-09-03 05:58:10,1590.802839538928,2,20,0.5501165986061096,3.887213706970215,20.506072800062107,20.262958907340064,81.48361297246979,74.22152770428062,3.237724376958795e-05,0.0882566422224044,0,0,0
6904,232110.7262917905,2010-09-03 05:58:40,1620.8179909667167,2,20,0.5501165986061096,3.8881850242614746,20.510659217259448,20.262958907340064,81.50144353439158,74.22152770428062,3.237724376958795e-05,0.0882566422224044,0,0,0
6905,232140.74145036607,2010-09-03 05:59:10,1650.8331495272837,2,20,0.5499359965324402,3.8891563415527344,20.51524557355996,20.262958907340064,81.51927874579471,74.22152770428062,0.0,0.0882566422224044,0,0,0
6906,232170.75659635031,2010-09-03 05:59:40,1680.8482955115055,2,20,0.5501165986061096,3.890289545059204,20.519831977019297,20.262958907340064,81.53711883156866,74.22152770428062,6.47544875391759e-05,0.0882566422224044,0,0,0
6907,232200.77173311656,2010-09-03 06:00:10,1710.8634322727414,2,20,0.5501165986061096,3.891422748565674,20.52441836528435,20.262958907340064,81.5549636037031,74.22152770428062,6.47544875391759e-05,0.0882566422224044,0,0,0
6908,232230.7874158034,2010-09-03 06:00:40,1740.8791149746291,2,20,0.550297200679779,3.8923940658569336,20.529004827143595,20.262958907340064,81.57281331991523,74.22152770428062,3.237724376958795e-05,0.0882566422224044,0,0,0
6909,232260.80204466372,2010-09-03 06:01:10,1770.893743850057,2,20,0.5501165986061096,3.893365383148194,20.533591197959787,20.262958907340064,81.59066736741481,74.22152770428062,3.237724376958795e-05,0.0882566422224044,0,0,0
6910,232290.81718422705,2010-09-03 06:01:40,1800.9088834182885,2,20,0.5501165986061096,3.894336700439453,20.538177646235248,20.262958907340064,81.60852640396958,74.22152770428062,3.237724376958795e-05,0.0882566422224044,0,0,0
6911,232320.83238261685,2010-09-03 06:02:10,1830.924081808122,2,20,0.5501165986061096,3.895308017730713,20.542764077826668,20.262958907340064,81.62638956012945,74.22152770428062,3.237724376958795e-05,0.0882566422224044,0,0,0
6912,232350.84771668987,2010-09-03 06:02:40,1860.9394158510445,2,20,0.550297200679779,3.8962793350219727,20.547350454334225,20.262958907340064,81.6442570418606,74.22152770428062,3.237724376958795e-05,0.0882566422224044,0,0,0
6913,232380.86284485465,2010-09-03 06:03:10,1890.9545440208672,2,20,0.5501165986061096,3.897250652313232,20.551936786046287,20.262958907340064,81.66212905613003,74.22152770428062,3.237724376958795e-05,0.0882566422224044,0,0,0
6914,232410.8777727353,2010-09-03 06:03:40,1920.9694718914832,2,20,0.550297200679779,3.898221969604492,20.55652311722966,20.262958907340064,81.68000566494473,74.22152770428062,0.0,0.0882566422224044,0,0,0
6915,232440.89293790236,2010-09-03 06:04:10,1950.9846370635275,2,20,0.5499359965324402,3.899517059326172,20.561109529529,20.262958907340064,81.6978873472631,74.22152770428062,6.47544875391759e-05,0.0882566422224044,0,0,0
6916,232470.9080625484,2010-09-03 06:04:40,1980.9997617145807,2,20,0.5501165986061096,3.900488376617432,20.565695972031097,20.262958907340064,81.71577385924117,74.22152770428062,6.47544875391759e-05,0.0882566422224044,0,0,0
6917,232500.92323071288,2010-09-03 06:05:10,2011.0149298740707,2,20,0.5499359965324402,3.9012978076934814,20.57028235431157,20.262958907340064,81.73366485387758,74.22152770428062,3.237724376958795e-05,0.0882566422224044,0,0,0
6918,232530.938380266,2010-09-03 06:05:40,2041.0300794271875,2,20,0.5501165986061096,3.902431011199951,20.57486873576748,20.262958907340064,81.75156066401817,74.22152770428062,3.237724376958795e-05,0.0882566422224044,0,0,0
6919,232560.95352593943,2010-09-03 06:06:10,2071.045225100635,2,20,0.5501165986061096,3.903564214706421,20.579455172623312,20.262958907340064,81.76946151784776,74.22152770428062,3.237724376958795e-05,0.0882566422224044,0,0,0
6920,232590.9686654124,2010-09-03 06:06:40,2101.0603645786414,2,20,0.5499359965324402,3.90469741821289,20.58404149867459,20.262958907340064,81.78736684940566,74.22152770428062,3.237724376958795e-05,0.0882566422224044,0,0,0
6921,232620.98382033897,2010-09-03 06:07:10,2131.075519495126,2,20,0.550297200679779,3.9056687355041504,20.58862790243545,20.262958907340064,81.80527731166055,74.22152770428062,0.0,0.0882566422224044,0,0,0
6922,232650.99897599223,2010-09-03 06:07:40,2161.090675178522,2,20,0.5501165986061096,3.90680193901062,20.59321431488993,20.262958907340064,81.82319286558273,74.22152770428062,3.237724376958795e-05,0.0882566422224044,0,0,0
6923,232681.01411305423,2010-09-03 06:08:10,2191.1058122154445,2,20,0.5501165986061096,3.90793514251709,20.597800645070137,20.262958907340064,81.84111316772315,74.22152770428062,3.237724376958795e-05,0.0882566422224044,0,0,0
6924,232711.02924050228,2010-09-03 06:08:40,2221.120939668481,2,20,0.550297200679779,3.90906834602356,20.60238702663917,20.262958907340064,81.85903878361913,74.22152770428062,6.47544875391759e-05,0.0882566422224044,0,0,0
6925,232741.0444030227,2010-09-03 06:09:10,2251.136102188917,2,20,0.5501165986061096,3.910201549530029,20.606973390375178,20.262958907340064,81.87696960606559,74.22152770428062,6.47544875391759e-05,0.0882566422224044,0,0,0
6926,232771.0596721338,2010-09-03 06:09:40,2281.1513713100344,2,20,0.5501165986061096,3.911496639251709,20.61155980273604,20.262958907340064,81.89490582201513,74.22152770428062,6.47544875391759e-05,0.0882566422224044,0,0,0
6927,232801.0746832218,2010-09-03 06:10:10,2311.166382408079,2,20,0.5501165986061096,3.9126298427581783,20.616146187200737,20.262958907340064,81.91284729774885,74.22152770428062,6.47544875391759e-05,0.0882566422224044,0,0,0
6928,232831.089836018,2010-09-03 06:10:40,2341.1815351842283,2,20,0.5501165986061096,3.913762807846069,20.620732578116403,20.262958907340064,81.9307941736401,74.22152770428062,3.23295607813634e-05,0.0882566422224044,0,0,0
6929,232861.10500885412,2010-09-03 06:11:10,2371.196708020373,2,20,0.550297200679779,3.914896011352539,20.625319000225563,20.262958907340064,81.94874667399753,74.22152770428062,0.0,0.0882566422224044,0,0,0
6930,232891.12013231224,2010-09-03 06:11:40,2401.211831473441,2,20,0.5501165986061096,3.916029214859009,20.629905395476005,20.262958907340064,81.966704421205,74.22152770428062,3.237724376958795e-05,0.0882566422224044,0,0,0
6931,232921.13529126372,2010-09-03 06:12:10,2431.2269904299947,2,20,0.5497553944587708,3.9171624183654794,20.6344918358316,20.262958907340064,81.98466796539434,74.22152770428062,0.0,0.0882566422224044,0,0,0
6932,232951.15044606497,2010-09-03 06:12:40,2461.242145231191,2,20,0.5501165986061096,3.918457508087158,20.63907822279888,20.262958907340064,82.00263696324825,74.22152770428062,3.237724376958795e-05,0.0882566422224044,0,0,0
6933,232981.1698208136,2010-09-03 06:13:10,2491.261520075033,2,20,0.5501165986061096,3.919752597808838,20.64366527047958,20.262958907340064,82.02061426938653,74.22152770428062,0.0,0.0882566422224044,0,0,0
6934,233011.1808727943,2010-09-03 06:13:41,2521.272571955489,2,20,0.5501165986061096,3.9210476875305176,20.64825110167854,20.262958907340064,82.03859258421105,74.22152770428062,6.47544875391759e-05,0.0882566422224044,0,0,0
6935,233041.19614835648,2010-09-03 06:14:11,2551.287847517659,2,20,0.5499359965324402,3.9221808910369873,20.652837499615263,20.262958907340064,82.05657895643594,74.22152770428062,0.0,0.0882566422224044,0,0,0
6936,233071.21118384527,2010-09-03 06:14:41,2581.3028830115054,2,20,0.5499359965324402,3.923637866973877,20.65742389301864,20.262958907340064,82.07457127665546,74.22152770428062,3.237724376958795e-05,0.0882566422224044,0,0,0
6937,233101.22622671752,2010-09-03 06:15:11,2611.3179258837413,2,20,0.5499359965324402,3.9247710704803462,20.6620102800717,20.262958907340064,82.09256958430704,74.22152770428062,0.0,0.0882566422224044,0,0,0
6938,233131.24132525348,2010-09-03 06:15:41,2641.333024414695,2,20,0.5499359965324402,3.9260661602020255,20.666596722188803,20.262958907340064,82.11057410905077,74.22152770428062,0.0,0.0882566422224044,0,0,0
6939,233161.25647104223,2010-09-03 06:16:11,2671.34817020343,2,20,0.550297200679779,3.927685022354126,20.671183092410303,20.262958907340064,82.12858439811593,74.22152770428062,6.47544875391759e-05,0.0882566422224044,0,0,0
6940,233191.2716166004,2010-09-03 06:16:41,2701.363315786653,2,20,0.550297200679779,3.9289801120758057,20.675769450619388,20.262958907340064,82.14660083023203,74.22152770428062,6.47544875391759e-05,0.0882566422224044,0,0,0
6941,233221.28674232916,2010-09-03 06:17:11,2731.37844149033,2,20,0.5499359965324402,3.9301133155822754,20.680356514353207,20.262958907340064,82.16462632037033,74.22152770428062,-3.237724376958795e-05,0.0882566422224044,0,0,0
6942,233251.3018690403,2010-09-03 06:17:41,2761.3935682315923,2,20,0.550297200679779,3.931570291519165,20.684943882828662,20.262958907340064,82.1826593614282,74.22152770428062,3.237724376958795e-05,0.0882566422224044,0,0,0
6943,233281.31705066332,2010-09-03 06:18:11,2791.4087498295758,2,20,0.5499359965324402,3.933027267456055,20.689531082650145,20.262958907340064,82.20069811361635,74.22152770428062,0.0,0.0882566422224044,0,0,0
6944,233311.33231033097,2010-09-03 06:18:41,2821.424009497131,2,20,0.550297200679779,3.9346461296081534,20.694118447158196,20.262958907340064,82.2187439227324,74.22152770428062,6.47544875391759e-05,0.0882566422224044,0,0,0
6945,233341.3476509352,2010-09-03 06:19:11,2851.439350126469,2,20,0.550297200679779,3.935941219329834,20.69870584742368,20.262958907340064,82.23679637996062,74.22152770428062,3.237724376958795e-05,0.0882566422224044,0,0,0
6946,233371.3624806312,2010-09-03 06:19:41,2881.454179792329,2,20,0.550297200679779,3.9372363090515137,20.703293133298388,20.262958907340064,82.25485474877757,74.22152770428062,3.237724376958795e-05,0.0882566422224044,0,0,0
6947,233401.37783880412,2010-09-03 06:20:11,2911.469537970403,2,20,0.550297200679779,3.938855171203613,20.707880013464585,20.262958907340064,82.27291821502337,74.22152770428062,3.237724376958795e-05,0.0882566422224044,0,0,0
6948,233431.39280009308,2010-09-03 06:20:41,2941.484499279358,2,20,0.5501165986061096,3.940150260925293,20.712466496576464,20.262958907340064,82.29098671577935,74.22152770428062,3.237724376958795e-05,0.0882566422224044,0,0,0
6949,233461.40817824096,2010-09-03 06:21:11,2971.499877402141,2,20,0.5501165986061096,3.9417691230773926,20.717053115091677,20.262958907340064,82.30906250692898,74.22152770428062,3.237724376958795e-05,0.0882566422224044,0,0,0
6950,233491.42322772465,2010-09-03 06:21:41,3001.5149269159288,2,20,0.5501165986061096,3.943226099014282,20.721639659843923,20.262958907340064,82.32714478060109,74.22152770428062,3.237724376958795e-05,0.0882566422224044,0,0,0
6951,233521.43837354347,2010-09-03 06:22:11,3031.530072704664,2,20,0.5501165986061096,3.944683074951172,20.72622623363898,20.262958907340064,82.34523401921108,74.22152770428062,3.237724376958795e-05,0.0882566422224044,0,0,0
6952,233551.45349632984,2010-09-03 06:22:41,3061.54519549107,2,20,0.5501165986061096,3.9461400508880615,20.73081275864152,20.262958907340064,82.36332999769137,74.22152770428062,3.237724376958795e-05,0.0882566422224044,0,0,0
6953,233581.4686971608,2010-09-03 06:23:11,3091.560396327,2,20,0.5501165986061096,3.947758913040161,20.735399293380265,20.262958907340064,82.381432860996,74.22152770428062,3.237724376958795e-05,0.0882566422224044,0,0,0
6954,233611.48366429927,2010-09-03 06:23:41,3121.5753634604707,2,20,0.5499359965324402,3.949215888977051,20.739985775553286,20.262958907340064,82.39954256088122,74.22152770428062,0.0,0.0882566422224044,0,0,0
6955,233641.4988637668,2010-09-03 06:24:11,3151.5905629279896,2,20,0.5501165986061096,3.9508347511291504,20.74457231302464,20.262958907340064,82.41765956010158,74.22152770428062,6.47544875391759e-05,0.0882566422224044,0,0,0
6956,233671.51393352103,2010-09-03 06:24:41,3181.6056327072856,2,20,0.5501165986061096,3.95245361328125,20.74915889996364,20.262958907340064,82.43578396231342,74.22152770428062,9.713172767078504e-05,0.0882566422224044,0,0,0
6957,233701.5291217756,2010-09-03 06:25:11,3211.6208209367965,2,20,0.5501165986061096,3.9540724754333496,20.75374551166093,20.262958907340064,82.45391573479516,74.22152770428062,6.47544875391759e-05,0.0882566422224044,0,0,0
6958,233731.54424301817,2010-09-03 06:25:41,3241.635942194392,2,20,0.5501165986061096,3.9555294513702393,20.758332115653676,20.262958907340064,82.47205475325983,74.22152770428062,3.237724376958795e-05,0.0882566422224044,0,0,0
6959,233761.5593903357,2010-09-03 06:26:11,3271.651089521962,2,20,0.5501165986061096,3.957310199737549,20.762918744854066,20.262958907340064,82.49020124356826,74.22152770428062,6.47544875391759e-05,0.0882566422224044,0,0,0
6960,233791.5745412021,2010-09-03 06:26:41,3301.66624036329,2,20,0.5501165986061096,3.9587671756744394,20.767505357521912,20.262958907340064,82.5083550501014,74.22152770428062,0.0,0.0882566422224044,0,0,0
6961,233821.589747231,2010-09-03 06:27:11,3331.681446387149,2,20,0.5501165986061096,3.960547924041748,20.772091954625346,20.262958907340064,82.5265163753494,74.22152770428062,6.47544875391759e-05,0.0882566422224044,0,0,0
6962,233851.6048583533,2010-09-03 06:27:41,3361.6965575144977,2,20,0.5499359965324402,3.961843013763428,20.77667847658651,20.262958907340064,82.54468511112042,74.22152770428062,0.0,0.0882566422224044,0,0,0
6963,233881.6199792951,2010-09-03 06:28:11,3391.711678461319,2,20,0.5497553944587708,3.9637856483459473,20.78126504343485,20.262958907340064,82.56286174932899,74.22152770428062,0.0,0.0882566422224044,0,0,0
6964,233911.63515771017,2010-09-03 06:28:41,3421.7268568964187,2,20,0.5501165986061096,3.965566396713257,20.78585164807868,20.262958907340064,82.58104646079757,74.22152770428062,3.237724376958795e-05,0.0882566422224044,0,0,0
6965,233941.65032078692,2010-09-03 06:29:11,3451.7420199531907,2,20,0.5501165986061096,3.9673471450805664,20.790438276359623,20.262958907340064,82.59923929385073,74.22152770428062,3.237724376958795e-05,0.0882566422224044,0,0,0
6966,233971.66542743315,2010-09-03 06:29:41,3481.757126624433,2,20,0.5501165986061096,3.969127893447876,20.795024892954142,20.262958907340064,82.61744007557955,74.22152770428062,0.0,0.0882566422224044,0,0,0
6967,234001.68056141245,2010-09-03 06:30:11,3511.7722605736603,2,20,0.5499359965324402,3.9709086418151855,20.799611458210432,20.262958907340064,82.63564886596143,74.22152770428062,0.0,0.0882566422224044,0,0,0
6968,234031.69571144172,2010-09-03 06:30:41,3541.787410628027,2,20,0.550297200679779,3.972689390182495,20.8041980970418,20.262958907340064,82.65386628222272,74.22152770428062,3.237724376958795e-05,0.0882566422224044,0,0,0
6969,234061.71087370155,2010-09-03 06:31:11,3571.8025728627504,2,20,0.5499359965324402,3.9744701385498047,20.808784743421057,20.262958907340064,82.67209212233041,74.22152770428062,3.237724376958795e-05,0.0882566422224044,0,0,0
6970,234091.72598500436,2010-09-03 06:31:41,3601.8176841655354,2,20,0.5501165986061096,3.976574659347534,20.81337137922679,20.262958907340064,82.69032645258703,74.22152770428062,6.47544875391759e-05,0.0882566422224044,0,0,0
6971,234121.7412700652,2010-09-03 06:32:11,3631.8329692564544,2,20,0.5501165986061096,3.978031635284424,20.81795816025412,20.262958907340064,82.70856964755683,74.22152770428062,3.237724376958795e-05,0.0882566422224044,0,0,0
6972,234151.75626287263,2010-09-03 06:32:41,3661.84796203885,2,20,0.5501165986061096,3.9802980422973633,20.822544691827204,20.262958907340064,82.72682077425732,74.22152770428062,6.47544875391759e-05,0.0882566422224044,0,0,0
6973,234181.77147722727,2010-09-03 06:33:11,3691.863176388461,2,20,0.5501165986061096,3.982240676879883,20.82713117392152,20.262958907340064,82.74508058416644,74.22152770428062,3.237724376958795e-05,0.0882566422224044,0,0,0
6974,234211.78655841493,2010-09-03 06:33:41,3721.8782575761898,2,20,0.5499359965324402,3.9841833114624015,20.831717579984645,20.262958907340064,82.76334895895216,74.22152770428062,9.713172767078504e-05,0.0882566422224044,0,0,0
6975,234241.8017284241,2010-09-03 06:34:11,3751.8934275852894,2,20,0.5499359965324402,3.985964059829712,20.836303979816343,20.262958907340064,82.78162625530663,74.22152770428062,3.237724376958795e-05,0.0882566422224044,0,0,0
6976,234271.81700951004,2010-09-03 06:34:41,3781.9087086712266,2,20,0.5499359965324402,3.9880685806274414,20.84089042107063,20.262958907340064,82.79991275367588,74.22152770428062,3.237724376958795e-05,0.0882566422224044,0,0,0
6977,234301.832242461,2010-09-03 06:35:11,3811.9239416221967,2,20,0.5501165986061096,3.990011215209961,20.845476835260023,20.262958907340064,82.81820807905474,74.22152770428062,3.237724376958795e-05,0.0882566422224044,0,0,0
6978,234331.84719140417,2010-09-03 06:35:41,3841.9388905553074,2,20,0.5501165986061096,3.9921157360076895,20.85006319899349,20.262958907340064,82.8365123294872,74.22152770428062,6.47544875391759e-05,0.0882566422224044,0,0,0
6979,234361.8623178246,2010-09-03 06:36:11,3871.954016990808,2,20,0.5501165986061096,3.994058132171631,20.854649611865582,20.262958907340064,82.85482596029931,74.22152770428062,6.470680091297254e-05,0.0882566422224044,0,0,0
6980,234391.87746639023,2010-09-03 06:36:41,3901.969165551451,2,20,0.550297200679779,3.99616265296936,20.85923608296805,20.262958907340064,82.87314905642577,74.22152770428062,9.713172767078504e-05,0.0882566422224044,0,0,0
6981,234421.89262883048,2010-09-03 06:37:11,3931.984327996699,2,20,0.5501165986061096,3.99826717376709,20.863822621644186,20.262958907340064,82.89148179686892,74.22152770428062,6.47544875391759e-05,0.0882566422224044,0,0,0
6982,234451.9077597672,2010-09-03 06:37:41,3961.9994589284074,2,20,0.5501165986061096,4.000209808349609,20.86840911347431,20.262958907340064,82.90982356529156,74.22152770428062,3.23295607813634e-05,0.0882566422224044,0,0,0
6983,234481.9229052151,2010-09-03 06:38:11,3992.0146043712793,2,20,0.5499359965324402,4.001990795135498,20.87299560246162,20.262958907340064,82.9281748007625,74.22152770428062,3.24249267578125e-05,0.0882566422224044,0,0,0
6984,234511.9380529637,2010-09-03 06:38:41,4022.029752129924,2,20,0.5501165986061096,4.0042572021484375,20.877582122450463,20.262958907340064,82.94653563615582,74.22152770428062,3.24249267578125e-05,0.0882566422224044,0,0,0
6985,234541.95322058187,2010-09-03 06:39:11,4052.044919743052,2,20,0.5501165986061096,4.006361484527588,20.88216858888613,20.262958907340064,82.96490581276943,74.22152770428062,6.47544875391759e-05,0.0882566422224044,0,0,0
6986,234571.9683461602,2010-09-03 06:39:41,4082.060045321417,2,20,0.5501165986061096,4.0084662437438965,20.88675504395743,20.262958907340064,82.98328560059467,74.22152770428062,3.24249267578125e-05,0.0882566422224044,0,0,0
6987,234601.98348873595,2010-09-03 06:40:11,4112.075187907169,2,20,0.5501165986061096,4.010570526123047,20.89134150843868,20.262958907340064,83.00167504316454,74.22152770428062,3.23295607813634e-05,0.0882566422224044,0,0,0
6988,234631.99866816856,2010-09-03 06:40:41,4142.090367329729,2,20,0.5501165986061096,4.012836933135986,20.89592792481036,20.262958907340064,83.0200741491644,74.22152770428062,9.70840483205393e-05,0.0882566422224044,0,0,0
6989,234662.01379694988,2010-09-03 06:41:11,4172.105496121102,2,20,0.5501165986061096,4.014941692352295,20.900514364289418,20.262958907340064,83.03848326239851,74.22152770428062,3.24249267578125e-05,0.0882566422224044,0,0,0
6990,234692.02905485305,2010-09-03 06:41:41,4202.120754014236,2,20,0.5501165986061096,4.017045974731445,20.90510075440094,20.262958907340064,83.05690212595597,74.22152770428062,3.23295607813634e-05,0.0882566422224044,0,0,0
6991,234722.0440720964,2010-09-03 06:42:11,4232.135771262609,2,20,0.5499359965324402,4.019150733947754,20.909687261596705,20.262958907340064,83.07533162744204,74.22152770428062,3.24249267578125e-05,0.0882566422224044,0,0,0
6992,234752.0593751771,2010-09-03 06:42:41,4262.151074368426,2,20,0.5501165986061096,4.021417140960693,20.914273789735333,20.262958907340064,83.09377123795439,74.22152770428062,3.24249267578125e-05,0.0882566422224044,0,0,0
6993,234782.07437475148,2010-09-03 06:43:11,4292.166073912675,2,20,0.5501165986061096,4.023683547973633,20.91886027047884,20.262958907340064,83.1122209716966,74.22152770428062,6.47544875391759e-05,0.0882566422224044,0,0,0
6994,234812.08972450852,2010-09-03 06:43:41,4322.181423664749,2,20,0.5501165986061096,4.025949954986572,20.923446817292596,20.262958907340064,83.13068128607885,74.22152770428062,3.24249267578125e-05,0.0882566422224044,0,0,0
6995,234842.10478290447,2010-09-03 06:44:11,4352.196482070699,2,20,0.550297200679779,4.028378009796143,20.928033299119537,20.262958907340064,83.14915186316728,74.22152770428062,6.47544875391759e-05,0.0882566422224044,0,0,0
6996,234872.1198011303,2010-09-03 06:44:41,4382.211500291495,2,20,0.550297200679779,4.030644416809082,20.932619731046028,20.262958907340064,83.16763275986968,74.22152770428062,6.47544875391759e-05,0.0882566422224044,0,0,0
6997,234902.1357006225,2010-09-03 06:45:11,4412.227399793717,2,20,0.5501165986061096,4.0330729484558105,20.93720629807825,20.262958907340064,83.18612489631559,74.22152770428062,9.71794142969884e-05,0.0882566422224044,0,0,0
6998,234932.1373793021,2010-09-03 06:45:41,4442.229078583547,2,20,0.5501165986061096,4.035338878631592,20.94179073994885,20.262958907340064,83.20461924692096,74.22152770428062,6.47544875391759e-05,0.0882566422224044,0,0,0
6999,234962.1497873124,2010-09-03 06:46:12,4472.241486493646,2,20,0.5501165986061096,4.037605285644531,20.946376799515047,20.262958907340064,83.22313101159978,74.22152770428062,3.23295607813634e-05,0.0882566422224044,0,0,0
7000,234992.1651072201,2010-09-03 06:46:42,4502.256806471513,2,20,0.5501165986061096,4.04003381729126,20.950963281021128,20.262958907340064,83.24165551283704,74.22152770428062,3.24249267578125e-05,0.0882566422224044,0,0,0
7001,235022.18016683907,2010-09-03 06:47:12,4532.271866005274,2,20,0.5501165986061096,4.04246187210083,20.9555497203722,20.262958907340064,83.26019092602517,74.22152770428062,3.23295607813634e-05,0.0882566422224044,0,0,0
7002,235052.19543273217,2010-09-03 06:47:42,4562.287131918397,2,20,0.5501165986061096,4.0450520515441895,20.96013619603031,20.262958907340064,83.27873775803555,74.22152770428062,9.70840483205393e-05,0.0882566422224044,0,0,0
7003,235082.21020647863,2010-09-03 06:48:12,4592.3019056448375,2,20,0.5499359965324402,4.047480583190918,20.96472265932181,20.262958907340064,83.29729593862906,74.22152770428062,3.24249267578125e-05,0.0882566422224044,0,0,0
7004,235112.2253807584,2010-09-03 06:48:42,4622.317079924582,2,20,0.550297200679779,4.050070762634277,20.969309158540497,20.262958907340064,83.31586577490532,74.22152770428062,6.47544875391759e-05,0.0882566422224044,0,0,0
7005,235142.24053082275,2010-09-03 06:49:12,4652.332229993985,2,20,0.5501165986061096,4.052660942077637,20.97389564362174,20.262958907340064,83.33444709665817,74.22152770428062,9.71794142969884e-05,0.0882566422224044,0,0,0
7006,235172.2556824761,2010-09-03 06:49:42,4682.347381637312,2,20,0.5501165986061096,4.055088996887207,20.978482161726323,20.262958907340064,83.3530402949894,74.22152770428062,6.47544875391759e-05,0.0882566422224044,0,0,0
7007,235202.27081302187,2010-09-03 06:50:12,4712.362512188069,2,20,0.5501165986061096,4.057841300964356,20.983068660557937,20.262958907340064,83.37164521861072,74.22152770428062,9.71794142969884e-05,0.0882566422224044,0,0,0
7008,235232.2859361441,2010-09-03 06:50:42,4742.377635305299,2,20,0.5501165986061096,4.060431480407715,20.98765520521139,20.262958907340064,83.39026230880768,74.22152770428062,9.71794142969884e-05,0.0882566422224044,0,0,0
7009,235262.30121060356,2010-09-03 06:51:12,4772.392909774747,2,20,0.5499359965324402,4.062859535217285,20.9922417440483,20.262958907340064,83.40889094313474,74.22152770428062,6.47544875391759e-05,0.0882566422224044,0,0,0
7010,235292.3164661007,2010-09-03 06:51:42,4802.408165261883,2,20,0.5501165986061096,4.065611839294434,20.996828213213316,20.262958907340064,83.42753154422171,74.22152770428062,6.47544875391759e-05,0.0882566422224044,0,0,0
7011,235322.33140403137,2010-09-03 06:52:12,4832.423103192573,2,20,0.5501165986061096,4.068363666534424,21.001414652022497,20.262958907340064,83.4461842816503,74.22152770428062,6.47544875391759e-05,0.0882566422224044,0,0,0
7012,235352.3466454785,2010-09-03 06:52:42,4862.438344639718,2,20,0.5499359965324402,4.070953845977783,21.00600105528597,20.262958907340064,83.46484924720474,74.22152770428062,9.70840483205393e-05,0.0882566422224044,0,0,0
7013,235382.3616629675,2010-09-03 06:53:12,4892.45336212869,2,20,0.5501165986061096,4.073706150054932,21.01058749342966,20.262958907340064,83.48352676762039,74.22152770428062,6.47544875391759e-05,0.0882566422224044,0,0,0
7014,235412.3768232824,2010-09-03 06:53:42,4922.468522443629,2,20,0.5499359965324402,4.076457977294922,21.01517388512348,20.262958907340064,83.50221668118283,74.22152770428062,6.47544875391759e-05,0.0882566422224044,0,0,0
7015,235442.3919646351,2010-09-03 06:54:12,4952.483663796307,2,20,0.5501165986061096,4.07921028137207,21.01976034452145,20.262958907340064,83.52091961173643,74.22152770428062,0.0001295089750783,0.0882566422224044,0,0,0
7016,235472.4071232107,2010-09-03 06:54:42,4982.498822371911,2,20,0.5501165986061096,4.08212423324585,21.024346761815263,20.262958907340064,83.53963515451662,74.22152770428062,0.0001295089750783,0.0882566422224044,0,0,0
7017,235502.4222767538,2010-09-03 06:55:12,5012.513975919986,2,20,0.5501165986061096,4.08487606048584,21.0289331973261,20.262958907340064,83.55836372175173,74.22152770428062,6.47544875391759e-05,0.0882566422224044,0,0,0
7018,235532.4374333294,2010-09-03 06:55:42,5042.529132490592,2,20,0.5501165986061096,4.087628364562988,21.033519695123783,20.262958907340064,83.57710556851339,74.22152770428062,6.47544875391759e-05,0.0882566422224044,0,0,0
7019,235562.45254402063,2010-09-03 06:56:12,5072.5442431768415,2,20,0.5501165986061096,4.090703964233398,21.03810618790647,20.262958907340064,83.59586056411351,74.22152770428062,9.70840483205393e-05,0.0882566422224044,0,0,0
7020,235592.46770991955,2010-09-03 06:56:42,5102.559409090734,2,20,0.5499359965324402,4.093456268310547,21.042692667960104,20.262958907340064,83.61462876496844,74.22152770428062,9.71794142969884e-05,0.0882566422224044,0,0,0
7021,235622.4828346909,2010-09-03 06:57:12,5132.574533857074,2,20,0.5501165986061096,4.096531867980957,21.047279110533808,20.262958907340064,83.63341022452337,74.22152770428062,9.70840483205393e-05,0.0882566422224044,0,0,0
7022,235652.49812344596,2010-09-03 06:57:42,5162.589822607113,2,20,0.5499359965324402,4.099445819854736,21.05186556701915,20.262958907340064,83.65220526439518,74.22152770428062,9.70840483205393e-05,0.0882566422224044,0,0,0
7023,235682.51314392232,2010-09-03 06:58:12,5192.604843083532,2,20,0.550297200679779,4.102359771728516,21.056452071227916,20.262958907340064,83.67101417650565,74.22152770428062,6.47544875391759e-05,0.0882566422224044,0,0,0
7024,235712.52827505453,2010-09-03 06:58:42,5222.619974215738,2,20,0.5501165986061096,4.105435848236084,21.061038530548213,20.262958907340064,83.68983668282225,74.22152770428062,9.71794142969884e-05,0.0882566422224044,0,0,0
7025,235742.5434443669,2010-09-03 06:59:12,5252.635143553163,2,20,0.5501165986061096,4.108511447906494,21.0656250106551,20.262958907340064,83.70867322944291,74.22152770428062,6.47544875391759e-05,0.0882566422224044,0,0,0
7026,235772.55858899772,2010-09-03 06:59:42,5282.65028815895,2,20,0.5499359965324402,4.111749172210693,21.070211478493658,20.262958907340064,83.72752377801432,74.22152770428062,9.70840483205393e-05,0.0882566422224044,0,0,0
7027,235802.5737772423,2010-09-03 07:00:12,5312.6654764335735,2,20,0.5501165986061096,4.114663124084473,21.074797903319578,20.262958907340064,83.74638829164172,74.22152770428062,9.70840483205393e-05,0.0882566422224044,0,0,0
7028,235832.58886942745,2010-09-03 07:00:42,5342.680568593649,2,20,0.5501165986061096,4.117738723754883,21.07938439425969,20.262958907340064,83.7652674479226,74.22152770428062,9.70840483205393e-05,0.0882566422224044,0,0,0
7029,235862.60401222872,2010-09-03 07:01:12,5372.695711389925,2,20,0.5499359965324402,4.120814800262451,21.08397090598191,20.262958907340064,83.78416111487958,74.22152770428062,6.47544875391759e-05,0.0882566422224044,0,0,0
7030,235892.61920795697,2010-09-03 07:01:42,5402.710907118125,2,20,0.5501165986061096,4.124214172363281,21.08855743935613,20.262958907340064,83.8030694785309,74.22152770428062,9.70840483205393e-05,0.0882566422224044,0,0,0
7031,235922.63431205176,2010-09-03 07:02:12,5432.726011212946,2,20,0.5501165986061096,4.1276140213012695,21.093143925873164,20.262958907340064,83.82199244476375,74.22152770428062,9.71794142969884e-05,0.0882566422224044,0,0,0
7032,235952.64947430653,2010-09-03 07:02:42,5462.741173477744,2,20,0.5501165986061096,4.130851745605469,21.09773039744229,20.262958907340064,83.84093029877883,74.22152770428062,9.71794142969884e-05,0.0882566422224044,0,0,0
7033,235982.66459897265,2010-09-03 07:03:12,5492.75629813381,2,20,0.5501165986061096,4.133927345275879,21.102316875010366,20.262958907340064,83.85988324772379,74.22152770428062,9.70840483205393e-05,0.0882566422224044,0,0,0
7034,236012.6797702198,2010-09-03 07:03:42,5522.771469380995,2,20,0.5501165986061096,4.137327194213867,21.106903376232182,20.262958907340064,83.87885151125246,74.22152770428062,9.71794142969884e-05,0.0882566422224044,0,0,0
7035,236042.69490377305,2010-09-03 07:04:12,5552.786602934236,2,20,0.5501165986061096,4.140726566314697,21.11148992712113,20.262958907340064,83.89783533770989,74.22152770428062,9.70840483205393e-05,0.0882566422224044,0,0,0
7036,236072.7101680922,2010-09-03 07:04:42,5582.80186726341,2,20,0.5501165986061096,4.1439642906188965,21.11607651069388,20.262958907340064,83.91683473777536,74.22152770428062,9.70840483205393e-05,0.0882566422224044,0,0,0
7037,236102.7252859463,2010-09-03 07:05:12,5612.816985227798,2,20,0.5501165986061096,4.147687911987305,21.12066294460232,20.262958907340064,83.93584949745185,74.22152770428062,0.0001295089750783,0.0882566422224044,0,0,0
7038,236132.74035405644,2010-09-03 07:05:42,5642.832053222647,2,20,0.5501165986061096,4.151087284088135,21.12524937484604,20.262958907340064,83.95487999662323,74.22152770428062,9.70840483205393e-05,0.0882566422224044,0,0,0
7039,236162.75550059203,2010-09-03 07:06:12,5672.847199783306,2,20,0.550297200679779,4.154648780822754,21.12983579109591,20.262958907340064,83.97392630937522,74.22152770428062,0.0001295089750783,0.0882566422224044,0,0,0
7040,236192.7706257694,2010-09-03 07:06:42,5702.8623249305965,2,20,0.550297200679779,4.158048629760742,21.134422174300138,20.262958907340064,83.99298848976088,74.22152770428062,9.71794142969884e-05,0.0882566422224044,0,0,0
7041,236222.7859051812,2010-09-03 07:07:12,5732.877604352386,2,20,0.5501165986061096,4.161610126495361,21.139008603177796,20.262958907340064,84.01206701665933,74.22152770428062,0.0001295089750783,0.0882566422224044,0,0,0
7042,236252.80114105943,2010-09-03 07:07:42,5762.892840220627,2,20,0.5501165986061096,4.165009498596191,21.14359497692556,20.262958907340064,84.03116154200822,74.22152770428062,9.70840483205393e-05,0.0882566422224044,0,0,0
7043,236282.81607133604,2010-09-03 07:08:12,5792.907770522302,2,20,0.5501165986061096,4.1687331199646,21.148180492066317,20.262958907340064,84.0502687431006,74.22152770428062,9.71794142969884e-05,0.0882566422224044,0,0,0
7044,236312.83122906453,2010-09-03 07:08:42,5822.922928250794,2,20,0.5501165986061096,4.17245626449585,21.152766079596752,20.262958907340064,84.06939279343376,74.22152770428062,0.0001295089750783,0.0882566422224044,0,0,0
7045,236342.84636140976,2010-09-03 07:09:12,5852.938060570962,2,20,0.5501165986061096,4.176017761230469,21.157351702711317,20.262958907340064,84.0885337529546,74.22152770428062,9.70840483205393e-05,0.0882566422224044,0,0,0
7046,236372.86158810515,2010-09-03 07:09:42,5882.953287281378,2,20,0.550297200679779,4.179579257965088,21.16193737873882,20.262958907340064,84.10769176039204,74.22152770428062,0.0001295089750783,0.0882566422224044,0,0,0
7047,236402.876787297,2010-09-03 07:10:12,5912.968486578473,2,20,0.5501165986061096,4.183140754699707,21.166523853819577,20.262958907340064,84.12687016164601,74.22152770428062,6.47544875391759e-05,0.0882566422224044,0,0,0
7048,236432.8918941286,2010-09-03 07:10:42,5942.983593284803,2,20,0.5501165986061096,4.187188148498535,21.171110285055697,20.262958907340064,84.14606546649178,74.22152770428062,9.71794142969884e-05,0.0882566422224044,0,0,0
7049,236462.9069640332,2010-09-03 07:11:12,5972.998663194423,2,20,0.5499359965324402,4.190911293029785,21.1756966242848,20.262958907340064,84.16527765312739,74.22152770428062,9.70840483205393e-05,0.0882566422224044,0,0,0
7050,236492.92218515967,2010-09-03 07:11:42,6003.013884320923,2,20,0.5499359965324402,4.194634914398193,21.18028308060304,20.262958907340064,84.18450773752161,74.22152770428062,9.71794142969884e-05,0.0882566422224044,0,0,0
7051,236522.9372480669,2010-09-03 07:12:12,6033.028947228092,2,20,0.550297200679779,4.198843479156494,21.18486947426812,20.262958907340064,84.20375501746976,74.22152770428062,0.0001618385285837,0.0882566422224044,0,0,0
7052,236533.35908898612,2010-09-03 07:12:23,6043.450788232594,2,20,0.550297200679779,4.200138568878174,21.186461991365405,20.262958907340064,84.21044232679799,74.22152770428062,0.0001618385285837,0.0882566422224044,0,0,0
7053,236563.37873399231,2010-09-03 07:12:53,30.01512052075943,3,20,0.0,4.117577075958252,21.186461991365405,20.262958907340064,84.21044232679799,74.22152770428062,-0.0004208564641885,0.0882566422224044,0,0,0
7054,236593.39382171136,2010-09-03 07:13:23,60.03020824979178,3,20,0.0,4.107054710388184,21.186461991365405,20.262958907340064,84.21044232679799,74.22152770428062,-0.0001942634553415,0.0882566422224044,0,0,0
7055,236623.4089758058,2010-09-03 07:13:53,90.04536233921466,3,20,0.0,4.101064682006836,21.186461991365405,20.262958907340064,84.21044232679799,74.22152770428062,-0.0001295089750783,0.0882566422224044,0,0,0
7056,236653.37725046225,2010-09-03 07:14:23,120.01363699566612,3,20,0.0,4.097017765045166,21.186461991365405,20.262958907340064,84.21044232679799,74.22152770428062,-6.47544875391759e-05,0.0882566422224044,0,0,0
7057,236653.38381758737,2010-09-03 07:14:23,2.736821e-06,4,20,1.0032652616500854,4.199976921081543,21.18646199212812,20.262958907340064,84.21044233000136,74.22152770428062,0.0,0.0882566422224044,0,0,0
7058,236654.35257771067,2010-09-03 07:14:24,0.968762875165798,4,20,0.9521528482437134,4.199653148651123,21.186723583644177,20.262958907340064,84.21154095787574,74.22152770428062,-6.47544875391759e-05,0.0882566422224044,0,0,0
7059,236656.52458275057,2010-09-03 07:14:26,3.140767920046886,4,20,0.9015822410583496,4.199653148651123,21.18728179353432,20.262958907340064,84.21388530890437,74.22152770428062,-6.47544875391759e-05,0.0882566422224044,0,0,0
7060,236659.7587529929,2010-09-03 07:14:29,6.37493822758259,4,20,0.8513728976249695,4.199653148651123,21.18806826792369,20.262958907340064,84.2171883236994,74.22152770428062,0.0,0.0882566422224044,0,0,0
7061,236664.0401023979,2010-09-03 07:14:34,10.656287567475864,4,20,0.801344096660614,4.199814796447754,21.18904998316768,20.262958907340064,84.22131131145159,74.22152770428062,3.23295607813634e-05,0.0882566422224044,0,0,0
7062,236669.55552428137,2010-09-03 07:14:39,16.171709440837162,4,20,0.7511347532272339,4.199653148651123,21.19023795423617,20.262958907340064,84.22630053932399,74.22152770428062,-3.23295607813634e-05,0.0882566422224044,0,0,0
7063,236676.586558903,2010-09-03 07:14:46,23.20274404747216,4,20,0.7011059522628784,4.199814796447754,21.19165423006869,20.262958907340064,84.23224862853776,74.22152770428062,0.0,0.0882566422224044,0,0,0
7064,236685.77391304143,2010-09-03 07:14:55,32.39009818586323,4,20,0.6510772109031677,4.199653148651123,21.19337691270261,20.262958907340064,84.23948357740468,74.22152770428062,-3.23295607813634e-05,0.0882566422224044,0,0,0
7065,236698.35186412063,2010-09-03 07:15:08,44.96804926007896,4,20,0.6010484099388123,4.199653148651123,21.19556025103125,20.262958907340064,84.24865319632298,74.22152770428062,-3.23295607813634e-05,0.0882566422224044,0,0,0
7066,236716.94537155723,2010-09-03 07:15:27,63.56155669669021,4,20,0.5510196685791016,4.199814796447754,21.19852679201209,20.262958907340064,84.26111210891332,74.22152770428062,3.23295607813634e-05,0.0882566422224044,0,0,0
7067,236746.8354382153,2010-09-03 07:15:56,93.45162335474568,4,20,0.5009908676147461,4.199814796447754,21.202877752897912,20.262958907340064,84.27938536049528,74.22152770428062,0.0,0.0882566422224044,0,0,0
7068,236799.94396778708,2010-09-03 07:16:50,146.56015292652458,4,20,0.4509621262550354,4.199653148651123,21.20986853702444,20.262958907340064,84.30874533794709,74.22152770428062,-3.23295607813634e-05,0.0882566422224044,0,0,0
7069,236884.2395984709,2010-09-03 07:18:14,230.85578364038065,4,20,0.4009333550930023,4.199653148651123,21.219817312559236,20.262958907340064,84.35052828003535,74.22152770428062,0.0,0.0882566422224044,0,0,0
7070,236998.0033562194,2010-09-03 07:20:08,344.6195413588482,4,20,0.3509045839309692,4.199814796447754,21.23168223167022,20.262958907340064,84.4003587007197,74.22152770428062,0.0,0.0882566422224044,0,0,0
7071,237133.76683340297,2010-09-03 07:22:23,480.3830185373546,4,20,0.3006952106952667,4.199653148651123,21.24395468875173,20.262958907340064,84.45190072444787,74.22152770428062,-3.23295607813634e-05,0.0882566422224044,0,0,0
7072,237298.09229066916,2010-09-03 07:25:08,644.7084758085537,4,20,0.2506664395332336,4.199491024017334,21.25652039005281,20.262958907340064,84.50467426990751,74.22152770428062,-6.47544875391759e-05,0.0882566422224044,0,0,0
7073,237501.77653930377,2010-09-03 07:28:31,848.3927244432277,4,20,0.2006376683712005,4.199653148651123,21.269249625760697,20.262958907340064,84.5581346148371,74.22152770428062,-3.23295607813634e-05,0.0882566422224044,0,0,0
7074,237768.24112471472,2010-09-03 07:32:58,1114.857309854175,4,20,0.1506088972091674,4.199653148651123,21.282176579547723,20.262958907340064,84.61242539229364,74.22152770428062,0.0,0.0882566422224044,0,0,0
7075,238159.7347348257,2010-09-03 07:39:29,1506.3509199651437,4,20,0.1005801260471344,4.199653148651123,21.295662125105064,20.262958907340064,84.66906211921939,74.22152770428062,-3.23295607813634e-05,0.0882566422224044,0,0,0
7076,238876.75468426623,2010-09-03 07:51:26,2223.370869405672,4,20,0.0505513548851013,4.199814796447754,21.310137386093245,20.262958907340064,84.72985549868773,74.22152770428062,0.0,0.0882566422224044,0,0,0
7077,238890.5512268504,2010-09-03 07:51:40,2237.167411994895,4,20,0.0498289167881011,4.199814796447754,21.31033146899012,20.262958907340064,84.73067061296643,74.22152770428062,0.0,0.0882566422224044,0,0,0
7078,238920.5619232754,2010-09-03 07:52:10,30.01528429393257,5,20,0.0,4.192206382751465,21.31033146899012,20.262958907340064,84.73067061296643,74.22152770428062,-3.24249267578125e-05,0.0882566422224044,0,0,0
7079,238950.5613227445,2010-09-03 07:52:40,60.014683752968935,5,20,0.0,4.190911293029785,21.31033146899012,20.262958907340064,84.73067061296643,74.22152770428062,0.0,0.0882566422224044,0,0,0
7080,238950.74180669044,2010-09-03 07:52:41,0.184130083824301,6,20,-1.9243103452026844e-05,4.190911293029785,21.31033146899012,20.262958908324293,84.73067061296643,74.22152770840545,0.0,0.0939245000481605,0,0,0
7081,238955.5695757514,2010-09-03 07:52:46,5.011899265091459,6,20,0.0008838032954372,4.190749645233154,21.31033246811468,20.26295890840635,84.73067480026127,74.22152770874933,-6.47544875391759e-05,0.0939245000481605,0,0,0
7082,238985.5812373236,2010-09-03 07:53:16,30.01529334649434,7,20,-1.099568486213684,4.018341064453125,21.31033246811468,20.27212598469313,84.73067480026127,74.25856214831913,-0.0009713172912597,0.0939245000481605,0,0,0
7083,239015.59628784488,2010-09-03 07:53:46,60.03034386278108,7,20,-1.0997490882873535,3.991630077362061,21.31033246811468,20.28129291268561,84.73067480026127,74.29526729805504,-0.0005503654247149,0.0939245000481605,0,0,0
7084,239045.6113799498,2010-09-03 07:54:16,90.04543597273204,7,20,-1.099568486213684,3.973175048828125,21.31033246811468,20.2904597739644,84.73067480026127,74.33176954248793,-0.0004532813909463,0.0939245000481605,0,0,0
7085,239075.6265165356,2010-09-03 07:54:46,120.0605725485055,7,20,-1.099568486213684,3.9590909481048575,21.31033246811468,20.29962658554508,84.73067480026127,74.36812480108314,-0.0003561496851034,0.0939245000481605,0,0,0
7086,239105.6417902833,2010-09-03 07:55:16,150.0758462961535,7,20,-1.099568486213684,3.947597026824951,21.31033246811468,20.30879348520046,84.73067480026127,74.40436329503083,-0.0002590179501567,0.0939245000481605,0,0,0
7087,239135.65704202105,2010-09-03 07:55:46,180.09109803394614,7,20,-1.0993878841400146,3.9372363090515137,21.31033246811468,20.31796038265622,84.73067480026127,74.44050119043354,-0.0002266406954731,0.0939245000481605,0,0,0
7088,239165.6719645333,2010-09-03 07:56:16,210.10602054620747,7,20,-1.0993878841400146,3.927523136138916,21.31033246811468,20.32712711958004,84.73067480026127,74.47654767665861,-0.0002590179501567,0.0939245000481605,0,0,0
7089,239195.68710318423,2010-09-03 07:56:46,240.12115920216544,7,20,-1.099568486213684,3.918457508087158,21.31033246811468,20.336294016173067,84.73067480026127,74.51251047256576,-0.0002590179501567,0.0939245000481605,0,0,0
7090,239225.70226961444,2010-09-03 07:57:16,270.1363256473827,7,20,-1.0993878841400146,3.910201549530029,21.31033246811468,20.34546087811292,84.73067480026127,74.54839299974465,-0.0001942634553415,0.0939245000481605,0,0,0
7091,239255.71740752857,2010-09-03 07:57:46,300.1514635414418,7,20,-1.099568486213684,3.901945352554321,21.31033246811468,20.354627766442757,84.73067480026127,74.58419819559136,-0.0001942634553415,0.0939245000481605,0,0,0
7092,239285.73254070585,2010-09-03 07:58:16,330.1665967187452,7,20,-1.099568486213684,3.893689155578613,21.31033246811468,20.363794687594684,84.73067480026127,74.61992865852882,-0.0002266406954731,0.0939245000481605,0,0,0
7093,239315.7476850259,2010-09-03 07:58:46,360.1817410287948,7,20,-1.0993878841400146,3.885918617248535,21.31033246811468,20.37296161515648,84.73067480026127,74.65558669153373,-0.0002266406954731,0.0939245000481605,0,0,0
7094,239345.7628411955,2010-09-03 07:59:16,390.1968972084271,7,20,-1.0993878841400146,3.878309965133667,21.31033246811468,20.382128507014286,84.73067480026127,74.69117299490196,-0.0001942634553415,0.0939245000481605,0,0,0
7095,239375.777995315,2010-09-03 07:59:46,420.2120513179,7,20,-1.0993878841400146,3.870539426803589,21.31033246811468,20.391295408103616,84.73067480026127,74.7266893539058,-0.0001942634553415,0.0939245000481605,0,0,0
7096,239405.79313019657,2010-09-03 08:00:16,450.2271862094759,7,20,-1.099568486213684,3.8632545471191406,21.31033246811468,20.40046232436193,84.73067480026127,74.76213686592833,-0.0001618862152099,0.0939245000481605,0,0,0
7097,239435.8083135389,2010-09-03 08:00:46,480.242369551806,7,20,-1.099568486213684,3.8558077812194815,21.31033246811468,20.40962921218432,84.73067480026127,74.79751669931782,-0.0001942634553415,0.0939245000481605,0,0,0
7098,239465.82341118768,2010-09-03 08:01:16,510.25746723063634,7,20,-1.0993878841400146,3.848684787750244,21.31033246811468,20.418795864727365,84.73067480026127,74.83282889007675,-0.0001618862152099,0.0939245000481605,0,0,0
7099,239495.83859094104,2010-09-03 08:01:46,540.2726469739968,7,20,-1.0993878841400146,3.841399908065796,21.31033246811468,20.427962518735377,84.73067480026127,74.86807544606668,-0.0002266406954731,0.0939245000481605,0,0,0
7100,239525.8537136573,2010-09-03 08:02:16,570.2877696952404,7,20,-1.099568486213684,3.834438800811768,21.31033246811468,20.437129187611923,84.73067480026127,74.90325747903599,-0.0001942634553415,0.0939245000481605,0,0,0
7101,239555.8688790449,2010-09-03 08:02:46,600.3029350577593,7,20,-1.099568486213684,3.8278017044067374,21.31033246811468,20.446295993728363,84.73067480026127,74.938376736916,-0.0001618862152099,0.0939245000481605,0,0,0
7102,239585.88435817932,2010-09-03 08:03:16,630.3184143226194,7,20,-1.099568486213684,3.82100248336792,21.31033246811468,20.455463098781085,84.73067480026127,74.9734350616729,-0.0001942634553415,0.0939245000481605,0,0,0
7103,239615.89930006492,2010-09-03 08:03:46,660.3333560878652,7,20,-1.099568486213684,3.8142032623291016,21.31033246811468,20.464630072169747,84.73067480026127,75.00843158543444,-0.0001942634553415,0.0939245000481605,0,0,0
7104,239645.91431864665,2010-09-03 08:04:16,690.348374659536,7,20,-1.0993878841400146,3.807727813720703,21.31033246811468,20.47379642682911,84.73067480026127,75.04336501482577,-0.0001618862152099,0.0939245000481605,0,0,0
7105,239675.929420556,2010-09-03 08:04:46,720.3634765689102,7,20,-1.0993878841400146,3.8012523651123047,21.31033246811468,20.48296256475829,84.73067480026127,75.07823807766553,-0.0001942634553415,0.0939245000481605,0,0,0
7106,239705.9445615127,2010-09-03 08:05:16,750.3786175256023,7,20,-1.099568486213684,3.794938802719116,21.31033246811468,20.492128774207945,84.73067480026127,75.11305310394151,-0.0001618862152099,0.0939245000481605,0,0,0
7107,239735.95978110537,2010-09-03 08:05:46,780.3938371232919,7,20,-1.0993878841400146,3.7887871265411377,21.31033246811468,20.5012949642047,84.73067480026127,75.14781071565417,-0.0001295089750783,0.0939245000481605,0,0,0
7108,239765.97492530016,2010-09-03 08:06:16,810.4089813130417,7,20,-1.099568486213684,3.782797336578369,21.31033246811468,20.51046171322299,84.73067480026127,75.18251424335504,-0.0001295089750783,0.0939245000481605,0,0,0
7109,239795.9900551592,2010-09-03 08:06:46,840.42411116205,7,20,-1.0997490882873535,3.7764837741851807,21.31033246811468,20.519628732898788,84.73067480026127,75.2171633782417,-0.0002266406954731,0.0939245000481605,0,0,0
7110,239826.00519724368,2010-09-03 08:07:16,870.4392532565779,7,20,-1.0997490882873535,3.770817756652832,21.31033246811468,20.52879577940933,84.73067480026127,75.25175845517595,-0.0001942634553415,0.0939245000481605,0,0,0
7111,239856.02036759863,2010-09-03 08:07:46,900.4544236265771,7,20,-1.0993878841400146,3.765313625335693,21.31033246811468,20.53796268718159,84.73067480026127,75.28630001765627,-0.0001295089750783,0.0939245000481605,0,0,0
7112,239886.03549218955,2010-09-03 08:08:16,930.4695482074555,7,20,-1.099568486213684,3.7598094940185542,21.31033246811468,20.54712964967174,84.73067480026127,75.32078976623235,-9.713172767078504e-05,0.0939245000481605,0,0,0
7113,239916.0506333668,2010-09-03 08:08:46,960.4846893746724,7,20,-1.099568486213684,3.754143476486206,21.31033246811468,20.55629666832795,84.73067480026127,75.35522869439328,-0.0001295089750783,0.0939245000481605,0,0,0
7114,239946.0657774162,2010-09-03 08:09:16,990.4998334541472,7,20,-1.099568486213684,3.7486395835876474,21.31033246811468,20.565463656646592,84.73067480026127,75.38961735064295,-0.0001618862152099,0.0939245000481605,0,0,0
7115,239976.08095287383,2010-09-03 08:09:46,1020.515008876739,7,20,-1.099568486213684,3.7432973384857178,21.31033246811468,20.57463063793795,84.73067480026127,75.4239567811659,-0.0001295089750783,0.0939245000481605,0,0,0
7116,240006.0963001648,2010-09-03 08:10:16,1050.530356192742,7,20,-1.099568486213684,3.738116979598999,21.31033246811468,20.583797672045915,84.73067480026127,75.45824791292074,-0.0001295089750783,0.0939245000481605,0,0,0
7117,240036.11124680212,2010-09-03 08:10:46,1080.545302845168,7,20,-1.0993878841400146,3.73293662071228,21.31033246811468,20.59296457283104,84.73067480026127,75.49249114816571,-0.0001295089750783,0.0939245000481605,0,0,0
7118,240066.1265211764,2010-09-03 08:11:16,1110.5605771993276,7,20,-1.099568486213684,3.728080034255981,21.31033246811468,20.602131577651765,84.73067480026127,75.52668830845424,-0.0001295089750783,0.0939245000481605,0,0,0
7119,240096.1415362443,2010-09-03 08:11:46,1140.575592247216,7,20,-1.099568486213684,3.7230615615844727,21.31033246811468,20.611298515459502,84.73067480026127,75.56083999768644,-0.0001295089750783,0.0939245000481605,0,0,0
7120,240126.156667552,2010-09-03 08:12:16,1170.5907235899472,7,20,-1.099568486213684,3.718204975128174,21.31033246811468,20.62046551771547,84.73067480026127,75.59494687213846,-9.713172767078504e-05,0.0939245000481605,0,0,0
7121,240156.1718077919,2010-09-03 08:12:46,1200.6058638098027,7,20,-1.099568486213684,3.713510274887085,21.31033246811468,20.629632579783213,84.73067480026127,75.62900985232373,-0.0001295089750783,0.0939245000481605,0,0,0
7122,240186.18694673857,2010-09-03 08:13:16,1230.6210027765355,7,20,-1.0993878841400146,3.708653688430786,21.31033246811468,20.63879967297433,84.73067480026127,75.66302977690884,-0.0001295089750783,0.0939245000481605,0,0,0
7123,240216.2021136349,2010-09-03 08:13:46,1260.636169672877,7,20,-1.0993878841400146,3.704282760620117,21.31033246811468,20.647966737748085,84.73067480026127,75.69700705437957,-9.713172767078504e-05,0.0939245000481605,0,0,0
7124,240246.2172680401,2010-09-03 08:14:16,1290.6513240429997,7,20,-1.099568486213684,3.699588060379028,21.31033246811468,20.657133775215357,84.73067480026127,75.73094251097098,-0.0001295089750783,0.0939245000481605,0,0,0
7125,240276.23244227972,2010-09-03 08:14:46,1320.6664982826428,7,20,-1.099568486213684,3.69521713256836,21.31033246811468,20.66630088460571,84.73067480026127,75.76483705888324,-0.0001295089750783,0.0939245000481605,0,0,0
7126,240306.2475406804,2010-09-03 08:15:16,1350.6815966882846,7,20,-1.099568486213684,3.690684318542481,21.31033246811468,20.675467984856112,84.73067480026127,75.79869088269264,-0.0001618862152099,0.0939245000481605,0,0,0
7127,240336.2627092208,2010-09-03 08:15:46,1380.6967652437615,7,20,-1.0993878841400146,3.6864752769470215,21.31033246811468,20.68463504923345,84.73067480026127,75.83250444304763,-9.713172767078504e-05,0.0939245000481605,0,0,0
7128,240366.2778598967,2010-09-03 08:16:16,1410.7119159146644,7,20,-1.0993878841400146,3.682104349136353,21.31033246811468,20.69380208769252,84.73067480026127,75.86627846325267,-0.0001295089750783,0.0939245000481605,0,0,0
7129,240396.29298723952,2010-09-03 08:16:46,1440.7270432524135,7,20,-1.099568486213684,3.678057193756104,21.31033246811468,20.702969083153267,84.73067480026127,75.90001353643247,-9.713172767078504e-05,0.0939245000481605,0,0,0
7130,240426.308131324,2010-09-03 08:17:16,1470.7421873369012,7,20,-1.0993878841400146,3.673848152160645,21.31033246811468,20.71213612072309,84.73067480026127,75.93371064375359,-9.713172767078504e-05,0.0939245000481605,0,0,0
7131,240456.32328868657,2010-09-03 08:17:46,1500.7573446994818,7,20,-1.0992072820663452,3.669963121414185,21.31033246811468,20.721303168743766,84.73067480026127,75.96737045922535,-6.47544875391759e-05,0.0939245000481605,0,0,0
7132,240486.33870255345,2010-09-03 08:18:16,1530.7727585964249,7,20,-1.099568486213684,3.6657540798187256,21.31033246811468,20.73047032381181,84.73067480026127,76.00099386074596,-0.0001295089750783,0.0939245000481605,0,0,0
7133,240516.35357857984,2010-09-03 08:18:46,1560.7876345927543,7,20,-1.0993878841400146,3.6618688106536874,21.31033246811468,20.739637313388847,84.73067480026127,76.03458077628018,-9.713172767078504e-05,0.0939245000481605,0,0,0
7134,240546.3687229952,2010-09-03 08:19:16,1590.8027790080662,7,20,-1.099568486213684,3.6581454277038574,21.31033246811468,20.74880431646831,84.73067480026127,76.06813229615305,-0.0001295089750783,0.0939245000481605,0,0,0
7135,240576.38389443283,2010-09-03 08:19:46,1620.8179504357013,7,20,-1.099568486213684,3.6542601585388175,21.31033246811468,20.757971345566816,84.73067480026127,76.1016487280848,-0.0001295089750783,0.0939245000481605,0,0,0
7136,240606.399084918,2010-09-03 08:20:16,1650.8331410210833,7,20,-1.0992072820663452,3.650698661804199,21.31033246811468,20.76713843779574,84.73067480026127,76.1351309584087,-3.237724376958795e-05,0.0939245000481605,0,0,0
7137,240636.4141672335,2010-09-03 08:20:46,1680.8482232514111,7,20,-1.0993878841400146,3.64697527885437,21.31033246811468,20.776305479166812,84.73067480026127,76.16857922426244,-9.713172767078504e-05,0.0939245000481605,0,0,0
7138,240666.4293080699,2010-09-03 08:21:16,1710.8633640928158,7,20,-1.0993878841400146,3.643251895904541,21.31033246811468,20.785472489591942,84.73067480026127,76.20199398392576,-9.713172767078504e-05,0.0939245000481605,0,0,0
7139,240696.44727114012,2010-09-03 08:21:46,1740.881327178121,7,20,-1.0993878841400146,3.639852285385132,21.31033246811468,20.794640355262693,84.73067480026127,76.23537983689812,-9.713172767078504e-05,0.0939245000481605,0,0,0
7140,240726.45962935145,2010-09-03 08:22:17,1770.8936853542675,7,20,-1.0993878841400146,3.6366145610809326,21.31033246811468,20.803806578259216,84.73067480026127,76.26872804265311,-3.237724376958795e-05,0.0939245000481605,0,0,0
7141,240756.47505372943,2010-09-03 08:22:47,1800.9091097473704,7,20,-1.099568486213684,3.633214950561523,21.31033246811468,20.812973649939952,84.73067480026127,76.3020485595684,-6.47544875391759e-05,0.0939245000481605,0,0,0
7142,240786.4900375696,2010-09-03 08:23:17,1830.924093592492,7,20,-1.0993878841400146,3.629977226257324,21.31033246811468,20.82214060506348,84.73067480026127,76.33533856443152,-9.713172767078504e-05,0.0939245000481605,0,0,0
7143,240816.50525534773,2010-09-03 08:23:47,1860.9393113706467,7,20,-1.099568486213684,3.626577615737915,21.31033246811468,20.83130766531621,84.73067480026127,76.36859943682724,-0.0001295089750783,0.0939245000481605,0,0,0
7144,240846.52022484207,2010-09-03 08:24:17,1890.9542808800395,7,20,-1.099568486213684,3.623663663864136,21.31033246811468,20.84047455043069,84.73067480026127,76.40183099797635,-6.47544875391759e-05,0.0939245000481605,0,0,0
7145,240876.5353829014,2010-09-03 08:24:47,1920.9694390295813,7,20,-1.099568486213684,3.620425939559937,21.31033246811468,20.84964151374308,84.73067480026127,76.43503429355663,-6.47544875391759e-05,0.0939245000481605,0,0,0
7146,240906.55051789823,2010-09-03 08:25:17,1950.9845739361947,7,20,-1.0993878841400146,3.6173501014709473,21.31033246811468,20.858808467574686,84.73067480026127,76.46820909046323,-0.0001295089750783,0.0939245000481605,0,0,0
7147,240936.5656582384,2010-09-03 08:25:47,1980.9997142412628,7,20,-1.0993878841400146,3.614436149597168,21.31033246811468,20.86797548149359,84.73067480026127,76.50135637734478,-6.47544875391759e-05,0.0939245000481605,0,0,0
7148,240966.5807947039,2010-09-03 08:26:17,2011.0148507167864,7,20,-1.0993878841400146,3.6115221977233887,21.31033246811468,20.877142492790025,84.73067480026127,76.53447654096541,-6.47544875391759e-05,0.0939245000481605,0,0,0
7149,240996.5959384977,2010-09-03 08:26:47,2041.0299945105496,7,20,-1.099568486213684,3.60860824584961,21.31033246811468,20.88630948830533,84.73067480026127,76.5675699115203,-9.713172767078504e-05,0.0939245000481605,0,0,0
7150,241026.61121841567,2010-09-03 08:27:17,2071.0452744386007,7,20,-1.0993878841400146,3.60585618019104,21.31033246811468,20.89547656923083,84.73067480026127,76.60063717357767,-3.237724376958795e-05,0.0939245000481605,0,0,0
7151,241056.62646718105,2010-09-03 08:27:47,2101.060523198973,7,20,-1.099568486213684,3.6029422283172607,21.31033246811468,20.90464356779692,84.73067480026127,76.63367769147924,-6.47544875391759e-05,0.0939245000481605,0,0,0
7152,241086.6414677729,2010-09-03 08:28:17,2131.075523815895,7,20,-1.0993878841400146,3.600028276443481,21.31033246811468,20.913810513181044,84.73067480026127,76.66669215997909,-6.47544875391759e-05,0.0939245000481605,0,0,0
7153,241116.6565535872,2010-09-03 08:28:47,2161.0906095900555,7,20,-1.099568486213684,3.597114324569702,21.31033246811468,20.92297753345666,84.73067480026127,76.69968064844595,-9.713172767078504e-05,0.0939245000481605,0,0,0
7154,241146.6716820377,2010-09-03 08:29:17,2191.105738070653,7,20,-1.099568486213684,3.594362258911133,21.31033246811468,20.932144534732963,84.73067480026127,76.7326429665228,-6.47544875391759e-05,0.0939245000481605,0,0,0
7155,241176.686841691,2010-09-03 08:29:47,2221.120897693868,7,20,-1.099568486213684,3.5914485454559326,21.31033246811468,20.941311570462062,84.73067480026127,76.76557951318331,-6.47544875391759e-05,0.0939245000481605,0,0,0
7156,241206.7019742718,2010-09-03 08:30:17,2251.136030289722,7,20,-1.099568486213684,3.5886964797973637,21.31033246811468,20.95047858675034,84.73067480026127,76.7984898689489,-9.713172767078504e-05,0.0939245000481605,0,0,0
7157,241236.71711995528,2010-09-03 08:30:47,2281.15117598322,7,20,-1.099568486213684,3.585944414138794,21.31033246811468,20.95964572149972,84.73067480026127,76.8313743024456,-6.47544875391759e-05,0.0939245000481605,0,0,0
7158,241266.73239846985,2010-09-03 08:31:17,2311.166454482711,7,20,-1.099568486213684,3.5828685760498047,21.31033246811468,20.968812732698943,84.73067480026127,76.86423182365306,-9.713172767078504e-05,0.0939245000481605,0,0,0
7159,241296.7477494249,2010-09-03 08:31:47,2341.181805472871,7,20,-1.099568486213684,3.5799546241760254,21.31033246811468,20.977979825814256,84.73067480026127,76.89706324590817,-9.713172767078504e-05,0.0939245000481605,0,0,0
7160,241326.7626625588,2010-09-03 08:32:17,2371.196718576683,7,20,-1.0993878841400146,3.577040672302246,21.31033246811468,20.987146835863296,84.73067480026127,76.9298676697609,-6.47544875391759e-05,0.0939245000481605,0,0,0
7161,241356.7777515259,2010-09-03 08:32:47,2401.2118075438016,7,20,-1.0993878841400146,3.573964834213257,21.31033246811468,20.9963138282398,84.73067480026127,76.96264434505912,-6.47544875391759e-05,0.0939245000481605,0,0,0
7162,241386.7929820308,2010-09-03 08:33:17,2431.2270380336377,7,20,-1.0993878841400146,3.570888996124268,21.31033246811468,21.005480888808048,84.73067480026127,76.99539294078551,-6.47544875391759e-05,0.0939245000481605,0,0,0
7163,241416.8080496447,2010-09-03 08:33:47,2461.2421056625744,7,20,-1.099568486213684,3.5676512718200684,21.31033246811468,21.014647879827525,84.73067480026127,77.02811275829926,-9.713172767078504e-05,0.0939245000481605,0,0,0
7164,241446.82330349772,2010-09-03 08:34:17,2491.2573596309267,7,20,-1.0993878841400146,3.564575433731079,21.31033246811468,21.0238149870181,84.73067480026127,77.06080402046534,-9.713172767078504e-05,0.0939245000481605,0,0,0
7165,241476.8383487108,2010-09-03 08:34:47,2521.2724047287084,7,20,-1.099568486213684,3.56149959564209,21.31033246811468,21.03298190099032,84.73067480026127,77.09346526351791,-3.237724376958795e-05,0.0939245000481605,0,0,0
7166,241506.8535463688,2010-09-03 08:35:17,2551.287602386717,7,20,-1.0993878841400146,3.5580999851226807,21.31033246811468,21.04214889544353,84.73067480026127,77.12609700929,-9.713172767078504e-05,0.0939245000481605,0,0,0
7167,241536.86868043835,2010-09-03 08:35:47,2581.302736481307,7,20,-1.0993878841400146,3.5547003746032715,21.31033246811468,21.051315983518865,84.73067480026127,77.15869841966837,-6.47544875391759e-05,0.0939245000481605,0,0,0
7168,241566.88380737507,2010-09-03 08:36:17,2611.3178633879825,7,20,-1.0993878841400146,3.5511388778686523,21.31033246811468,21.060483007617663,84.73067480026127,77.19126760742081,-9.713172767078504e-05,0.0939245000481605,0,0,0
7169,241596.8989491939,2010-09-03 08:36:47,2641.3330052218603,7,20,-1.099568486213684,3.5474154949188232,21.31033246811468,21.06965008181352,84.73067480026127,77.22380424394935,-9.713172767078504e-05,0.0939245000481605,0,0,0
7170,241626.91415006496,2010-09-03 08:37:17,2671.3482062232024,7,20,-1.099568486213684,3.544015884399414,21.31033246811468,21.078817262183268,84.73067480026127,77.25630806382624,-6.47544875391759e-05,0.0939245000481605,0,0,0
7171,241656.9292362,2010-09-03 08:37:47,2701.363292242975,7,20,-1.0993878841400146,3.539968729019165,21.31033246811468,21.08798432492952,84.73067480026127,77.28877733807917,-0.0001295089750783,0.0939245000481605,0,0,0
7172,241686.9443675377,2010-09-03 08:38:17,2731.3784235405938,7,20,-1.099568486213684,3.536083459854126,21.31033246811468,21.097151499563097,84.73067480026127,77.32121178932763,-0.0001295089750783,0.0939245000481605,0,0,0
7173,241716.9595267399,2010-09-03 08:38:47,2761.393582757796,7,20,-1.0992072820663452,3.532198190689087,21.31033246811468,21.106318646842816,84.73067480026127,77.35360943628558,-6.47544875391759e-05,0.0939245000481605,0,0,0
7174,241746.97470342065,2010-09-03 08:39:17,2791.408759438524,7,20,-1.0993878841400146,3.527827262878418,21.31033246811468,21.11548578274731,84.73067480026127,77.38596905999913,-0.0001295089750783,0.0939245000481605,0,0,0
7175,241776.9898179665,2010-09-03 08:39:47,2821.42387397938,7,20,-1.099929690361023,3.523294448852539,21.31033246811468,21.124652833187877,84.73067480026127,77.41828889781083,-0.0001618862152099,0.0939245000481605,0,0,0
7176,241807.00497366991,2010-09-03 08:40:17,2851.4390296978627,7,20,-1.099568486213684,3.51892352104187,21.31033246811468,21.133819876106,84.73067480026127,77.45056768560637,-9.713172767078504e-05,0.0939245000481605,0,0,0
7177,241837.02008744385,2010-09-03 08:40:47,2881.454143456769,7,20,-1.099568486213684,3.514228820800781,21.31033246811468,21.142986986088747,84.73067480026127,77.48280404239385,-9.713172767078504e-05,0.0939245000481605,0,0,0
7178,241867.0353651865,2010-09-03 08:41:17,2911.469421219424,7,20,-1.099568486213684,3.509210586547852,21.31033246811468,21.152154149268387,84.73067480026127,77.51499613093328,-0.0001295089750783,0.0939245000481605,0,0,0
7179,241897.05040132697,2010-09-03 08:41:47,2941.4844573498563,7,20,-1.0997490882873535,3.504030227661133,21.31033246811468,21.16132121787235,84.73067480026127,77.54714188231196,-0.0001618862152099,0.0939245000481605,0,0,0
7180,241927.06553623857,2010-09-03 08:42:17,2971.4995922414323,7,20,-1.0997490882873535,3.498364210128784,21.31033246811468,21.17048833327284,84.73067480026127,77.57923923871773,-0.0001942634553415,0.0939245000481605,0,0,0
7181,241957.08069825772,2010-09-03 08:42:47,3001.514754295706,7,20,-1.0993878841400146,3.4926981925964355,21.31033246811468,21.179655466368377,84.73067480026127,77.61128496905523,-0.0001295089750783,0.0939245000481605,0,0,0
7182,241987.09607133296,2010-09-03 08:43:17,3031.5301273458467,7,20,-1.099568486213684,3.486222743988037,21.31033246811468,21.188822574241623,84.73067480026127,77.64327424585957,-0.0001942634553415,0.0939245000481605,0,0,0
7183,242017.1111298241,2010-09-03 08:43:47,3061.545185847034,7,20,-1.0993878841400146,3.479099750518799,21.31033246811468,21.19798957776843,84.73067480026127,77.67520145894079,-0.0001942634553415,0.0939245000481605,0,0,0
7184,242047.1261275739,2010-09-03 08:44:17,3091.560183571748,7,20,-1.099568486213684,3.4711673259735107,21.31033246811468,21.20715661208459,84.73067480026127,77.70705964869725,-0.0002266406954731,0.0939245000481605,0,0,0
7185,242077.14139744185,2010-09-03 08:44:47,3121.575453464789,7,20,-1.0993878841400146,3.462263584136963,21.31033246811468,21.216323664647984,84.73067480026127,77.73883981913356,-0.0002266406954731,0.0939245000481605,0,0,0
7186,242107.1564157629,2010-09-03 08:45:17,3151.5904717657854,7,20,-1.099568486213684,3.4514172077178955,21.31033246811468,21.22549069419773,84.73067480026127,77.7705288127935,-0.0002913951757363,0.0939245000481605,0,0,0
7187,242137.17157380216,2010-09-03 08:45:47,3181.605629805053,7,20,-1.099568486213684,3.4381425380706787,21.31033246811468,21.23465773355736,84.73067480026127,77.80210881210252,-0.0003885269106831,0.0939245000481605,0,0,0
7188,242167.1868564871,2010-09-03 08:46:17,3211.6209125,7,20,-1.099568486213684,3.421468496322632,21.31033246811468,21.243824915427577,84.73067480026127,77.83355388035729,-0.0004856586456298,0.0939245000481605,0,0,0
7189,242197.20185180585,2010-09-03 08:46:47,3241.635907813705,7,20,-1.099568486213684,3.399613857269287,21.31033246811468,21.25299192358317,84.73067480026127,77.86482382050833,-0.0006799221155233,0.0939245000481605,0,0,0
7190,242227.21712787927,2010-09-03 08:47:17,3271.651183892162,7,20,-1.099568486213684,3.3699886798858643,21.31033246811468,21.262159074784183,84.73067480026127,77.89586115058948,-0.0009389400365762,0.0939245000481605,0,0,0
7191,242257.23217116756,2010-09-03 08:47:47,3301.6662271804344,7,20,-1.099568486213684,3.3283841609954834,21.31033246811468,21.27132613703857,84.73067480026127,77.92657536714542,-0.0012950897216796,0.0939245000481605,0,0,0
7192,242287.24730518195,2010-09-03 08:48:17,3331.681361199837,7,20,-1.0993878841400146,3.268162727355957,21.31033246811468,21.28049320187175,84.73067480026127,77.95682844824351,-0.0019102096557617,0.0939245000481605,0,0,0
7193,242317.2624722487,2010-09-03 08:48:47,3361.696528246553,7,20,-1.099568486213684,3.178639888763428,21.31033246811468,21.28966028414204,84.73067480026127,77.986405868888,-0.0028491497505456,0.0939245000481605,0,0,0
7194,242347.2775930702,2010-09-03 08:49:17,3391.711649113174,7,20,-1.099568486213684,3.0350470542907715,21.31033246811468,21.298827318064617,84.73067480026127,78.01494696069986,-0.0048889638856053,0.0939245000481605,0,0,0
7195,242369.29288645528,2010-09-03 08:49:39,3413.726942478176,7,20,-1.0993878841400146,2.834956407546997,21.31033246811468,21.30555115796391,84.73067480026127,78.03476096929346,-0.0095512391999363,0.0939245000481605,0,0,0
7196,242378.7927343191,2010-09-03 08:49:49,3423.2267903320585,7,20,-1.099568486213684,2.699943780899048,21.31033246811468,21.30845254097506,84.73067480026127,78.04279706991237,-0.0119795324280858,0.0939245000481605,0,0,0
7197,242438.81155650187,2010-09-03 08:50:49,60.01478986743885,8,20,0.0,3.4269726276397705,21.31033246811468,21.30845254097506,84.73067480026127,78.04279706991237,0.0011655807029455,0.0939245000481605,0,0,0
7198,242439.00394985144,2010-09-03 08:50:49,0.18750880463617,9,20,-1.9243103452026844e-05,3.4269726276397705,21.31033246811468,21.308452541977356,84.73067480026127,78.04279707334727,-3.237724376958795e-05,0.0859051570296287,0,0,0
7199,242443.8319590308,2010-09-03 08:50:54,5.015518009115025,9,20,0.0008838032954372,3.4336097240448,21.31033341195971,21.308452542144327,84.7306780384519,78.04279707391949,0.0009712696191854,0.0859051570296287,0,0,0
