Data_Point,Test_Time(s),Date_Time,Step_Time(s),Step_Index,Cycle_Index,Current(A),Voltage(V),Charge_Capacity(Ah),Discharge_Capacity(Ah),Charge_Energy(Wh),Discharge_Energy(Wh),dV/dt(V/s),Internal_Resistance(Ohm),Is_FC_Data,AC_Impedance(Ohm),ACI_Phase_Angle(Deg)
14203,481309.69244697184,2010-09-06 03:12:25,30.01525613876122,1,41,0.0,3.466958284378052,42.04438475344786,42.02460352559742,167.35410862959418,153.8273612654507,0.0007122993702068,0.0882566422224044,0,0,0
14204,481339.7076391812,2010-09-06 03:12:55,60.0304483381659,1,41,0.0,3.4876797199249268,42.04438475344786,42.02460352559742,167.35410862959418,153.8273612654507,0.0004532813909463,0.0882566422224044,0,0,0
14205,481369.7226877978,2010-09-06 03:13:25,90.0454969547179,1,41,0.0,3.502573251724243,42.04438475344786,42.02460352559742,167.35410862959418,153.8273612654507,0.0003561496851034,0.0882566422224044,0,0,0
14206,481399.6909662537,2010-09-06 03:13:55,120.0137754106388,1,41,0.0,3.5140669345855717,42.04438475344786,42.02460352559742,167.35410862959418,153.8273612654507,0.0002590179501567,0.0882566422224044,0,0,0
14207,481429.69943353307,2010-09-06 03:14:25,30.015147066920637,2,41,0.550297200679779,3.640499830245972,42.04897125023467,42.02460352559742,167.37068227885445,153.8273612654507,0.0011979580158367,0.0882566422224044,0,0,0
14208,481459.71462131134,2010-09-06 03:14:55,60.03033484530677,2,41,0.5501165986061096,3.676438331604004,42.05355778768605,42.02460352559742,167.38746708354213,153.8273612654507,0.0008093834039755,0.0882566422224044,0,0,0
14209,481489.729771877,2010-09-06 03:15:25,90.04548541595977,2,41,0.5501165986061096,3.703149557113648,42.05814424176003,42.02460352559742,167.40439294633737,153.8273612654507,0.0006475448608398,0.0882566422224044,0,0,0
14210,481519.7449640563,2010-09-06 03:15:55,120.06067759531447,2,41,0.5497553944587708,3.7238709926605225,42.06273070538495,42.02460352559742,167.42142692285464,153.8273612654507,0.0004532813909463,0.0882566422224044,0,0,0
14211,481549.7601179704,2010-09-06 03:16:25,150.0758315093001,2,41,0.5499359965324402,3.740221500396729,42.06731724499912,42.02460352559742,167.4385462203151,153.8273612654507,0.0003561496851034,0.0882566422224044,0,0,0
14212,481579.7752911274,2010-09-06 03:16:55,180.0910046662451,2,41,0.5501165986061096,3.752039194107056,42.071903720056255,42.02460352559742,167.4557299151705,153.8273612654507,0.0002913951757363,0.0882566422224044,0,0,0
14213,481609.79045011394,2010-09-06 03:17:25,210.1061636478608,2,41,0.5501165986061096,3.759485721588135,42.07649016776938,42.02460352559742,167.47295692844662,153.8273612654507,0.0001618862152099,0.0882566422224044,0,0,0
14214,481639.80561726086,2010-09-06 03:17:55,240.12133079482712,2,41,0.5501165986061096,3.7640185356140137,42.08107668315634,42.02460352559742,167.49021049209014,153.8273612654507,0.0001295089750783,0.0882566422224044,0,0,0
14215,481669.8207924078,2010-09-06 03:18:25,270.1365059417317,2,41,0.5499359965324402,3.767580032348633,42.08566318512119,42.02460352559742,167.50748237257432,153.8273612654507,9.713172767078504e-05,0.0882566422224044,0,0,0
14216,481699.8359728279,2010-09-06 03:18:55,300.15168636679107,2,41,0.5501165986061096,3.770655870437622,42.0902496883492,42.02460352559742,167.52477002708113,153.8273612654507,3.237724376958795e-05,0.0882566422224044,0,0,0
14217,481729.851151694,2010-09-06 03:19:25,330.1668652530152,2,41,0.5499359965324402,3.7740554809570312,42.0948361371802,42.02460352559742,167.54207242692888,153.8273612654507,9.713172767078504e-05,0.0882566422224044,0,0,0
14218,481759.866330074,2010-09-06 03:19:55,360.1820436079151,2,41,0.5501165986061096,3.7772932052612314,42.0994225903944,42.02460352559742,167.5593897084294,153.8273612654507,9.713172767078504e-05,0.0882566422224044,0,0,0
14219,481789.8814673615,2010-09-06 03:20:25,390.19718089546245,2,41,0.5497553944587708,3.7805309295654297,42.10400908034756,42.02460352559742,167.57672193989671,153.8273612654507,6.47544875391759e-05,0.0882566422224044,0,0,0
14220,481819.8966437616,2010-09-06 03:20:55,420.2123573005028,2,41,0.5501165986061096,3.783768653869629,42.10859551866736,42.02460352559742,167.594068516156,153.8273612654507,6.47544875391759e-05,0.0882566422224044,0,0,0
14221,481849.9119369928,2010-09-06 03:21:25,450.2276505317098,2,41,0.5501165986061096,3.786844491958618,42.113182039322304,42.02460352559742,167.61142995132448,153.8273612654507,6.47544875391759e-05,0.0882566422224044,0,0,0
14222,481879.9269924614,2010-09-06 03:21:55,480.2427059953268,2,41,0.5501165986061096,3.7900822162628174,42.117768517009885,42.02460352559742,167.62880562169593,153.8273612654507,9.713172767078504e-05,0.0882566422224044,0,0,0
14223,481909.9422739885,2010-09-06 03:22:25,510.2579875273759,2,41,0.5501165986061096,3.7929961681365967,42.12235506842547,42.02460352559742,167.64619577927814,153.8273612654507,6.47544875391759e-05,0.0882566422224044,0,0,0
14224,481939.9579010366,2010-09-06 03:22:55,540.27361458057,2,41,0.550297200679779,3.796233892440796,42.12694155818867,42.02460352559742,167.6635998636242,153.8273612654507,6.47544875391759e-05,0.0882566422224044,0,0,0
14225,481969.959625796,2010-09-06 03:23:25,570.2753393249329,2,41,0.5499359965324402,3.799147844314575,42.13152593970115,42.02460352559742,167.68101001665656,153.8273612654507,6.47544875391759e-05,0.0882566422224044,0,0,0
14226,481999.9720965427,2010-09-06 03:23:56,600.2878100967025,2,41,0.5499359965324402,3.802223682403565,42.136111978646085,42.02460352559742,167.6984406479682,153.8273612654507,3.237724376958795e-05,0.0882566422224044,0,0,0
14227,482029.9875007405,2010-09-06 03:24:26,630.3032142744224,2,41,0.5501165986061096,3.8056232929229736,42.14069849822895,42.02460352559742,167.71588735069318,153.8273612654507,0.0001295089750783,0.0882566422224044,0,0,0
14228,482060.0025212419,2010-09-06 03:24:56,660.3182347759031,2,41,0.5499359965324402,3.808699131011963,42.14528495866973,42.02460352559742,167.73334830885952,153.8273612654507,9.713172767078504e-05,0.0882566422224044,0,0,0
14229,482090.0176015124,2010-09-06 03:25:26,690.3333150764213,2,41,0.550297200679779,3.811936855316162,42.14987147071843,42.02460352559742,167.7508242680634,153.8273612654507,9.713172767078504e-05,0.0882566422224044,0,0,0
14230,482120.0328584182,2010-09-06 03:25:56,720.3485719520189,2,41,0.5501165986061096,3.8153364658355713,42.15445792006194,42.02460352559742,167.7683152055989,153.8273612654507,0.0001295089750783,0.0882566422224044,0,0,0
14231,482150.0479019469,2010-09-06 03:26:26,750.3636154808909,2,41,0.5499359965324402,3.8185741901397705,42.159044374862,42.02460352559742,167.78582175871986,153.8273612654507,6.47544875391759e-05,0.0882566422224044,0,0,0
14232,482180.06324490206,2010-09-06 03:26:56,780.3789584360251,2,41,0.550297200679779,3.8221356868743896,42.16363093790192,42.02460352559742,167.8033445381689,153.8273612654507,9.713172767078504e-05,0.0882566422224044,0,0,0
14233,482210.0782480202,2010-09-06 03:27:26,810.3939615441561,2,41,0.5501165986061096,3.825697183609009,42.16821735520851,42.02460352559742,167.8208826922603,153.8273612654507,9.713172767078504e-05,0.0882566422224044,0,0,0
14234,482240.0934037087,2010-09-06 03:27:56,840.4091172526142,2,41,0.5499359965324402,3.829096794128418,42.17280378588622,42.02460352559742,167.83843711198162,153.8273612654507,6.47544875391759e-05,0.0882566422224044,0,0,0
14235,482270.1085724096,2010-09-06 03:28:26,870.4242859484408,2,41,0.550297200679779,3.832658290863037,42.17739025861179,42.02460352559742,167.85600788120468,153.8273612654507,6.47544875391759e-05,0.0882566422224044,0,0,0
14236,482300.12388636736,2010-09-06 03:28:56,900.4395999063049,2,41,0.5501165986061096,3.836381435394287,42.18197666882232,42.02460352559742,167.8735943367309,153.8273612654507,0.0001295089750783,0.0882566422224044,0,0,0
14237,482330.1391182758,2010-09-06 03:29:26,930.454831799639,2,41,0.5501165986061096,3.839781045913696,42.18656315798345,42.02460352559742,167.8911969427581,153.8273612654507,0.0001295089750783,0.0882566422224044,0,0,0
14238,482360.15420606494,2010-09-06 03:29:56,960.4699195988464,2,41,0.5499359965324402,3.8428568840026855,42.19114956086855,42.02460352559742,167.9088147502308,153.8273612654507,3.237724376958795e-05,0.0882566422224044,0,0,0
14239,482390.1692449372,2010-09-06 03:30:26,990.4849584610876,2,41,0.5501165986061096,3.8460946083068848,42.19573607031508,42.02460352559742,167.9264480740373,153.8273612654507,3.237724376958795e-05,0.0882566422224044,0,0,0
14240,482420.18440841,2010-09-06 03:30:56,1020.5001219338968,2,41,0.5501165986061096,3.849494218826294,42.20032253765119,42.02460352559742,167.94409615243563,153.8273612654507,9.713172767078504e-05,0.0882566422224044,0,0,0
14241,482450.1997369241,2010-09-06 03:31:26,1050.5154504580646,2,41,0.5501165986061096,3.852731943130493,42.20490901576528,42.02460352559742,167.96175883509005,153.8273612654507,0.0001295089750783,0.0882566422224044,0,0,0
14242,482480.2148001972,2010-09-06 03:31:56,1080.5305137311452,2,41,0.5499359965324402,3.855645895004273,42.209495526664654,42.02460352559742,167.97943581186686,153.8273612654507,6.47544875391759e-05,0.0882566422224044,0,0,0
14243,482510.2299754945,2010-09-06 03:32:26,1110.5456890484747,2,41,0.5501165986061096,3.858559846878052,42.2140819270423,42.02460352559742,167.99712621346822,153.8273612654507,9.713172767078504e-05,0.0882566422224044,0,0,0
14244,482540.2450989526,2010-09-06 03:32:56,1140.56081249653,2,41,0.5501165986061096,3.861311912536621,42.21866839390446,42.02460352559742,168.0148301581884,153.8273612654507,6.47544875391759e-05,0.0882566422224044,0,0,0
14245,482570.2602772975,2010-09-06 03:33:26,1170.5759908313798,2,41,0.5499359965324402,3.8640639781951904,42.22325486493078,42.02460352559742,168.03254687708562,153.8273612654507,6.47544875391759e-05,0.0882566422224044,0,0,0
14246,482600.27557746094,2010-09-06 03:33:56,1200.5912909998765,2,41,0.5499359965324402,3.86649227142334,42.22784133157074,42.02460352559742,168.05027563885952,153.8273612654507,3.237724376958795e-05,0.0882566422224044,0,0,0
14247,482630.2906163382,2010-09-06 03:34:26,1230.606329882168,2,41,0.5501165986061096,3.869244337081909,42.232427724551485,42.02460352559742,168.06801554746775,153.8273612654507,9.713172767078504e-05,0.0882566422224044,0,0,0
14248,482660.30576714943,2010-09-06 03:34:56,1260.6214806833957,2,41,0.5501165986061096,3.8715107440948486,42.23701417177346,42.02460352559742,168.08576635441264,153.8273612654507,9.713172767078504e-05,0.0882566422224044,0,0,0
14249,482690.3209464367,2010-09-06 03:35:26,1290.636659960594,2,41,0.550297200679779,3.873453378677368,42.241600664094335,42.02460352559742,168.10352730137166,153.8273612654507,6.47544875391759e-05,0.0882566422224044,0,0,0
14250,482720.3361222002,2010-09-06 03:35:56,1320.6518357340603,2,41,0.550297200679779,3.875396013259888,42.24618719786354,42.02460352559742,168.12129756039047,153.8273612654507,3.237724376958795e-05,0.0882566422224044,0,0,0
14251,482750.3512741693,2010-09-06 03:36:26,1350.6669877082113,2,41,0.5501165986061096,3.877176761627197,42.25077364601986,42.02460352559742,168.13907602648877,153.8273612654507,3.237724376958795e-05,0.0882566422224044,0,0,0
14252,482780.36643805314,2010-09-06 03:36:56,1380.6821515870322,2,41,0.5501165986061096,3.878795623779297,42.25536010671599,42.02460352559742,168.15686246042588,153.8273612654507,3.237724376958795e-05,0.0882566422224044,0,0,0
14253,482810.3816161624,2010-09-06 03:37:26,1410.6973297013326,2,41,0.550297200679779,3.880414485931397,42.25994656462435,42.02460352559742,168.17465610653508,153.8273612654507,3.237724376958795e-05,0.0882566422224044,0,0,0
14254,482840.39699476137,2010-09-06 03:37:56,1440.7127083353898,2,41,0.550297200679779,3.881871461868286,42.26453309932641,42.02460352559742,168.19245685018583,153.8273612654507,9.713172767078504e-05,0.0882566422224044,0,0,0
14255,482870.4119452383,2010-09-06 03:38:26,1470.7276587672352,2,41,0.5499359965324402,3.883004665374756,42.26911952383488,42.02460352559742,168.21026349090496,153.8273612654507,0.0,0.0882566422224044,0,0,0
14256,482900.4271095984,2010-09-06 03:38:56,1500.7428231222432,2,41,0.5501165986061096,3.8844616413116455,42.27370597479046,42.02460352559742,168.22807620124192,153.8273612654507,6.47544875391759e-05,0.0882566422224044,0,0,0
14257,482930.4422969306,2010-09-06 03:39:26,1530.7580104896049,2,41,0.5501165986061096,3.8855948448181152,42.27829246317425,42.02460352559742,168.24589453955156,153.8273612654507,3.237724376958795e-05,0.0882566422224044,0,0,0
14258,482960.4574251805,2010-09-06 03:39:56,1560.7731387045403,2,41,0.5501165986061096,3.886728048324585,42.282878841354666,42.02460352559742,168.26371797753728,153.8273612654507,3.237724376958795e-05,0.0882566422224044,0,0,0
14259,482990.4727701408,2010-09-06 03:40:26,1590.7884836847218,2,41,0.5501165986061096,3.887861251831055,42.28746529712967,42.02460352559742,168.28154700265503,153.8273612654507,0.0,0.0882566422224044,0,0,0
14260,483020.48793573887,2010-09-06 03:40:56,1620.8036492878402,2,41,0.5501165986061096,3.8891563415527344,42.29205173341696,42.02460352559742,168.29938117333566,153.8273612654507,9.713172767078504e-05,0.0882566422224044,0,0,0
14261,483050.50298943307,2010-09-06 03:41:26,1650.8187029569851,2,41,0.5501165986061096,3.890289545059204,42.2966382326561,42.02460352559742,168.31722066650244,153.8273612654507,6.47544875391759e-05,0.0882566422224044,0,0,0
14262,483080.51829751127,2010-09-06 03:41:56,1680.8340110452202,2,41,0.550297200679779,3.891098976135254,42.30122473154724,42.02460352559742,168.33506521587074,153.8273612654507,0.0,0.0882566422224044,0,0,0
14263,483110.533328123,2010-09-06 03:42:26,1710.8490416869738,2,41,0.550297200679779,3.8923940658569336,42.3058111917675,42.02460352559742,168.35291467677473,153.8273612654507,3.237724376958795e-05,0.0882566422224044,0,0,0
14264,483140.548507741,2010-09-06 03:42:56,1740.864221279959,2,41,0.5501165986061096,3.893365383148194,42.3103977186297,42.02460352559742,168.3707693314703,153.8273612654507,0.0,0.0882566422224044,0,0,0
14265,483170.563674472,2010-09-06 03:43:26,1770.8793880058763,2,41,0.5501165986061096,3.894498586654663,42.31498423346586,42.02460352559742,168.3886289965766,153.8273612654507,3.237724376958795e-05,0.0882566422224044,0,0,0
14266,483200.5788431928,2010-09-06 03:43:56,1800.89455673679,2,41,0.5501165986061096,3.895308017730713,42.31957075406121,42.02460352559742,168.40649319381657,153.8273612654507,-3.237724376958795e-05,0.0882566422224044,0,0,0
14267,483230.5940029815,2010-09-06 03:44:26,1830.9097165204048,2,41,0.5499359965324402,3.896441221237183,42.32415715753682,42.02460352559742,168.4243620411397,153.8273612654507,0.0,0.0882566422224044,0,0,0
14268,483260.60928778665,2010-09-06 03:44:56,1860.925001310574,2,41,0.5499359965324402,3.8977363109588623,42.32874370182509,42.02460352559742,168.4422364664027,153.8273612654507,6.47544875391759e-05,0.0882566422224044,0,0,0
14269,483290.6243647739,2010-09-06 03:45:26,1890.9400783078595,2,41,0.5501165986061096,3.898869514465332,42.33333020510381,42.02460352559742,168.46011581112626,153.8273612654507,3.237724376958795e-05,0.0882566422224044,0,0,0
14270,483320.6395023572,2010-09-06 03:45:56,1920.955215931244,2,41,0.550297200679779,3.9000027179718018,42.337916650157766,42.02460352559742,168.4780000264316,153.8273612654507,3.237724376958795e-05,0.0882566422224044,0,0,0
14271,483350.6546793287,2010-09-06 03:46:26,1950.970392862596,2,41,0.5501165986061096,3.901135921478272,42.34250309221363,42.02460352559742,168.49588925636755,153.8273612654507,6.47544875391759e-05,0.0882566422224044,0,0,0
14272,483380.6698673275,2010-09-06 03:46:56,1980.985580861532,2,41,0.5501165986061096,3.902269124984741,42.34708946194798,42.02460352559742,168.51378338457013,153.8273612654507,6.47544875391759e-05,0.0882566422224044,0,0,0
14273,483410.68505139166,2010-09-06 03:47:26,2011.0007649306733,2,41,0.550297200679779,3.903564214706421,42.35167594152728,42.02460352559742,168.5316831639781,153.8273612654507,9.713172767078504e-05,0.0882566422224044,0,0,0
14274,483440.70023914,2010-09-06 03:47:56,2041.015952673972,2,41,0.5501165986061096,3.904373645782471,42.35626240072496,42.02460352559742,168.54958816555327,153.8273612654507,3.237724376958795e-05,0.0882566422224044,0,0,0
14275,483470.71543298353,2010-09-06 03:48:26,2071.031146517474,2,41,0.5501165986061096,3.905506849288941,42.3608489432696,42.02460352559742,168.56749867011425,153.8273612654507,3.237724376958795e-05,0.0882566422224044,0,0,0
14276,483500.7305548326,2010-09-06 03:48:56,2101.046268371557,2,41,0.5501165986061096,3.90680193901062,42.3654353733844,42.02460352559742,168.58541406158682,153.8273612654507,3.237724376958795e-05,0.0882566422224044,0,0,0
14277,483530.7457292828,2010-09-06 03:49:26,2131.0614428167123,2,41,0.550297200679779,3.90793514251709,42.3700218159821,42.02460352559742,168.6033349070778,153.8273612654507,0.0,0.0882566422224044,0,0,0
14278,483560.76104882953,2010-09-06 03:49:56,2161.076762388569,2,41,0.5501165986061096,3.90906834602356,42.37460831134387,42.02460352559742,168.6212614003781,153.8273612654507,0.0,0.0882566422224044,0,0,0
14279,483590.7760550304,2010-09-06 03:50:26,2191.0917685743702,2,41,0.550297200679779,3.9103634357452393,42.379194720113,42.02460352559742,168.6391931047001,153.8273612654507,3.237724376958795e-05,0.0882566422224044,0,0,0
14280,483620.7912249292,2010-09-06 03:50:56,2221.1069384681823,2,41,0.5501165986061096,3.911658525466919,42.38378112199804,42.02460352559742,168.65713025218824,153.8273612654507,6.47544875391759e-05,0.0882566422224044,0,0,0
14281,483650.80653630063,2010-09-06 03:51:26,2251.122249834588,2,41,0.5501165986061096,3.9126298427581783,42.38836757137549,42.02460352559742,168.67507328546654,153.8273612654507,3.237724376958795e-05,0.0882566422224044,0,0,0
14282,483680.8215699599,2010-09-06 03:51:56,2281.137283498874,2,41,0.5501165986061096,3.9139246940612793,42.39295400497844,42.02460352559742,168.69302192468038,153.8273612654507,0.0,0.0882566422224044,0,0,0
14283,483710.8369500176,2010-09-06 03:52:26,2311.152663601592,2,41,0.5499359965324402,3.915219783782959,42.39754012768278,42.02460352559742,168.71097513428515,153.8273612654507,3.237724376958795e-05,0.0882566422224044,0,0,0
14284,483740.8518704546,2010-09-06 03:52:56,2341.167584018631,2,41,0.5499359965324402,3.9166767597198486,42.40212574526433,42.02460352559742,168.72893189895504,153.8273612654507,9.713172767078504e-05,0.0882566422224044,0,0,0
14285,483770.8671072802,2010-09-06 03:53:26,2371.182820824208,2,41,0.5501165986061096,3.917971849441528,42.40671153022221,42.02460352559742,168.7468953327938,153.8273612654507,3.237724376958795e-05,0.0882566422224044,0,0,0
14286,483800.8822293298,2010-09-06 03:53:56,2401.19794285874,2,41,0.5501165986061096,3.919105052947998,42.411297196728334,42.02460352559742,168.76486420173023,153.8273612654507,3.237724376958795e-05,0.0882566422224044,0,0,0
14287,483830.897398983,2010-09-06 03:54:26,2431.2131125219776,2,41,0.5499359965324402,3.920562028884888,42.4158828629102,42.02460352559742,168.78283907636677,153.8273612654507,3.237724376958795e-05,0.0882566422224044,0,0,0
14288,483860.9125985758,2010-09-06 03:54:56,2461.2283121097967,2,41,0.5499359965324402,3.921695232391357,42.4204684724253,42.02460352559742,168.80081970500328,153.8273612654507,3.237724376958795e-05,0.0882566422224044,0,0,0
14289,483890.9305390899,2010-09-06 03:55:26,2491.246252653922,2,41,0.5499359965324402,3.922990322113037,42.42505475725512,42.02460352559742,168.8188091958037,153.8273612654507,0.0,0.0882566422224044,0,0,0
14290,483920.94291754666,2010-09-06 03:55:57,2521.258631080539,2,41,0.5501165986061096,3.924447298049927,42.42964085371717,42.02460352559742,168.83680419128322,153.8273612654507,0.0,0.0882566422224044,0,0,0
14291,483950.9584876328,2010-09-06 03:56:27,2551.274201181792,2,41,0.5501165986061096,3.925904273986816,42.43422745122471,42.02460352559742,168.85480744503258,153.8273612654507,3.237724376958795e-05,0.0882566422224044,0,0,0
14292,483980.9734083005,2010-09-06 03:56:57,2581.289121864493,2,41,0.550297200679779,3.927199363708496,42.43881393508471,42.02460352559742,168.87281641226292,153.8273612654507,3.237724376958795e-05,0.0882566422224044,0,0,0
14293,484010.9884106517,2010-09-06 03:57:27,2611.3041241856627,2,41,0.5501165986061096,3.9286563396453857,42.44340048493415,42.02460352559742,168.89083205922674,153.8273612654507,3.237724376958795e-05,0.0882566422224044,0,0,0
14294,484041.00357104186,2010-09-06 03:57:57,2641.3192845808017,2,41,0.550297200679779,3.9301133155822754,42.44798716983924,42.02460352559742,168.90885467265963,153.8273612654507,3.237724376958795e-05,0.0882566422224044,0,0,0
14295,484071.0187373468,2010-09-06 03:58:27,2671.334450890681,2,41,0.5501165986061096,3.931408405303955,42.452573853921365,42.02460352559742,168.92688370289406,153.8273612654507,3.237724376958795e-05,0.0882566422224044,0,0,0
14296,484101.0339124336,2010-09-06 03:58:57,2701.349625997486,2,41,0.5501165986061096,3.933027267456055,42.45716056911611,42.02460352559742,168.9449193791852,153.8273612654507,6.47544875391759e-05,0.0882566422224044,0,0,0
14297,484131.0492216194,2010-09-06 03:59:27,2731.364935163407,2,41,0.5501165986061096,3.9343223571777344,42.46174727205008,42.02460352559742,168.96296157784008,153.8273612654507,6.47544875391759e-05,0.0882566422224044,0,0,0
14298,484161.0642448127,2010-09-06 03:59:57,2761.379958346571,2,41,0.5501165986061096,3.935779333114624,42.46633392891681,42.02460352559742,168.98101024343362,153.8273612654507,3.237724376958795e-05,0.0882566422224044,0,0,0
14299,484191.0795669709,2010-09-06 04:00:27,2791.395280514899,2,41,0.5501165986061096,3.9372363090515137,42.47092070001241,42.02460352559742,168.99906592890937,153.8273612654507,3.237724376958795e-05,0.0882566422224044,0,0,0
14300,484221.09472069447,2010-09-06 04:00:57,2821.4104342283845,2,41,0.550297200679779,3.938855171203613,42.47550732565927,42.02460352559742,169.01712790303873,153.8273612654507,6.47544875391759e-05,0.0882566422224044,0,0,0
14301,484251.10997003625,2010-09-06 04:01:27,2851.425683570206,2,41,0.5499359965324402,3.940150260925293,42.48009399680571,42.02460352559742,169.0351969076416,153.8273612654507,0.0,0.0882566422224044,0,0,0
14302,484281.1249490644,2010-09-06 04:01:57,2881.440662598322,2,41,0.550297200679779,3.941607236862183,42.4846806300391,42.02460352559742,169.05327279349328,153.8273612654507,3.237724376958795e-05,0.0882566422224044,0,0,0
14303,484311.1401014095,2010-09-06 04:02:27,2911.4558149433974,2,41,0.5501165986061096,3.943226099014282,42.48926721568933,42.02460352559742,169.0713554845263,153.8273612654507,0.0,0.0882566422224044,0,0,0
14304,484341.1552673584,2010-09-06 04:02:57,2941.470980892378,2,41,0.5499359965324402,3.944844961166382,42.49385383453178,42.02460352559742,169.0894453915851,153.8273612654507,6.47544875391759e-05,0.0882566422224044,0,0,0
14305,484371.1704489564,2010-09-06 04:03:27,2971.4861624953733,2,41,0.5501165986061096,3.9464638233184814,42.49844041598622,42.02460352559742,169.1075423240786,153.8273612654507,0.0,0.0882566422224044,0,0,0
14306,484401.18562101567,2010-09-06 04:03:57,3001.5013345545826,2,41,0.5501165986061096,3.948082685470581,42.5030270568086,42.02460352559742,169.12564661288368,153.8273612654507,6.47544875391759e-05,0.0882566422224044,0,0,0
14307,484431.20077625295,2010-09-06 04:04:27,3031.516489786853,2,41,0.5501165986061096,3.949539661407471,42.50761362312774,42.02460352559742,169.1437579163019,153.8273612654507,3.237724376958795e-05,0.0882566422224044,0,0,0
14308,484461.2159509136,2010-09-06 04:04:57,3061.5316644525587,2,41,0.5501165986061096,3.9511585235595694,42.51220021399878,42.02460352559742,169.16187676448524,153.8273612654507,6.47544875391759e-05,0.0882566422224044,0,0,0
14309,484491.2311128376,2010-09-06 04:05:27,3091.546826371495,2,41,0.5501165986061096,3.95277738571167,42.51678683480912,42.02460352559742,169.18000317057255,153.8273612654507,3.237724376958795e-05,0.0882566422224044,0,0,0
14310,484521.24625151866,2010-09-06 04:05:57,3121.5619650525155,2,41,0.550297200679779,3.95455813407898,42.52137334301003,42.02460352559742,169.19813669667053,153.8273612654507,9.713172767078504e-05,0.0882566422224044,0,0,0
14311,484551.26157721074,2010-09-06 04:06:27,3151.577290744625,2,41,0.5497553944587708,3.956015110015869,42.52595994860079,42.02460352559742,169.2162782790353,153.8273612654507,0.0,0.0882566422224044,0,0,0
14312,484581.27594112576,2010-09-06 04:06:57,3181.5916546546778,2,41,0.5499359965324402,3.9577958583831783,42.53054415997256,42.02460352559742,169.23441806795495,153.8273612654507,3.237724376958795e-05,0.0882566422224044,0,0,0
14313,484611.27615116,2010-09-06 04:07:27,3211.591864693929,2,41,0.5499359965324402,3.959576606750488,42.53513066096704,42.02460352559742,169.25257474567877,153.8273612654507,6.47544875391759e-05,0.0882566422224044,0,0,0
14314,484641.29140540905,2010-09-06 04:07:57,3241.607118947993,2,41,0.550297200679779,3.961519241333008,42.53971720287719,42.02460352559742,169.27073947629984,153.8273612654507,6.47544875391759e-05,0.0882566422224044,0,0,0
14315,484671.3065045967,2010-09-06 04:08:27,3271.6222181355843,2,41,0.5499359965324402,3.962814331054688,42.544303761357504,42.02460352559742,169.28891230052088,153.8273612654507,0.0,0.0882566422224044,0,0,0
14316,484701.3215790877,2010-09-06 04:08:57,3301.637292621611,2,41,0.5501165986061096,3.964918851852417,42.54889028976062,42.02460352559742,169.30709309216792,153.8273612654507,6.47544875391759e-05,0.0882566422224044,0,0,0
14317,484731.3369757517,2010-09-06 04:09:27,3331.652689325704,2,41,0.5501165986061096,3.966699600219727,42.55347692805045,42.02460352559742,169.32528251811885,153.8273612654507,6.47544875391759e-05,0.0882566422224044,0,0,0
14318,484761.3519159631,2010-09-06 04:09:57,3361.6676295019897,2,41,0.5501165986061096,3.968480348587036,42.55806349929962,42.02460352559742,169.34347996700805,153.8273612654507,9.713172767078504e-05,0.0882566422224044,0,0,0
14319,484791.3670787742,2010-09-06 04:10:27,3391.682792303125,2,41,0.550297200679779,3.970422983169556,42.56265005115749,42.02460352559742,169.361685739882,153.8273612654507,6.47544875391759e-05,0.0882566422224044,0,0,0
14320,484821.3821985832,2010-09-06 04:10:57,3421.6979121121103,2,41,0.550297200679779,3.972365617752075,42.56723662055012,42.02460352559742,169.37990012947716,153.8273612654507,9.713172767078504e-05,0.0882566422224044,0,0,0
14321,484851.3974249277,2010-09-06 04:11:27,3451.713138496715,2,41,0.5501165986061096,3.9741463661193848,42.57182316368598,42.02460352559742,169.39812302258412,153.8273612654507,9.713172767078504e-05,0.0882566422224044,0,0,0
14322,484881.412772389,2010-09-06 04:11:57,3481.7284859280053,2,41,0.5499359965324402,3.9759271144866943,42.57640978959526,42.02460352559742,169.41635498509547,153.8273612654507,6.47544875391759e-05,0.0882566422224044,0,0,0
14323,484911.427733292,2010-09-06 04:12:27,3511.743446845985,2,41,0.5499359965324402,3.977707862854004,42.58099634625858,42.02460352559742,169.43459548111966,153.8273612654507,0.0,0.0882566422224044,0,0,0
14324,484941.4428082392,2010-09-06 04:12:57,3541.758521778124,2,41,0.5501165986061096,3.979812383651733,42.585582879477,42.02460352559742,169.4528444602761,153.8273612654507,3.237724376958795e-05,0.0882566422224044,0,0,0
14325,484971.4580639669,2010-09-06 04:13:27,3571.7737775158857,2,41,0.5501165986061096,3.981916904449463,42.590169361978056,42.02460352559742,169.47110269128854,153.8273612654507,6.47544875391759e-05,0.0882566422224044,0,0,0
14326,485001.4731384228,2010-09-06 04:13:57,3601.7888519868748,2,41,0.5499359965324402,3.9838595390319824,42.59475586202971,42.02460352559742,169.48937011403575,153.8273612654507,6.47544875391759e-05,0.0882566422224044,0,0,0
14327,485031.4883079557,2010-09-06 04:14:27,3631.8040214997377,2,41,0.5501165986061096,3.985802173614502,42.59934235136647,42.02460352559742,169.50764673119403,153.8273612654507,3.237724376958795e-05,0.0882566422224044,0,0,0
14328,485061.50341761945,2010-09-06 04:14:57,3661.8191311534138,2,41,0.5501165986061096,3.9880685806274414,42.60392886317574,42.02460352559742,169.52593280667253,153.8273612654507,3.237724376958795e-05,0.0882566422224044,0,0,0
14329,485091.5186043904,2010-09-06 04:15:27,3691.8343179293006,2,41,0.5501165986061096,3.990011215209961,42.60851538263047,42.02460352559742,169.54422818833226,153.8273612654507,3.237724376958795e-05,0.0882566422224044,0,0,0
14330,485121.53386810806,2010-09-06 04:15:57,3721.849581651963,2,41,0.5501165986061096,3.9921157360076895,42.61310185723277,42.02460352559742,169.56253288287036,153.8273612654507,6.47544875391759e-05,0.0882566422224044,0,0,0
14331,485151.5488706948,2010-09-06 04:16:27,3751.8645842588458,2,41,0.5501165986061096,3.994220018386841,42.61768834186774,42.02460352559742,169.58084716603005,153.8273612654507,9.70840483205393e-05,0.0882566422224044,0,0,0
14332,485181.5640339271,2010-09-06 04:16:57,3781.8797474910543,2,41,0.5501165986061096,3.9963245391845694,42.62227485856944,42.02460352559742,169.59917122037334,153.8273612654507,6.47544875391759e-05,0.0882566422224044,0,0,0
14333,485211.5794063356,2010-09-06 04:17:27,3811.895119869521,2,41,0.550297200679779,3.9984290599823,42.62686143686691,42.02460352559742,169.61750522145934,153.8273612654507,6.47544875391759e-05,0.0882566422224044,0,0,0
14334,485241.5943321811,2010-09-06 04:17:57,3841.9100457150894,2,41,0.5499359965324402,4.000371932983398,42.63144791386085,42.02460352559742,169.6358483832947,153.8273612654507,6.47544875391759e-05,0.0882566422224044,0,0,0
14335,485271.6094618197,2010-09-06 04:18:27,3871.9251753535736,2,41,0.550297200679779,4.002476215362549,42.63603430313911,42.02460352559742,169.65420102334352,153.8273612654507,3.23295607813634e-05,0.0882566422224044,0,0,0
14336,485301.6246077388,2010-09-06 04:18:57,3901.940321272634,2,41,0.5501165986061096,4.004742622375488,42.64062078692534,42.02460352559742,169.67256389205954,153.8273612654507,3.23295607813634e-05,0.0882566422224044,0,0,0
14337,485331.63966037525,2010-09-06 04:19:27,3931.955373909205,2,41,0.5501165986061096,4.007009029388428,42.64520727655081,42.02460352559742,169.6909367430591,153.8273612654507,6.47544875391759e-05,0.0882566422224044,0,0,0
14338,485361.6548894416,2010-09-06 04:19:57,3961.9706029955423,2,41,0.5499359965324402,4.008951663970947,42.64979369962721,42.02460352559742,169.70931933767852,153.8273612654507,3.23295607813634e-05,0.0882566422224044,0,0,0
14339,485391.6700447189,2010-09-06 04:20:27,3991.9857582629015,2,41,0.5499359965324402,4.011380195617676,42.65438015414348,42.02460352559742,169.72771209534184,153.8273612654507,6.47544875391759e-05,0.0882566422224044,0,0,0
14340,485421.685170192,2010-09-06 04:20:57,4022.0008837259775,2,41,0.5501165986061096,4.013484477996826,42.658966637453055,42.02460352559742,169.74611514952178,153.8273612654507,3.23295607813634e-05,0.0882566422224044,0,0,0
14341,485451.7002912191,2010-09-06 04:21:27,4052.0160047780623,2,41,0.5499359965324402,4.015750885009766,42.66355311393239,42.02460352559742,169.76452843347363,153.8273612654507,3.23295607813634e-05,0.0882566422224044,0,0,0
14342,485481.7154544964,2010-09-06 04:21:57,4082.031168055385,2,41,0.5499359965324402,4.018017292022705,42.66813957554858,42.02460352559742,169.78295201885362,153.8273612654507,6.47544875391759e-05,0.0882566422224044,0,0,0
14343,485511.73069979314,2010-09-06 04:22:27,4112.046413357136,2,41,0.5501165986061096,4.020445823669434,42.672726121860194,42.02460352559742,169.80138628633756,153.8273612654507,6.47544875391759e-05,0.0882566422224044,0,0,0
14344,485541.7459202229,2010-09-06 04:22:57,4142.06163376685,2,41,0.5501165986061096,4.022550106048584,42.677312583366366,42.02460352559742,169.81983076178926,153.8273612654507,6.47544875391759e-05,0.0882566422224044,0,0,0
14345,485571.7609236417,2010-09-06 04:23:27,4172.076637175731,2,41,0.5501165986061096,4.0249786376953125,42.68189903307222,42.02460352559742,169.83828579617415,153.8273612654507,9.71794142969884e-05,0.0882566422224044,0,0,0
14346,485601.77610776114,2010-09-06 04:23:57,4202.091821315046,2,41,0.5501165986061096,4.027245044708252,42.68648550719148,42.02460352559742,169.85675162191157,153.8273612654507,3.24249267578125e-05,0.0882566422224044,0,0,0
14347,485631.7912202518,2010-09-06 04:24:27,4232.106933785743,2,41,0.550297200679779,4.029673099517822,42.69107197564347,42.02460352559742,169.87522820903106,153.8273612654507,6.47544875391759e-05,0.0882566422224044,0,0,0
14348,485661.8065465906,2010-09-06 04:24:57,4262.122260144514,2,41,0.5501165986061096,4.032101631164551,42.69565853528633,42.02460352559742,169.89371599805625,153.8273612654507,9.71794142969884e-05,0.0882566422224044,0,0,0
14349,485691.82151675655,2010-09-06 04:25:27,4292.137230300517,2,41,0.5497553944587708,4.034367561340332,42.70024507914751,42.02460352559742,169.9122147133058,153.8273612654507,3.23295607813634e-05,0.0882566422224044,0,0,0
14350,485721.83666397387,2010-09-06 04:25:57,4322.152377517814,2,41,0.5501165986061096,4.0367960929870605,42.70483152269328,42.02460352559742,169.93072405878326,153.8273612654507,3.24249267578125e-05,0.0882566422224044,0,0,0
14351,485751.8519309045,2010-09-06 04:26:27,4352.167644428422,2,41,0.550297200679779,4.03938627243042,42.70941805286224,42.02460352559742,169.94924498824906,153.8273612654507,6.47544875391759e-05,0.0882566422224044,0,0,0
14352,485781.86707540514,2010-09-06 04:26:57,4382.182788943984,2,41,0.5499359965324402,4.041976451873779,42.71400462523627,42.02460352559742,169.96777727392524,153.8273612654507,6.47544875391759e-05,0.0882566422224044,0,0,0
14353,485811.882110934,2010-09-06 04:27:27,4412.197824487955,2,41,0.5501165986061096,4.04440450668335,42.71859115831041,42.02460352559742,169.9863208074081,153.8273612654507,6.47544875391759e-05,0.0882566422224044,0,0,0
14354,485841.90005747805,2010-09-06 04:27:57,4442.215771011984,2,41,0.5501165986061096,4.046670913696289,42.72317812993956,42.02460352559742,170.00487761288883,153.8273612654507,3.23295607813634e-05,0.0882566422224044,0,0,0
14355,485871.91243308265,2010-09-06 04:28:28,4472.228146616568,2,41,0.5501165986061096,4.0494232177734375,42.7277642442092,42.02460352559742,170.02344258723906,153.8273612654507,6.47544875391759e-05,0.0882566422224044,0,0,0
14356,485901.9278142079,2010-09-06 04:28:58,4502.243527771909,2,41,0.5501165986061096,4.051851272583008,42.73235080677536,42.02460352559742,170.04202099671986,153.8273612654507,6.47544875391759e-05,0.0882566422224044,0,0,0
14357,485931.9428067447,2010-09-06 04:29:28,4532.258520278618,2,41,0.550297200679779,4.054603576660156,42.73693729896759,42.02460352559742,170.0606109389758,153.8273612654507,6.47544875391759e-05,0.0882566422224044,0,0,0
14358,485961.9578333965,2010-09-06 04:29:58,4562.273546960502,2,41,0.550297200679779,4.057193756103516,42.74152387888751,42.02460352559742,170.0792131541099,153.8273612654507,6.47544875391759e-05,0.0882566422224044,0,0,0
14359,485991.97298049845,2010-09-06 04:30:28,4592.288694032434,2,41,0.5501165986061096,4.059783935546875,42.74611044579543,42.02460352559742,170.09782738508207,153.8273612654507,9.71794142969884e-05,0.0882566422224044,0,0,0
14360,486021.9885412465,2010-09-06 04:30:58,4622.304254795414,2,41,0.5501165986061096,4.062211990356445,42.75069705550359,42.02460352559742,170.11645357910166,153.8273612654507,3.23295607813634e-05,0.0882566422224044,0,0,0
14361,486052.00326063245,2010-09-06 04:31:28,4652.318974166384,2,41,0.5501165986061096,4.064964294433594,42.75528348182497,42.02460352559742,170.13509123197872,153.8273612654507,6.47544875391759e-05,0.0882566422224044,0,0,0
14362,486082.0185817632,2010-09-06 04:31:58,4682.33429530715,2,41,0.5499359965324402,4.067554473876953,42.75987001822331,42.02460352559742,170.15374168614667,153.8273612654507,3.24249267578125e-05,0.0882566422224044,0,0,0
14363,486112.03357538267,2010-09-06 04:32:28,4712.349288916607,2,41,0.5501165986061096,4.070630073547363,42.76445653107188,42.02460352559742,170.1724045608069,153.8273612654507,0.0001295089750783,0.0882566422224044,0,0,0
14364,486142.0486867355,2010-09-06 04:32:58,4742.364400279543,2,41,0.5501165986061096,4.073220252990723,42.76904303423902,42.02460352559742,170.1910799009843,153.8273612654507,9.70840483205393e-05,0.0882566422224044,0,0,0
14365,486172.064082352,2010-09-06 04:33:28,4772.379795895925,2,41,0.550297200679779,4.075972557067871,42.77362957197992,42.02460352559742,170.2097680984362,153.8273612654507,3.24249267578125e-05,0.0882566422224044,0,0,0
14366,486202.0791950432,2010-09-06 04:33:58,4802.394908607222,2,41,0.5501165986061096,4.078724384307861,42.77821604013942,42.02460352559742,170.2284687689493,153.8273612654507,9.70840483205393e-05,0.0882566422224044,0,0,0
14367,486232.0941496556,2010-09-06 04:34:28,4832.40986318941,2,41,0.550297200679779,4.08147668838501,42.78280244806903,42.02460352559742,170.2471820839093,153.8273612654507,3.24249267578125e-05,0.0882566422224044,0,0,0
14368,486262.1092702915,2010-09-06 04:34:58,4862.424983825457,2,41,0.5501165986061096,4.084390640258789,42.78738892819723,42.02460352559742,170.26590864629128,153.8273612654507,9.71794142969884e-05,0.0882566422224044,0,0,0
14369,486292.12448288174,2010-09-06 04:35:28,4892.440196596132,2,41,0.550297200679779,4.087304592132568,42.7919753960891,42.02460352559742,170.28464831416687,153.8273612654507,6.47544875391759e-05,0.0882566422224044,0,0,0
14370,486322.139800243,2010-09-06 04:35:58,4922.455513817129,2,41,0.5501165986061096,4.0903801918029785,42.79656188775721,42.02460352559742,170.30340133924778,153.8273612654507,0.0001295089750783,0.0882566422224044,0,0,0
14371,486352.1547003896,2010-09-06 04:36:28,4952.47041392856,2,41,0.5501165986061096,4.093132495880127,42.801148350034346,42.02460352559742,170.32216758638805,153.8273612654507,6.47544875391759e-05,0.0882566422224044,0,0,0
14372,486382.16982063965,2010-09-06 04:36:58,4982.485534183657,2,41,0.5501165986061096,4.096208095550537,42.80573487402358,42.02460352559742,170.34094749910767,153.8273612654507,9.70840483205393e-05,0.0882566422224044,0,0,0
14373,486412.1849635613,2010-09-06 04:37:28,5012.500677095222,2,41,0.5501165986061096,4.0989603996276855,42.81032136904042,42.02460352559742,170.35974086650776,153.8273612654507,6.47544875391759e-05,0.0882566422224044,0,0,0
14374,486442.2001393046,2010-09-06 04:37:58,5042.515852838613,2,41,0.5501165986061096,4.102035999298096,42.8149078732062,42.02460352559742,170.3785479560028,153.8273612654507,6.47544875391759e-05,0.0882566422224044,0,0,0
14375,486472.2152706023,2010-09-06 04:38:28,5072.53098413122,2,41,0.5501165986061096,4.105112075805664,42.819494379408816,42.02460352559742,170.39736880598304,153.8273612654507,6.47544875391759e-05,0.0882566422224044,0,0,0
14376,486502.23043000494,2010-09-06 04:38:58,5102.546143543909,2,41,0.5501165986061096,4.108349800109863,42.8240808001347,42.02460352559742,170.41620332955551,153.8273612654507,0.0001295089750783,0.0882566422224044,0,0,0
14377,486532.2455506109,2010-09-06 04:39:28,5132.561264144869,2,41,0.5501165986061096,4.111263751983643,42.82866724740103,42.02460352559742,170.4350520598034,153.8273612654507,9.71794142969884e-05,0.0882566422224044,0,0,0
14378,486562.26082547137,2010-09-06 04:39:58,5162.57653902534,2,41,0.5501165986061096,4.114339351654053,42.833253821887325,42.02460352559742,170.4539154902692,153.8273612654507,9.70840483205393e-05,0.0882566422224044,0,0,0
14379,486592.2758360632,2010-09-06 04:40:28,5192.591549607098,2,41,0.5499359965324402,4.117414951324463,42.83784028617104,42.02460352559742,170.4727928706104,153.8273612654507,9.70840483205393e-05,0.0882566422224044,0,0,0
14380,486622.2909763783,2010-09-06 04:40:58,5222.606689922191,2,41,0.5501165986061096,4.120652675628662,42.84242677973883,42.02460352559742,170.49168481173757,153.8273612654507,9.70840483205393e-05,0.0882566422224044,0,0,0
14381,486652.3062756997,2010-09-06 04:41:28,5252.621989233551,2,41,0.5501165986061096,4.123890399932861,42.84701333221216,42.02460352559742,170.51059164827555,153.8273612654507,0.0001295089750783,0.0882566422224044,0,0,0
14382,486682.3212762765,2010-09-06 04:41:58,5282.636989815386,2,41,0.5501165986061096,4.1271281242370605,42.85159982241903,42.02460352559742,170.5295130426514,153.8273612654507,9.70840483205393e-05,0.0882566422224044,0,0,0
14383,486712.3364082106,2010-09-06 04:42:28,5312.652121744579,2,41,0.5499359965324402,4.13036584854126,42.85618639737595,42.02460352559742,170.54844973138444,153.8273612654507,6.47544875391759e-05,0.0882566422224044,0,0,0
14384,486742.3515575783,2010-09-06 04:42:58,5342.667271107221,2,41,0.5499359965324402,4.133603572845459,42.8607729739485,42.02460352559742,170.56740147508995,153.8273612654507,9.70840483205393e-05,0.0882566422224044,0,0,0
14385,486772.3666986002,2010-09-06 04:43:28,5372.682412134088,2,41,0.550297200679779,4.137165069580078,42.8653595267954,42.02460352559742,170.58636830185918,153.8273612654507,0.0001618385285837,0.0882566422224044,0,0,0
14386,486802.3818651456,2010-09-06 04:43:58,5402.697578679555,2,41,0.5501165986061096,4.140241146087647,42.86994609214902,42.02460352559742,170.60535059926025,153.8273612654507,6.47544875391759e-05,0.0882566422224044,0,0,0
14387,486832.3969975309,2010-09-06 04:44:28,5432.712711069897,2,41,0.550297200679779,4.143640518188477,42.87453264870207,42.02460352559742,170.6243483602821,153.8273612654507,6.47544875391759e-05,0.0882566422224044,0,0,0
14388,486862.4121540514,2010-09-06 04:44:58,5462.727867585367,2,41,0.5501165986061096,4.147364139556885,42.87911912982402,42.02460352559742,170.64336169500106,153.8273612654507,9.71794142969884e-05,0.0882566422224044,0,0,0
14389,486892.42727379024,2010-09-06 04:45:28,5492.742987324177,2,41,0.550297200679779,4.150763511657715,42.883705623508384,42.02460352559742,170.662390937984,153.8273612654507,9.70840483205393e-05,0.0882566422224044,0,0,0
14390,486922.4424245263,2010-09-06 04:45:58,5522.758138060243,2,41,0.5499359965324402,4.154001235961914,42.88829207215365,42.02460352559742,170.68143589558022,153.8273612654507,6.47544875391759e-05,0.0882566422224044,0,0,0
14391,486952.457564661,2010-09-06 04:46:28,5552.773278194885,2,41,0.5501165986061096,4.157724857330322,42.89287856830842,42.02460352559742,170.70049704944614,153.8273612654507,9.71794142969884e-05,0.0882566422224044,0,0,0
14392,486982.47271823406,2010-09-06 04:46:58,5582.788431768022,2,41,0.5497553944587708,4.1609625816345215,42.89746501093646,42.02460352559742,170.7195741846354,153.8273612654507,6.47544875391759e-05,0.0882566422224044,0,0,0
14393,487012.4878799325,2010-09-06 04:47:28,5612.8035934664085,2,41,0.550297200679779,4.1648478507995605,42.90205149651292,42.02460352559742,170.73866778376478,153.8273612654507,0.0001295089750783,0.0882566422224044,0,0,0
14394,487042.5030378214,2010-09-06 04:47:58,5642.8187513553,2,41,0.5501165986061096,4.16840934753418,42.90663795174365,42.02460352559742,170.7577777109133,153.8273612654507,9.71794142969884e-05,0.0882566422224044,0,0,0
14395,487072.5181266432,2010-09-06 04:48:28,5672.833840207131,2,41,0.550297200679779,4.171970844268799,42.91122441787231,42.02460352559742,170.77690428916105,153.8273612654507,9.71794142969884e-05,0.0882566422224044,0,0,0
14396,487102.53327691305,2010-09-06 04:48:58,5702.848990446961,2,41,0.5501165986061096,4.175532341003418,42.91581161831661,42.02460352559742,170.79605072367852,153.8273612654507,6.47544875391759e-05,0.0882566422224044,0,0,0
14397,487132.5485510015,2010-09-06 04:49:28,5732.86426454047,2,41,0.5501165986061096,4.179417610168457,42.920398870117495,42.02460352559742,170.81521420963742,153.8273612654507,9.71794142969884e-05,0.0882566422224044,0,0,0
14398,487162.5635921645,2010-09-06 04:49:58,5762.879305703445,2,41,0.5501165986061096,4.183140754699707,42.92498607922682,42.02460352559742,170.8343945037203,153.8273612654507,9.70840483205393e-05,0.0882566422224044,0,0,0
14399,487192.5787276326,2010-09-06 04:50:28,5792.894441166445,2,41,0.550297200679779,4.186864376068115,42.92957329390608,42.02460352559742,170.8535919656445,153.8273612654507,6.47544875391759e-05,0.0882566422224044,0,0,0
14400,487222.59385814815,2010-09-06 04:50:58,5822.9095717021655,2,41,0.5501165986061096,4.190587520599365,42.934159835718205,42.02460352559742,170.87280388202217,153.8273612654507,9.70840483205393e-05,0.0882566422224044,0,0,0
14401,487252.6089943581,2010-09-06 04:51:28,5852.924707891977,2,41,0.550297200679779,4.194472789764404,42.93874629835236,42.02460352559742,170.89203288882888,153.8273612654507,9.70840483205393e-05,0.0882566422224044,0,0,0
14402,487282.62417640217,2010-09-06 04:51:58,5882.939889946097,2,41,0.5499359965324402,4.198358058929443,42.9433327801079,42.02460352559742,170.91127959871562,153.8273612654507,0.0001295089750783,0.0882566422224044,0,0,0
14403,487294.7333129814,2010-09-06 04:52:10,5895.049026520328,2,41,0.5501165986061096,4.200138568878174,42.94518311989346,42.02460352559742,170.91904940379465,153.8273612654507,0.0001618385285837,0.0882566422224044,0,0,0
14404,487324.7554042516,2010-09-06 04:52:40,30.01530710578673,3,41,0.0,4.116767406463623,42.94518311989346,42.02460352559742,170.91904940379465,153.8273612654507,-0.0003885269106831,0.0882566422224044,0,0,0
14405,487354.770397455,2010-09-06 04:53:10,60.0303003393072,3,41,0.0,4.106083393096924,42.94518311989346,42.02460352559742,170.91904940379465,153.8273612654507,-0.0002265930233988,0.0882566422224044,0,0,0
14406,487384.7885216168,2010-09-06 04:53:40,90.0484244910392,3,41,0.0,4.099931716918945,42.94518311989346,42.02460352559742,170.91904940379465,153.8273612654507,-0.0001295089750783,0.0882566422224044,0,0,0
14407,487414.7537859757,2010-09-06 04:54:10,120.01368882985288,3,41,0.0,4.095884323120117,42.94518311989346,42.02460352559742,170.91904940379465,153.8273612654507,-6.47544875391759e-05,0.0882566422224044,0,0,0
14408,487414.7625466248,2010-09-06 04:54:11,0.015673302692865,4,41,1.0065162181854248,4.199814796447754,42.94518750195833,42.02460352559742,170.91906780765547,153.8273612654507,0.0,0.0882566422224044,0,0,0
14409,487415.6062815819,2010-09-06 04:54:11,0.859408264829267,4,41,0.956487476825714,4.199653148651123,42.94541595324476,42.02460352559742,170.9200272459934,153.8273612654507,-3.23295607813634e-05,0.0882566422224044,0,0,0
14410,487417.6532160976,2010-09-06 04:54:14,2.906342785480736,4,41,0.9064587354660034,4.199653148651123,42.94594455893368,42.02460352559742,170.922247280758,153.8273612654507,-3.23295607813634e-05,0.0882566422224044,0,0,0
14411,487420.76245001017,2010-09-06 04:54:17,6.015576683040809,4,41,0.8558881282806396,4.199814796447754,42.9467046247506,42.02460352559742,170.9254393820584,153.8273612654507,0.0,0.0882566422224044,0,0,0
14412,487424.918633769,2010-09-06 04:54:21,10.17176047688084,4,41,0.8058593273162842,4.199814796447754,42.947662722355474,42.02460352559742,170.92946317897164,153.8273612654507,0.0,0.0882566422224044,0,0,0
14413,487430.23104180925,2010-09-06 04:54:26,15.484168492242205,4,41,0.7558305859565735,4.199814796447754,42.948813645506775,42.02460352559742,170.93429679696254,153.8273612654507,-3.24249267578125e-05,0.0882566422224044,0,0,0
14414,487437.0746819162,2010-09-06 04:54:33,22.327808599123973,4,41,0.705801784992218,4.199653148651123,42.950201164180086,42.02460352559742,170.94012408954555,153.8273612654507,-6.47544875391759e-05,0.0882566422224044,0,0,0
14415,487446.0120610399,2010-09-06 04:54:42,31.265187722863136,4,41,0.6555924415588379,4.199653148651123,42.95188857435456,42.02460352559742,170.94721087482,153.8273612654507,-3.23295607813634e-05,0.0882566422224044,0,0,0
14416,487458.2618529555,2010-09-06 04:54:54,43.5149796434961,4,41,0.6055636405944824,4.199814796447754,42.95403019314432,42.02460352559742,170.9562052347193,153.8273612654507,0.0,0.0882566422224044,0,0,0
14417,487476.058315491,2010-09-06 04:55:12,61.31144216894414,4,41,0.5555348992347717,4.199814796447754,42.956892063942966,42.02460352559742,170.96822450524866,153.8273612654507,-3.24249267578125e-05,0.0882566422224044,0,0,0
14418,487504.9486132775,2010-09-06 04:55:41,90.2017399403128,4,41,0.5053254961967468,4.199653148651123,42.96113265801864,42.02460352559742,170.986034133431,153.8273612654507,-3.23295607813634e-05,0.0882566422224044,0,0,0
14419,487555.7446972582,2010-09-06 04:56:32,140.99782394120732,4,41,0.4552967548370361,4.199653148651123,42.967880797605545,42.02460352559742,171.01437491513852,153.8273612654507,-3.23295607813634e-05,0.0882566422224044,0,0,0
14420,487639.1650558698,2010-09-06 04:57:55,224.41818254264476,4,41,0.405267983675003,4.199653148651123,42.97782087183795,42.02460352559742,171.0561212320208,153.8273612654507,3.24249267578125e-05,0.0882566422224044,0,0,0
14421,487749.5696798233,2010-09-06 04:59:45,334.8228065062155,4,41,0.3552392125129699,4.199814796447754,42.98946626520423,42.02460352559742,171.10502953717682,153.8273612654507,-3.24249267578125e-05,0.0882566422224044,0,0,0
14422,487884.50488871743,2010-09-06 05:02:00,469.7580153902804,4,41,0.3052104413509369,4.199653148651123,43.001827985651246,42.02460352559742,171.15694625480694,153.8273612654507,0.0,0.0882566422224044,0,0,0
14423,488045.627266519,2010-09-06 05:04:42,630.8803931918782,4,41,0.2551816701889038,4.199653148651123,43.01434705315712,42.02460352559742,171.2095238378081,153.8273612654507,-3.23295607813634e-05,0.0882566422224044,0,0,0
14424,488246.4834254941,2010-09-06 05:08:02,831.7365521869891,4,41,0.2051528990268707,4.199814796447754,43.02715659303635,42.02460352559742,171.26332135945492,153.8273612654507,0.0,0.0882566422224044,0,0,0
14425,488507.760570763,2010-09-06 05:12:24,1093.0136974559673,4,41,0.1551241278648376,4.199653148651123,43.040172825042816,42.02460352559742,171.3179869565178,153.8273612654507,-3.23295607813634e-05,0.0882566422224044,0,0,0
14426,488888.6917778608,2010-09-06 05:18:45,1473.9449045586694,4,41,0.1050953567028045,4.199653148651123,43.053803865003104,42.02460352559742,171.37523456226586,153.8273612654507,0.0,0.0882566422224044,0,0,0
14427,489567.0872352125,2010-09-06 05:30:03,2152.3403619104533,4,41,0.0550665855407714,4.199653148651123,43.06843562799311,42.02460352559742,171.4366850402955,153.8273612654507,0.0,0.0882566422224044,0,0,0
14428,489680.6322937654,2010-09-06 05:31:57,2265.885420438246,4,41,0.0498289167881011,4.199814796447754,43.07010633595539,42.02460352559742,171.44370169672433,153.8273612654507,0.0,0.0882566422224044,0,0,0
14429,489710.6613917155,2010-09-06 05:32:27,30.01526391814985,5,41,0.0,4.191882610321045,43.07010633595539,42.02460352559742,171.44370169672433,153.8273612654507,-3.24249267578125e-05,0.0882566422224044,0,0,0
14430,489740.6607825631,2010-09-06 05:32:57,60.014654755698814,5,41,0.0,4.190911293029785,43.07010633595539,42.02460352559742,171.44370169672433,153.8273612654507,3.23295607813634e-05,0.0882566422224044,0,0,0
14431,489740.84755101945,2010-09-06 05:32:57,0.187468714719763,6,41,-1.9243103452026844e-05,4.190587520599365,43.07010633595539,42.02460352659951,171.44370169672433,153.82736126965,0.0,0.0940094217658042,0,0,0
14432,489745.6756155368,2010-09-06 05:33:02,5.015533206992813,6,41,0.0008838032954372,4.190749645233154,43.070107366853,42.024603526766754,171.44370601702812,153.82736127035088,0.0,0.0940094217658042,0,0,0
14433,489775.7057630569,2010-09-06 05:33:32,30.01516770335297,7,41,-1.0993878841400146,4.014779567718506,43.070107366853,42.03377058094972,171.44370601702812,153.86436835393505,-0.0009713172912597,0.0940094217658042,0,0,0
14434,489805.72085691633,2010-09-06 05:34:02,60.030261562663874,7,41,-1.099568486213684,3.9867734909057617,43.070107366853,42.04293748383068,171.44370601702812,153.90103421363142,-0.0006151676061563,0.0940094217658042,0,0,0
14435,489835.7359954669,2010-09-06 05:34:32,90.04540011335946,7,41,-1.0993878841400146,3.967509031295776,43.070107366853,42.052104333992354,171.44370601702812,153.93748741752566,-0.0004532813909463,0.0940094217658042,0,0,0
14436,489865.75114630326,2010-09-06 05:35:02,120.06055094967458,7,41,-1.099568486213684,3.95261549949646,43.070107366853,42.06127119240113,171.44370601702812,153.97378657858434,-0.0003885269106831,0.0940094217658042,0,0,0
14437,489895.7662749944,2010-09-06 05:35:32,150.07567964079706,7,41,-1.0992072820663452,3.940474033355713,43.070107366853,42.07043794123299,171.44370601702812,154.00996261210577,-0.0002913951757363,0.0940094217658042,0,0,0
14438,489925.7815541204,2010-09-06 05:36:02,180.09095878188717,7,41,-1.0993878841400146,3.929789543151856,43.070107366853,42.07960477302255,171.44370601702812,154.046034428134,-0.0002590179501567,0.0940094217658042,0,0,0
14439,489955.7965556597,2010-09-06 05:36:32,210.105960311083,7,41,-1.0993878841400146,3.919914484024048,43.070107366853,42.088771524118826,171.44370601702812,154.08201224726403,-0.0002913951757363,0.0940094217658042,0,0,0
14440,489985.81186809874,2010-09-06 05:37:02,240.12127274514944,7,41,-1.0993878841400146,3.910525321960449,43.070107366853,42.097938075957295,171.44370601702812,154.11790233048023,-0.0002590179501567,0.0940094217658042,0,0,0
14441,490015.8268445504,2010-09-06 05:37:32,270.13624919183195,7,41,-1.099568486213684,3.901945352554321,43.070107366853,42.1071041111399,171.44370601702812,154.1537078056992,-0.0002266406954731,0.0940094217658042,0,0,0
14442,490045.84200684034,2010-09-06 05:38:02,300.1514114917178,7,41,-1.0997490882873535,3.893365383148194,43.070107366853,42.11627039756462,171.44370601702812,154.1894352855885,-0.0002913951757363,0.0940094217658042,0,0,0
14443,490075.8572768236,2010-09-06 05:38:32,330.1666815000463,7,41,-1.099568486213684,3.885109186172485,43.070107366853,42.12543730611549,171.44370601702812,154.22508912816235,-0.0002590179501567,0.0940094217658042,0,0,0
14444,490105.872428151,2010-09-06 05:39:02,360.1818327975107,7,41,-1.0993878841400146,3.8773386478424072,43.070107366853,42.134604145279695,171.44370601702812,154.26066827892046,-0.0001942634553415,0.0940094217658042,0,0,0
14445,490135.88743254746,2010-09-06 05:39:32,390.1968372239273,7,41,-1.0993878841400146,3.869568109512329,43.070107366853,42.14377095177355,171.44370601702812,154.29617468592818,-0.0001942634553415,0.0940094217658042,0,0,0
14446,490165.9025808525,2010-09-06 05:40:02,420.21198549885867,7,41,-1.0992072820663452,3.861959457397461,43.070107366853,42.15293789173087,171.44370601702812,154.331610071437,-0.0001618862152099,0.0940094217658042,0,0,0
14447,490195.91773805465,2010-09-06 05:40:32,450.2271427010395,7,41,-1.0993878841400146,3.854188919067383,43.070107366853,42.16210484763896,171.44370601702812,154.36697533484576,-0.0001618862152099,0.0940094217658042,0,0,0
14448,490225.9328624,2010-09-06 05:41:02,480.2422670613683,7,41,-1.0997490882873535,3.846580266952514,43.070107366853,42.17127229262043,171.44370601702812,154.40227347271667,-0.0001942634553415,0.0940094217658042,0,0,0
14449,490255.947999928,2010-09-06 05:41:32,510.2574045694655,7,41,-1.099568486213684,3.8392953872680655,43.070107366853,42.18044014654859,171.44370601702812,154.43750566177283,-0.0001942634553415,0.0940094217658042,0,0,0
14450,490285.963131336,2010-09-06 05:42:02,540.2725359974089,7,41,-1.0993878841400146,3.8321726322174072,43.070107366853,42.1896079827024,171.44370601702812,154.4726714285084,-0.0001942634553415,0.0940094217658042,0,0,0
14451,490315.978432136,2010-09-06 05:42:32,570.2878367924674,7,41,-1.099568486213684,3.825049638748169,43.070107366853,42.198775832537066,171.44370601702812,154.50777189321133,-0.0002266406954731,0.0940094217658042,0,0,0
14452,490345.9934154147,2010-09-06 05:43:02,600.3028200711774,7,41,-1.099568486213684,3.818250417709351,43.070107366853,42.20794309869496,171.44370601702812,154.54280614273694,-0.0001942634553415,0.0940094217658042,0,0,0
14453,490376.0085785667,2010-09-06 05:43:32,630.3179832281995,7,41,-1.099568486213684,3.811289310455322,43.070107366853,42.217110016030894,171.44370601702812,154.57777614734647,-0.0001618862152099,0.0940094217658042,0,0,0
14454,490406.0238219287,2010-09-06 05:44:02,660.3332265951293,7,41,-1.0993878841400146,3.804490089416504,43.070107366853,42.22627701812723,171.44370601702812,154.6126840653425,-0.0001618862152099,0.0940094217658042,0,0,0
14455,490436.038823488,2010-09-06 05:44:32,690.3482281493878,7,41,-1.099568486213684,3.7980146408081055,43.070107366853,42.23544396943326,171.44370601702812,154.6475308633202,-0.0001942634553415,0.0940094217658042,0,0,0
14456,490466.0539674721,2010-09-06 05:45:02,720.3633721236004,7,41,-1.099568486213684,3.791539192199707,43.070107366853,42.244610965370825,171.44370601702812,154.68231834108406,-0.0001942634553415,0.0940094217658042,0,0,0
14457,490496.0690985192,2010-09-06 05:45:32,750.378503165582,7,41,-1.0993878841400146,3.785387516021729,43.070107366853,42.253777923172414,171.44370601702812,154.71704712055237,-0.0001295089750783,0.0940094217658042,0,0,0
14458,490526.08423610753,2010-09-06 05:46:02,780.3936407488663,7,41,-1.0993878841400146,3.77907395362854,43.070107366853,42.26294487190188,171.44370601702812,154.7517184470227,-0.0001618862152099,0.0940094217658042,0,0,0
14459,490556.0993787383,2010-09-06 05:46:32,810.4087833847435,7,41,-1.099568486213684,3.7729222774505615,43.070107366853,42.27211189880962,171.44370601702812,154.78633361795232,-0.0001295089750783,0.0940094217658042,0,0,0
14460,490586.1145401209,2010-09-06 05:47:02,840.4239447623307,7,41,-1.099568486213684,3.766932487487793,43.070107366853,42.28127886011861,171.44370601702812,154.8208929896126,-0.0001618862152099,0.0940094217658042,0,0,0
14461,490616.1296989171,2010-09-06 05:47:32,870.4391035885592,7,41,-1.099568486213684,3.7611045837402335,43.070107366853,42.29044586407131,171.44370601702812,154.85539806140665,-0.0001295089750783,0.0940094217658042,0,0,0
14462,490646.1448057337,2010-09-06 05:48:02,900.4542103801012,7,41,-1.0993878841400146,3.755276679992676,43.070107366853,42.299612860896495,171.44370601702812,154.8898497979904,-0.0001618862152099,0.0940094217658042,0,0,0
14463,490676.1599369411,2010-09-06 05:48:32,930.46934157747,7,41,-1.099568486213684,3.749772787094116,43.070107366853,42.30877983660893,171.44370601702812,154.92424929818452,-9.713172767078504e-05,0.0940094217658042,0,0,0
14464,490706.17509900033,2010-09-06 05:49:02,960.4845036517936,7,41,-1.0997490882873535,3.744106769561768,43.070107366853,42.31794681301725,171.44370601702812,154.9585978181294,-0.0001942634553415,0.0940094217658042,0,0,0
14465,490736.1906918584,2010-09-06 05:49:32,990.5000965348252,7,41,-1.0993878841400146,3.738926410675049,43.070107366853,42.327114032888566,171.44370601702812,154.9928968903019,-9.713172767078504e-05,0.0940094217658042,0,0,0
14466,490766.20545449713,2010-09-06 05:50:02,1020.5148591736328,7,41,-1.0993878841400146,3.73342227935791,43.070107366853,42.33628095462993,171.44370601702812,155.027145584581,-0.0001618862152099,0.0940094217658042,0,0,0
14467,490796.22052670247,2010-09-06 05:50:32,1050.5299313489004,7,41,-1.099568486213684,3.728241920471192,43.070107366853,42.3454479078685,171.44370601702812,155.06134597892142,-0.0001295089750783,0.0940094217658042,0,0,0
14468,490826.2357041802,2010-09-06 05:51:02,1080.5451088817515,7,41,-1.099568486213684,3.7232234477996826,43.070107366853,42.354614903067,171.44370601702812,155.09549974904812,-0.0001295089750783,0.0940094217658042,0,0,0
14469,490856.25078275136,2010-09-06 05:51:32,1110.5601873978223,7,41,-1.099568486213684,3.718043088912964,43.070107366853,42.36378193340551,171.44370601702812,155.12960709735006,-0.0001618862152099,0.0940094217658042,0,0,0
14470,490886.26605212817,2010-09-06 05:52:02,1140.5754567695642,7,41,-1.099568486213684,3.713024616241455,43.070107366853,42.37294906938723,171.44370601702812,155.16366908660794,-0.0001618862152099,0.0940094217658042,0,0,0
14471,490916.2810599881,2010-09-06 05:52:32,1170.5904646245258,7,41,-1.0993878841400146,3.708329916000366,43.070107366853,42.38211611595492,171.44370601702812,155.19768585383196,-0.0001295089750783,0.0940094217658042,0,0,0
14472,490946.2968017472,2010-09-06 05:53:02,1200.6062063936272,7,41,-1.099568486213684,3.7034733295440674,43.070107366853,42.39128332927426,171.44370601702812,155.23165918790224,-0.0001618862152099,0.0940094217658042,0,0,0
14473,490976.2985797644,2010-09-06 05:53:32,1230.6079844157748,7,41,-1.099568486213684,3.698940515518189,43.070107366853,42.400446320558025,171.44370601702812,155.26557307528617,-9.713172767078504e-05,0.0940094217658042,0,0,0
14474,491006.3109384919,2010-09-06 05:54:03,1260.620343128258,7,41,-1.0997490882873535,3.6940839290618896,43.070107366853,42.40961254423503,171.44370601702812,155.29945580594966,-0.0001295089750783,0.0940094217658042,0,0,0
14475,491036.3262815622,2010-09-06 05:54:33,1290.6356862237424,7,41,-1.0993878841400146,3.6895511150360103,43.070107366853,42.41877971153007,171.44370601702812,155.33329969983862,-0.0001295089750783,0.0940094217658042,0,0,0
14476,491066.34126384347,2010-09-06 05:55:03,1320.6506684799035,7,41,-1.099568486213684,3.685018301010132,43.070107366853,42.427946742585625,171.44370601702812,155.36710140639653,-0.0001295089750783,0.0940094217658042,0,0,0
14477,491096.3564333163,2010-09-06 05:55:33,1350.6658379626915,7,41,-1.0993878841400146,3.680809259414673,43.070107366853,42.437113867435336,171.44370601702812,155.400862538571,-6.47544875391759e-05,0.0940094217658042,0,0,0
14478,491126.37142459495,2010-09-06 05:56:03,1380.6808292563774,7,41,-1.099568486213684,3.676276445388794,43.070107366853,42.44628088575724,171.44370601702812,155.43458353456862,-0.0001295089750783,0.0940094217658042,0,0,0
14479,491156.3865780628,2010-09-06 05:56:33,1410.695982714226,7,41,-1.099568486213684,3.672067642211914,43.070107366853,42.45544800173715,171.44370601702812,155.4682657300722,-0.0001618385285837,0.0940094217658042,0,0,0
14480,491186.4017571194,2010-09-06 05:57:03,1440.711161750825,7,41,-1.0993878841400146,3.667858600616455,43.070107366853,42.46461513668508,171.44370601702812,155.5019092680177,-0.0001295089750783,0.0940094217658042,0,0,0
14481,491216.41686822166,2010-09-06 05:57:33,1470.7262728581234,7,41,-1.099568486213684,3.663811445236206,43.070107366853,42.473782256320646,171.44370601702812,155.53551433379687,-9.713172767078504e-05,0.0940094217658042,0,0,0
14482,491246.43198441673,2010-09-06 05:58:03,1500.7413890831767,7,41,-1.0993878841400146,3.659764289855957,43.070107366853,42.48294938150061,171.44370601702812,155.56908182980754,-9.713172767078504e-05,0.0940094217658042,0,0,0
14483,491276.4471944505,2010-09-06 05:58:33,1530.7565991370802,7,41,-1.099568486213684,3.655717134475708,43.070107366853,42.49211645054298,171.44370601702812,155.60261244391586,-0.0001295089750783,0.0940094217658042,0,0,0
14484,491306.4623951512,2010-09-06 05:59:03,1560.7717998075975,7,41,-1.0993878841400146,3.651669979095459,43.070107366853,42.50128354675838,171.44370601702812,155.63610685149905,-0.0001295089750783,0.0940094217658042,0,0,0
14485,491336.4776285282,2010-09-06 05:59:33,1590.7870331645795,7,41,-1.0993878841400146,3.64794659614563,43.070107366853,42.510450696021344,171.44370601702812,155.66956584228024,-9.713172767078504e-05,0.0940094217658042,0,0,0
14486,491366.4925486996,2010-09-06 06:00:03,1620.801953341019,7,41,-1.099568486213684,3.644223213195801,43.070107366853,42.51961769356853,171.44370601702812,155.70298878603492,-6.47544875391759e-05,0.0940094217658042,0,0,0
14487,491396.5078388029,2010-09-06 06:00:33,1650.8172434494431,7,41,-1.099568486213684,3.640499830245972,43.070107366853,42.528784820561945,171.44370601702812,155.73637809469187,-9.713172767078504e-05,0.0940094217658042,0,0,0
14488,491426.5228271644,2010-09-06 06:01:03,1680.8322317957834,7,41,-1.099568486213684,3.636776447296143,43.070107366853,42.53795185995311,171.44370601702812,155.76973358706084,-9.713172767078504e-05,0.0940094217658042,0,0,0
14489,491456.5381087416,2010-09-06 06:01:33,1710.8475133879822,7,41,-1.099568486213684,3.633214950561523,43.070107366853,42.54711890467679,171.44370601702812,155.80305645947794,-9.713172767078504e-05,0.0940094217658042,0,0,0
14490,491486.5531182907,2010-09-06 06:02:03,1740.8625229271415,7,41,-1.099568486213684,3.629815340042114,43.070107366853,42.55628599662483,171.44370601702812,155.83634715495674,-6.47544875391759e-05,0.0940094217658042,0,0,0
14491,491516.568277508,2010-09-06 06:02:33,1770.8776821443444,7,41,-1.0993878841400146,3.626415729522705,43.070107366853,42.56545316426265,171.44370601702812,155.86960674563738,-6.47544875391759e-05,0.0940094217658042,0,0,0
14492,491546.5834301888,2010-09-06 06:03:03,1800.8928348252568,7,41,-1.0993878841400146,3.623178005218506,43.070107366853,42.57462026864826,171.44370601702812,155.9028355004114,-9.713172767078504e-05,0.0940094217658042,0,0,0
14493,491576.59854667954,2010-09-06 06:03:33,1830.907951315972,7,41,-1.099568486213684,3.619940280914306,43.070107366853,42.58378729859366,171.44370601702812,155.93603370418913,-6.47544875391759e-05,0.0940094217658042,0,0,0
14494,491606.6136966287,2010-09-06 06:04:03,1860.923101285126,7,41,-1.099568486213684,3.6167025566101074,43.070107366853,42.59295439784525,171.44370601702812,155.96920287999797,-9.713172767078504e-05,0.0940094217658042,0,0,0
14495,491636.6289558802,2010-09-06 06:04:33,1890.9383605115827,7,41,-1.0993878841400146,3.613626718521118,43.070107366853,42.602121523059786,171.44370601702812,156.0023433810272,-0.0001295089750783,0.0940094217658042,0,0,0
14496,491666.6440905061,2010-09-06 06:05:03,1920.953495167572,7,41,-1.0993878841400146,3.610550880432129,43.070107366853,42.61128864060144,171.44370601702812,156.0354555213862,-6.47544875391759e-05,0.0940094217658042,0,0,0
14497,491696.65910775954,2010-09-06 06:05:33,1950.9685123958943,7,41,-1.099568486213684,3.60747504234314,43.070107366853,42.62045576654259,171.44370601702812,156.06853966578652,-6.47544875391759e-05,0.0940094217658042,0,0,0
14498,491726.6742573076,2010-09-06 06:06:03,1980.983661954024,7,41,-1.099568486213684,3.60456109046936,43.070107366853,42.62962283284338,171.44370601702812,156.10159619213545,-3.237724376958795e-05,0.0940094217658042,0,0,0
14499,491756.6893934924,2010-09-06 06:06:33,2010.9987981388228,7,41,-1.0993878841400146,3.601647138595581,43.070107366853,42.638789945401896,171.44370601702812,156.1346260814121,-9.713172767078504e-05,0.0940094217658042,0,0,0
14500,491786.7045705289,2010-09-06 06:07:03,2041.0139751704248,7,41,-1.0997490882873535,3.598571300506592,43.070107366853,42.64795705895683,171.44370601702812,156.1676292170797,-9.713172767078504e-05,0.0940094217658042,0,0,0
14501,491816.7197164631,2010-09-06 06:07:33,2071.029121124572,7,41,-1.0992072820663452,3.5959811210632324,43.070107366853,42.65712422579699,171.44370601702812,156.2006058659143,-3.237724376958795e-05,0.0940094217658042,0,0,0
14502,491846.7348032098,2010-09-06 06:08:03,2101.044207841081,7,41,-1.099568486213684,3.592905282974243,43.070107366853,42.66629138424511,171.44370601702812,156.23355600435306,-9.713172767078504e-05,0.0940094217658042,0,0,0
14503,491876.75007697736,2010-09-06 06:08:33,2131.0594816238163,7,41,-1.099568486213684,3.589991569519043,43.070107366853,42.67545861756864,171.44370601702812,156.26647961813444,-6.47544875391759e-05,0.0940094217658042,0,0,0
14504,491906.7650964613,2010-09-06 06:09:03,2161.074501117786,7,41,-1.0993878841400146,3.5869157314300537,43.070107366853,42.68462571005947,171.44370601702812,156.2993760730705,-0.0001295089750783,0.0940094217658042,0,0,0
14505,491936.7802550419,2010-09-06 06:09:33,2191.0896596783523,7,41,-1.099568486213684,3.5841636657714844,43.070107366853,42.69379287899499,171.44370601702812,156.3322461606569,-9.713172767078504e-05,0.0940094217658042,0,0,0
14506,491966.7954553466,2010-09-06 06:10:03,2221.1048600330823,7,41,-1.0997490882873535,3.581087827682495,43.070107366853,42.70295992701366,171.44370601702812,156.36508905509973,-6.47544875391759e-05,0.0940094217658042,0,0,0
14507,491996.810526404,2010-09-06 06:10:33,2251.1199310404395,7,41,-1.099568486213684,3.578335762023926,43.070107366853,42.71212702605889,171.44370601702812,156.39790495142816,-6.47544875391759e-05,0.0940094217658042,0,0,0
14508,492026.8256799672,2010-09-06 06:11:03,2281.135084613576,7,41,-1.099568486213684,3.5750980377197266,43.070107366853,42.72129420579949,171.44370601702812,156.43069324790616,-0.0001295089750783,0.0940094217658042,0,0,0
14509,492056.8408367132,2010-09-06 06:11:33,2311.150241349594,7,41,-1.099568486213684,3.571860313415528,43.070107366853,42.73046134390587,171.44370601702812,156.46345281624494,-9.713172767078504e-05,0.0940094217658042,0,0,0
14510,492086.8559584971,2010-09-06 06:12:03,2341.1653631335016,7,41,-1.099568486213684,3.568784475326538,43.070107366853,42.73962840486272,171.44370601702812,156.4961830284845,-9.713172767078504e-05,0.0940094217658042,0,0,0
14511,492116.8710174895,2010-09-06 06:12:33,2371.180422135939,7,41,-1.099568486213684,3.565708637237549,43.070107366853,42.74879550159839,171.44370601702812,156.52888388560865,-6.47544875391759e-05,0.0940094217658042,0,0,0
14512,492146.8862364055,2010-09-06 06:13:03,2401.1956410719795,7,41,-1.0993878841400146,3.5624709129333496,43.070107366853,42.75796260586813,171.44370601702812,156.5615550489288,-6.47544875391759e-05,0.0940094217658042,0,0,0
14513,492176.90140724665,2010-09-06 06:13:33,2431.210811898115,7,41,-1.0993878841400146,3.5590713024139404,43.070107366853,42.76712974726176,171.44370601702812,156.59419656365478,-6.47544875391759e-05,0.0940094217658042,0,0,0
14514,492206.9166393957,2010-09-06 06:14:03,2461.226044072149,7,41,-1.0993878841400146,3.5556716918945312,43.070107366853,42.77629686633837,171.44370601702812,156.62680723934702,-9.713172767078504e-05,0.0940094217658042,0,0,0
14515,492236.93159886,2010-09-06 06:14:33,2491.2410035365065,7,41,-1.099568486213684,3.552110195159912,43.070107366853,42.78546387989681,171.44370601702812,156.65938626002097,-0.0001295089750783,0.0940094217658042,0,0,0
14516,492266.94691976014,2010-09-06 06:15:03,2521.256324416623,7,41,-1.099568486213684,3.548710584640503,43.070107366853,42.79463098178282,171.44370601702812,156.6919335464994,-6.47544875391759e-05,0.0940094217658042,0,0,0
14517,492296.9621568465,2010-09-06 06:15:33,2551.2715614928748,7,41,-1.0993878841400146,3.544987201690674,43.070107366853,42.80379805835421,171.44370601702812,156.72444774539994,-9.713172767078504e-05,0.0940094217658042,0,0,0
14518,492326.9770797296,2010-09-06 06:16:03,2581.286484381073,7,41,-1.0993878841400146,3.5412638187408447,43.070107366853,42.81296500359688,171.44370601702812,156.75692744817113,-9.713172767078504e-05,0.0940094217658042,0,0,0
14519,492356.9922195284,2010-09-06 06:16:33,2611.301624164841,7,41,-1.099568486213684,3.5373785495758057,43.070107366853,42.82213202901042,171.44370601702812,156.7893724034219,-9.713172767078504e-05,0.0940094217658042,0,0,0
14520,492387.0073717934,2010-09-06 06:17:03,2641.3167764397426,7,41,-1.099568486213684,3.5334932804107666,43.070107366853,42.831299092731406,171.44370601702812,156.82178138584257,-9.713172767078504e-05,0.0940094217658042,0,0,0
14521,492417.0225152563,2010-09-06 06:17:33,2671.3319198976683,7,41,-1.099568486213684,3.529284238815308,43.070107366853,42.84046609174177,171.44370601702812,156.8541530755216,-9.713172767078504e-05,0.0940094217658042,0,0,0
14522,492447.0377905778,2010-09-06 06:18:03,2701.347195234277,7,41,-1.099568486213684,3.5249133110046387,43.070107366853,42.84963326372217,171.44370601702812,156.88648659567278,-9.713172767078504e-05,0.0940094217658042,0,0,0
14523,492477.05278145545,2010-09-06 06:18:33,2731.3621861069128,7,41,-1.099568486213684,3.5205423831939697,43.070107366853,42.85880024689475,171.44370601702812,156.91877956120112,-0.0001295089750783,0.0940094217658042,0,0,0
14524,492507.0679185776,2010-09-06 06:19:03,2761.37732321401,7,41,-1.0992072820663452,3.516009569168091,43.070107366853,42.86796724256452,171.44370601702812,156.95103113146143,-0.0001295089750783,0.0940094217658042,0,0,0
14525,492537.08317458106,2010-09-06 06:19:33,2791.3925792124214,7,41,-1.099568486213684,3.510991334915161,43.070107366853,42.87713430460727,171.44370601702812,156.98323897474228,-9.713172767078504e-05,0.0940094217658042,0,0,0
14526,492567.09848081466,2010-09-06 06:20:03,2821.407885486135,7,41,-1.099568486213684,3.5056490898132324,43.070107366853,42.88630141529576,171.44370601702812,157.01540074047898,-0.0001618862152099,0.0940094217658042,0,0,0
14527,492597.113420219,2010-09-06 06:20:33,2851.422824870446,7,41,-1.0993878841400146,3.5004687309265137,43.070107366853,42.895468414577394,171.44370601702812,157.04751317347822,-9.713172767078504e-05,0.0940094217658042,0,0,0
14528,492627.128485041,2010-09-06 06:21:03,2881.437889692387,7,41,-1.0993878841400146,3.494478940963745,43.070107366853,42.90463541813856,171.44370601702812,157.07957396704325,-0.0001618862152099,0.0940094217658042,0,0,0
14529,492657.143738062,2010-09-06 06:21:33,2911.4531427183906,7,41,-1.0993878841400146,3.4881653785705566,43.070107366853,42.91380242992203,171.44370601702812,157.11157933755717,-0.0001618862152099,0.0940094217658042,0,0,0
14530,492687.1587791948,2010-09-06 06:22:03,2941.468183831241,7,41,-1.0993878841400146,3.4813661575317383,43.070107366853,42.92296941711022,171.44370601702812,157.1435241544329,-0.0001618862152099,0.0940094217658042,0,0,0
14531,492717.17400637147,2010-09-06 06:22:33,2971.483411032882,7,41,-1.099568486213684,3.47343373298645,43.070107366853,42.93213714595273,171.44370601702812,157.17540419286826,-0.0002266406954731,0.0940094217658042,0,0,0
14532,492747.18906939885,2010-09-06 06:23:03,3001.4984740553377,7,41,-1.099568486213684,3.4648537635803223,43.070107366853,42.94130496168832,171.44370601702812,157.20721047296405,-0.0002590179501567,0.0940094217658042,0,0,0
14533,492777.2043969256,2010-09-06 06:23:33,3031.513801571995,7,41,-1.099568486213684,3.4551405906677246,43.070107366853,42.95047220069279,171.44370601702812,157.2389304446399,-0.0002913951757363,0.0940094217658042,0,0,0
14534,492807.2193628159,2010-09-06 06:24:03,3061.528767452343,7,41,-1.0993878841400146,3.4434847831726074,43.070107366853,42.95963920645135,171.44370601702812,157.27055166214353,-0.0003561496851034,0.0940094217658042,0,0,0
14535,492837.2346087693,2010-09-06 06:24:33,3091.544013445819,7,41,-1.0993878841400146,3.42940092086792,43.070107366853,42.96880630975038,171.44370601702812,157.30205583756336,-0.0004208564641885,0.0940094217658042,0,0,0
14536,492867.24966002745,2010-09-06 06:25:03,3121.5590646989426,7,41,-1.099568486213684,3.4111077785491943,43.070107366853,42.9779733724617,171.44370601702812,157.3334132962749,-0.0005504131549969,0.0940094217658042,0,0,0
14537,492897.265323331,2010-09-06 06:25:33,3151.574727967396,7,41,-1.0993878841400146,3.38795804977417,43.070107366853,42.98714060036247,171.44370601702812,157.36458322744406,-0.0007122993702068,0.0940094217658042,0,0,0
14538,492927.26709701726,2010-09-06 06:26:03,3181.5765016587493,7,41,-1.0993878841400146,3.3567140102386475,43.070107366853,42.99630362076995,171.44370601702812,157.39549105064356,-0.0009389400365762,0.0940094217658042,0,0,0
14539,492957.2794765116,2010-09-06 06:26:34,3211.588881153028,7,41,-1.0993878841400146,3.313166856765747,43.070107366853,43.005469859567526,171.44370601702812,157.4260716031903,-0.0013598442310467,0.0940094217658042,0,0,0
14540,492987.2948479126,2010-09-06 06:27:04,3241.6042525590706,7,41,-1.099568486213684,3.251812219619751,43.070107366853,43.01463696207481,171.44370601702812,157.45617999434575,-0.0018778800731524,0.0940094217658042,0,0,0
14541,493017.3098695319,2010-09-06 06:27:34,3271.619274203399,7,41,-1.0993878841400146,3.161641836166382,43.070107366853,43.02380398946307,171.44370601702812,157.4856033845527,-0.0027844428550451,0.0940094217658042,0,0,0
14542,493047.3249991002,2010-09-06 06:28:04,3301.6344037466456,7,41,-1.0993878841400146,3.0141639709472656,43.070107366853,43.032971066792335,171.44370601702812,157.51397639915498,-0.0050831795670092,0.0940094217658042,0,0,0
14543,493068.0745332939,2010-09-06 06:28:24,3322.3839379603783,7,41,-1.099568486213684,2.814073085784912,43.070107366853,43.03930828380558,171.44370601702812,157.53251266207695,-0.0098426816985011,0.0940094217658042,0,0,0
14544,493076.2775194494,2010-09-06 06:28:33,3330.5869240857987,7,41,-1.0993878841400146,2.699781894683838,43.070107366853,43.04181358569578,171.44370601702812,157.53942246234598,-0.0114938737824559,0.0940094217658042,0,0,0
14545,493136.29832499,2010-09-06 06:29:33,60.014614355007865,8,41,0.0,3.462101697921753,43.070107366853,43.04181358569578,171.44370601702812,157.53942246234598,0.0012950897216796,0.0940094217658042,0,0,0
14546,493136.4773418309,2010-09-06 06:29:33,0.187474489111324,9,41,-1.9243103452026844e-05,3.462263584136963,43.070107366853,43.04181358669789,171.44370601702812,157.53942246581556,0.0,0.0883364379405975,0,0,0
14547,493141.3054048896,2010-09-06 06:29:38,5.015537557836454,9,41,0.0005225847125984,3.469710350036621,43.070108287439446,43.04181358686538,171.44370920825116,157.5394224663957,0.0010684489971026,0.0883364379405975,0,0,0
