Data_Point,Test_Time(s),Date_Time,Step_Time(s),Step_Index,Cycle_Index,Current(A),Voltage(V),Charge_Capacity(Ah),Discharge_Capacity(Ah),Charge_Energy(Wh),Discharge_Energy(Wh),dV/dt(V/s),Internal_Resistance(Ohm),Is_FC_Data,AC_Impedance(Ohm),ACI_Phase_Angle(Deg)
11768,398140.4805120375,2010-09-05 04:06:07,30.015294348992875,1,34,0.0,3.4633967876434326,34.83270037940027,34.818771854866625,138.6116265899194,127.46646257654338,0.0007122993702068,0.086637258529663,0,0,0
11769,398170.4955867992,2010-09-05 04:06:37,60.03036909065671,1,34,0.0,3.483308792114258,34.83270037940027,34.818771854866625,138.6116265899194,127.46646257654338,0.0004209041653666,0.086637258529663,0,0,0
11770,398200.5107317959,2010-09-05 04:07:07,90.04551413253031,1,34,0.0,3.4980404376983643,34.83270037940027,34.818771854866625,138.6116265899194,127.46646257654338,0.0003885269106831,0.086637258529663,0,0,0
11771,398230.4791484963,2010-09-05 04:07:37,120.01393077786176,1,34,0.0,3.5090487003326416,34.83270037940027,34.818771854866625,138.6116265899194,127.46646257654338,0.0002913951757363,0.086637258529663,0,0,0
11772,398260.4936844143,2010-09-05 04:08:07,30.015182194469293,2,34,0.5501165986061096,3.635805130004883,34.837286931998634,34.818771854866625,138.62817884430925,127.46646257654338,0.0011655807029455,0.086637258529663,0,0,0
11773,398290.5089192148,2010-09-05 04:08:37,60.03041702011166,2,34,0.5501165986061096,3.672553062438965,34.84187347192892,34.818771854866625,138.64494405794605,127.46646257654338,0.0008093834039755,0.086637258529663,0,0,0
11774,398320.52413231134,2010-09-05 04:09:07,90.04563009153583,2,34,0.5501165986061096,3.6997499465942383,34.846459950763595,34.818771854866625,138.66185261183213,127.46646257654338,0.0006799221155233,0.086637258529663,0,0,0
11775,398350.5394170765,2010-09-05 04:09:37,120.06091488671768,2,34,0.5501165986061096,3.720795154571533,34.851046470687685,34.818771854866625,138.67887154464785,127.46646257654338,0.0005180359003134,0.086637258529663,0,0,0
11776,398380.5543659244,2010-09-05 04:10:07,150.0758637346155,2,34,0.5499359965324402,3.737793207168579,34.85563273958703,34.818771854866625,138.69597695073116,127.46646257654338,0.0004209041653666,0.086637258529663,0,0,0
11777,398410.5695161542,2010-09-05 04:10:37,180.09101396441903,2,34,0.5501165986061096,3.750096559524536,34.860218313723,34.818771854866625,138.7131468152629,127.46646257654338,0.0002266406954731,0.086637258529663,0,0,0
11778,398440.5846747147,2010-09-05 04:11:07,210.1061724949104,2,34,0.5501165986061096,3.757866859436035,34.864804944990595,34.818771854866625,138.730366774074,127.46646257654338,0.0001295089750783,0.086637258529663,0,0,0
11779,398470.59988206194,2010-09-05 04:11:37,240.1213798420679,2,34,0.550297200679779,3.762723445892334,34.869392268738366,34.818771854866625,138.74761725184624,127.46646257654338,0.0001618862152099,0.086637258529663,0,0,0
11780,398500.615062928,2010-09-05 04:12:07,270.1365607984515,2,34,0.550297200679779,3.766446828842163,34.87397938181057,34.818771854866625,138.76488570592878,127.46646257654338,0.0001295089750783,0.086637258529663,0,0,0
11781,398530.6302072782,2010-09-05 04:12:37,300.15170505837625,2,34,0.550297200679779,3.7696845531463614,34.87856669815638,34.818771854866625,138.78217059866708,127.46646257654338,0.0001295089750783,0.086637258529663,0,0,0
11782,398560.64544256,2010-09-05 04:13:07,330.16694034015546,2,34,0.5499359965324402,3.772760391235352,34.883154031167464,34.818771854866625,138.79947020611476,127.46646257654338,0.0001295089750783,0.086637258529663,0,0,0
11783,398590.6605746396,2010-09-05 04:13:37,360.18207241972306,2,34,0.550297200679779,3.775998115539551,34.88774130628142,34.818771854866625,138.81678417950087,127.46646257654338,3.237724376958795e-05,0.086637258529663,0,0,0
11784,398620.67593808565,2010-09-05 04:14:07,390.1974358759523,2,34,0.5501165986061096,3.77923583984375,34.89232806896632,34.818771854866625,138.834110654257,127.46646257654338,0.0001618862152099,0.086637258529663,0,0,0
11785,398650.6909646173,2010-09-05 04:14:37,420.212462482649,2,34,0.5501165986061096,3.782149791717529,34.89691464430587,34.818771854866625,138.8514508012703,127.46646257654338,6.47544875391759e-05,0.086637258529663,0,0,0
11786,398680.70620033005,2010-09-05 04:15:07,450.22769812031527,2,34,0.5501165986061096,3.785225629806519,34.90150122703145,34.818771854866625,138.86880525140893,127.46646257654338,9.713172767078504e-05,0.086637258529663,0,0,0
11787,398710.7212301097,2010-09-05 04:15:37,480.2427278898948,2,34,0.5501165986061096,3.788301467895508,34.906087731793264,34.818771854866625,138.8861735691369,127.46646257654338,6.47544875391759e-05,0.086637258529663,0,0,0
11788,398740.7363962291,2010-09-05 04:16:07,510.2578940093002,2,34,0.5501165986061096,3.791215419769287,34.91067432570214,34.818771854866625,138.90355628004392,127.46646257654338,3.237724376958795e-05,0.086637258529663,0,0,0
11789,398770.751564128,2010-09-05 04:16:37,540.2730619081403,2,34,0.550297200679779,3.7944531440734863,34.915260960989066,34.818771854866625,138.92095306368662,127.46646257654338,0.0001295089750783,0.086637258529663,0,0,0
11790,398800.7667668637,2010-09-05 04:17:07,570.2882646438045,2,34,0.5501165986061096,3.797528982162476,34.919847616486365,34.818771854866625,138.9383638273474,127.46646257654338,9.713172767078504e-05,0.086637258529663,0,0,0
11791,398830.78191040177,2010-09-05 04:17:37,600.3034081819303,2,34,0.550297200679779,3.800604820251465,34.92443420279341,34.818771854866625,138.95578825852672,127.46646257654338,9.713172767078504e-05,0.086637258529663,0,0,0
11792,398860.797070451,2010-09-05 04:18:07,630.3185682362194,2,34,0.5501165986061096,3.803518772125244,34.9290208760324,34.818771854866625,138.97322708257946,127.46646257654338,9.713172767078504e-05,0.086637258529663,0,0,0
11793,398890.812237593,2010-09-05 04:18:37,660.3337353781733,2,34,0.5501165986061096,3.8067564964294434,34.933607467840815,34.818771854866625,138.99067980936326,127.46646257654338,9.713172767078504e-05,0.086637258529663,0,0,0
11794,398920.82741737145,2010-09-05 04:19:07,690.3489151516086,2,34,0.5501165986061096,3.8099942207336426,34.938194199735634,34.818771854866625,139.00814757118084,127.46646257654338,0.0001295089750783,0.086637258529663,0,0,0
11795,398950.845447148,2010-09-05 04:19:37,720.3669449281286,2,34,0.5501165986061096,3.813231945037842,34.94278129518603,34.818771854866625,139.02563161900292,127.46646257654338,9.713172767078504e-05,0.086637258529663,0,0,0
11796,398980.85775801615,2010-09-05 04:20:08,750.3792557963694,2,34,0.5499359965324402,3.816469669342041,34.94736750075471,34.818771854866625,139.0431278481661,127.46646257654338,3.237724376958795e-05,0.086637258529663,0,0,0
11797,399010.873259722,2010-09-05 04:20:38,780.3947575171967,2,34,0.550297200679779,3.82003116607666,34.95195413303078,34.818771854866625,139.06064127570937,127.46646257654338,6.47544875391759e-05,0.086637258529663,0,0,0
11798,399040.88822869,2010-09-05 04:21:08,810.4097264702027,2,34,0.5501165986061096,3.8235926628112793,34.95654072496644,34.818771854866625,139.0781705371693,127.46646257654338,6.47544875391759e-05,0.086637258529663,0,0,0
11799,399070.9032789005,2010-09-05 04:21:38,840.4247766807274,2,34,0.550297200679779,3.8271541595458975,34.96112733576651,34.818771854866625,139.09571605178874,127.46646257654338,9.713172767078504e-05,0.086637258529663,0,0,0
11800,399100.9185687032,2010-09-05 04:22:08,870.4400665034393,2,34,0.5501165986061096,3.8307156562805176,34.96571405007797,34.818771854866625,139.11327815275192,127.46646257654338,9.713172767078504e-05,0.086637258529663,0,0,0
11801,399130.9335994352,2010-09-05 04:22:38,900.4550972253925,2,34,0.550297200679779,3.834115028381348,34.970300692185084,34.818771854866625,139.13085602650025,127.46646257654338,9.713172767078504e-05,0.086637258529663,0,0,0
11802,399160.9489061751,2010-09-05 04:23:08,930.4704039652672,2,34,0.5499359965324402,3.837514638900757,34.97488730019102,34.818771854866625,139.14844963664058,127.46646257654338,9.713172767078504e-05,0.086637258529663,0,0,0
11803,399190.9639515686,2010-09-05 04:23:38,960.485449353774,2,34,0.5501165986061096,3.841076135635376,34.979473828353804,34.818771854866625,139.1660584892965,127.46646257654338,0.0001295089750783,0.086637258529663,0,0,0
11804,399220.9791231818,2010-09-05 04:24:08,990.5006209919336,2,34,0.5501165986061096,3.844313859939575,34.984060430881286,34.818771854866625,139.18368289920673,127.46646257654338,9.713172767078504e-05,0.086637258529663,0,0,0
11805,399250.99428546656,2010-09-05 04:24:38,1020.5157832467072,2,34,0.5501165986061096,3.847389698028565,34.9886469873034,34.818771854866625,139.2013220572736,127.46646257654338,9.713172767078504e-05,0.086637258529663,0,0,0
11806,399281.0095869884,2010-09-05 04:25:08,1050.531084778602,2,34,0.5501165986061096,3.8504655361175537,34.993233555064414,34.818771854866625,139.2189758881847,127.46646257654338,6.47544875391759e-05,0.086637258529663,0,0,0
11807,399311.02464264754,2010-09-05 04:25:38,1080.5461404326938,2,34,0.550297200679779,3.853703260421753,34.99782014669709,34.818771854866625,139.2366441507718,127.46646257654338,9.713172767078504e-05,0.086637258529663,0,0,0
11808,399341.03980146366,2010-09-05 04:26:08,1110.5612992438848,2,34,0.5501165986061096,3.856779098510742,35.00240680048818,34.818771854866625,139.25432673074116,127.46646257654338,6.47544875391759e-05,0.086637258529663,0,0,0
11809,399371.054965137,2010-09-05 04:26:38,1140.5764629222062,2,34,0.5501165986061096,3.859531164169312,35.0069934074136,34.818771854866625,139.27202272300474,127.46646257654338,3.237724376958795e-05,0.086637258529663,0,0,0
11810,399401.0701366498,2010-09-05 04:27:08,1170.5916344350535,2,34,0.5501165986061096,3.862445116043091,35.01158004876514,34.818771854866625,139.2897318833406,127.46646257654338,9.713172767078504e-05,0.086637258529663,0,0,0
11811,399431.085332353,2010-09-05 04:27:38,1200.606830163253,2,34,0.5501165986061096,3.86503529548645,35.016166675292915,34.818771854866625,139.30745330724875,127.46646257654338,6.47544875391759e-05,0.086637258529663,0,0,0
11812,399461.1004863572,2010-09-05 04:28:08,1230.6219841373886,2,34,0.5501165986061096,3.8674635887146,35.02075331499578,34.818771854866625,139.32518652658152,127.46646257654338,6.47544875391759e-05,0.086637258529663,0,0,0
11813,399491.1157105664,2010-09-05 04:28:38,1260.6372083766464,2,34,0.550297200679779,3.869891881942749,35.02533994740373,34.818771854866625,139.3429307227876,127.46646257654338,9.713172767078504e-05,0.086637258529663,0,0,0
11814,399521.13081255095,2010-09-05 04:29:08,1290.6523103561956,2,34,0.5499359965324402,3.871834516525269,35.02992659051502,34.818771854866625,139.36068529095388,127.46646257654338,3.237724376958795e-05,0.086637258529663,0,0,0
11815,399551.1459927956,2010-09-05 04:29:38,1320.6674905757427,2,34,0.5501165986061096,3.874100923538208,35.0345132709319,34.818771854866625,139.3784496009355,127.46646257654338,3.237724376958795e-05,0.086637258529663,0,0,0
11816,399581.1611548548,2010-09-05 04:30:08,1350.6826526350287,2,34,0.5501165986061096,3.8758816719055176,35.039099957334884,34.818771854866625,139.3962226221859,127.46646257654338,3.237724376958795e-05,0.086637258529663,0,0,0
11817,399611.1763765327,2010-09-05 04:30:38,1380.6978743078903,2,34,0.5501165986061096,3.877662420272827,35.04368659382201,34.818771854866625,139.41400364090734,127.46646257654338,9.713172767078504e-05,0.086637258529663,0,0,0
11818,399641.1915200207,2010-09-05 04:31:08,1410.7130178209538,2,34,0.5501165986061096,3.879119396209717,35.04827322064998,34.818771854866625,139.43179214931874,127.46646257654338,3.237724376958795e-05,0.086637258529663,0,0,0
11819,399671.2066775387,2010-09-05 04:31:38,1440.7281753188715,2,34,0.5501165986061096,3.8805763721466064,35.052859864398954,34.818771854866625,139.4495875723581,127.46646257654338,6.47544875391759e-05,0.086637258529663,0,0,0
11820,399701.22182445024,2010-09-05 04:32:08,1470.7433222304048,2,34,0.5501165986061096,3.881871461868286,35.0574464763593,34.818771854866625,139.4673893006245,127.46646257654338,3.237724376958795e-05,0.086637258529663,0,0,0
11821,399731.23712508485,2010-09-05 04:32:38,1500.7586228650637,2,34,0.550297200679779,3.883328437805176,35.06203315114149,34.818771854866625,139.48519726057032,127.46646257654338,6.47544875391759e-05,0.086637258529663,0,0,0
11822,399761.2521697918,2010-09-05 04:33:08,1530.7736675718716,2,34,0.5501165986061096,3.8844616413116455,35.066619837256894,34.818771854866625,139.5030110363677,127.46646257654338,6.47544875391759e-05,0.086637258529663,0,0,0
11823,399791.267486351,2010-09-05 04:33:38,1560.788984136232,2,34,0.5501165986061096,3.885432958602905,35.07120654043893,34.818771854866625,139.52083014655685,127.46646257654338,0.0,0.086637258529663,0,0,0
11824,399821.2826376936,2010-09-05 04:34:08,1590.804135473796,2,34,0.5501165986061096,3.886566162109375,35.07579319754943,34.818771854866625,139.53865437722442,127.46646257654338,0.0,0.086637258529663,0,0,0
11825,399851.29769696674,2010-09-05 04:34:38,1620.8191947719702,2,34,0.5501165986061096,3.8876993656158447,35.08037986429125,34.818771854866625,139.5564837478458,127.46646257654338,3.237724376958795e-05,0.086637258529663,0,0,0
11826,399881.31297765166,2010-09-05 04:35:08,1650.8344754418706,2,34,0.5499359965324402,3.8888325691223145,35.084966528632265,34.818771854866625,139.57431821440693,127.46646257654338,0.0,0.086637258529663,0,0,0
11827,399911.32804227807,2010-09-05 04:35:38,1680.849540068324,2,34,0.5501165986061096,3.889965772628784,35.08955318969358,34.818771854866625,139.59215765308969,127.46646257654338,0.0,0.086637258529663,0,0,0
11828,399941.3432025279,2010-09-05 04:36:08,1710.864700313088,2,34,0.5499359965324402,3.890937089920044,35.09413984255488,34.818771854866625,139.61000195898455,127.46646257654338,6.47544875391759e-05,0.086637258529663,0,0,0
11829,399971.35769932414,2010-09-05 04:36:38,1740.8791970993088,2,34,0.5501165986061096,3.8920702934265137,35.09872417194691,34.818771854866625,139.62784216116785,127.46646257654338,3.237724376958795e-05,0.086637258529663,0,0,0
11830,400001.3579199698,2010-09-05 04:37:08,1770.8794177500076,2,34,0.5499359965324402,3.893203496932984,35.10331087162917,34.818771854866625,139.64569651382018,127.46646257654338,0.0,0.086637258529663,0,0,0
11831,400031.37308833486,2010-09-05 04:37:38,1800.8945861150096,2,34,0.5501165986061096,3.894336700439453,35.10789752577897,34.818771854866625,139.6635556140436,127.46646257654338,6.47544875391759e-05,0.086637258529663,0,0,0
11832,400061.3882453215,2010-09-05 04:38:08,1830.9097431016537,2,34,0.5499359965324402,3.894984245300293,35.112484264458146,34.818771854866625,139.6814196352017,127.46646257654338,0.0,0.086637258529663,0,0,0
11833,400091.4033916416,2010-09-05 04:38:38,1860.9248894417624,2,34,0.5501165986061096,3.8962793350219727,35.11707090157677,34.818771854866625,139.6992879546709,127.46646257654338,3.237724376958795e-05,0.086637258529663,0,0,0
11834,400121.4185780866,2010-09-05 04:39:08,1890.9400758667755,2,34,0.5501165986061096,3.897250652313232,35.12165761134256,34.818771854866625,139.71716165337685,127.46646257654338,3.237724376958795e-05,0.086637258529663,0,0,0
11835,400151.4337503012,2010-09-05 04:39:38,1920.955248081372,2,34,0.5501165986061096,3.898383855819702,35.12624423280253,34.818771854866625,139.73503989965548,127.46646257654338,0.0,0.086637258529663,0,0,0
11836,400181.4489053229,2010-09-05 04:40:08,1950.970403128181,2,34,0.5501165986061096,3.899517059326172,35.1308308718005,34.818771854866625,139.75292324988797,127.46646257654338,0.0,0.086637258529663,0,0,0
11837,400211.4641212013,2010-09-05 04:40:38,1980.985618996576,2,34,0.5501165986061096,3.9006502628326416,35.13541747793909,34.818771854866625,139.77081142012327,127.46646257654338,0.0,0.086637258529663,0,0,0
11838,400241.4792309603,2010-09-05 04:41:08,2011.0007287605265,2,34,0.550297200679779,3.9017834663391113,35.14000409505682,34.818771854866625,139.78870475148827,127.46646257654338,3.237724376958795e-05,0.086637258529663,0,0,0
11839,400271.4945290336,2010-09-05 04:41:38,2041.0160268137515,2,34,0.5501165986061096,3.903078556060791,35.14459072910968,34.818771854866625,139.80660326115722,127.46646257654338,6.47544875391759e-05,0.086637258529663,0,0,0
11840,400301.5098501542,2010-09-05 04:42:08,2071.031347934468,2,34,0.5501165986061096,3.903887987136841,35.14917732990154,34.818771854866625,139.82450678183983,127.46646257654338,0.0,0.086637258529663,0,0,0
11841,400331.52475377446,2010-09-05 04:42:38,2101.046251554644,2,34,0.550297200679779,3.905183076858521,35.15376401184529,34.818771854866625,139.8424159280025,127.46646257654338,0.0,0.086637258529663,0,0,0
11842,400361.53992658056,2010-09-05 04:43:08,2131.061424360714,2,34,0.5501165986061096,3.90615439414978,35.15835065788596,34.818771854866625,139.8603300281799,127.46646257654338,-3.237724376958795e-05,0.086637258529663,0,0,0
11843,400391.5550857426,2010-09-05 04:43:38,2161.07658352278,2,34,0.5497553944587708,3.90728759765625,35.162937265458694,34.818771854866625,139.87824939462362,127.46646257654338,0.0,0.086637258529663,0,0,0
11844,400421.57028456347,2010-09-05 04:44:08,2191.09178236875,2,34,0.5499359965324402,3.9085826873779297,35.16752392012678,34.818771854866625,139.8961743048966,127.46646257654338,-3.237724376958795e-05,0.086637258529663,0,0,0
11845,400451.5855528074,2010-09-05 04:44:38,2221.107050582606,2,34,0.5501165986061096,3.90987777709961,35.17211059001478,34.818771854866625,139.9141048058324,127.46646257654338,0.0,0.086637258529663,0,0,0
11846,400481.6006045568,2010-09-05 04:45:08,2251.1221023369785,2,34,0.5501165986061096,3.911010980606079,35.17669724582908,34.818771854866625,139.93204075188038,127.46646257654338,0.0,0.086637258529663,0,0,0
11847,400511.6157707063,2010-09-05 04:45:38,2281.137268486458,2,34,0.5501165986061096,3.912306070327759,35.18128386679301,34.818771854866625,139.94998216962475,127.46646257654338,0.0,0.086637258529663,0,0,0
11848,400541.6309558982,2010-09-05 04:46:08,2311.1524536783986,2,34,0.550297200679779,3.913762807846069,35.18587052830201,34.818771854866625,139.96792941890487,127.46646257654338,6.470680091297254e-05,0.086637258529663,0,0,0
11849,400571.64611236856,2010-09-05 04:46:38,2341.167610148756,2,34,0.5501165986061096,3.914896011352539,35.1904571706075,34.818771854866625,139.98588237613237,127.46646257654338,6.47544875391759e-05,0.086637258529663,0,0,0
11850,400601.66144227627,2010-09-05 04:47:08,2371.182940056371,2,34,0.5501165986061096,3.916029214859009,35.19504381815334,34.818771854866625,140.00384101444988,127.46646257654338,3.237724376958795e-05,0.086637258529663,0,0,0
11851,400631.6766121801,2010-09-05 04:47:38,2401.1981099602085,2,34,0.5499359965324402,3.917324304580689,35.199630433528306,34.818771854866625,140.0218054382414,127.46646257654338,6.47544875391759e-05,0.086637258529663,0,0,0
11852,400661.6917747406,2010-09-05 04:48:08,2431.213272520744,2,34,0.5497553944587708,3.918619394302368,35.20421703130176,34.818771854866625,140.03977566892743,127.46646257654338,3.237724376958795e-05,0.086637258529663,0,0,0
11853,400691.7068125352,2010-09-05 04:48:38,2461.2283103153245,2,34,0.5501165986061096,3.920076370239258,35.20880361451847,34.818771854866625,140.05775189820534,127.46646257654338,6.47544875391759e-05,0.086637258529663,0,0,0
11854,400721.7219734215,2010-09-05 04:49:08,2491.243471231762,2,34,0.5501165986061096,3.9213714599609375,35.21339029779024,34.818771854866625,140.07573454865414,127.46646257654338,9.713172767078504e-05,0.086637258529663,0,0,0
11855,400751.73714403214,2010-09-05 04:49:38,2521.2586418172987,2,34,0.5501165986061096,3.922666549682617,35.2179769255984,34.818771854866625,140.0937231018516,127.46646257654338,6.47544875391759e-05,0.086637258529663,0,0,0
11856,400781.75232511887,2010-09-05 04:50:08,2551.2738228989942,2,34,0.5501165986061096,3.923961639404297,35.222563485433135,34.818771854866625,140.11171755563782,127.46646257654338,6.47544875391759e-05,0.086637258529663,0,0,0
11857,400811.767481905,2010-09-05 04:50:38,2581.2889796851387,2,34,0.5501165986061096,3.925256729125977,35.22715008861991,34.818771854866625,140.12971847746002,127.46646257654338,3.237724376958795e-05,0.086637258529663,0,0,0
11858,400841.782677929,2010-09-05 04:51:08,2611.304175709075,2,34,0.5501165986061096,3.926713705062866,35.231736798753985,34.818771854866625,140.14772600447168,127.46646257654338,3.237724376958795e-05,0.086637258529663,0,0,0
11859,400871.79782051966,2010-09-05 04:51:38,2641.319318304852,2,34,0.5501165986061096,3.928008794784546,35.2363234322849,34.818771854866625,140.16573960234768,127.46646257654338,3.237724376958795e-05,0.086637258529663,0,0,0
11860,400901.8158247876,2010-09-05 04:52:08,2671.337322567784,2,34,0.5501165986061096,3.929465770721436,35.240910536433745,34.818771854866625,140.18376148497825,127.46646257654338,3.237724376958795e-05,0.086637258529663,0,0,0
11861,400931.82817910414,2010-09-05 04:52:39,2701.3496768843115,2,34,0.550297200679779,3.931084632873535,35.24549666250419,34.818771854866625,140.20178600087775,127.46646257654338,6.47544875391759e-05,0.086637258529663,0,0,0
11862,400961.8436151813,2010-09-05 04:53:09,2731.3651129665477,2,34,0.5499359965324402,3.932217836380005,35.250083392165664,34.818771854866625,140.21981934507107,127.46646257654338,0.0,0.086637258529663,0,0,0
11863,400991.8586503996,2010-09-05 04:53:39,2761.380148179694,2,34,0.5501165986061096,3.933836698532105,35.25467006224487,34.818771854866625,140.23785905949535,127.46646257654338,6.47544875391759e-05,0.086637258529663,0,0,0
11864,401021.8737180385,2010-09-05 04:54:09,2791.395215818656,2,34,0.5501165986061096,3.935293674468994,35.259256725335824,34.818771854866625,140.25590535416663,127.46646257654338,3.237724376958795e-05,0.086637258529663,0,0,0
11865,401051.8888776968,2010-09-05 04:54:39,2821.4103754769576,2,34,0.550297200679779,3.9369125366210938,35.26384340879695,34.818771854866625,140.27395832538556,127.46646257654338,9.713172767078504e-05,0.086637258529663,0,0,0
11866,401081.9040251698,2010-09-05 04:55:09,2851.425522949891,2,34,0.5501165986061096,3.938207626342773,35.26843004018387,34.818771854866625,140.29201785726008,127.46646257654338,6.47544875391759e-05,0.086637258529663,0,0,0
11867,401111.919185224,2010-09-05 04:55:39,2881.4406830041794,2,34,0.5501165986061096,3.939502716064453,35.273016657964945,34.818771854866625,140.31008411272822,127.46646257654338,0.0,0.086637258529663,0,0,0
11868,401141.9343705864,2010-09-05 04:56:09,2911.455868366544,2,34,0.5499359965324402,3.9411215782165527,35.277603268536915,34.818771854866625,140.32815718134273,127.46646257654338,3.237724376958795e-05,0.086637258529663,0,0,0
11869,401171.94953650027,2010-09-05 04:56:39,2941.471034275425,2,34,0.5501165986061096,3.942740440368652,35.28218987024987,34.818771854866625,140.34623699506022,127.46646257654338,6.47544875391759e-05,0.086637258529663,0,0,0
11870,401201.9647010909,2010-09-05 04:57:09,2971.486198871032,2,34,0.5501165986061096,3.944197416305542,35.286776503297375,34.818771854866625,140.364323935475,127.46646257654338,6.47544875391759e-05,0.086637258529663,0,0,0
11871,401231.9799970939,2010-09-05 04:57:39,3001.5014948691355,2,34,0.550297200679779,3.9458162784576416,35.29136317804648,34.818771854866625,140.3824180143393,127.46646257654338,6.47544875391759e-05,0.086637258529663,0,0,0
11872,401261.9952618392,2010-09-05 04:58:09,3031.516759644421,2,34,0.550297200679779,3.9472732543945312,35.29594987741496,34.818771854866625,140.40051916448795,127.46646257654338,9.713172767078504e-05,0.086637258529663,0,0,0
11873,401292.0102137898,2010-09-05 04:58:39,3061.53171156999,2,34,0.5501165986061096,3.948730230331421,35.30053648391782,34.818771854866625,140.41862702776618,127.46646257654338,0.0,0.086637258529663,0,0,0
11874,401322.0253851673,2010-09-05 04:59:09,3091.5468829475,2,34,0.5501165986061096,3.950349092483521,35.3051230927659,34.818771854866625,140.43674204296696,127.46646257654338,6.47544875391759e-05,0.086637258529663,0,0,0
11875,401352.0405522491,2010-09-05 04:59:39,3121.562050029304,2,34,0.5499359965324402,3.95180606842041,35.30970970519696,34.818771854866625,140.45486433029626,127.46646257654338,3.237724376958795e-05,0.086637258529663,0,0,0
11876,401382.0557383734,2010-09-05 05:00:09,3151.57723615858,2,34,0.5499359965324402,3.95358681678772,35.314296408669044,34.818771854866625,140.472994224158,127.46646257654338,6.47544875391759e-05,0.086637258529663,0,0,0
11877,401412.0710234041,2010-09-05 05:00:39,3181.5925211943613,2,34,0.550297200679779,3.9552056789398193,35.31888311619129,34.818771854866625,140.49113157748215,127.46646257654338,6.47544875391759e-05,0.086637258529663,0,0,0
11878,401442.0861188224,2010-09-05 05:01:09,3211.6076166175703,2,34,0.5501165986061096,3.956824541091919,35.32346977394268,34.818771854866625,140.50927616560594,127.46646257654338,3.237724376958795e-05,0.086637258529663,0,0,0
11879,401472.101390184,2010-09-05 05:01:39,3241.622887984284,2,34,0.5501165986061096,3.9584434032440186,35.328056482575164,34.818771854866625,140.52742839191043,127.46646257654338,6.47544875391759e-05,0.086637258529663,0,0,0
11880,401502.1164165552,2010-09-05 05:02:09,3271.637914335344,2,34,0.5501165986061096,3.959900379180908,35.33264316226648,34.818771854866625,140.54558821285943,127.46646257654338,0.0,0.086637258529663,0,0,0
11881,401532.13157158194,2010-09-05 05:02:39,3301.6530693671148,2,34,0.5501165986061096,3.961843013763428,35.33722987477207,34.818771854866625,140.56375592082168,127.46646257654338,6.47544875391759e-05,0.086637258529663,0,0,0
11882,401562.1469389228,2010-09-05 05:03:09,3331.668436728076,2,34,0.5501165986061096,3.963623762130737,35.34181648926164,34.818771854866625,140.58193100919613,127.46646257654338,6.47544875391759e-05,0.086637258529663,0,0,0
11883,401592.1619895444,2010-09-05 05:03:39,3361.683487329575,2,34,0.5501165986061096,3.965242624282837,35.34640313608553,34.818771854866625,140.60011420681477,127.46646257654338,6.47544875391759e-05,0.086637258529663,0,0,0
11884,401622.1770973785,2010-09-05 05:04:09,3391.698595158703,2,34,0.5501165986061096,3.966861486434937,35.350989810961245,34.818771854866625,140.6183055962257,127.46646257654338,0.0,0.086637258529663,0,0,0
11885,401652.1923336879,2010-09-05 05:04:39,3421.7138314680437,2,34,0.550297200679779,3.968966007232666,35.35557645466254,34.818771854866625,140.63650487718533,127.46646257654338,6.47544875391759e-05,0.086637258529663,0,0,0
11886,401682.20747163706,2010-09-05 05:05:09,3451.7289694673645,2,34,0.550297200679779,3.9705848693847656,35.360163127802245,34.818771854866625,140.65471261101695,127.46646257654338,6.47544875391759e-05,0.086637258529663,0,0,0
11887,401712.2226174007,2010-09-05 05:05:39,3481.744115180913,2,34,0.5501165986061096,3.972527503967285,35.3647498172045,34.818771854866625,140.6729287776993,127.46646257654338,9.713172767078504e-05,0.086637258529663,0,0,0
11888,401742.2377741719,2010-09-05 05:06:09,3511.759271952019,2,34,0.550297200679779,3.9743082523345943,35.36933649115,34.818771854866625,140.69115328368477,127.46646257654338,6.47544875391759e-05,0.086637258529663,0,0,0
11889,401772.2529282112,2010-09-05 05:06:39,3541.774426001342,2,34,0.5499359965324402,3.976089000701904,35.37392321863906,34.818771854866625,140.70938660709382,127.46646257654338,6.47544875391759e-05,0.086637258529663,0,0,0
11890,401802.268098105,2010-09-05 05:07:09,3571.7895958901418,2,34,0.550297200679779,3.977869749069214,35.378509930406445,34.818771854866625,140.7276284252149,127.46646257654338,3.237724376958795e-05,0.086637258529663,0,0,0
11891,401832.2832731867,2010-09-05 05:07:39,3601.8047709718835,2,34,0.5501165986061096,3.980136156082153,35.383096548771704,34.818771854866625,140.74587838766507,127.46646257654338,6.47544875391759e-05,0.086637258529663,0,0,0
11892,401862.2984628698,2010-09-05 05:08:09,3631.819960650004,2,34,0.5501165986061096,3.982078790664673,35.38768314314972,34.818771854866625,140.76413743518475,127.46646257654338,6.47544875391759e-05,0.086637258529663,0,0,0
11893,401892.3137561311,2010-09-05 05:08:39,3661.8352539363486,2,34,0.5501165986061096,3.983697652816773,35.39226975113463,34.818771854866625,140.78240547378465,127.46646257654338,-3.237724376958795e-05,0.086637258529663,0,0,0
11894,401922.3287726176,2010-09-05 05:09:09,3691.8502703977606,2,34,0.5501165986061096,3.985802173614502,35.396856363166734,34.818771854866625,140.80068254210033,127.46646257654338,3.237724376958795e-05,0.086637258529663,0,0,0
11895,401952.3442099379,2010-09-05 05:09:39,3721.865707773219,2,34,0.5499359965324402,3.987906694412232,35.40144301539591,34.818771854866625,140.81896892176673,127.46646257654338,3.237724376958795e-05,0.086637258529663,0,0,0
11896,401982.3591611567,2010-09-05 05:10:09,3751.880658941901,2,34,0.5501165986061096,3.989849328994751,35.40602955795532,34.818771854866625,140.83726389124118,127.46646257654338,9.713172767078504e-05,0.086637258529663,0,0,0
11897,402012.3743140281,2010-09-05 05:10:39,3781.895811808276,2,34,0.5499359965324402,3.991953849792481,35.410616126975334,34.818771854866625,140.85556826654758,127.46646257654338,6.47544875391759e-05,0.086637258529663,0,0,0
11898,402042.38959148497,2010-09-05 05:11:09,3811.9110892751937,2,34,0.550297200679779,3.994058132171631,35.415202739479135,34.818771854866625,140.87388212698153,127.46646257654338,9.70840483205393e-05,0.086637258529663,0,0,0
11899,402072.4047510581,2010-09-05 05:11:39,3841.926248848283,2,34,0.550297200679779,3.995838880538941,35.41978928004446,34.818771854866625,140.89220508898006,127.46646257654338,3.237724376958795e-05,0.086637258529663,0,0,0
11900,402102.4198208825,2010-09-05 05:12:09,3871.941318662667,2,34,0.5499359965324402,3.99794340133667,35.42437583294246,34.818771854866625,140.91053754600387,127.46646257654338,3.237724376958795e-05,0.086637258529663,0,0,0
11901,402132.4349733428,2010-09-05 05:12:39,3901.9564711230296,2,34,0.5499359965324402,4.0000481605529785,35.428962389718386,34.818771854866625,140.92887943547788,127.46646257654338,3.24249267578125e-05,0.086637258529663,0,0,0
11902,402162.4501355776,2010-09-05 05:13:09,3931.9716333627657,2,34,0.5501165986061096,4.002152442932129,35.43354896514541,34.818771854866625,140.9472310377406,127.46646257654338,6.47544875391759e-05,0.086637258529663,0,0,0
11903,402192.4654343376,2010-09-05 05:13:39,3961.986932122752,2,34,0.5501165986061096,4.004418849945068,35.43813558374759,34.818771854866625,140.96559246856685,127.46646257654338,9.70840483205393e-05,0.086637258529663,0,0,0
11904,402222.4806763411,2010-09-05 05:14:09,3992.0021741212713,2,34,0.5501165986061096,4.006361484527588,35.4427221392417,34.818771854866625,140.98396335884686,127.46646257654338,3.23295607813634e-05,0.086637258529663,0,0,0
11905,402252.4956517152,2010-09-05 05:14:39,4022.01714949528,2,34,0.550297200679779,4.008627891540527,35.44730875741739,34.818771854866625,141.00234438427844,127.46646257654338,9.70840483205393e-05,0.086637258529663,0,0,0
11906,402282.510944024,2010-09-05 05:15:09,4052.0324418041887,2,34,0.5501165986061096,4.010732650756836,35.45189542224004,34.818771854866625,141.0207353407724,127.46646257654338,3.24249267578125e-05,0.086637258529663,0,0,0
11907,402312.5260017132,2010-09-05 05:15:39,4082.047499493353,2,34,0.5501165986061096,4.012999057769775,35.456481984867395,34.818771854866625,141.03913591936367,127.46646257654338,6.47544875391759e-05,0.086637258529663,0,0,0
11908,402342.54117124114,2010-09-05 05:16:09,4112.062669021253,2,34,0.5501165986061096,4.015103340148926,35.46106858271509,34.818771854866625,141.05754673717797,127.46646257654338,3.23295607813634e-05,0.086637258529663,0,0,0
11909,402372.5563262227,2010-09-05 05:16:39,4142.077824002899,2,34,0.5501165986061096,4.017369747161865,35.465655229238735,34.818771854866625,141.0759679469921,127.46646257654338,6.47544875391759e-05,0.086637258529663,0,0,0
11910,402402.5714955952,2010-09-05 05:17:09,4172.092993375412,2,34,0.5501165986061096,4.019636154174805,35.47024184923765,34.818771854866625,141.09439922941314,127.46646257654338,9.70840483205393e-05,0.086637258529663,0,0,0
11911,402432.58666165447,2010-09-05 05:17:39,4202.108159434668,2,34,0.5501165986061096,4.021902561187744,35.47482842677862,34.818771854866625,141.11284070441025,127.46646257654338,6.47544875391759e-05,0.086637258529663,0,0,0
11912,402462.6018464505,2010-09-05 05:18:09,4232.123344230621,2,34,0.5501165986061096,4.024168968200684,35.47941500657067,34.818771854866625,141.131292661228,127.46646257654338,6.47544875391759e-05,0.086637258529663,0,0,0
11913,402492.61700215394,2010-09-05 05:18:39,4262.138499934066,2,34,0.5501165986061096,4.026597499847412,35.48400159210036,34.818771854866625,141.14975516939555,127.46646257654338,6.47544875391759e-05,0.086637258529663,0,0,0
11914,402522.632319039,2010-09-05 05:19:09,4292.153816844289,2,34,0.5501165986061096,4.028863906860352,35.48858816469265,34.818771854866625,141.16822824745992,127.46646257654338,9.71794142969884e-05,0.086637258529663,0,0,0
11915,402552.6473503876,2010-09-05 05:19:39,4322.168848167741,2,34,0.5501165986061096,4.031130313873291,35.4931747534163,34.818771854866625,141.18671208306057,127.46646257654338,6.47544875391759e-05,0.086637258529663,0,0,0
11916,402582.6625355746,2010-09-05 05:20:09,4352.184033354669,2,34,0.5501165986061096,4.033558368682861,35.4977612920074,34.818771854866625,141.20520657217418,127.46646257654338,6.47544875391759e-05,0.086637258529663,0,0,0
11917,402612.67770806974,2010-09-05 05:20:39,4382.1992058499645,2,34,0.5499359965324402,4.035824775695801,35.5023478452087,34.818771854866625,141.223712086049,127.46646257654338,3.24249267578125e-05,0.086637258529663,0,0,0
11918,402642.6928797832,2010-09-05 05:21:09,4412.214377563312,2,34,0.5501165986061096,4.03841495513916,35.50693442102867,34.818771854866625,141.24222878960057,127.46646257654338,9.71794142969884e-05,0.086637258529663,0,0,0
11919,402672.7081317264,2010-09-05 05:21:39,4442.229629606866,2,34,0.5501165986061096,4.0408430099487305,35.51152105536073,34.818771854866625,141.260756844374,127.46646257654338,6.47544875391759e-05,0.086637258529663,0,0,0
11920,402702.7232177312,2010-09-05 05:22:09,4472.244715511351,2,34,0.5499359965324402,4.043271541595459,35.516107624021096,34.818771854866625,141.27929591148288,127.46646257654338,6.47544875391759e-05,0.086637258529663,0,0,0
11921,402732.7383896851,2010-09-05 05:22:39,4502.259887465299,2,34,0.5501165986061096,4.045699596405029,35.520694244720914,34.818771854866625,141.2978465837818,127.46646257654338,6.47544875391759e-05,0.086637258529663,0,0,0
11922,402762.7535362558,2010-09-05 05:23:09,4532.275034040995,2,34,0.5499359965324402,4.048289775848389,35.52528079649641,34.818771854866625,141.3164084116434,127.46646257654338,6.47544875391759e-05,0.086637258529663,0,0,0
11923,402792.76870696165,2010-09-05 05:23:39,4562.290204741818,2,34,0.550297200679779,4.050879955291748,35.529867378987966,34.818771854866625,141.33498197436865,127.46646257654338,9.70840483205393e-05,0.086637258529663,0,0,0
11924,402822.7867229387,2010-09-05 05:24:09,4592.308220718945,2,34,0.550297200679779,4.053308486938477,35.53445441312886,34.818771854866625,141.35356905862605,127.46646257654338,6.47544875391759e-05,0.086637258529663,0,0,0
11925,402852.799339103,2010-09-05 05:24:40,4622.320837033452,2,34,0.5499359965324402,4.055898666381836,35.5390406332262,34.818771854866625,141.3721646764725,127.46646257654338,6.47544875391759e-05,0.086637258529663,0,0,0
11926,402882.8144997186,2010-09-05 05:25:10,4652.335997498766,2,34,0.5501165986061096,4.058488845825195,35.54362724128547,34.818771854866625,141.39077383844452,127.46646257654338,6.47544875391759e-05,0.086637258529663,0,0,0
11927,402912.82950895705,2010-09-05 05:25:40,4682.351006747201,2,34,0.5501165986061096,4.061079025268555,35.54821374540362,34.818771854866625,141.40939446189506,127.46646257654338,6.47544875391759e-05,0.086637258529663,0,0,0
11928,402942.84472321137,2010-09-05 05:26:10,4712.366221021624,2,34,0.5501165986061096,4.063830852508545,35.55280024351835,34.818771854866625,141.42802702688468,127.46646257654338,6.47544875391759e-05,0.086637258529663,0,0,0
11929,402972.8597342643,2010-09-05 05:26:40,4742.381232054506,2,34,0.5501165986061096,4.066421031951904,35.55738674998558,34.818771854866625,141.44667190226343,127.46646257654338,6.47544875391759e-05,0.086637258529663,0,0,0
11930,403002.8750475957,2010-09-05 05:27:10,4772.396545385808,2,34,0.5501165986061096,4.069173336029053,35.56197323885441,34.818771854866625,141.46532909497776,127.46646257654338,6.47544875391759e-05,0.086637258529663,0,0,0
11931,403032.8900556661,2010-09-05 05:27:40,4802.411553471344,2,34,0.5501165986061096,4.071925163269043,35.56655978249628,34.818771854866625,141.48399903014862,127.46646257654338,6.47544875391759e-05,0.086637258529663,0,0,0
11932,403062.90523468266,2010-09-05 05:28:10,4832.426732462831,2,34,0.5499359965324402,4.074677467346191,35.57114638178233,34.818771854866625,141.5026817786543,127.46646257654338,6.47544875391759e-05,0.086637258529663,0,0,0
11933,403092.9204378946,2010-09-05 05:28:40,4862.441935679693,2,34,0.5501165986061096,4.077591419219971,35.57573298094677,34.818771854866625,141.52137727499286,127.46646257654338,0.0001295089750783,0.086637258529663,0,0,0
11934,403122.9356048259,2010-09-05 05:29:10,4892.45710260611,2,34,0.5501165986061096,4.08018159866333,35.58031955042791,34.818771854866625,141.5400855261681,127.46646257654338,6.47544875391759e-05,0.086637258529663,0,0,0
11935,403152.95092821727,2010-09-05 05:29:40,4922.472425987461,2,34,0.5501165986061096,4.083095550537109,35.5849061004129,34.818771854866625,141.5588065880474,127.46646257654338,9.71794142969884e-05,0.086637258529663,0,0,0
11936,403182.96615942393,2010-09-05 05:30:10,4952.487657234184,2,34,0.5499359965324402,4.0858473777771,35.58949266237141,34.818771854866625,141.57754084536074,127.46646257654338,3.23295607813634e-05,0.086637258529663,0,0,0
11937,403212.98111905874,2010-09-05 05:30:40,4982.502616843904,2,34,0.5501165986061096,4.088923454284668,35.59407913453961,34.818771854866625,141.59628790317925,127.46646257654338,6.47544875391759e-05,0.086637258529663,0,0,0
11938,403242.9962905416,2010-09-05 05:31:10,5012.517788321664,2,34,0.5501165986061096,4.091837406158447,35.59866566569667,34.818771854866625,141.61504859022233,127.46646257654338,6.47544875391759e-05,0.086637258529663,0,0,0
11939,403273.0114540544,2010-09-05 05:31:40,5042.532951824548,2,34,0.5499359965324402,4.0945892333984375,35.603252200263185,34.818771854866625,141.63382266318644,127.46646257654338,3.23295607813634e-05,0.086637258529663,0,0,0
11940,403303.0266401536,2010-09-05 05:32:10,5072.548137938787,2,34,0.5501165986061096,4.097665309906006,35.60783877649343,34.818771854866625,141.6526105353115,127.46646257654338,6.47544875391759e-05,0.086637258529663,0,0,0
11941,403333.0417945889,2010-09-05 05:32:40,5102.563292369058,2,34,0.5501165986061096,4.100740909576416,35.6124253001751,34.818771854866625,141.67141194754248,127.46646257654338,9.70840483205393e-05,0.086637258529663,0,0,0
11942,403363.0573175176,2010-09-05 05:33:10,5132.578815302755,2,34,0.5501165986061096,4.103978633880615,35.617011939941484,34.818771854866625,141.69022763971762,127.46646257654338,9.70840483205393e-05,0.086637258529663,0,0,0
11943,403393.0721372587,2010-09-05 05:33:40,5162.593635038866,2,34,0.550297200679779,4.107054710388184,35.62159840970522,34.818771854866625,141.70905660873018,127.46646257654338,0.0001295089750783,0.086637258529663,0,0,0
11944,403423.08732482645,2010-09-05 05:34:10,5192.60882261174,2,34,0.5499359965324402,4.109806537628174,35.62618494116318,34.818771854866625,141.72789989565214,127.46646257654338,3.23295607813634e-05,0.086637258529663,0,0,0
11945,403453.1024787355,2010-09-05 05:34:40,5222.623976505675,2,34,0.5501165986061096,4.113044261932373,35.63077161888987,34.818771854866625,141.74675802264994,127.46646257654338,6.47544875391759e-05,0.086637258529663,0,0,0
11946,403483.1176555917,2010-09-05 05:35:10,5252.639153371865,2,34,0.5501165986061096,4.116281986236572,35.635358171444544,34.818771854866625,141.76562993199687,127.46646257654338,9.71794142969884e-05,0.086637258529663,0,0,0
11947,403513.1328219065,2010-09-05 05:35:40,5282.654319686758,2,34,0.5501165986061096,4.119519710540772,35.639944746657044,34.818771854866625,141.78451647248176,127.46646257654338,9.71794142969884e-05,0.086637258529663,0,0,0
11948,403543.14800059726,2010-09-05 05:36:10,5312.66949838752,2,34,0.5501165986061096,4.122757434844971,35.64453136811516,34.818771854866625,141.8034178886325,127.46646257654338,0.0001295089750783,0.086637258529663,0,0,0
11949,403573.16318581934,2010-09-05 05:36:40,5342.68468361956,2,34,0.5499359965324402,4.125833034515381,35.6491179436072,34.818771854866625,141.82233381510036,127.46646257654338,6.47544875391759e-05,0.086637258529663,0,0,0
11950,403603.17834000906,2010-09-05 05:37:10,5372.6998377941945,2,34,0.5499359965324402,4.12907075881958,35.653704536327226,34.818771854866625,141.84126480222196,127.46646257654338,9.70840483205393e-05,0.086637258529663,0,0,0
11951,403633.193505572,2010-09-05 05:37:40,5402.7150033522,2,34,0.5501165986061096,4.132470607757568,35.65829110775648,34.818771854866625,141.86021071153976,127.46646257654338,9.71794142969884e-05,0.086637258529663,0,0,0
11952,403663.20868198713,2010-09-05 05:38:10,5432.730179767266,2,34,0.5501165986061096,4.135708332061768,35.6628776715839,34.818771854866625,141.87917171924485,127.46646257654338,6.47544875391759e-05,0.086637258529663,0,0,0
11953,403693.2238405577,2010-09-05 05:38:40,5462.745338337857,2,34,0.5501165986061096,4.139107704162598,35.66746426906154,34.818771854866625,141.89814823716242,127.46646257654338,9.70840483205393e-05,0.086637258529663,0,0,0
11954,403723.23905466165,2010-09-05 05:39:10,5492.760552441855,2,34,0.550297200679779,4.142507553100586,35.67205086659913,34.818771854866625,141.91714021065232,127.46646257654338,6.47544875391759e-05,0.086637258529663,0,0,0
11955,403753.2541792676,2010-09-05 05:39:40,5522.7756770528085,2,34,0.5501165986061096,4.145906925201416,35.676637384546446,34.818771854866625,141.93614751229268,127.46646257654338,9.70840483205393e-05,0.086637258529663,0,0,0
11956,403783.2693827853,2010-09-05 05:40:10,5552.790880590472,2,34,0.5499359965324402,4.149306774139404,35.68122392499282,34.818771854866625,141.95517083011356,127.46646257654338,6.47544875391759e-05,0.086637258529663,0,0,0
11957,403813.2845279424,2010-09-05 05:40:40,5582.806025727582,2,34,0.5501165986061096,4.152868270874023,35.68581041578119,34.818771854866625,141.9742097822738,127.46646257654338,9.71794142969884e-05,0.086637258529663,0,0,0
11958,403843.2997138862,2010-09-05 05:41:10,5612.821211656359,2,34,0.5499359965324402,4.1562676429748535,35.69039685984391,34.818771854866625,141.99326448314338,127.46646257654338,6.47544875391759e-05,0.086637258529663,0,0,0
11959,403873.3149875586,2010-09-05 05:41:40,5642.836485338845,2,34,0.5501165986061096,4.159829139709473,35.69498339567652,34.818771854866625,142.01233564642365,127.46646257654338,0.0001295089750783,0.086637258529663,0,0,0
11960,403903.3300413932,2010-09-05 05:42:10,5672.851539173401,2,34,0.5501165986061096,4.163552761077881,35.699569933887524,34.818771854866625,142.0314230780278,127.46646257654338,0.0001295089750783,0.086637258529663,0,0,0
11961,403933.345196455,2010-09-05 05:42:40,5702.866694235247,2,34,0.5499359965324402,4.166952133178711,35.70415648218527,34.818771854866625,142.05052686498797,127.46646257654338,9.70840483205393e-05,0.086637258529663,0,0,0
11962,403963.3605115858,2010-09-05 05:43:10,5732.882009371047,2,34,0.5497553944587708,4.170351982116699,35.70874301741156,34.818771854866625,142.06964704738544,127.46646257654338,3.24249267578125e-05,0.086637258529663,0,0,0
11963,403993.37558151054,2010-09-05 05:43:40,5762.897079315757,2,34,0.550297200679779,4.174237251281738,35.713329497780286,34.818771854866625,142.08878363653292,127.46646257654338,6.47544875391759e-05,0.086637258529663,0,0,0
11964,404023.39072464267,2010-09-05 05:44:10,5792.912222422808,2,34,0.5501165986061096,4.177960395812988,35.71791604159131,34.818771854866625,142.10793718525696,127.46646257654338,9.70840483205393e-05,0.086637258529663,0,0,0
11965,404053.4058797847,2010-09-05 05:44:40,5822.927377564854,2,34,0.5501165986061096,4.181521892547607,35.72250260845265,34.818771854866625,142.1271077627287,127.46646257654338,9.70840483205393e-05,0.086637258529663,0,0,0
11966,404083.4210462751,2010-09-05 05:45:10,5852.942544055183,2,34,0.550297200679779,4.185245513916016,35.727089136011195,34.818771854866625,142.14629518216373,127.46646257654338,9.71794142969884e-05,0.086637258529663,0,0,0
11967,404113.4364606282,2010-09-05 05:45:40,5882.957958418288,2,34,0.5501165986061096,4.189130783081055,35.73167562547439,34.818771854866625,142.1654996457699,127.46646257654338,0.0001295089750783,0.086637258529663,0,0,0
11968,404143.4516583412,2010-09-05 05:46:10,5912.9731561514855,2,34,0.5501165986061096,4.192692279815674,35.73626212700248,34.818771854866625,142.18472148721014,127.46646257654338,6.47544875391759e-05,0.086637258529663,0,0,0
11969,404173.46656231233,2010-09-05 05:46:40,5942.988060092462,2,34,0.5499359965324402,4.196739196777344,35.74084857565244,34.818771854866625,142.20396056832297,127.46646257654338,0.0001295089750783,0.086637258529663,0,0,0
11970,404197.981912423,2010-09-05 05:47:05,5967.503410213147,2,34,0.550297200679779,4.200138568878174,35.74459464295306,34.818771854866625,142.21968744558376,127.46646257654338,0.0001942634553415,0.086637258529663,0,0,0
11971,404228.0089338521,2010-09-05 05:47:35,30.015338103041422,3,34,0.0,4.118710041046143,35.74459464295306,34.818771854866625,142.21968744558376,127.46646257654338,-0.0003561973571777,0.086637258529663,0,0,0
11972,404258.0239374564,2010-09-05 05:48:05,60.03034170740924,3,34,0.0,4.108349800109863,35.74459464295306,34.818771854866625,142.21968744558376,127.46646257654338,-0.0001942634553415,0.086637258529663,0,0,0
11973,404288.039133721,2010-09-05 05:48:35,90.04553796693298,3,34,0.0,4.102198123931885,35.74459464295306,34.818771854866625,142.21968744558376,127.46646257654338,-0.0001618385285837,0.086637258529663,0,0,0
11974,404318.007446698,2010-09-05 05:49:05,120.0138509689534,3,34,0.0,4.098636627197266,35.74459464295306,34.818771854866625,142.21968744558376,127.46646257654338,-3.23295607813634e-05,0.086637258529663,0,0,0
11975,404318.02100736543,2010-09-05 05:49:05,2.656621117e-06,4,34,1.0112121105194092,4.199814796447754,35.74459464369929,34.818771854866625,142.21968744871776,127.46646257654338,0.0,0.086637258529663,0,0,0
11976,404318.73974991805,2010-09-05 05:49:06,0.718745199188747,4,34,0.9611833095550536,4.199814796447754,35.74478990626772,34.818771854866625,142.22050750015228,127.46646257654338,0.0,0.086637258529663,0,0,0
11977,404320.6618300882,2010-09-05 05:49:08,2.640825379407138,4,34,0.911154568195343,4.199653148651123,35.74528865429124,34.818771854866625,142.22260210915005,127.46646257654338,-3.23295607813634e-05,0.086637258529663,0,0,0
11978,404323.630470273,2010-09-05 05:49:11,5.609465554150344,4,34,0.8607645630836487,4.199653148651123,35.74601830234544,34.818771854866625,142.2256664192452,127.46646257654338,0.0,0.086637258529663,0,0,0
11979,404327.6617745235,2010-09-05 05:49:15,9.640769814769117,4,34,0.810735821723938,4.199814796447754,35.746953176891125,34.818771854866625,142.22959263622397,127.46646257654338,0.0,0.086637258529663,0,0,0
11980,404332.84913600446,2010-09-05 05:49:20,14.8281312956908,4,34,0.7605264186859131,4.199814796447754,35.74808396340328,34.818771854866625,142.23434165922535,127.46646257654338,0.0,0.086637258529663,0,0,0
11981,404339.473928571,2010-09-05 05:49:26,21.45292386216416,4,34,0.7104976773262024,4.199814796447754,35.74943569505325,34.818771854866625,142.24001857346832,127.46646257654338,3.23295607813634e-05,0.086637258529663,0,0,0
11982,404348.0518066224,2010-09-05 05:49:35,30.030801903590486,4,34,0.6604688763618469,4.199491024017334,35.75106676813341,34.818771854866625,142.24686866129997,127.46646257654338,-3.24249267578125e-05,0.086637258529663,0,0,0
11983,404359.8329443275,2010-09-05 05:49:47,41.81193962375459,4,34,0.6104401350021362,4.199814796447754,35.75314260486226,34.818771854866625,142.25558663934484,127.46646257654338,0.0,0.086637258529663,0,0,0
11984,404376.72326879314,2010-09-05 05:50:04,58.70226407430828,4,34,0.5604113340377808,4.199814796447754,35.75588194223692,34.818771854866625,142.26709119998105,127.46646257654338,0.0,0.086637258529663,0,0,0
11985,404403.5354862238,2010-09-05 05:50:31,85.51448151007126,4,34,0.5103825926780701,4.199653148651123,35.75985507729557,34.818771854866625,142.28377737658698,127.46646257654338,0.0,0.086637258529663,0,0,0
11986,404450.2533730476,2010-09-05 05:51:17,132.2323683287578,4,34,0.4603537917137146,4.199814796447754,35.766125919468294,34.818771854866625,142.31011333911283,127.46646257654338,0.0,0.086637258529663,0,0,0
11987,404527.0334829662,2010-09-05 05:52:34,209.0124782673741,4,34,0.4103250205516815,4.199653148651123,35.775380987674204,34.818771854866625,142.3489823441704,127.46646257654338,0.0,0.086637258529663,0,0,0
11988,404632.3131187924,2010-09-05 05:54:19,314.2921140785496,4,34,0.3602962493896484,4.199653148651123,35.78663083587117,34.818771854866625,142.3962290108071,127.46646257654338,-6.47544875391759e-05,0.086637258529663,0,0,0
11989,404760.1393294856,2010-09-05 05:56:27,442.1183247667264,4,34,0.3102675080299377,4.199653148651123,35.79852182692628,34.818771854866625,142.44616832220697,127.46646257654338,0.0,0.086637258529663,0,0,0
11990,404914.87138936366,2010-09-05 05:59:02,596.8503847350319,4,34,0.2600581049919128,4.199814796447754,35.8107683210316,34.818771854866625,142.4976008873121,127.46646257654338,0.0,0.086637258529663,0,0,0
11991,405104.977833226,2010-09-05 06:02:12,786.9568285021901,4,34,0.2098487317562103,4.199653148651123,35.82314761184166,34.818771854866625,142.54959089190555,127.46646257654338,-3.23295607813634e-05,0.086637258529663,0,0,0
11992,405352.1460635628,2010-09-05 06:06:19,1034.125058843965,4,34,0.1596393585205078,4.199653148651123,35.83578407219354,34.818771854866625,142.6026609848418,127.46646257654338,-3.23295607813634e-05,0.086637258529663,0,0,0
11993,405701.32810219366,2010-09-05 06:12:08,1383.3070974848854,4,34,0.1096105873584747,4.199653148651123,35.84874425829804,34.818771854866625,142.65709056232564,127.46646257654338,3.24249267578125e-05,0.086637258529663,0,0,0
11994,406320.240767365,2010-09-05 06:22:27,2002.2197626661832,4,34,0.0595818199217319,4.199814796447754,35.862879546637274,34.818771854866625,142.71645519023662,127.46646257654338,0.0,0.086637258529663,0,0,0
11995,406508.1909356903,2010-09-05 06:25:35,2190.169930981446,4,34,0.0496483072638511,4.199653148651123,35.86574484125539,34.818771854866625,142.7284887574018,127.46646257654338,-6.47544875391759e-05,0.086637258529663,0,0,0
11996,406538.2059930664,2010-09-05 06:26:05,30.01512826004812,5,34,0.0,4.192368507385254,35.86574484125539,34.818771854866625,142.7284887574018,127.46646257654338,3.24249267578125e-05,0.086637258529663,0,0,0
11997,406568.205551251,2010-09-05 06:26:35,60.01468646472748,5,34,0.0,4.190911293029785,35.86574484125539,34.818771854866625,142.7284887574018,127.46646257654338,-3.24249267578125e-05,0.086637258529663,0,0,0
11998,406568.3755923424,2010-09-05 06:26:36,0.184851486782442,6,34,-1.9243103452026844e-05,4.190911293029785,35.86574484125539,34.81877185585471,142.7284887574018,127.46646258068436,0.0,0.0939245000481605,0,0,0
11999,406573.20337246585,2010-09-05 06:26:41,5.012631464958821,6,34,0.0008838032954372,4.191073417663574,35.86574578657599,34.818771855937094,142.7284927192581,127.46646258102962,0.0,0.0939245000481605,0,0,0
12000,406603.2195786572,2010-09-05 06:27:11,30.01529974744748,7,34,-1.099568486213684,4.020445823669434,35.86574578657599,34.82793950976334,142.7284927192581,127.503516235349,-0.0008741378551349,0.0939245000481605,0,0,0
12001,406633.2346186622,2010-09-05 06:27:41,60.0303397475246,7,34,-1.099568486213684,3.99341082572937,35.86574578657599,34.837107074222324,142.7284927192581,127.5402412345009,-0.000615119934082,0.0939245000481605,0,0,0
12002,406663.24997478025,2010-09-05 06:28:11,90.04569587548967,7,34,-1.099568486213684,3.9752795696258554,35.86574578657599,34.84627466893889,142.7284927192581,127.57676400250789,-0.0004209041653666,0.0939245000481605,0,0,0
12003,406693.2650831808,2010-09-05 06:28:41,120.06080427604184,7,34,-1.099568486213684,3.961033582687378,35.86574578657599,34.85544213725033,142.7284927192581,127.61313926215064,-0.0003885269106831,0.0939245000481605,0,0,0
12004,406723.2801508498,2010-09-05 06:29:11,150.07587196512847,7,34,-1.099568486213684,3.9493777751922607,35.86574578657599,34.864609583576225,142.7284927192581,127.6493966308038,-0.0002590179501567,0.0939245000481605,0,0,0
12005,406753.2954283267,2010-09-05 06:29:41,180.091149442071,7,34,-1.0997490882873535,3.938531398773194,35.86574578657599,34.87377708851706,142.7284927192581,127.68555301119986,-0.0003237724304199,0.0939245000481605,0,0,0
12006,406783.3106892074,2010-09-05 06:30:11,210.10641031763785,7,34,-1.099568486213684,3.929141998291016,35.86574578657599,34.882944603254806,142.7284927192581,127.72161768727622,-0.0002913951757363,0.0939245000481605,0,0,0
12007,406813.32564317295,2010-09-05 06:30:41,240.1213642582282,7,34,-1.0997490882873535,3.920076370239258,35.86574578657599,34.892112060472435,142.7284927192581,127.75759696472844,-0.0002590179501567,0.0939245000481605,0,0,0
12008,406843.3408192623,2010-09-05 06:31:11,270.1365403524939,7,34,-1.099568486213684,3.911496639251709,35.86574578657599,34.90127965449442,142.7284927192581,127.7934961009401,-0.0002590179501567,0.0939245000481605,0,0,0
12009,406873.3559794419,2010-09-05 06:31:41,300.1517005320954,7,34,-1.099568486213684,3.903240442276001,35.86574578657599,34.91044720208109,142.7284927192581,127.82931725674342,-0.0002266406954731,0.0939245000481605,0,0,0
12010,406903.3712836905,2010-09-05 06:32:11,330.16700478577377,7,34,-1.0993878841400146,3.894984245300293,35.86574578657599,34.91961477406939,142.7284927192581,127.86506308796172,-0.0002590179501567,0.0939245000481605,0,0,0
12011,406933.3864624114,2010-09-05 06:32:41,360.18218351159817,7,34,-1.0993878841400146,3.887213706970215,35.86574578657599,34.9287822802005,142.7284927192581,127.90073574312328,-0.0001942634553415,0.0939245000481605,0,0,0
12012,406963.40151599527,2010-09-05 06:33:11,390.19723708049287,7,34,-1.0993878841400146,3.8796050548553462,35.86574578657599,34.93794976391036,142.7284927192581,127.9363363083372,-0.0001942634553415,0.0939245000481605,0,0,0
12013,406993.4166566061,2010-09-05 06:33:41,420.212377691323,7,34,-1.0993878841400146,3.871834516525269,35.86574578657599,34.94711728767933,142.7284927192581,127.97186642637163,-0.0002266406954731,0.0939245000481605,0,0,0
12014,407023.4318487955,2010-09-05 06:34:11,450.2275698857151,7,34,-1.099568486213684,3.86454963684082,35.86574578657599,34.956284839825415,142.7284927192581,128.0073273147143,-0.0001618862152099,0.0939245000481605,0,0,0
12015,407053.4469967998,2010-09-05 06:34:41,480.2427178849594,7,34,-1.099568486213684,3.856779098510742,35.86574578657599,34.96545242251359,142.7284927192581,128.042720255332,-0.0002590179501567,0.0939245000481605,0,0,0
12016,407083.462235079,2010-09-05 06:35:11,510.2579561892717,7,34,-1.099568486213684,3.849817991256714,35.86574578657599,34.974619948778354,142.7284927192581,128.0780460374869,-0.0001618862152099,0.0939245000481605,0,0,0
12017,407113.47733550967,2010-09-05 06:35:41,540.2730565999107,7,34,-1.099568486213684,3.8425331115722656,35.86574578657599,34.98378744160449,142.7284927192581,128.11330581591378,-0.0001942634553415,0.0939245000481605,0,0,0
12018,407143.4925469821,2010-09-05 06:36:11,570.2882680923994,7,34,-1.099568486213684,3.8357338905334473,35.86574578657599,34.99295505723782,142.7284927192581,128.148501313156,-0.0001618862152099,0.0939245000481605,0,0,0
12019,407173.5076991919,2010-09-05 06:36:41,600.3034202871002,7,34,-1.0993878841400146,3.828611135482788,35.86574578657599,35.00212270424888,142.7284927192581,128.18363308411193,-0.0001942634553415,0.0939245000481605,0,0,0
12020,407203.52287190274,2010-09-05 06:37:11,630.3185929879082,7,34,-1.099568486213684,3.82197380065918,35.86574578657599,35.011290313737845,142.7284927192581,128.21870187375913,-0.0001618862152099,0.0939245000481605,0,0,0
12021,407233.5381482719,2010-09-05 06:37:41,660.3338693871649,7,34,-1.099568486213684,3.815174579620361,35.86574578657599,35.02045793522348,142.7284927192581,128.25370931446753,-0.0001942634553415,0.0939245000481605,0,0,0
12022,407263.5531880013,2010-09-05 06:38:11,690.3489090864925,7,34,-1.099568486213684,3.808699131011963,35.86574578657599,35.02962542002984,142.7284927192581,128.28865512139194,-0.0001618862152099,0.0939245000481605,0,0,0
12023,407293.56835051166,2010-09-05 06:38:41,720.3640716069281,7,34,-1.099568486213684,3.802223682403565,35.86574578657599,35.038792987855224,142.7284927192581,128.32354113289844,-0.0001295089750783,0.0939245000481605,0,0,0
12024,407323.5836480886,2010-09-05 06:39:11,750.3793691739412,7,34,-1.099568486213684,3.795748233795166,35.86574578657599,35.04796064310655,142.7284927192581,128.3583684310619,-0.0001618862152099,0.0939245000481605,0,0,0
12025,407353.59871091065,2010-09-05 06:39:41,780.39443202096,7,34,-1.0997490882873535,3.7894346714019775,35.86574578657599,35.05712820262392,142.7284927192581,128.39313759073826,-0.0001618862152099,0.0939245000481605,0,0,0
12026,407383.614010182,2010-09-05 06:40:11,810.4097312771833,7,34,-1.0993878841400146,3.783444881439209,35.86574578657599,35.06629585445373,142.7284927192581,128.42785051984887,-0.0001295089750783,0.0939245000481605,0,0,0
12027,407413.6291753791,2010-09-05 06:40:41,840.4248964993521,7,34,-1.0997490882873535,3.7772932052612314,35.86574578657599,35.07546346323529,142.7284927192581,128.4625076907458,-0.0001942634553415,0.0939245000481605,0,0,0
12028,407443.644199274,2010-09-05 06:41:11,870.4399203592029,7,34,-1.0993878841400146,3.771627187728882,35.86574578657599,35.0846310196441,142.7284927192581,128.497109912147,-9.713172767078504e-05,0.0939245000481605,0,0,0
12029,407473.6593707568,2010-09-05 06:41:41,900.4550918670377,7,34,-1.0993878841400146,3.7657992839813232,35.86574578657599,35.093798591558844,142.7284927192581,128.53165864260993,-0.0001295089750783,0.0939245000481605,0,0,0
12030,407503.67456041486,2010-09-05 06:42:11,930.4702815000462,7,34,-1.0993878841400146,3.760133266448975,35.86574578657599,35.10296615662871,142.7284927192581,128.56615483339257,-0.0001295089750783,0.0939245000481605,0,0,0
12031,407533.689724048,2010-09-05 06:42:41,960.4854451332552,7,34,-1.0993878841400146,3.754467248916626,35.86574578657599,35.112133844331666,142.7284927192581,128.60060003922837,-0.0001618862152099,0.0939245000481605,0,0,0
12032,407563.7049087888,2010-09-05 06:43:11,990.5006298740708,7,34,-1.0993878841400146,3.749125242233277,35.86574578657599,35.12130148219744,142.7284927192581,128.63499453869736,-0.0001295089750783,0.0939245000481605,0,0,0
12033,407593.7201665868,2010-09-05 06:43:41,1020.515887702042,7,34,-1.099568486213684,3.743459224700928,35.86574578657599,35.13046913983172,142.7284927192581,128.6693393141983,-0.0001942634553415,0.0939245000481605,0,0,0
12034,407623.7353553626,2010-09-05 06:44:11,1050.5310764528515,7,34,-1.099568486213684,3.738440752029419,35.86574578657599,35.13963677117518,142.7284927192581,128.7036352032534,-9.713172767078504e-05,0.0939245000481605,0,0,0
12035,407653.75051973766,2010-09-05 06:44:41,1080.546240852972,7,34,-1.0993878841400146,3.7332603931427,35.86574578657599,35.14880436878733,142.7284927192581,128.7378834461378,-0.0001618862152099,0.0939245000481605,0,0,0
12036,407683.7655563744,2010-09-05 06:45:11,1110.561277449567,7,34,-1.0992072820663452,3.728241920471192,35.86574578657599,35.157971356066696,142.7284927192581,128.77208294642205,-0.0001295089750783,0.0939245000481605,0,0,0
12037,407713.7808542472,2010-09-05 06:45:41,1140.5765753323667,7,34,-1.099568486213684,3.7232234477996826,35.86574578657599,35.1671381509741,142.7284927192581,128.80623658215384,-0.0001618862152099,0.0939245000481605,0,0,0
12038,407743.7961310674,2010-09-05 06:46:11,1170.5918521526728,7,34,-1.0997490882873535,3.718366861343384,35.86574578657599,35.176305561464666,142.7284927192581,128.84034724418888,-0.0001295089750783,0.0939245000481605,0,0,0
12039,407773.81111588,2010-09-05 06:46:41,1200.606836995281,7,34,-1.0993878841400146,3.713672161102295,35.86574578657599,35.18547320457101,142.7284927192581,128.87441436851907,-0.0001295089750783,0.0939245000481605,0,0,0
12040,407803.8262655534,2010-09-05 06:47:11,1230.6219866386225,7,34,-1.099568486213684,3.708977460861206,35.86574578657599,35.19464081181601,142.7284927192581,128.90843775207466,-9.713172767078504e-05,0.0939245000481605,0,0,0
12041,407833.8414324648,2010-09-05 06:47:41,1260.6371535500016,7,34,-1.099568486213684,3.704282760620117,35.86574578657599,35.2038084603425,142.7284927192581,128.9424185825313,-0.0001295089750783,0.0939245000481605,0,0,0
12042,407863.8566122633,2010-09-05 06:48:11,1290.6523333535115,7,34,-1.099568486213684,3.6997499465942383,35.86574578657599,35.2129762245811,142.7284927192581,128.97635781484027,-0.0001295089750783,0.0939245000481605,0,0,0
12043,407893.8717660669,2010-09-05 06:48:41,1320.6674871572227,7,34,-1.099568486213684,3.69521713256836,35.86574578657599,35.22214390816151,142.7284927192581,129.01025538421385,-0.0001295089750783,0.0939245000481605,0,0,0
12044,407923.88693944446,2010-09-05 06:49:11,1350.6826605347171,7,34,-1.099568486213684,3.6908462047576895,35.86574578657599,35.23131160933993,142.7284927192581,129.0441124203022,-9.713172767078504e-05,0.0939245000481605,0,0,0
12045,407953.9022787456,2010-09-05 06:49:41,1380.6979998507818,7,34,-1.099568486213684,3.6864752769470215,35.86574578657599,35.240479299708774,142.7284927192581,129.07792923162617,-0.0001618862152099,0.0939245000481605,0,0,0
12046,407983.91729629465,2010-09-05 06:50:11,1410.7130174049169,7,34,-1.099568486213684,3.682428121566773,35.86574578657599,35.24964691551657,142.7284927192581,129.1117064016406,-9.713172767078504e-05,0.0939245000481605,0,0,0
12047,408013.9324468202,2010-09-05 06:50:41,1440.7281679154198,7,34,-1.099568486213684,3.678057193756104,35.86574578657599,35.258814594781064,142.7284927192581,129.1454451199352,-0.0001295089750783,0.0939245000481605,0,0,0
12048,408043.94776726427,2010-09-05 06:51:11,1470.7434883594497,7,34,-1.0993878841400146,3.6740100383758554,35.86574578657599,35.26798227470384,142.7284927192581,129.17914568675866,-9.713172767078504e-05,0.0939245000481605,0,0,0
12049,408073.9627865075,2010-09-05 06:51:41,1500.7585076027945,7,34,-1.0993878841400146,3.669963121414185,35.86574578657599,35.27714983749078,142.7284927192581,129.21280854283845,-0.0001295089750783,0.0939245000481605,0,0,0
12050,408103.9779717296,2010-09-05 06:52:11,1530.773692814785,7,34,-1.0997490882873535,3.6657540798187256,35.86574578657599,35.28631751994588,142.7284927192581,129.24643488695156,-0.0001618862152099,0.0939245000481605,0,0,0
12051,408133.9931291122,2010-09-05 06:52:41,1560.7888501974153,7,34,-1.0993878841400146,3.6621925830841056,35.86574578657599,35.29548520740642,142.7284927192581,129.280024931874,-6.47544875391759e-05,0.0939245000481605,0,0,0
12052,408164.00830906106,2010-09-05 06:53:11,1590.8040301462877,7,34,-1.0997490882873535,3.6581454277038574,35.86574578657599,35.30465295107771,142.7284927192581,129.3135794606661,-9.713172767078504e-05,0.0939245000481605,0,0,0
12053,408194.0236393146,2010-09-05 06:53:41,1620.8193604097908,7,34,-1.099568486213684,3.654422044754028,35.86574578657599,35.313820694617334,142.7284927192581,129.34709902627284,-6.47544875391759e-05,0.0939245000481605,0,0,0
12054,408224.03864905424,2010-09-05 06:54:11,1650.8343701494491,7,34,-1.099568486213684,3.650698661804199,35.86574578657599,35.32298834508392,142.7284927192581,129.38058395305086,-6.47544875391759e-05,0.0939245000481605,0,0,0
12055,408254.05380176014,2010-09-05 06:54:41,1680.8495228754743,7,34,-1.0993878841400146,3.64713716506958,35.86574578657599,35.33215610840394,142.7284927192581,129.41403568999556,-9.713172767078504e-05,0.0939245000481605,0,0,0
12056,408284.069101658,2010-09-05 06:55:11,1710.8648227732965,7,34,-1.0997490882873535,3.643251895904541,35.86574578657599,35.34132379782459,142.7284927192581,129.4474537165653,-0.0001618862152099,0.0939245000481605,0,0,0
12057,408314.0841415127,2010-09-05 06:55:41,1740.879862628011,7,34,-1.099568486213684,3.639852285385132,35.86574578657599,35.35049149182506,142.7284927192581,129.4808397758383,-0.0001295089750783,0.0939245000481605,0,0,0
12058,408344.1030747309,2010-09-05 06:56:11,1770.898795826136,7,34,-1.099568486213684,3.6366145610809326,35.86574578657599,35.35966033473283,142.7284927192581,129.51419849733358,-6.47544875391759e-05,0.0939245000481605,0,0,0
12059,408374.1146287979,2010-09-05 06:56:42,1800.9103498931954,7,34,-1.0993878841400146,3.633538722991944,35.86574578657599,35.36882695707153,142.7284927192581,129.54751832664195,0.0,0.0939245000481605,0,0,0
12060,408404.1299617832,2010-09-05 06:57:12,1830.9256828784817,7,34,-1.099568486213684,3.629977226257324,35.86574578657599,35.37799469806614,142.7284927192581,129.5808122213989,-9.713172767078504e-05,0.0939245000481605,0,0,0
12061,408434.14509832393,2010-09-05 06:57:42,1860.9408194392176,7,34,-1.099568486213684,3.626739501953125,35.86574578657599,35.38716241399051,142.7284927192581,129.6140765298206,-0.0001295089750783,0.0939245000481605,0,0,0
12062,408464.1600241044,2010-09-05 06:58:12,1890.9557451895496,7,34,-1.099568486213684,3.623663663864136,35.86574578657599,35.396330014172214,142.7284927192581,129.64731157734022,-6.47544875391759e-05,0.0939245000481605,0,0,0
12063,408494.1751707352,2010-09-05 06:58:42,1920.970891820383,7,34,-1.099568486213684,3.620749711990357,35.86574578657599,35.40549772730271,142.7284927192581,129.68051895946496,-6.47544875391759e-05,0.0939245000481605,0,0,0
12064,408524.1903440175,2010-09-05 06:59:12,1950.9860651026409,7,34,-1.099568486213684,3.617835760116577,35.86574578657599,35.41466540693404,142.7284927192581,129.7136983396191,-3.237724376958795e-05,0.0939245000481605,0,0,0
12065,408554.2055103474,2010-09-05 06:59:42,1981.0012314325704,7,34,-1.099568486213684,3.614759922027588,35.86574578657599,35.42383311975056,142.7284927192581,129.74685042584574,-6.47544875391759e-05,0.0939245000481605,0,0,0
12066,408584.220695424,2010-09-05 07:00:12,2011.0164165092228,7,34,-1.099568486213684,3.6118459701538086,35.86574578657599,35.43300080856125,142.7284927192581,129.77997565264633,-6.47544875391759e-05,0.0939245000481605,0,0,0
12067,408614.2358655934,2010-09-05 07:00:42,2041.0315866787223,7,34,-1.099568486213684,3.608932018280029,35.86574578657599,35.44216850131168,142.7284927192581,129.81307449373568,-6.47544875391759e-05,0.0939245000481605,0,0,0
12068,408644.25101957767,2010-09-05 07:01:12,2071.0467406628827,7,34,-1.0997490882873535,3.60601806640625,35.86574578657599,35.451336282817856,142.7284927192581,129.84614744102453,-9.713172767078504e-05,0.0939245000481605,0,0,0
12069,408674.2664307027,2010-09-05 07:01:42,2101.06215179293,7,34,-1.099568486213684,3.60342788696289,35.86574578657599,35.46050404815308,142.7284927192581,129.87919435088952,-6.47544875391759e-05,0.0939245000481605,0,0,0
12070,408704.2815915189,2010-09-05 07:02:12,2131.0773126041054,7,34,-1.0997490882873535,3.6003520488739014,35.86574578657599,35.469671703547135,142.7284927192581,129.91221522331804,-6.47544875391759e-05,0.0939245000481605,0,0,0
12071,408734.2965390885,2010-09-05 07:02:42,2161.092260183843,7,34,-1.099568486213684,3.597599983215332,35.86574578657599,35.47883934310056,142.7284927192581,129.94521006877002,-9.713172767078504e-05,0.0939245000481605,0,0,0
12072,408764.3117121052,2010-09-05 07:03:12,2191.107433200438,7,34,-1.0997490882873535,3.5946860313415527,35.86574578657599,35.48800706397489,142.7284927192581,129.97817930745015,-9.713172767078504e-05,0.0939245000481605,0,0,0
12073,408794.3268725003,2010-09-05 07:03:42,2221.122593590564,7,34,-1.0993878841400146,3.5920960903167725,35.86574578657599,35.49717476297648,142.7284927192581,130.0111226679999,-6.470680091297254e-05,0.0939245000481605,0,0,0
12074,408824.34207909054,2010-09-05 07:04:12,2251.137800200885,7,34,-1.0997490882873535,3.589020252227783,35.86574578657599,35.506342466703934,142.7284927192581,130.04404000758058,-9.713172767078504e-05,0.0939245000481605,0,0,0
12075,408854.3572962624,2010-09-05 07:04:42,2281.153017347466,7,34,-1.099568486213684,3.586268186569214,35.86574578657599,35.51551022575345,142.7284927192581,130.07693123550868,-3.237724376958795e-05,0.0939245000481605,0,0,0
12076,408884.3727799281,2010-09-05 07:05:12,2311.168501028332,7,34,-1.0993878841400146,3.5833542346954346,35.86574578657599,35.52467802173168,142.7284927192581,130.10979583721166,-6.47544875391759e-05,0.0939245000481605,0,0,0
12077,408914.3876197192,2010-09-05 07:05:42,2341.183340804389,7,34,-1.099929690361023,3.5804402828216557,35.86574578657599,35.53384562378987,142.7284927192581,130.14263290608596,-6.47544875391759e-05,0.0939245000481605,0,0,0
12078,408944.4027301599,2010-09-05 07:06:12,2371.1984512450263,7,34,-1.099568486213684,3.577364444732666,35.86574578657599,35.54301329344639,142.7284927192581,130.17544294176588,-9.713172767078504e-05,0.0939245000481605,0,0,0
12079,408974.4179626346,2010-09-05 07:06:42,2401.213683744872,7,34,-1.0997490882873535,3.5742886066436768,35.86574578657599,35.55218105495422,142.7284927192581,130.20822537151437,-6.47544875391759e-05,0.0939245000481605,0,0,0
12080,409004.4332313096,2010-09-05 07:07:12,2431.22895240484,7,34,-1.0993878841400146,3.5712127685546875,35.86574578657599,35.561348744050655,142.7284927192581,130.24097926019186,-9.713172767078504e-05,0.0939245000481605,0,0,0
12081,409034.4483405823,2010-09-05 07:07:42,2461.2440616825784,7,34,-1.099568486213684,3.5681369304656982,35.86574578657599,35.57051643517014,142.7284927192581,130.27370440864843,-6.47544875391759e-05,0.0939245000481605,0,0,0
12082,409064.4634241861,2010-09-05 07:08:12,2491.2591452813167,7,34,-1.0997490882873535,3.564737319946289,35.86574578657599,35.57968413407341,142.7284927192581,130.3064001886611,-9.713172767078504e-05,0.0939245000481605,0,0,0
12083,409094.4786707109,2010-09-05 07:08:42,2521.2743917960915,7,34,-1.099568486213684,3.56149959564209,35.86574578657599,35.58885173925171,142.7284927192581,130.33906591642472,-9.713172767078504e-05,0.0939245000481605,0,0,0
12084,409124.4937467507,2010-09-05 07:09:12,2551.289467841003,7,34,-1.0993878841400146,3.55826187133789,35.86574578657599,35.59801935010755,142.7284927192581,130.37170133278985,-3.237724376958795e-05,0.0939245000481605,0,0,0
12085,409154.50907222735,2010-09-05 07:09:42,2581.304793317576,7,34,-1.099568486213684,3.5547003746032715,35.86574578657599,35.6071870584456,142.7284927192581,130.40430558225796,-9.713172767078504e-05,0.0939245000481605,0,0,0
12086,409184.5241146234,2010-09-05 07:10:12,2611.319835708612,7,34,-1.0997490882873535,3.5509769916534424,35.86574578657599,35.616354772837,142.7284927192581,130.43687768980757,-9.713172767078504e-05,0.0939245000481605,0,0,0
12087,409214.53933433135,2010-09-05 07:10:42,2641.335055536877,7,34,-1.099568486213684,3.547577381134033,35.86574578657599,35.62552247759382,142.7284927192581,130.46941669325523,-9.713172767078504e-05,0.0939245000481605,0,0,0
12088,409244.5545681394,2010-09-05 07:11:12,2671.350289249746,7,34,-1.0997490882873535,3.543530225753784,35.86574578657599,35.63469014558438,142.7284927192581,130.50192150939645,-0.0001295089750783,0.0939245000481605,0,0,0
12089,409274.5695443305,2010-09-05 07:11:42,2701.365265415729,7,34,-1.099568486213684,3.539806842803955,35.86574578657599,35.643857770181306,142.7284927192581,130.53439084415615,-9.713172767078504e-05,0.0939245000481605,0,0,0
12090,409304.5847578982,2010-09-05 07:12:12,2731.3804790134645,7,34,-1.099568486213684,3.535597801208496,35.86574578657599,35.65302538931057,142.7284927192581,130.56682384634706,-9.713172767078504e-05,0.0939245000481605,0,0,0
12091,409334.5998960579,2010-09-05 07:12:42,2761.395617148123,7,34,-1.099568486213684,3.531550645828247,35.86574578657599,35.66219291735661,142.7284927192581,130.59921870469094,-9.713172767078504e-05,0.0939245000481605,0,0,0
12092,409364.6151209538,2010-09-05 07:13:12,2791.41084204903,7,34,-1.099568486213684,3.527179718017578,35.86574578657599,35.67136061784686,142.7284927192581,130.63157500453607,-0.0001618862152099,0.0939245000481605,0,0,0
12093,409394.6302947624,2010-09-05 07:13:42,2821.426015857599,7,34,-1.099568486213684,3.522646903991699,35.86574578657599,35.68052831035509,142.7284927192581,130.66389052221186,-9.713172767078504e-05,0.0939245000481605,0,0,0
12094,409424.6454649819,2010-09-05 07:14:12,2851.4411860671985,7,34,-1.0997490882873535,3.5177903175354004,35.86574578657599,35.68969600947896,142.7284927192581,130.69616338924348,-0.0001618862152099,0.0939245000481605,0,0,0
12095,409454.66064085066,2010-09-05 07:14:42,2881.456361950939,7,34,-1.0997490882873535,3.512771844863892,35.86574578657599,35.69886374900919,142.7284927192581,130.7283918076439,-0.0001942634553415,0.0939245000481605,0,0,0
12096,409484.6757994714,2010-09-05 07:15:12,2911.4715205616303,7,34,-1.099568486213684,3.507753610610962,35.86574578657599,35.70803146334207,142.7284927192581,130.76057279020057,-9.713172767078504e-05,0.0939245000481605,0,0,0
12097,409514.6909638365,2010-09-05 07:15:42,2941.4866849216505,7,34,-1.099568486213684,3.5019257068634038,35.86574578657599,35.71719922331765,142.7284927192581,130.7927034243012,-0.0001618862152099,0.0939245000481605,0,0,0
12098,409544.70615111856,2010-09-05 07:16:12,2971.5018722038003,7,34,-1.099568486213684,3.495774030685425,35.86574578657599,35.726366948093464,142.7284927192581,130.8247796196931,-0.0001618862152099,0.0939245000481605,0,0,0
12099,409574.72131104255,2010-09-05 07:16:42,3001.5170321377896,7,34,-1.0993878841400146,3.4891366958618164,35.86574578657599,35.73553469522612,142.7284927192581,130.85679689869505,-0.0001618862152099,0.0939245000481605,0,0,0
12100,409604.73647783865,2010-09-05 07:17:12,3031.5321989288686,7,34,-1.099568486213684,3.481528043746948,35.86574578657599,35.74470236428457,142.7284927192581,130.8887489536982,-0.0001942634553415,0.0939245000481605,0,0,0
12101,409634.7518856203,2010-09-05 07:17:42,3061.5476067155832,7,34,-1.0997490882873535,3.4727861881256104,35.86574578657599,35.75387011337653,142.7284927192581,130.92062710197578,-0.0002590179501567,0.0939245000481605,0,0,0
12102,409664.7670533839,2010-09-05 07:18:12,3091.5627744941235,7,34,-1.099568486213684,3.4629111289978027,35.86574578657599,35.76303779077547,142.7284927192581,130.95242015576642,-0.0002913951757363,0.0939245000481605,0,0,0
12103,409694.78198522935,2010-09-05 07:18:42,3121.5777063195965,7,34,-1.099568486213684,3.4509315490722656,35.86574578657599,35.77220545631978,142.7284927192581,130.98411299650832,-0.0003561496851034,0.0939245000481605,0,0,0
12104,409724.79712053697,2010-09-05 07:19:12,3151.5928416221973,7,34,-1.0993878841400146,3.436038017272949,35.86574578657599,35.781373151040015,142.7284927192581,131.01568453522376,-0.0004856586456298,0.0939245000481605,0,0,0
12105,409754.8123472525,2010-09-05 07:19:42,3181.6080683626888,7,34,-1.099568486213684,3.417097568511963,35.86574578657599,35.79054088979762,142.7284927192581,131.04710233275415,-0.0005504131549969,0.0939245000481605,0,0,0
12106,409784.8274850412,2010-09-05 07:20:12,3211.6232061264227,7,34,-1.099568486213684,3.391519546508789,35.86574578657599,35.79970856414442,142.7284927192581,131.07831772082068,-0.0008094310760498,0.0939245000481605,0,0,0
12107,409814.84264496015,2010-09-05 07:20:42,3241.6383660453744,7,34,-1.099568486213684,3.356552124023437,35.86574578657599,35.8088762681001,142.7284927192581,131.10925943251726,-0.0010684489971026,0.0939245000481605,0,0,0
12108,409844.85779460846,2010-09-05 07:21:12,3271.6535156987416,7,34,-1.0997490882873535,3.3068532943725586,35.86574578657599,35.81804394954223,142.7284927192581,131.13981668526395,-0.0015217304462566,0.0939245000481605,0,0,0
12109,409874.8731021855,2010-09-05 07:21:42,3301.668823300765,7,34,-1.099568486213684,3.234814167022705,35.86574578657599,35.82721166023571,142.7284927192581,131.1698227646234,-0.0022340298164635,0.0939245000481605,0,0,0
12110,409904.8881378999,2010-09-05 07:22:12,3331.683858985086,7,34,-1.099568486213684,3.1258649826049805,35.86574578657599,35.83637936331743,142.7284927192581,131.1990171729092,-0.0035291195381432,0.0939245000481605,0,0,0
12111,409934.7314244826,2010-09-05 07:22:42,3361.5271455678,7,34,-1.099568486213684,2.925774335861206,35.86574578657599,35.84549462131788,142.7284927192581,131.22672833567736,-0.0078352447599172,0.0939245000481605,0,0,0
12112,409949.5749800052,2010-09-05 07:22:57,3376.3707011154725,7,34,-1.099568486213684,2.7251977920532227,35.86574578657599,35.8500283537821,142.7284927192581,131.23956998082437,-0.0123357297852635,0.0939245000481605,0,0,0
12113,409951.18429667753,2010-09-05 07:22:59,3377.980017762732,7,34,-1.099568486213684,2.699943780899048,35.86574578657599,35.85051990519528,142.7284927192581,131.24090340708452,-0.0124975685030221,0.0939245000481605,0,0,0
12114,410011.1886544353,2010-09-05 07:23:59,60.01471001843056,8,34,0.0,3.4268107414245605,35.86574578657599,35.85051990519528,142.7284927192581,131.24090340708452,0.0012950897216796,0.0939245000481605,0,0,0
12115,410011.3666328415,2010-09-05 07:23:59,0.187423065948981,9,34,-1.9243103452026844e-05,3.4268107414245605,35.86574578657599,35.850519906197114,142.7284927192581,131.24090341051763,0.0,0.0881769880652427,0,0,0
12116,410016.1948494027,2010-09-05 07:24:04,5.015639632237268,9,34,0.0007031940040178,3.4340953826904297,35.865746667242945,35.85051990636418,142.7284957410265,131.24090341109016,0.0010360240703448,0.0881769880652427,0,0,0
