Data_Point,Test_Time(s),Date_Time,Step_Time(s),Step_Index,Cycle_Index,Current(A),Voltage(V),Charge_Capacity(Ah),Discharge_Capacity(Ah),Charge_Energy(Wh),Discharge_Energy(Wh),dV/dt(V/s),Internal_Resistance(Ohm),Is_FC_Data,AC_Impedance(Ohm),ACI_Phase_Angle(Deg)
15571,528564.8458605765,2010-09-06 16:20:05,30.015125778864245,1,45,0.0,3.5101819038391118,46.1126554106551,46.078953560604944,183.5927617933959,168.6138395722471,0.0007122993702068,0.0882566422224044,0,0,0
15572,528594.8611282189,2010-09-06 16:20:35,60.03039343633363,1,45,0.0,3.5305793285369877,46.1126554106551,46.078953560604944,183.5927617933959,168.6138395722471,0.0004856586456298,0.0882566422224044,0,0,0
15573,528624.8763412953,2010-09-06 16:21:05,90.0456064977328,1,45,0.0,3.545149087905884,46.1126554106551,46.078953560604944,183.5927617933959,168.6138395722471,0.0003885269106831,0.0882566422224044,0,0,0
15574,528654.8444024246,2010-09-06 16:21:35,120.01366762700886,1,45,0.0,3.556319236755371,46.1126554106551,46.078953560604944,183.5927617933959,168.6138395722471,0.0002913951757363,0.0882566422224044,0,0,0
15575,528684.8644592201,2010-09-06 16:22:05,30.01524366266695,2,45,0.5499359965324402,3.676438331604004,46.11724168997846,46.078953560604944,183.60951556839123,168.6138395722471,0.0009712696191854,0.0882566422224044,0,0,0
15576,528714.8794840273,2010-09-06 16:22:35,60.03026847489127,2,45,0.5501165986061096,3.707520484924317,46.12182792389626,46.078953560604944,183.6264527437847,168.6138395722471,0.0007122993702068,0.0882566422224044,0,0,0
15577,528744.894602969,2010-09-06 16:23:05,90.045387421728,2,45,0.5499359965324402,3.729537010192871,46.12641411200076,46.078953560604944,183.6435090616673,168.6138395722471,0.0005180359003134,0.0882566422224044,0,0,0
15578,528774.9099152227,2010-09-06 16:23:35,120.0606996703322,2,45,0.550297200679779,3.745725631713867,46.13100032744829,46.078953560604944,183.66065221646684,168.6138395722471,0.0003561496851034,0.0882566422224044,0,0,0
15579,528804.9248874239,2010-09-06 16:24:05,150.0756718714334,2,45,0.5501165986061096,3.756895542144776,46.13558649378962,46.078953560604944,183.67785817340496,168.6138395722471,0.0002590179501567,0.0882566422224044,0,0,0
15580,528834.9400436986,2010-09-06 16:24:35,180.0908281463031,2,45,0.5499359965324402,3.763856649398804,46.14017270862939,46.078953560604944,183.6951060226885,168.6138395722471,9.713172767078504e-05,0.0882566422224044,0,0,0
15581,528864.9551821842,2010-09-06 16:25:05,210.10596665689872,2,45,0.5501165986061096,3.768875122070313,46.1447589035233,46.078953560604944,183.71238002937548,168.6138395722471,9.713172767078504e-05,0.0882566422224044,0,0,0
15582,528894.9703008053,2010-09-06 16:25:35,240.12108525286092,2,45,0.5499359965324402,3.7725985050201416,46.14934510219587,46.078953560604944,183.7296732458352,168.6138395722471,9.713172767078504e-05,0.0882566422224044,0,0,0
15583,528924.9855769789,2010-09-06 16:26:05,270.13636143156793,2,45,0.5501165986061096,3.7761600017547607,46.15393127984066,46.078953560604944,183.74698342250812,168.6138395722471,9.713172767078504e-05,0.0882566422224044,0,0,0
15584,528955.0005862775,2010-09-06 16:26:35,300.1513707301274,2,45,0.5501165986061096,3.77972149848938,46.1585174348768,46.078953560604944,183.76430978854947,168.6138395722471,9.713172767078504e-05,0.0882566422224044,0,0,0
15585,528985.0157322166,2010-09-06 16:27:05,330.16651668427465,2,45,0.5499359965324402,3.783282995223999,46.163103652377295,46.078953560604944,183.78165245509828,168.6138395722471,6.47544875391759e-05,0.0882566422224044,0,0,0
15586,529015.0310939235,2010-09-06 16:27:35,360.1818784162066,2,45,0.5501165986061096,3.786682605743408,46.16768990533872,46.078953560604944,183.7990113346285,168.6138395722471,9.713172767078504e-05,0.0882566422224044,0,0,0
15587,529045.0459922154,2010-09-06 16:28:05,390.1967766830408,2,45,0.5501165986061096,3.790405988693237,46.17227609438971,46.078953560604944,183.81638594692205,168.6138395722471,0.0001295089750783,0.0882566422224044,0,0,0
15588,529075.0641176554,2010-09-06 16:28:35,420.21490210794593,2,45,0.550297200679779,3.7938055992126474,46.17686284649659,46.078953560604944,183.8337785944995,168.6138395722471,0.0001295089750783,0.0882566422224044,0,0,0
15589,529105.0764175211,2010-09-06 16:29:06,450.2272019737654,2,45,0.5501165986061096,3.7970433235168457,46.1814486708512,46.078953560604944,183.85118339263363,168.6138395722471,6.47544875391759e-05,0.0882566422224044,0,0,0
15590,529135.0916919855,2010-09-06 16:29:36,480.2424764482248,2,45,0.5499359965324402,3.800442934036255,46.18603486115521,46.078953560604944,183.8686051687461,168.6138395722471,9.713172767078504e-05,0.0882566422224044,0,0,0
15591,529165.1066827078,2010-09-06 16:30:06,510.25746717549896,2,45,0.5499359965324402,3.803680658340454,46.19062108035767,46.078953560604944,183.8860425760104,168.6138395722471,3.237724376958795e-05,0.0882566422224044,0,0,0
15592,529195.1217299108,2010-09-06 16:30:36,540.2725143634905,2,45,0.5501165986061096,3.807242155075073,46.19520727553141,46.078953560604944,183.90349532207497,168.6138395722471,0.0001295089750783,0.0882566422224044,0,0,0
15593,529225.1368288428,2010-09-06 16:31:06,570.2876132854191,2,45,0.5501165986061096,3.8106417655944815,46.19979349724782,46.078953560604944,183.92096366605392,168.6138395722471,6.47544875391759e-05,0.0882566422224044,0,0,0
15594,529255.1518862162,2010-09-06 16:31:36,600.3026706838582,2,45,0.5497553944587708,3.814041376113892,46.20437977171612,46.078953560604944,183.93844783380527,168.6138395722471,6.47544875391759e-05,0.0882566422224044,0,0,0
15595,529285.167105483,2010-09-06 16:32:06,630.3178899256609,2,45,0.5501165986061096,3.817602872848511,46.20896592904904,46.078953560604944,183.9559473774576,168.6138395722471,0.0001618862152099,0.0882566422224044,0,0,0
15596,529315.1823823736,2010-09-06 16:32:36,660.3331668261668,2,45,0.5501165986061096,3.82100248336792,46.21355210501456,46.078953560604944,183.9734627719461,168.6138395722471,9.713172767078504e-05,0.0882566422224044,0,0,0
15597,529345.1975076562,2010-09-06 16:33:06,690.3482921087942,2,45,0.5501165986061096,3.824402093887329,46.21813819213684,46.078953560604944,183.9909938864413,168.6138395722471,6.47544875391759e-05,0.0882566422224044,0,0,0
15598,529375.2124413062,2010-09-06 16:33:36,720.3632257738517,2,45,0.5499359965324402,3.827963590621948,46.22272425384065,46.078953560604944,184.0085411740128,168.6138395722471,9.713172767078504e-05,0.0882566422224044,0,0,0
15599,529405.227802983,2010-09-06 16:34:06,750.3785874305962,2,45,0.5501165986061096,3.8318488597869873,46.22731042363006,46.078953560604944,184.0261053730944,168.6138395722471,0.0001618862152099,0.0882566422224044,0,0,0
15600,529435.2430325154,2010-09-06 16:34:36,780.3938169881088,2,45,0.5501165986061096,3.8352482318878174,46.23189659676999,46.078953560604944,184.04368602068072,168.6138395722471,0.0001295089750783,0.0882566422224044,0,0,0
15601,529465.2579675389,2010-09-06 16:35:06,810.4087519965144,2,45,0.5501165986061096,3.8386478424072266,46.23648279648085,46.078953560604944,184.0612832993617,168.6138395722471,6.47544875391759e-05,0.0882566422224044,0,0,0
15602,529495.273082631,2010-09-06 16:35:36,840.4238670737067,2,45,0.5501165986061096,3.8422093391418457,46.24106895420243,46.078953560604944,184.0788968684116,168.6138395722471,9.713172767078504e-05,0.0882566422224044,0,0,0
15603,529525.2882066055,2010-09-06 16:36:06,870.4389910480736,2,45,0.5501165986061096,3.845770835876465,46.24565510583993,46.078953560604944,184.09652648123136,168.6138395722471,9.713172767078504e-05,0.0882566422224044,0,0,0
15604,529555.303491932,2010-09-06 16:36:36,900.4542763846048,2,45,0.5501165986061096,3.849332332611084,46.25024131771029,46.078953560604944,184.1141721876529,168.6138395722471,0.0001295089750783,0.0882566422224044,0,0,0
15605,529585.3186259664,2010-09-06 16:37:06,930.4694104090196,2,45,0.5501165986061096,3.852570056915283,46.25482745696527,46.078953560604944,184.13183309515452,168.6138395722471,6.47544875391759e-05,0.0882566422224044,0,0,0
15606,529615.3336496308,2010-09-06 16:37:36,960.4844340733828,2,45,0.5501165986061096,3.855969667434693,46.25941363619132,46.078953560604944,184.14950920573264,168.6138395722471,9.713172767078504e-05,0.0882566422224044,0,0,0
15607,529645.3487645977,2010-09-06 16:38:06,990.4995490403004,2,45,0.5501165986061096,3.8590455055236816,46.26399979464247,46.078953560604944,184.1672000104316,168.6138395722471,9.713172767078504e-05,0.0882566422224044,0,0,0
15608,529675.3639298499,2010-09-06 16:38:36,1020.5147142825195,2,45,0.5501165986061096,3.862121343612671,46.268585987631056,46.078953560604944,184.1849052916681,168.6138395722471,9.713172767078504e-05,0.0882566422224044,0,0,0
15609,529705.3790433783,2010-09-06 16:39:06,1050.5298278258892,2,45,0.5501165986061096,3.86503529548645,46.27317216826751,46.078953560604944,184.2026243877272,168.6138395722471,6.47544875391759e-05,0.0882566422224044,0,0,0
15610,529735.3941876682,2010-09-06 16:39:36,1080.5449721008513,2,45,0.5499359965324402,3.8679492473602295,46.27775832848514,46.078953560604944,184.2203566917369,168.6138395722471,9.713172767078504e-05,0.0882566422224044,0,0,0
15611,529765.4093148356,2010-09-06 16:40:06,1110.5600992932384,2,45,0.5501165986061096,3.870701313018799,46.28234448068543,46.078953560604944,184.2381017213829,168.6138395722471,6.47544875391759e-05,0.0882566422224044,0,0,0
15612,529795.4245914855,2010-09-06 16:40:36,1140.5753759280822,2,45,0.5501165986061096,3.873129606246948,46.28693068811131,46.078953560604944,184.25585904259967,168.6138395722471,3.237724376958795e-05,0.0882566422224044,0,0,0
15613,529825.4397377905,2010-09-06 16:41:06,1170.590522243129,2,45,0.5501165986061096,3.875719785690308,46.291516858129306,46.078953560604944,184.2736275472558,168.6138395722471,0.0001295089750783,0.0882566422224044,0,0,0
15614,529855.4547259464,2010-09-06 16:41:36,1200.6055103889694,2,45,0.5501165986061096,3.877824306488037,46.29610305833955,46.078953560604944,184.29140684794635,168.6138395722471,6.47544875391759e-05,0.0882566422224044,0,0,0
15615,529885.469869685,2010-09-06 16:42:06,1230.6206541476447,2,45,0.5501165986061096,3.879928827285767,46.30068929114976,46.078953560604944,184.30919621569728,168.6138395722471,6.47544875391759e-05,0.0882566422224044,0,0,0
15616,529915.4850418444,2010-09-06 16:42:36,1260.6358262770293,2,45,0.5499359965324402,3.881871461868286,46.30527552408774,46.078953560604944,184.3269948300875,168.6138395722471,6.47544875391759e-05,0.0882566422224044,0,0,0
15617,529945.5001636284,2010-09-06 16:43:06,1290.6509480709617,2,45,0.5501165986061096,3.8838140964508057,46.30986168317292,46.078953560604944,184.34480170026848,168.6138395722471,6.47544875391759e-05,0.0882566422224044,0,0,0
15618,529975.5152887506,2010-09-06 16:43:36,1320.6660731931893,2,45,0.5501165986061096,3.885432958602905,46.31444791162728,46.078953560604944,184.3626167408771,168.6138395722471,6.47544875391759e-05,0.0882566422224044,0,0,0
15619,530005.5304543136,2010-09-06 16:44:06,1350.6812387461828,2,45,0.5499359965324402,3.886889934539795,46.319034127320926,46.078953560604944,184.3804390890349,168.6138395722471,6.47544875391759e-05,0.0882566422224044,0,0,0
15620,530035.5457302919,2010-09-06 16:44:36,1380.6965147494525,2,45,0.5501165986061096,3.8881850242614746,46.32362029666404,46.078953560604944,184.3982680343562,168.6138395722471,3.237724376958795e-05,0.0882566422224044,0,0,0
15621,530065.5609085164,2010-09-06 16:45:06,1410.7116929690153,2,45,0.5501165986061096,3.8894801139831534,46.32820651438412,46.078953560604944,184.4161036273098,168.6138395722471,-3.237724376958795e-05,0.0882566422224044,0,0,0
15622,530095.5759037549,2010-09-06 16:45:36,1440.7266881975074,2,45,0.5501165986061096,3.891098976135254,46.33279337847847,46.078953560604944,184.433947753282,168.6138395722471,6.47544875391759e-05,0.0882566422224044,0,0,0
15623,530125.5911362547,2010-09-06 16:46:06,1470.741920722416,2,45,0.5499359965324402,3.8920702934265137,46.337380560171646,46.078953560604944,184.45179897480185,168.6138395722471,3.237724376958795e-05,0.0882566422224044,0,0,0
15624,530155.6062330414,2010-09-06 16:46:36,1500.7570174839602,2,45,0.550297200679779,3.893203496932984,46.341967592137465,46.078953560604944,184.4696551293237,168.6138395722471,6.47544875391759e-05,0.0882566422224044,0,0,0
15625,530185.6213043795,2010-09-06 16:47:06,1530.7720888221413,2,45,0.5501165986061096,3.894498586654663,46.346554762711385,46.078953560604944,184.48751728175023,168.6138395722471,3.237724376958795e-05,0.0882566422224044,0,0,0
15626,530215.6364951554,2010-09-06 16:47:36,1560.7872796030106,2,45,0.5501165986061096,3.895631790161133,46.351141962365126,46.078953560604944,184.5053843307924,168.6138395722471,6.47544875391759e-05,0.0882566422224044,0,0,0
15627,530245.651613601,2010-09-06 16:48:06,1590.8023980435855,2,45,0.550297200679779,3.8967649936676025,46.35572901341714,46.078953560604944,184.5232561299362,168.6138395722471,3.237724376958795e-05,0.0882566422224044,0,0,0
15628,530275.666654769,2010-09-06 16:48:36,1620.8174392015485,2,45,0.5499359965324402,3.8977363109588623,46.3603155816592,46.078953560604944,184.5411311563294,168.6138395722471,3.237724376958795e-05,0.0882566422224044,0,0,0
15629,530305.6818230588,2010-09-06 16:49:06,1650.8326075314633,2,45,0.5499359965324402,3.898869514465332,46.36490189000131,46.078953560604944,184.5590103112502,168.6138395722471,0.0,0.0882566422224044,0,0,0
15630,530335.696901254,2010-09-06 16:49:36,1680.8476857267344,2,45,0.5501165986061096,3.9000027179718018,46.36948812982954,46.078953560604944,184.5768943968807,168.6138395722471,3.237724376958795e-05,0.0882566422224044,0,0,0
15631,530365.7122616227,2010-09-06 16:50:06,1710.8630461052933,2,45,0.550297200679779,3.9012978076934814,46.37407434148323,46.078953560604944,184.59478336628857,168.6138395722471,3.237724376958795e-05,0.0882566422224044,0,0,0
15632,530395.7273903588,2010-09-06 16:50:36,1740.878174801428,2,45,0.550297200679779,3.902431011199951,46.37866058817889,46.078953560604944,184.61267768193457,168.6138395722471,3.237724376958795e-05,0.0882566422224044,0,0,0
15633,530425.7423442994,2010-09-06 16:51:06,1770.8931287520434,2,45,0.5501165986061096,3.903240442276001,46.383246785926985,46.078953560604944,184.63057691925923,168.6138395722471,-3.237724376958795e-05,0.0882566422224044,0,0,0
15634,530455.7568152763,2010-09-06 16:51:36,1800.9075997139023,2,45,0.5499359965324402,3.904373645782471,46.387570920798645,46.078953560604944,184.64745818037625,168.6138395722471,3.237724376958795e-05,0.0882566422224044,0,0,0
15635,530485.771926148,2010-09-06 16:52:06,1830.9227105856128,2,45,0.5501165986061096,3.9056687355041504,46.39238602108801,46.078953560604944,184.6662613731415,168.6138395722471,3.237724376958795e-05,0.0882566422224044,0,0,0
