Data_Point,Test_Time(s),Date_Time,Step_Time(s),Step_Index,Cycle_Index,Current(A),Voltage(V),Charge_Capacity(Ah),Discharge_Capacity(Ah),Charge_Energy(Wh),Discharge_Energy(Wh),dV/dt(V/s),Internal_Resistance(Ohm),Is_FC_Data,AC_Impedance(Ohm),ACI_Phase_Angle(Deg)
9665,326515.53022313287,2010-09-04 08:12:15,30.01504337849718,1,28,0.0,3.457245111465454,28.60979222529076,28.60189225897174,113.81724443588185,104.7176526242104,0.0006475448608398,0.0859051570296287,0,0,0
9666,326545.54541829467,2010-09-04 08:12:45,60.03023862549739,1,28,0.0,3.4766714572906494,28.60979222529076,28.60189225897174,113.81724443588185,104.7176526242104,0.0004532813909463,0.0859051570296287,0,0,0
9667,326575.5605897223,2010-09-04 08:13:15,90.04541005814491,1,28,0.0,3.490917444229126,28.60979222529076,28.60189225897174,113.81724443588185,104.7176526242104,0.0003885269106831,0.0859051570296287,0,0,0
9668,326605.528777402,2010-09-04 08:13:45,120.01359761752369,1,28,0.0,3.501440048217773,28.60979222529076,28.60189225897174,113.81724443588185,104.7176526242104,0.0002266406954731,0.0859051570296287,0,0,0
9669,326635.5571859053,2010-09-04 08:14:15,30.01516842515192,2,28,0.5499359965324402,3.629653453826904,28.61437864130804,28.60189225897174,113.83376523022082,104.7176526242104,0.0012303352123126,0.0859051570296287,0,0,0
9670,326665.57236550323,2010-09-04 08:14:45,60.030348023150005,2,28,0.550297200679779,3.6668872833251953,28.618965082031984,28.60189225897174,113.85050312093146,104.7176526242104,0.0008094310760498,0.0859051570296287,0,0,0
9671,326695.587547402,2010-09-04 08:15:15,90.04552992689473,2,28,0.5499359965324402,3.6947314739227295,28.623551410731206,28.60189225897174,113.8673877096434,104.7176526242104,0.0006475448608398,0.0859051570296287,0,0,0
9672,326725.6028189692,2010-09-04 08:15:45,120.06080149912088,2,28,0.5501165986061096,3.717071771621704,28.628137787883563,28.60189225897174,113.88438622358672,104.7176526242104,0.0005504131549969,0.0859051570296287,0,0,0
9673,326755.6178820468,2010-09-04 08:16:15,150.0758645717018,2,28,0.5501165986061096,3.73471736907959,28.63272415746554,28.60189225897174,113.9014757657459,104.7176526242104,0.0004209041653666,0.0859051570296287,0,0,0
9674,326785.633084587,2010-09-04 08:16:45,180.09106710686635,2,28,0.5499359965324402,3.7478301525115967,28.63731047288406,28.60189225897174,113.91863615326814,104.7176526242104,0.0002913951757363,0.0859051570296287,0,0,0
9675,326815.6482122004,2010-09-04 08:17:15,210.1061947203029,2,28,0.5501165986061096,3.7564098834991455,28.64189681530483,28.60189225897174,113.93584677347708,104.7176526242104,0.0001618862152099,0.0859051570296287,0,0,0
9676,326845.6633758086,2010-09-04 08:17:45,240.12135832343688,2,28,0.5501165986061096,3.761590242385864,28.646483149084105,28.60189225897174,113.95308785027262,104.7176526242104,9.713172767078504e-05,0.0859051570296287,0,0,0
9677,326875.6785218028,2010-09-04 08:18:15,270.136504347759,2,28,0.5501165986061096,3.765313625335693,28.65106947953954,28.60189225897174,113.97034856558138,104.7176526242104,9.713172767078504e-05,0.0859051570296287,0,0,0
9678,326905.6937329996,2010-09-04 08:18:45,300.15171550942347,2,28,0.5501165986061096,3.7685513496398926,28.65565578824047,28.60189225897174,113.9876248596852,104.7176526242104,6.47544875391759e-05,0.0859051570296287,0,0,0
9679,326935.7089022468,2010-09-04 08:19:15,330.1668847566242,2,28,0.5501165986061096,3.771627187728882,28.660242121199687,28.60189225897174,114.00491583832223,104.7176526242104,9.713172767078504e-05,0.0859051570296287,0,0,0
9680,326965.7241976183,2010-09-04 08:19:45,360.18218014821554,2,28,0.5501165986061096,3.774703025817871,28.6648284174352,28.60189225897174,114.02222093687,104.7176526242104,6.47544875391759e-05,0.0859051570296287,0,0,0
9681,326995.7392465657,2010-09-04 08:20:15,390.1972291006046,2,28,0.5501165986061096,3.7779407501220703,28.669414700343932,28.60189225897174,114.03954007169548,104.7176526242104,9.713172767078504e-05,0.0859051570296287,0,0,0
9682,327025.7544222088,2010-09-04 08:20:45,420.2124047537709,2,28,0.5499359965324402,3.7808547019958496,28.674001016787305,28.60189225897174,114.0568734989162,104.7176526242104,3.237724376958795e-05,0.0859051570296287,0,0,0
9683,327055.76971545507,2010-09-04 08:21:15,450.2276979899904,2,28,0.5501165986061096,3.783930540084839,28.678587342799705,28.60189225897174,114.07422089578962,104.7176526242104,6.47544875391759e-05,0.0859051570296287,0,0,0
9684,327085.7847569689,2010-09-04 08:21:45,480.24273949381535,2,28,0.5499359965324402,3.787006378173828,28.683173685631257,28.60189225897174,114.09158233118455,104.7176526242104,0.0001295089750783,0.0859051570296287,0,0,0
9685,327115.80007482145,2010-09-04 08:22:15,510.25805735139886,2,28,0.5501165986061096,3.7900822162628174,28.68776002193283,28.60189225897174,114.10895754097822,104.7176526242104,9.713172767078504e-05,0.0859051570296287,0,0,0
9686,327145.81534772203,2010-09-04 08:22:45,540.2733302669732,2,28,0.5501165986061096,3.7929961681365967,28.69234639456596,28.60189225897174,114.12634658569414,104.7176526242104,9.713172767078504e-05,0.0859051570296287,0,0,0
9687,327175.8302763746,2010-09-04 08:23:15,570.2882588944755,2,28,0.5501165986061096,3.796072006225586,28.69693266214745,28.60189225897174,114.14374889330864,104.7176526242104,0.0001295089750783,0.0859051570296287,0,0,0
9688,327205.84545035864,2010-09-04 08:23:45,600.3034328834943,2,28,0.5501165986061096,3.798985958099365,28.701519000273784,28.60189225897174,114.16116515453922,104.7176526242104,6.47544875391759e-05,0.0859051570296287,0,0,0
9689,327235.860609646,2010-09-04 08:24:15,630.3185921658595,2,28,0.5501165986061096,3.801738023757935,28.70610531612549,28.60189225897174,114.17859514667768,104.7176526242104,6.47544875391759e-05,0.0859051570296287,0,0,0
9690,327265.8758036098,2010-09-04 08:24:45,660.3337861296616,2,28,0.5501165986061096,3.804975748062134,28.71069163806632,28.60189225897174,114.19603912796568,104.7176526242104,3.237724376958795e-05,0.0859051570296287,0,0,0
9691,327295.8909517344,2010-09-04 08:25:15,690.3489342542182,2,28,0.5501165986061096,3.808213472366333,28.715277978492264,28.60189225897174,114.21349747067916,104.7176526242104,9.713172767078504e-05,0.0859051570296287,0,0,0
9692,327325.9061821791,2010-09-04 08:25:45,720.364164698942,2,28,0.550297200679779,3.811613082885742,28.719864384347417,28.60189225897174,114.2309706704528,104.7176526242104,0.0001618862152099,0.0859051570296287,0,0,0
9693,327355.9214149396,2010-09-04 08:26:15,750.3793974594374,2,28,0.5499359965324402,3.8145270347595215,28.724450776527448,28.60189225897174,114.24845901613892,104.7176526242104,3.237724376958795e-05,0.0859051570296287,0,0,0
9694,327385.93668120354,2010-09-04 08:26:45,780.3946638236837,2,28,0.5501165986061096,3.818250417709351,28.729037083623503,28.60189225897174,114.26596260547788,104.7176526242104,9.713172767078504e-05,0.0859051570296287,0,0,0
9695,327415.9516312896,2010-09-04 08:27:15,810.4096138394923,2,28,0.550297200679779,3.82165002822876,28.733623386013345,28.60189225897174,114.28348196004258,104.7176526242104,9.713172767078504e-05,0.0859051570296287,0,0,0
9696,327445.9668067472,2010-09-04 08:27:45,840.4247892721089,2,28,0.550297200679779,3.825211524963379,28.73820979141985,28.60189225897174,114.30101766878158,104.7176526242104,9.713172767078504e-05,0.0859051570296287,0,0,0
9697,327475.9818727972,2010-09-04 08:28:15,870.439855337148,2,28,0.5501165986061096,3.828773021697998,28.74279609782853,28.60189225897174,114.31856919682116,104.7176526242104,9.713172767078504e-05,0.0859051570296287,0,0,0
9698,327505.9971106153,2010-09-04 08:28:45,900.4550931452235,2,28,0.5501165986061096,3.832334518432617,28.74738158922625,28.60189225897174,114.3361336789432,104.7176526242104,9.713172767078504e-05,0.0859051570296287,0,0,0
9699,327536.0122446798,2010-09-04 08:29:15,930.4702271997132,2,28,0.550297200679779,3.8357338905334473,28.75196711727937,28.60189225897174,114.35371417442433,104.7176526242104,9.713172767078504e-05,0.0859051570296287,0,0,0
9700,327566.0274848989,2010-09-04 08:29:45,960.4854674238104,2,28,0.5499359965324402,3.839133501052856,28.756552685193977,28.60189225897174,114.37131057366057,104.7176526242104,9.713172767078504e-05,0.0859051570296287,0,0,0
9701,327596.0426368079,2010-09-04 08:30:15,990.5006193327988,2,28,0.5499359965324402,3.842371225357056,28.761138170731183,28.60189225897174,114.38892207343632,104.7176526242104,9.713172767078504e-05,0.0859051570296287,0,0,0
9702,327626.0578135137,2010-09-04 08:30:45,1020.515796063651,2,28,0.5499359965324402,3.845608949661255,28.76572367805906,28.60189225897174,114.4065487461029,104.7176526242104,6.47544875391759e-05,0.0859051570296287,0,0,0
9703,327656.0729750467,2010-09-04 08:31:15,1050.5309575765757,2,28,0.5499359965324402,3.848846673965454,28.770309186539123,28.60189225897174,114.42419025478046,104.7176526242104,9.713172767078504e-05,0.0859051570296287,0,0,0
9704,327686.0882749746,2010-09-04 08:31:45,1080.5462575044728,2,28,0.5501165986061096,3.852084398269653,28.77489541933717,28.60189225897174,114.44184917053576,104.7176526242104,9.713172767078504e-05,0.0859051570296287,0,0,0
9705,327716.10331645835,2010-09-04 08:32:15,1110.5612989782226,2,28,0.550297200679779,3.8551602363586426,28.77948182957688,28.60189225897174,114.45952302792374,104.7176526242104,0.0001295089750783,0.0859051570296287,0,0,0
9706,327746.12142029445,2010-09-04 08:32:45,1140.5794028143218,2,28,0.5501165986061096,3.857912302017212,28.784068680768492,28.60189225897174,114.47721248302229,104.7176526242104,3.237724376958795e-05,0.0859051570296287,0,0,0
9707,327776.13369022065,2010-09-04 08:33:16,1170.5916727705976,2,28,0.5501165986061096,3.860826253890991,28.78865467308799,28.60189225897174,114.49491200105324,104.7176526242104,6.47544875391759e-05,0.0859051570296287,0,0,0
9708,327806.1491310046,2010-09-04 08:33:46,1200.6071135244763,2,28,0.5499359965324402,3.863578319549561,28.793241047960557,28.60189225897174,114.51262578675974,104.7176526242104,6.47544875391759e-05,0.0859051570296287,0,0,0
9709,327836.16425287875,2010-09-04 08:34:16,1230.6222354086335,2,28,0.5499359965324402,3.86600661277771,28.797827473973506,28.60189225897174,114.53035186630434,104.7176526242104,3.237724376958795e-05,0.0859051570296287,0,0,0
9710,327866.17931614176,2010-09-04 08:34:46,1260.6372986917393,2,28,0.5501165986061096,3.868596792221069,28.802413858095683,28.60189225897174,114.5480892819316,104.7176526242104,6.47544875391759e-05,0.0859051570296287,0,0,0
9711,327896.194335345,2010-09-04 08:35:16,1290.652317869922,2,28,0.5501165986061096,3.870863199234009,28.80700026688365,28.60189225897174,114.5658375122561,104.7176526242104,6.47544875391759e-05,0.0859051570296287,0,0,0
9712,327926.2095116849,2010-09-04 08:35:46,1320.667494204787,2,28,0.5501165986061096,3.8729677200317374,28.81158671559765,28.60189225897174,114.58359594122736,104.7176526242104,3.237724376958795e-05,0.0859051570296287,0,0,0
9713,327956.2247014031,2010-09-04 08:36:16,1350.6826839480705,2,28,0.5499359965324402,3.874910354614258,28.81617313700991,28.60189225897174,114.60136344949478,104.7176526242104,6.47544875391759e-05,0.0859051570296287,0,0,0
9714,327986.2398650564,2010-09-04 08:36:46,1380.6978475762671,2,28,0.5501165986061096,3.876852989196777,28.82075950082129,28.60189225897174,114.61913926002852,104.7176526242104,6.47544875391759e-05,0.0859051570296287,0,0,0
9715,328016.2550572558,2010-09-04 08:37:16,1410.7130397756716,2,28,0.550297200679779,3.878471851348877,28.825345880540805,28.60189225897174,114.63692292813188,104.7176526242104,9.713172767078504e-05,0.0859051570296287,0,0,0
9716,328046.27021325496,2010-09-04 08:37:46,1440.7281957798668,2,28,0.5501165986061096,3.8797669410705566,28.82993229610959,28.60189225897174,114.65471393530257,104.7176526242104,3.237724376958795e-05,0.0859051570296287,0,0,0
9717,328076.2854869926,2010-09-04 08:38:16,1470.7434695174898,2,28,0.5499359965324402,3.8812239170074463,28.83451872435631,28.60189225897174,114.6725116593932,104.7176526242104,3.237724376958795e-05,0.0859051570296287,0,0,0
9718,328106.3018934684,2010-09-04 08:38:46,1500.7598760483822,2,28,0.5501165986061096,3.882680892944336,28.83910529933308,28.60189225897174,114.69031612272198,104.7176526242104,6.47544875391759e-05,0.0859051570296287,0,0,0
9719,328136.31570015964,2010-09-04 08:39:16,1530.7736826795244,2,28,0.5501165986061096,3.8838140964508057,28.84369149547017,28.60189225897174,114.70812492577464,104.7176526242104,3.237724376958795e-05,0.0859051570296287,0,0,0
9720,328166.3309693209,2010-09-04 08:39:46,1560.788951845754,2,28,0.5501165986061096,3.8849472999572754,28.8482780109398,28.60189225897174,114.72594044493071,104.7176526242104,0.0,0.0859051570296287,0,0,0
9721,328196.34604606754,2010-09-04 08:40:16,1590.8040285924149,2,28,0.5501165986061096,3.886080503463745,28.852864461777827,28.60189225897174,114.74376099784432,104.7176526242104,3.237724376958795e-05,0.0859051570296287,0,0,0
9722,328226.36131122377,2010-09-04 08:40:46,1620.819293743638,2,28,0.5499359965324402,3.887051820755005,28.857450905764583,28.60189225897174,114.76158667515278,104.7176526242104,3.237724376958795e-05,0.0859051570296287,0,0,0
9723,328256.3763985618,2010-09-04 08:41:16,1650.8343811067584,2,28,0.5501165986061096,3.8881850242614746,28.862037352019907,28.60189225897174,114.77941737702928,104.7176526242104,3.237724376958795e-05,0.0859051570296287,0,0,0
9724,328286.3917614617,2010-09-04 08:41:46,1680.8497440015883,2,28,0.5499359965324402,3.889318227767944,28.866623836086355,28.60189225897174,114.79725322250104,104.7176526242104,6.47544875391759e-05,0.0859051570296287,0,0,0
9725,328316.40674542706,2010-09-04 08:42:16,1710.864727977035,2,28,0.5501165986061096,3.890289545059204,28.871210280226617,28.60189225897174,114.81509376163584,104.7176526242104,0.0,0.0859051570296287,0,0,0
9726,328346.4219343684,2010-09-04 08:42:46,1740.8799168882445,2,28,0.5501165986061096,3.891584634780884,28.8757966635305,28.60189225897174,114.83293890807606,104.7176526242104,3.237724376958795e-05,0.0859051570296287,0,0,0
9727,328376.43709260813,2010-09-04 08:43:16,1770.8950751530738,2,28,0.5501165986061096,3.892555952072144,28.88038315267095,28.60189225897174,114.85078937210504,104.7176526242104,0.0,0.0859051570296287,0,0,0
9728,328406.4523190429,2010-09-04 08:43:46,1800.9103016830409,2,28,0.550297200679779,3.893689155578613,28.88496959950904,28.60189225897174,114.86864450226372,104.7176526242104,6.47544875391759e-05,0.0859051570296287,0,0,0
9729,328436.4673923309,2010-09-04 08:44:16,1830.925374850782,2,28,0.5501165986061096,3.894660472869873,28.889556097712138,28.60189225897174,114.88650471997148,104.7176526242104,3.237724376958795e-05,0.0859051570296287,0,0,0
9730,328466.48258284613,2010-09-04 08:44:46,1860.940565365989,2,28,0.5501165986061096,3.895469903945923,28.894142589940284,28.60189225897174,114.9043691995382,104.7176526242104,0.0,0.0859051570296287,0,0,0
9731,328496.4978622579,2010-09-04 08:45:16,1890.9558448328912,2,28,0.5501165986061096,3.8967649936676025,28.898729017646744,28.60189225897174,114.92223845075516,104.7176526242104,0.0,0.0859051570296287,0,0,0
9732,328526.51291298965,2010-09-04 08:45:46,1920.9708955396527,2,28,0.5501165986061096,3.897574424743652,28.903315426599363,28.60189225897174,114.94011250977596,104.7176526242104,3.237724376958795e-05,0.0859051570296287,0,0,0
9733,328556.5282178298,2010-09-04 08:46:16,1950.9862003797923,2,28,0.5501165986061096,3.898869514465332,28.90790191492727,28.60189225897174,114.95799179994806,104.7176526242104,3.237724376958795e-05,0.0859051570296287,0,0,0
9734,328586.5434010519,2010-09-04 08:46:46,1981.001383581773,2,28,0.550297200679779,3.899840831756592,28.91248836007737,28.60189225897174,114.9758759132712,104.7176526242104,0.0,0.0859051570296287,0,0,0
9735,328616.5584088567,2010-09-04 08:47:16,2011.0163913765848,2,28,0.5499359965324402,3.900812149047852,28.91707483870423,28.60189225897174,114.993765059409,104.7176526242104,0.0,0.0859051570296287,0,0,0
9736,328646.57358553744,2010-09-04 08:47:46,2041.031568057312,2,28,0.5499359965324402,3.9021072387695312,28.921661284844564,28.60189225897174,115.0116591217883,104.7176526242104,6.47544875391759e-05,0.0859051570296287,0,0,0
9737,328676.58875093004,2010-09-04 08:48:16,2071.046733449906,2,28,0.5501165986061096,3.903078556060791,28.92624768945797,28.60189225897174,115.02955809949272,104.7176526242104,-3.237724376958795e-05,0.0859051570296287,0,0,0
9738,328706.6039412547,2010-09-04 08:48:46,2101.061923769626,2,28,0.550297200679779,3.904373645782471,28.930834116834877,28.60189225897174,115.0474623009203,104.7176526242104,3.237724376958795e-05,0.0859051570296287,0,0,0
9739,328736.61961154576,2010-09-04 08:49:16,2131.077594065594,2,28,0.5501165986061096,3.9053449630737305,28.93542075509852,28.60189225897174,115.0653724781981,104.7176526242104,3.237724376958795e-05,0.0859051570296287,0,0,0
9740,328766.63424238603,2010-09-04 08:49:46,2161.092224935994,2,28,0.5501165986061096,3.90664005279541,28.940007189928497,28.60189225897174,115.08328704593865,104.7176526242104,3.237724376958795e-05,0.0859051570296287,0,0,0
9741,328796.6494332371,2010-09-04 08:50:16,2191.107415772001,2,28,0.5499359965324402,3.90761137008667,28.944593727517244,28.60189225897174,115.10120734666911,104.7176526242104,3.237724376958795e-05,0.0859051570296287,0,0,0
9742,328826.6645968452,2010-09-04 08:50:46,2221.122579395185,2,28,0.5501165986061096,3.9089064598083496,28.949180309054057,28.60189225897174,115.11913312739382,104.7176526242104,3.237724376958795e-05,0.0859051570296287,0,0,0
9743,328856.6797640323,2010-09-04 08:51:16,2251.1377465521764,2,28,0.5501165986061096,3.910201549530029,28.95376682307936,28.60189225897174,115.13706407747569,104.7176526242104,6.47544875391759e-05,0.0859051570296287,0,0,0
9744,328886.69491962047,2010-09-04 08:51:46,2281.152902155372,2,28,0.5501165986061096,3.911334753036499,28.958353415190132,28.60189225897174,115.15500071436752,104.7176526242104,3.237724376958795e-05,0.0859051570296287,0,0,0
9745,328916.7100925468,2010-09-04 08:52:16,2311.1680750667047,2,28,0.5499359965324402,3.9124679565429688,28.96293989690856,28.60189225897174,115.17294247995964,104.7176526242104,6.47544875391759e-05,0.0859051570296287,0,0,0
9746,328946.72527039546,2010-09-04 08:52:46,2341.183252915343,2,28,0.5501165986061096,3.9136011600494394,28.967526429300957,28.60189225897174,115.19089003197502,104.7176526242104,0.0,0.0859051570296287,0,0,0
9747,328976.7404242041,2010-09-04 08:53:16,2371.1984067290787,2,28,0.5501165986061096,3.914896011352539,28.972112933811303,28.60189225897174,115.20884314128008,104.7176526242104,0.0,0.0859051570296287,0,0,0
9748,329006.7556093911,2010-09-04 08:53:46,2401.213591936056,2,28,0.5501165986061096,3.9161911010742183,28.97669947110167,28.60189225897174,115.22680195940764,104.7176526242104,3.237724376958795e-05,0.0859051570296287,0,0,0
9749,329036.7710106315,2010-09-04 08:54:16,2431.2289931614177,2,28,0.5499359965324402,3.9174861907958975,28.98128600034035,28.60189225897174,115.24476657430928,104.7176526242104,0.0,0.0859051570296287,0,0,0
9750,329066.78648618713,2010-09-04 08:54:46,2461.244468857383,2,28,0.5501165986061096,3.918619394302368,28.98587258034812,28.60189225897174,115.26273718952892,104.7176526242104,3.237724376958795e-05,0.0859051570296287,0,0,0
9751,329096.8011060852,2010-09-04 08:55:16,2491.2590886100743,2,28,0.5501165986061096,3.919914484024048,28.990458964533765,28.60189225897174,115.28071297095238,104.7176526242104,3.237724376958795e-05,0.0859051570296287,0,0,0
9752,329126.8162916781,2010-09-04 08:55:46,2521.2742741980014,2,28,0.5499359965324402,3.921209573745728,28.995045502508955,28.60189225897174,115.29869528360224,104.7176526242104,0.0,0.0859051570296287,0,0,0
9753,329156.83144622867,2010-09-04 08:56:16,2551.289428753586,2,28,0.5501165986061096,3.922666549682617,28.99963202041512,28.60189225897174,115.3166835677842,104.7176526242104,3.237724376958795e-05,0.0859051570296287,0,0,0
9754,329186.84662942064,2010-09-04 08:56:46,2581.304611970604,2,28,0.5501165986061096,3.923799753189087,29.004218591906596,28.60189225897174,115.33467812885692,104.7176526242104,0.0,0.0859051570296287,0,0,0
9755,329216.8618018758,2010-09-04 08:57:16,2611.3197843957246,2,28,0.550297200679779,3.9254186153411865,29.00880509990954,28.60189225897174,115.35267863147186,104.7176526242104,6.47544875391759e-05,0.0859051570296287,0,0,0
9756,329246.8769452185,2010-09-04 08:57:46,2641.3349277684383,2,28,0.5501165986061096,3.926713705062866,29.01339161445333,28.60189225897174,115.370685253515,104.7176526242104,6.47544875391759e-05,0.0859051570296287,0,0,0
9757,329276.89225139195,2010-09-04 08:58:16,2671.350233941901,2,28,0.550297200679779,3.928170680999756,29.017978109407863,28.60189225897174,115.38869806310592,104.7176526242104,3.237724376958795e-05,0.0859051570296287,0,0,0
9758,329306.9074303383,2010-09-04 08:58:46,2701.365412883263,2,28,0.5501165986061096,3.929465770721436,29.02256455172761,28.60189225897174,115.40671697117116,104.7176526242104,3.237724376958795e-05,0.0859051570296287,0,0,0
9759,329336.9226392895,2010-09-04 08:59:16,2731.380621819381,2,28,0.550297200679779,3.9307608604431152,29.027151045903658,28.60189225897174,115.42474246930246,104.7176526242104,3.237724376958795e-05,0.0859051570296287,0,0,0
9760,329366.93778182013,2010-09-04 08:59:46,2761.3957643449826,2,28,0.5499359965324402,3.932055950164795,29.03173760539783,28.60189225897174,115.44277457720254,104.7176526242104,0.0,0.0859051570296287,0,0,0
9761,329396.9527991737,2010-09-04 09:00:16,2791.4107816835804,2,28,0.5499359965324402,3.933512926101685,29.036324093755365,28.60189225897174,115.46081288878472,104.7176526242104,0.0,0.0859051570296287,0,0,0
9762,329426.9680040046,2010-09-04 09:00:46,2821.4259865345166,2,28,0.5501165986061096,3.934969902038574,29.04091065384655,28.60189225897174,115.47885794581808,104.7176526242104,3.237724376958795e-05,0.0859051570296287,0,0,0
9763,329456.9832703388,2010-09-04 09:01:16,2851.441252868688,2,28,0.550297200679779,3.936426877975464,29.0454972838014,28.60189225897174,115.49690985045068,104.7176526242104,3.237724376958795e-05,0.0859051570296287,0,0,0
9764,329486.9984449644,2010-09-04 09:01:46,2881.456427479256,2,28,0.5501165986061096,3.9378838539123535,29.05008379416431,28.60189225897174,115.5149677580692,104.7176526242104,6.47544875391759e-05,0.0859051570296287,0,0,0
9765,329517.01362277794,2010-09-04 09:02:16,2911.471605312857,2,28,0.5501165986061096,3.939340829849243,29.05467033819554,28.60189225897174,115.53303251273732,104.7176526242104,3.237724376958795e-05,0.0859051570296287,0,0,0
9766,329547.0288208871,2010-09-04 09:02:46,2941.4868033818902,2,28,0.550297200679779,3.940959692001343,29.05925682218023,28.60189225897174,115.55110372211978,104.7176526242104,6.47544875391759e-05,0.0859051570296287,0,0,0
9767,329577.04383374454,2010-09-04 09:03:16,2971.5018162693946,2,28,0.550297200679779,3.942416667938232,29.06384334200683,28.60189225897174,115.56918182160474,104.7176526242104,6.47544875391759e-05,0.0859051570296287,0,0,0
9768,329607.058956972,2010-09-04 09:03:46,3001.5169394969,2,28,0.550297200679779,3.943873643875122,29.06842985341676,28.60189225897174,115.58726672327911,104.7176526242104,6.47544875391759e-05,0.0859051570296287,0,0,0
9769,329637.0741684996,2010-09-04 09:04:16,3031.5321510345016,2,28,0.5501165986061096,3.945330619812012,29.07301633826949,28.60189225897174,115.60535836982554,104.7176526242104,6.47544875391759e-05,0.0859051570296287,0,0,0
9770,329667.08987226395,2010-09-04 09:04:46,3061.547854783846,2,28,0.550297200679779,3.946787595748901,29.077602925721287,28.60189225897174,115.62345735828026,104.7176526242104,3.237724376958795e-05,0.0859051570296287,0,0,0
9771,329697.09173063136,2010-09-04 09:05:16,3091.5497131512384,2,28,0.5501165986061096,3.948406457901001,29.08218744783989,28.60189225897174,115.6415551092586,104.7176526242104,3.237724376958795e-05,0.0859051570296287,0,0,0
9772,329727.1041356994,2010-09-04 09:05:47,3121.5621182242667,2,28,0.5501165986061096,3.94986343383789,29.08677354542404,28.60189225897174,115.65966619864147,104.7176526242104,0.0,0.0859051570296287,0,0,0
9773,329757.1195448645,2010-09-04 09:06:17,3151.5775274094663,2,28,0.5501165986061096,3.9514822959899902,29.09136005876415,28.60189225897174,115.67778611700564,104.7176526242104,6.47544875391759e-05,0.0859051570296287,0,0,0
9774,329787.1345871453,2010-09-04 09:06:47,3181.592569690228,2,28,0.5501165986061096,3.95310115814209,29.095946548164957,28.60189225897174,115.69591312012712,104.7176526242104,3.237724376958795e-05,0.0859051570296287,0,0,0
9775,329817.1496139625,2010-09-04 09:07:17,3211.6075964823867,2,28,0.5501165986061096,3.9547200202941895,29.100533023713304,28.60189225897174,115.71404738610674,104.7176526242104,6.47544875391759e-05,0.0859051570296287,0,0,0
9776,329847.1647666985,2010-09-04 09:07:47,3241.622749218437,2,28,0.5501165986061096,3.956338882446289,29.105119573481332,28.60189225897174,115.7321893263284,104.7176526242104,3.237724376958795e-05,0.0859051570296287,0,0,0
9777,329877.1799405071,2010-09-04 09:08:17,3271.637923057081,2,28,0.5501165986061096,3.9579577445983887,29.10970616749788,28.60189225897174,115.75033886433005,104.7176526242104,3.237724376958795e-05,0.0859051570296287,0,0,0
9778,329907.1951125964,2010-09-04 09:08:47,3301.6530951213026,2,28,0.550297200679779,3.959738492965698,29.11429265819837,28.60189225897174,115.76849556402928,104.7176526242104,6.47544875391759e-05,0.0859051570296287,0,0,0
9779,329937.21030111663,2010-09-04 09:09:17,3331.668283641537,2,28,0.5499359965324402,3.961195468902588,29.118879182060542,28.60189225897174,115.78666003897276,104.7176526242104,3.237724376958795e-05,0.0859051570296287,0,0,0
9780,329967.2254518527,2010-09-04 09:09:47,3361.6834343776027,2,28,0.5499359965324402,3.9629762172698975,29.123465763627504,28.60189225897174,115.80483255780774,104.7176526242104,6.47544875391759e-05,0.0859051570296287,0,0,0
9781,329997.2406413855,2010-09-04 09:10:17,3391.698623930411,2,28,0.5501165986061096,3.964756965637207,29.12805222775195,28.60189225897174,115.82301250174996,104.7176526242104,6.47544875391759e-05,0.0859051570296287,0,0,0
9782,330027.255926722,2010-09-04 09:10:47,3421.71390924188,2,28,0.5501165986061096,3.966699600219727,29.132638788179538,28.60189225897174,115.8412008411141,104.7176526242104,9.713172767078504e-05,0.0859051570296287,0,0,0
9783,330057.27117864526,2010-09-04 09:11:17,3451.729161170148,2,28,0.5499359965324402,3.968156576156616,29.137225397862803,28.60189225897174,115.85939744204948,104.7176526242104,3.237724376958795e-05,0.0859051570296287,0,0,0
9784,330087.2861590167,2010-09-04 09:11:47,3481.7441415616613,2,28,0.5501165986061096,3.969937324523926,29.141811939497945,28.60189225897174,115.8776019690483,104.7176526242104,3.237724376958795e-05,0.0859051570296287,0,0,0
9785,330117.30133634404,2010-09-04 09:12:17,3511.7593188639376,2,28,0.5499359965324402,3.9717180728912354,29.14639853705687,28.60189225897174,115.89581505423652,104.7176526242104,3.237724376958795e-05,0.0859051570296287,0,0,0
9786,330147.31649073923,2010-09-04 09:12:47,3541.7744732591227,2,28,0.5501165986061096,3.973660707473755,29.15098511091121,28.60189225897174,115.91403648482972,104.7176526242104,6.47544875391759e-05,0.0859051570296287,0,0,0
9787,330177.3316638411,2010-09-04 09:13:17,3571.7896463609304,2,28,0.5501165986061096,3.9756033420562735,29.155571720667144,28.60189225897174,115.93226661066528,104.7176526242104,6.47544875391759e-05,0.0859051570296287,0,0,0
9788,330207.3469631674,2010-09-04 09:13:47,3601.804945717404,2,28,0.5501165986061096,3.977384090423584,29.160158363728364,28.60189225897174,115.9505055362402,104.7176526242104,3.237724376958795e-05,0.0859051570296287,0,0,0
9789,330237.36198316264,2010-09-04 09:14:17,3631.819965692572,2,28,0.5499359965324402,3.979326725006104,29.16474488495549,28.60189225897174,115.96875226899868,104.7176526242104,6.47544875391759e-05,0.0859051570296287,0,0,0
9790,330267.3771579888,2010-09-04 09:14:47,3661.835140518677,2,28,0.5501165986061096,3.981431245803833,29.16933137617005,28.60189225897174,115.98700818563144,104.7176526242104,9.713172767078504e-05,0.0859051570296287,0,0,0
9791,330297.3923407146,2010-09-04 09:15:17,3691.8503232444714,2,28,0.550297200679779,3.983211994171143,29.17391785231414,28.60189225897174,116.0052729457304,104.7176526242104,3.237724376958795e-05,0.0859051570296287,0,0,0
9792,330327.4075000621,2010-09-04 09:15:47,3721.8654825919984,2,28,0.5499359965324402,3.985316514968872,29.178504289538576,28.60189225897174,116.0235465198093,104.7176526242104,6.47544875391759e-05,0.0859051570296287,0,0,0
9793,330357.4228996584,2010-09-04 09:16:17,3751.8808821883,2,28,0.5501165986061096,3.987259149551392,29.183090819008868,28.60189225897174,116.04182950747727,104.7176526242104,6.47544875391759e-05,0.0859051570296287,0,0,0
9794,330387.4379772822,2010-09-04 09:16:47,3781.895959807134,2,28,0.5499359965324402,3.989201784133911,29.187677284115665,28.60189225897174,116.06012132567072,104.7176526242104,6.47544875391759e-05,0.0859051570296287,0,0,0
9795,330417.45301974844,2010-09-04 09:17:17,3811.911002268346,2,28,0.5499359965324402,3.991144418716431,29.1922636691116,28.60189225897174,116.07842197874656,104.7176526242104,3.237724376958795e-05,0.0859051570296287,0,0,0
9796,330447.4683289946,2010-09-04 09:17:47,3841.926311529504,2,28,0.5499359965324402,3.99324893951416,29.19685011083681,28.60189225897174,116.09673215232942,104.7176526242104,3.237724376958795e-05,0.0859051570296287,0,0,0
9797,330477.4833721525,2010-09-04 09:18:17,3871.941354672414,2,28,0.5501165986061096,3.9951913356781006,29.20143660507566,28.60189225897174,116.11505180536965,104.7176526242104,3.237724376958795e-05,0.0859051570296287,0,0,0
9798,330507.49854523933,2010-09-04 09:18:47,3901.956527764197,2,28,0.5501165986061096,3.99729585647583,29.206023076712963,28.60189225897174,116.13338079683308,104.7176526242104,3.237724376958795e-05,0.0859051570296287,0,0,0
9799,330537.5138547812,2010-09-04 09:19:17,3931.971837306055,2,28,0.5499359965324402,3.9992384910583496,29.210609671007003,28.60189225897174,116.15171968762536,104.7176526242104,0.0,0.0859051570296287,0,0,0
9800,330567.5288856635,2010-09-04 09:19:47,3961.986868188408,2,28,0.5501165986061096,4.001667022705078,29.215196075221808,28.60189225897174,116.17006731960733,104.7176526242104,9.71794142969884e-05,0.0859051570296287,0,0,0
9801,330597.5440939129,2010-09-04 09:20:17,3992.0020764428255,2,28,0.5501165986061096,4.003609657287598,29.21978253938394,28.60189225897174,116.188424837725,104.7176526242104,6.47544875391759e-05,0.0859051570296287,0,0,0
9802,330627.55925213767,2010-09-04 09:20:47,4022.017234662544,2,28,0.5501165986061096,4.005552291870117,29.224369081167968,28.60189225897174,116.20679228644798,104.7176526242104,3.24249267578125e-05,0.0859051570296287,0,0,0
9803,330657.5744486729,2010-09-04 09:21:17,4052.032431202768,2,28,0.550297200679779,4.007980346679688,29.228955529469506,28.60189225897174,116.22516909027932,104.7176526242104,9.70840483205393e-05,0.0859051570296287,0,0,0
9804,330687.5895892837,2010-09-04 09:21:47,4082.0475718186094,2,28,0.5501165986061096,4.009922981262207,29.23354200692106,28.60189225897174,116.24355578161388,104.7176526242104,3.23295607813634e-05,0.0859051570296287,0,0,0
9805,330717.60473636567,2010-09-04 09:22:17,4112.062718890543,2,28,0.5499359965324402,4.012027740478516,29.23812846319368,28.60189225897174,116.26195224442732,104.7176526242104,3.24249267578125e-05,0.0859051570296287,0,0,0
9806,330747.61991311656,2010-09-04 09:22:47,4142.077895636432,2,28,0.5499359965324402,4.014132022857666,29.24271493955939,28.60189225897174,116.28035877493032,104.7176526242104,3.23295607813634e-05,0.0859051570296287,0,0,0
9807,330777.6350950303,2010-09-04 09:23:17,4172.093077550202,2,28,0.5501165986061096,4.0165605545043945,29.2473014176026,28.60189225897174,116.2987754152802,104.7176526242104,3.24249267578125e-05,0.0859051570296287,0,0,0
9808,330807.6502446887,2010-09-04 09:23:47,4202.108227213595,2,28,0.5499359965324402,4.018664836883545,29.25188794511323,28.60189225897174,116.31720238913994,104.7176526242104,6.47544875391759e-05,0.0859051570296287,0,0,0
9809,330837.6655764309,2010-09-04 09:24:17,4232.123558955782,2,28,0.5501165986061096,4.021093368530273,29.256474460018985,28.60189225897174,116.33563947688616,104.7176526242104,9.71794142969884e-05,0.0859051570296287,0,0,0
9810,330867.68071838503,2010-09-04 09:24:47,4262.138700935023,2,28,0.5501165986061096,4.023359775543213,29.261060942509747,28.60189225897174,116.35408693346554,104.7176526242104,6.47544875391759e-05,0.0859051570296287,0,0,0
9811,330897.6957682648,2010-09-04 09:25:17,4292.153750814723,2,28,0.550297200679779,4.025626182556152,29.265647328276376,28.60189225897174,116.37254439464525,104.7176526242104,6.47544875391759e-05,0.0859051570296287,0,0,0
9812,330927.71093120624,2010-09-04 09:25:47,4322.168913736158,2,28,0.5499359965324402,4.027730464935303,29.27023373565073,28.60189225897174,116.39101249387014,104.7176526242104,6.47544875391759e-05,0.0859051570296287,0,0,0
9813,330957.7260940675,2010-09-04 09:26:17,4352.1840765874185,2,28,0.5499359965324402,4.030158996582031,29.27482013730724,28.60189225897174,116.40949117204195,104.7176526242104,6.47544875391759e-05,0.0859051570296287,0,0,0
9814,330987.7413912386,2010-09-04 09:26:47,4382.199373788519,2,28,0.5499359965324402,4.032587051391602,29.279406632017317,28.60189225897174,116.42798097974452,104.7176526242104,6.47544875391759e-05,0.0859051570296287,0,0,0
9815,331017.75666614407,2010-09-04 09:27:17,4412.214648694054,2,28,0.550297200679779,4.034853458404541,29.2839931515096,28.60189225897174,116.44648175028904,104.7176526242104,3.24249267578125e-05,0.0859051570296287,0,0,0
9816,331047.77162395936,2010-09-04 09:27:47,4442.2296064792245,2,28,0.5501165986061096,4.037281513214111,29.288579614717943,28.60189225897174,116.46499325643732,104.7176526242104,6.47544875391759e-05,0.0859051570296287,0,0,0
9817,331077.78686600795,2010-09-04 09:28:17,4472.244848532881,2,28,0.5499359965324402,4.03971004486084,29.293166081043207,28.60189225897174,116.48351585618671,104.7176526242104,6.47544875391759e-05,0.0859051570296287,0,0,0
9818,331107.8019723384,2010-09-04 09:28:47,4502.259954858262,2,28,0.550297200679779,4.042300224304199,29.297752512017333,28.60189225897174,116.50204943581332,104.7176526242104,9.71794142969884e-05,0.0859051570296287,0,0,0
9819,331137.8172706773,2010-09-04 09:29:17,4532.275253302461,2,28,0.5501165986061096,4.044890403747559,29.30233896965308,28.60189225897174,116.52059447382968,104.7176526242104,9.71794142969884e-05,0.0859051570296287,0,0,0
9820,331167.8322852891,2010-09-04 09:29:47,4562.2902678140135,2,28,0.550297200679779,4.047318458557129,29.30692541865076,28.60189225897174,116.5391508587944,104.7176526242104,9.70840483205393e-05,0.0859051570296287,0,0,0
9821,331197.847534265,2010-09-04 09:30:17,4592.30551678491,2,28,0.5499359965324402,4.049584865570068,29.311511981826268,28.60189225897174,116.55771929003144,104.7176526242104,3.23295607813634e-05,0.0859051570296287,0,0,0
9822,331227.8626307208,2010-09-04 09:30:47,4622.320613240692,2,28,0.5501165986061096,4.052175045013428,29.316098457463543,28.60189225897174,116.5762989207946,104.7176526242104,3.23295607813634e-05,0.0859051570296287,0,0,0
9823,331257.877858554,2010-09-04 09:31:17,4652.335841103983,2,28,0.5499359965324402,4.054927349090576,29.32068495785163,28.60189225897174,116.59489045336387,104.7176526242104,9.71794142969884e-05,0.0859051570296287,0,0,0
9824,331287.8929705736,2010-09-04 09:31:47,4682.35095309348,2,28,0.550297200679779,4.0573554039001465,29.325271473003067,28.60189225897174,116.61349385951011,104.7176526242104,3.23295607813634e-05,0.0859051570296287,0,0,0
9825,331317.90822695295,2010-09-04 09:32:17,4712.36620959314,2,28,0.5501165986061096,4.059945583343506,29.32985808301445,28.60189225897174,116.63210970592075,104.7176526242104,3.23295607813634e-05,0.0859051570296287,0,0,0
9826,331347.9233129226,2010-09-04 09:32:47,4742.3812954475,2,28,0.5501165986061096,4.062535762786865,29.33444460578257,28.60189225897174,116.6507368560322,104.7176526242104,6.47544875391759e-05,0.0859051570296287,0,0,0
9827,331377.9385043802,2010-09-04 09:33:17,4772.396486905056,2,28,0.5499359965324402,4.065288066864014,29.3390311487869,28.60189225897174,116.66937634040654,104.7176526242104,6.47544875391759e-05,0.0859051570296287,0,0,0
9828,331407.95379811263,2010-09-04 09:33:47,4802.411780647537,2,28,0.5499359965324402,4.067878246307373,29.343617594706597,28.60189225897174,116.68802769489804,104.7176526242104,6.47544875391759e-05,0.0859051570296287,0,0,0
9829,331437.9688178622,2010-09-04 09:34:17,4832.426800387119,2,28,0.5501165986061096,4.070630073547363,29.348204088783618,28.60189225897174,116.70669169099745,104.7176526242104,6.47544875391759e-05,0.0859051570296287,0,0,0
9830,331467.9840015003,2010-09-04 09:34:47,4862.441984050249,2,28,0.5501165986061096,4.073382377624512,29.352790578981818,28.60189225897174,116.72536810210136,104.7176526242104,3.24249267578125e-05,0.0859051570296287,0,0,0
9831,331497.9993108116,2010-09-04 09:35:17,4892.457293341482,2,28,0.550297200679779,4.076134204864502,29.35737707847872,28.60189225897174,116.7440572050714,104.7176526242104,3.23295607813634e-05,0.0859051570296287,0,0,0
9832,331528.01432842587,2010-09-04 09:35:47,4922.472310945742,2,28,0.550297200679779,4.079048156738281,29.3619634344085,28.60189225897174,116.76275846535756,104.7176526242104,0.0001295089750783,0.0859051570296287,0,0,0
9833,331558.02950468054,2010-09-04 09:36:17,4952.487487200408,2,28,0.5501165986061096,4.08180046081543,29.36654992700416,28.60189225897174,116.78147319196158,104.7176526242104,9.71794142969884e-05,0.0859051570296287,0,0,0
9834,331588.04467419337,2010-09-04 09:36:47,4982.50265671327,2,28,0.5499359965324402,4.08455228805542,29.371136458265635,28.60189225897174,116.80020102841308,104.7176526242104,3.23295607813634e-05,0.0859051570296287,0,0,0
9835,331618.06263163965,2010-09-04 09:37:17,5012.520614159521,2,28,0.5499359965324402,4.087466239929199,29.37572334756627,28.60189225897174,116.81894342977728,104.7176526242104,6.47544875391759e-05,0.0859051570296287,0,0,0
9836,331648.0750819956,2010-09-04 09:37:48,5042.533064515407,2,28,0.5501165986061096,4.090542316436768,29.380309343371096,28.60189225897174,116.83769540118224,104.7176526242104,0.0001295089750783,0.0859051570296287,0,0,0
9837,331678.0904927246,2010-09-04 09:38:18,5072.548475264505,2,28,0.5501165986061096,4.093456268310547,29.384895881294813,28.60189225897174,116.8564629328225,104.7176526242104,0.0001295089750783,0.0859051570296287,0,0,0
9838,331708.1054857526,2010-09-04 09:38:48,5102.563468272463,2,28,0.5501165986061096,4.096370220184326,29.38948237853185,28.60189225897174,116.87524376718112,104.7176526242104,6.47544875391759e-05,0.0859051570296287,0,0,0
9839,331738.1205575419,2010-09-04 09:39:18,5132.578540071795,2,28,0.5501165986061096,4.0992841720581055,29.394068889543306,28.60189225897174,116.89403821649806,104.7176526242104,9.71794142969884e-05,0.0859051570296287,0,0,0
9840,331768.13569335075,2010-09-04 09:39:48,5162.5936758806565,2,28,0.5499359965324402,4.102035999298096,29.3986554125038,28.60189225897174,116.91284642206968,104.7176526242104,3.23295607813634e-05,0.0859051570296287,0,0,0
9841,331798.15086210176,2010-09-04 09:40:18,5192.608844621595,2,28,0.5501165986061096,4.105273723602295,29.40324191312995,28.60189225897174,116.93166837130734,104.7176526242104,6.47544875391759e-05,0.0859051570296287,0,0,0
9842,331828.1660365669,2010-09-04 09:40:48,5222.6240190868,2,28,0.5499359965324402,4.108349800109863,29.40782844134318,28.60189225897174,116.95050443153612,104.7176526242104,6.47544875391759e-05,0.0859051570296287,0,0,0
9843,331858.18121834035,2010-09-04 09:41:18,5252.639200860221,2,28,0.5499359965324402,4.111425399780273,29.41241493983878,28.60189225897174,116.96935443550126,104.7176526242104,9.70840483205393e-05,0.0859051570296287,0,0,0
9844,331888.1965233609,2010-09-04 09:41:48,5282.654505890836,2,28,0.5501165986061096,4.114501476287842,29.41700143918822,28.60189225897174,116.98821852804475,104.7176526242104,9.71794142969884e-05,0.0859051570296287,0,0,0
9845,331918.211576584,2010-09-04 09:42:18,5312.669559113869,2,28,0.5501165986061096,4.117738723754883,29.42158788661993,28.60189225897174,117.00709679373756,104.7176526242104,9.70840483205393e-05,0.0859051570296287,0,0,0
9846,331948.22686442675,2010-09-04 09:42:48,5342.684846956646,2,28,0.550297200679779,4.120814800262451,29.42617439932124,28.60189225897174,117.02598978504636,104.7176526242104,6.47544875391759e-05,0.0859051570296287,0,0,0
9847,331978.2421198136,2010-09-04 09:43:18,5372.700102333509,2,28,0.5499359965324402,4.123890399932861,29.430760980495783,28.60189225897174,117.04489760932724,104.7176526242104,6.47544875391759e-05,0.0859051570296287,0,0,0
9848,332008.25706749863,2010-09-04 09:43:48,5402.715050048582,2,28,0.550297200679779,4.12729024887085,29.43534745601784,28.60189225897174,117.06381973889792,104.7176526242104,6.47544875391759e-05,0.0859051570296287,0,0,0
9849,332038.2722332872,2010-09-04 09:44:18,5432.730215807089,2,28,0.5499359965324402,4.13036584854126,29.439933987102677,28.60189225897174,117.08275698153506,104.7176526242104,3.23295607813634e-05,0.0859051570296287,0,0,0
9850,332068.2875436712,2010-09-04 09:44:48,5462.745526221121,2,28,0.5499359965324402,4.133603572845459,29.444520578655258,28.60189225897174,117.10170945503307,104.7176526242104,6.47544875391759e-05,0.0859051570296287,0,0,0
9851,332098.3026362623,2010-09-04 09:45:18,5492.760618807258,2,28,0.5501165986061096,4.137165069580078,29.44910709661189,28.60189225897174,117.1206767966878,104.7176526242104,6.47544875391759e-05,0.0859051570296287,0,0,0
9852,332128.31775372045,2010-09-04 09:45:48,5522.775736245334,2,28,0.5501165986061096,4.140564918518066,29.45369367912672,28.60189225897174,117.13965975296622,104.7176526242104,0.0001295089750783,0.0859051570296287,0,0,0
9853,332158.33291191515,2010-09-04 09:46:18,5552.790894439989,2,28,0.5501165986061096,4.143640518188477,29.458280294072665,28.60189225897174,117.1586582397126,104.7176526242104,3.23295607813634e-05,0.0859051570296287,0,0,0
9854,332188.3480827312,2010-09-04 09:46:48,5582.806065251088,2,28,0.5501165986061096,4.147202014923096,29.4628668099646,28.60189225897174,117.17767220710324,104.7176526242104,9.70840483205393e-05,0.0859051570296287,0,0,0
9855,332218.36326801835,2010-09-04 09:47:18,5612.821250543277,2,28,0.5501165986061096,4.150763511657715,29.4674532715296,28.60189225897174,117.19670172890756,104.7176526242104,6.47544875391759e-05,0.0859051570296287,0,0,0
9856,332248.37842892983,2010-09-04 09:47:48,5642.836411454703,2,28,0.5501165986061096,4.154325008392334,29.472039730936157,28.60189225897174,117.21574705391298,104.7176526242104,9.70840483205393e-05,0.0859051570296287,0,0,0
9857,332278.393608984,2010-09-04 09:48:18,5672.851591508837,2,28,0.5499359965324402,4.157724857330322,29.476626212902246,28.60189225897174,117.23480837649976,104.7176526242104,9.71794142969884e-05,0.0859051570296287,0,0,0
9858,332308.40879175987,2010-09-04 09:48:48,5702.866774279743,2,28,0.5501165986061096,4.161286354064941,29.48121266825952,28.60189225897174,117.25388567723218,104.7176526242104,9.71794142969884e-05,0.0859051570296287,0,0,0
9859,332338.4239596136,2010-09-04 09:49:18,5732.881942138484,2,28,0.5501165986061096,4.1648478507995605,29.485799142182053,28.60189225897174,117.27297928633618,104.7176526242104,0.0001295089750783,0.0859051570296287,0,0,0
9860,332368.43911638967,2010-09-04 09:49:48,5762.897098919615,2,28,0.5501165986061096,4.168247222900391,29.490385624872392,28.60189225897174,117.2920892904072,104.7176526242104,9.70840483205393e-05,0.0859051570296287,0,0,0
9861,332398.45428781235,2010-09-04 09:50:18,5792.912270342237,2,28,0.5501165986061096,4.171970844268799,29.49497208552131,28.60189225897174,117.31121567034386,104.7176526242104,9.71794142969884e-05,0.0859051570296287,0,0,0
9862,332428.46945582645,2010-09-04 09:50:48,5822.927438346341,2,28,0.5501165986061096,4.175693988800049,29.499558515468262,28.60189225897174,117.33035859301656,104.7176526242104,9.70840483205393e-05,0.0859051570296287,0,0,0
9863,332458.48448223266,2010-09-04 09:51:18,5852.942464747525,2,28,0.5501165986061096,4.179417610168457,29.504144959266885,28.60189225897174,117.34951835265548,104.7176526242104,9.71794142969884e-05,0.0859051570296287,0,0,0
9864,332488.4997545618,2010-09-04 09:51:48,5882.957737086662,2,28,0.5504778623580933,4.183302879333496,29.508732313345185,28.60189225897174,117.36869889072182,104.7176526242104,0.0001619339018361,0.0859051570296287,0,0,0
9865,332518.51525132527,2010-09-04 09:52:18,5912.973233945371,2,28,0.550297200679779,4.186864376068115,29.513319810622956,28.60189225897174,117.3878970932408,104.7176526242104,0.0001295089750783,0.0859051570296287,0,0,0
9866,332548.53011949704,2010-09-04 09:52:48,5942.98810201695,2,28,0.550297200679779,4.190587520599365,29.517906904980645,28.60189225897174,117.40711083924708,104.7176526242104,0.0001295089750783,0.0859051570296287,0,0,0
9867,332578.545308298,2010-09-04 09:53:18,5973.003290822897,2,28,0.550297200679779,4.194472789764404,29.522494214675465,28.60189225897174,117.4263428811656,104.7176526242104,0.0001295089750783,0.0859051570296287,0,0,0
9868,332608.5604614501,2010-09-04 09:53:48,6003.018443974984,2,28,0.550297200679779,4.198195934295654,29.527081543047203,28.60189225897174,117.44559241837582,104.7176526242104,9.70840483205393e-05,0.0859051570296287,0,0,0
9869,332622.2323389906,2010-09-04 09:54:02,6016.690321510534,2,28,0.550297200679779,4.200138568878174,29.52917109831904,28.60189225897174,117.45436655138116,104.7176526242104,9.70840483205393e-05,0.0859051570296287,0,0,0
9870,332652.2423015138,2010-09-04 09:54:32,30.01516711689133,3,28,0.0,4.1190338134765625,29.52917109831904,28.60189225897174,117.45436655138116,104.7176526242104,-0.0003885269106831,0.0859051570296287,0,0,0
9871,332682.2575297029,2010-09-04 09:55:02,60.03039533105586,3,28,0.0,4.108997344970703,29.52917109831904,28.60189225897174,117.45436655138116,104.7176526242104,-0.0001942634553415,0.0859051570296287,0,0,0
9872,332712.2726453415,2010-09-04 09:55:32,90.04551094458496,3,28,0.0,4.103007316589356,29.52917109831904,28.60189225897174,117.45436655138116,104.7176526242104,-0.0001619339018361,0.0859051570296287,0,0,0
9873,332742.2409210506,2010-09-04 09:56:02,120.01378667370987,3,28,0.0,4.0989603996276855,29.52917109831904,28.60189225897174,117.45436655138116,104.7176526242104,-0.0001295089750783,0.0859051570296287,0,0,0
9874,332742.2533906999,2010-09-04 09:56:02,2.761883463e-06,4,28,1.004529595375061,4.199814796447754,29.529171099089705,28.60189225897174,117.4543665546178,104.7176526242104,0.0,0.0859051570296287,0,0,0
9875,332743.1128881771,2010-09-04 09:56:03,0.859500244069836,4,28,0.954320192337036,4.199653148651123,29.52940342526195,28.60189225897174,117.4553422619266,104.7176526242104,-3.23295607813634e-05,0.0859051570296287,0,0,0
9876,332745.15961655404,2010-09-04 09:56:05,2.9062286159351,4,28,0.9041107892990112,4.199653148651123,29.529930691343296,28.60189225897174,117.45755663342128,104.7176526242104,-3.23295607813634e-05,0.0859051570296287,0,0,0
9877,332748.2692553256,2010-09-04 09:56:08,6.015867392578426,4,28,0.8539014458656311,4.199653148651123,29.53068899812684,28.60189225897174,117.46074130421536,104.7176526242104,0.0,0.0859051570296287,0,0,0
9878,332752.42513205914,2010-09-04 09:56:12,10.17174412612974,4,28,0.8038726449012756,4.199653148651123,29.531644719863603,28.60189225897174,117.46475506487296,104.7176526242104,-3.23295607813634e-05,0.0859051570296287,0,0,0
9879,332757.80288740015,2010-09-04 09:56:17,15.549499467133472,4,28,0.7536632418632507,4.199653148651123,29.53280654538261,28.60189225897174,117.46963440100347,104.7176526242104,-3.23295607813634e-05,0.0859051570296287,0,0,0
9880,332764.64368596004,2010-09-04 09:56:24,22.3902980069558,4,28,0.7034538984298706,4.199653148651123,29.53418888085733,28.60189225897174,117.47543983914252,104.7176526242104,0.0,0.0859051570296287,0,0,0
9881,332773.6123079857,2010-09-04 09:56:33,31.35892004765724,4,28,0.6534250974655151,4.199653148651123,29.53587621824124,28.60189225897174,117.48252621221208,104.7176526242104,-3.23295607813634e-05,0.0859051570296287,0,0,0
9882,332785.8316350636,2010-09-04 09:56:46,43.5782472307906,4,28,0.6033963561058044,4.199814796447754,29.538004539789053,28.60189225897174,117.49146464364262,104.7176526242104,0.0,0.0859051570296287,0,0,0
9883,332803.62753844546,2010-09-04 09:57:03,61.37415051243099,4,28,0.553367555141449,4.199814796447754,29.54085536584873,28.60189225897174,117.5034373660779,104.7176526242104,3.23295607813634e-05,0.0859051570296287,0,0,0
9884,332832.2990099745,2010-09-04 09:57:32,90.04562202142263,4,28,0.5033388137817383,4.199491024017334,29.545046810423475,28.60189225897174,117.52104036055913,104.7176526242104,-6.47544875391759e-05,0.0859051570296287,0,0,0
9885,332882.09523329494,2010-09-04 09:58:22,139.84184534185198,4,28,0.4533100426197052,4.199814796447754,29.55163290384569,28.60189225897174,117.54870026893366,104.7176526242104,0.0,0.0859051570296287,0,0,0
9886,332962.67209412,2010-09-04 09:59:42,220.41870618194577,4,28,0.4032812714576721,4.199814796447754,29.56118826406005,28.60189225897174,117.58883028190355,104.7176526242104,0.0,0.0859051570296287,0,0,0
9887,333070.32658013864,2010-09-04 10:01:30,328.0731921855239,4,28,0.353252500295639,4.199653148651123,29.572480874575003,28.60189225897174,117.63625642075854,104.7176526242104,0.0,0.0859051570296287,0,0,0
9888,333201.1058451919,2010-09-04 10:03:41,458.8524572388106,4,28,0.3032237291336059,4.199653148651123,29.58438993117911,28.60189225897174,117.68627146416486,104.7176526242104,-3.23295607813634e-05,0.0859051570296287,0,0,0
9889,333358.5254435729,2010-09-04 10:06:18,616.272055614763,4,28,0.2531949579715729,4.199653148651123,29.59653323539383,28.60189225897174,117.73727032310904,104.7176526242104,0.0,0.0859051570296287,0,0,0
9890,333553.39736896654,2010-09-04 10:09:33,811.1439810134488,4,28,0.2031661868095398,4.199814796447754,29.60884360381125,28.60189225897174,117.78897074558796,104.7176526242104,0.0,0.0859051570296287,0,0,0
9891,333807.25292547274,2010-09-04 10:13:47,1064.9995375146518,4,28,0.1531374305486679,4.199814796447754,29.62133860429077,28.60189225897174,117.84144663181982,104.7176526242104,0.0,0.0859051570296287,0,0,0
9892,334175.2317907693,2010-09-04 10:19:55,1432.9784028563497,4,28,0.1031086519360542,4.199653148651123,29.63429274725725,28.60189225897174,117.89585057573235,104.7176526242104,0.0,0.0859051570296287,0,0,0
9893,334846.2684141376,2010-09-04 10:31:06,2104.015026169453,4,28,0.0530798844993114,4.199653148651123,29.648364936571387,28.60189225897174,117.95495020824016,104.7176526242104,-3.23295607813634e-05,0.0859051570296287,0,0,0
9894,334916.9860639452,2010-09-04 10:32:17,2174.732675972038,4,28,0.0498289167881011,4.199653148651123,29.64938352019692,28.60189225897174,117.95922801225008,104.7176526242104,0.0,0.0859051570296287,0,0,0
9895,334946.99977270217,2010-09-04 10:32:47,30.015165312393965,5,28,0.0,4.192206382751465,29.64938352019692,28.60189225897174,117.95922801225008,104.7176526242104,-6.47544875391759e-05,0.0859051570296287,0,0,0
9896,334976.99930550857,2010-09-04 10:33:17,60.01469809371048,5,28,0.0,4.190911293029785,29.64938352019692,28.60189225897174,117.95922801225008,104.7176526242104,-6.47544875391759e-05,0.0859051570296287,0,0,0
9897,334977.20189750026,2010-09-04 10:33:17,0.187519771970141,6,28,-1.9243103452026844e-05,4.191397190093994,29.64938352019692,28.60189225997409,117.95922801225008,104.71765262841164,0.0,0.0915781408548355,0,0,0
9898,334982.02983309125,2010-09-04 10:33:22,5.01545537300657,6,28,0.0008838032954372,4.190911293029785,29.649384500193086,28.601892260057465,117.95923211949008,104.7176526287611,-6.47544875391759e-05,0.0915781408548355,0,0,0
9899,335012.06004129566,2010-09-04 10:33:52,30.01518477590302,7,28,-1.099568486213684,4.021093368530273,29.649384500193086,28.611059847271328,117.95923211949008,104.75471137412742,-0.0009065627818927,0.0915781408548355,0,0,0
9900,335042.075233044,2010-09-04 10:34:22,60.03037656428329,7,28,-1.0993878841400146,3.994705677032471,29.649384500193086,28.62022748616221,117.95923211949008,104.7914444722522,-0.0005504131549969,0.0915781408548355,0,0,0
9901,335072.0903586123,2010-09-04 10:34:52,90.04550210254789,7,28,-1.099568486213684,3.976412773132324,29.649384500193086,28.629395020829403,117.95923211949008,104.82797666012992,-0.0003885269106831,0.0915781408548355,0,0,0
9902,335102.1055402353,2010-09-04 10:35:22,120.060683725593,7,28,-1.0993878841400146,3.962490558624268,29.649384500193086,28.638562456159057,117.95923211949008,104.86436272765778,-0.0002913951757363,0.0915781408548355,0,0,0
9903,335132.1208237925,2010-09-04 10:35:52,150.07596729271413,7,28,-1.0997490882873535,3.9505109786987305,29.649384500193086,28.647729970246665,117.95923211949008,104.90063215048214,-0.0003237724304199,0.0915781408548355,0,0,0
9904,335162.1358856871,2010-09-04 10:36:22,180.09102916730927,7,28,-1.0997490882873535,3.940150260925293,29.649384500193086,28.656897528507223,117.95923211949008,104.93680104841052,-0.0002590179501567,0.0915781408548355,0,0,0
9905,335192.15106694924,2010-09-04 10:36:52,210.10621042945496,7,28,-1.0993878841400146,3.9307608604431152,29.649384500193086,28.66606504610665,117.95923211949008,104.97287892193152,-0.0002266406954731,0.0915781408548355,0,0,0
9906,335222.1662108883,2010-09-04 10:37:22,240.12135437860516,7,28,-1.099568486213684,3.921695232391357,29.649384500193086,28.67523259237377,117.95923211949008,105.00887205427875,-0.0002266406954731,0.0915781408548355,0,0,0
9907,335252.1814097193,2010-09-04 10:37:52,270.13655319951266,7,28,-1.0997490882873535,3.912953615188599,29.649384500193086,28.68440009614685,117.95923211949008,105.0447844092078,-0.0002589702489785,0.0915781408548355,0,0,0
9908,335282.1965906456,2010-09-04 10:38:22,300.1517341208088,7,28,-1.099568486213684,3.90469741821289,29.649384500193086,28.6935675426081,117.95923211949008,105.08061895077245,-0.0002266406954731,0.0915781408548355,0,0,0
9909,335312.2117287301,2010-09-04 10:38:52,330.166872210355,7,28,-1.099568486213684,3.8966031074523926,29.649384500193086,28.702735039215355,117.95923211949008,105.11637857798878,-0.0002590179501567,0.0915781408548355,0,0,0
9910,335342.2269031703,2010-09-04 10:39:22,360.18204665551065,7,28,-1.099568486213684,3.8888325691223145,29.649384500193086,28.71190254790616,117.95923211949008,105.15206546513508,-0.0001942634553415,0.0915781408548355,0,0,0
9911,335372.2420587985,2010-09-04 10:39:52,390.1972022787563,7,28,-1.099568486213684,3.881062030792236,29.649384500193086,28.721070090924748,117.95923211949008,105.1876809329338,-0.0001618862152099,0.0915781408548355,0,0,0
9912,335402.25724580494,2010-09-04 10:40:22,420.21238929023104,7,28,-1.099568486213684,3.873453378677368,29.649384500193086,28.730237572570587,117.95923211949008,105.22322586647115,-0.0002266406954731,0.0915781408548355,0,0,0
9913,335432.2724100898,2010-09-04 10:40:52,450.227553575064,7,28,-1.0993878841400146,3.86600661277771,29.649384500193086,28.73940513542973,117.95923211949008,105.25870198442408,-0.0001618862152099,0.0915781408548355,0,0,0
9914,335462.2876012917,2010-09-04 10:41:22,480.2427447970326,7,28,-1.099568486213684,3.858559846878052,29.649384500193086,28.748572642792517,117.95923211949008,105.294109824837,-0.0002266406954731,0.0915781408548355,0,0,0
9915,335492.3027423688,2010-09-04 10:41:52,510.2578858639996,7,28,-1.099568486213684,3.851274967193604,29.649384500193086,28.757740164335356,117.95923211949008,105.32945051719136,-0.0001942634553415,0.0915781408548355,0,0,0
9916,335522.3179215607,2010-09-04 10:42:22,540.2730650409483,7,28,-1.0993878841400146,3.844151973724365,29.649384500193086,28.76690767981109,117.95923211949008,105.3647251684486,-0.0001942634553415,0.0915781408548355,0,0,0
9917,335552.33309375524,2010-09-04 10:42:52,570.2882372354946,7,28,-1.0992072820663452,3.837514638900757,29.649384500193086,28.77607514489792,117.95923211949008,105.39993486339428,-0.0001295089750783,0.0915781408548355,0,0,0
9918,335582.34829813504,2010-09-04 10:43:22,600.3034416152565,7,28,-1.0993878841400146,3.830553770065308,29.649384500193086,28.78524264760544,117.95923211949008,105.4350809141932,-0.0001618862152099,0.0915781408548355,0,0,0
9919,335612.3636901174,2010-09-04 10:43:52,630.318833642694,7,28,-1.0993878841400146,3.8235926628112793,29.649384500193086,28.794410205222896,117.95923211949008,105.47016427131535,-0.0001618862152099,0.0915781408548355,0,0,0
9920,335642.37873550586,2010-09-04 10:44:22,660.3338789860884,7,28,-1.099568486213684,3.816793441772461,29.649384500193086,28.80357766443247,117.95923211949008,105.5051854160529,-0.0001942634553415,0.0915781408548355,0,0,0
9921,335672.39391407627,2010-09-04 10:44:52,690.3490575765754,7,28,-1.0993878841400146,3.810156106948853,29.649384500193086,28.812745178122693,117.95923211949008,105.54014575789118,-0.0001618862152099,0.0915781408548355,0,0,0
9922,335702.4089305327,2010-09-04 10:45:22,720.364074017937,7,28,-1.099568486213684,3.803842544555664,29.649384500193086,28.82191258270926,117.95923211949008,105.575045551897,-0.0001295089750783,0.0915781408548355,0,0,0
9923,335732.42410674726,2010-09-04 10:45:52,750.37925022749,7,28,-1.099568486213684,3.7973670959472656,29.649384500193086,28.83108007161735,117.95923211949008,105.6098869185611,-0.0001942634553415,0.0915781408548355,0,0,0
9924,335762.44208014826,2010-09-04 10:46:22,780.3972236335172,7,28,-1.099568486213684,3.791053533554077,29.649384500193086,28.84024847242424,117.95923211949008,105.64467384100458,-0.0001942634553415,0.0915781408548355,0,0,0
9925,335792.4549145062,2010-09-04 10:46:53,810.410058086693,7,28,-1.0993878841400146,3.785225629806519,29.649384500193086,28.84941527801745,117.95923211949008,105.67939813152871,-0.0001618862152099,0.0915781408548355,0,0,0
9926,335822.4699054841,2010-09-04 10:47:23,840.4250489793793,7,28,-1.099568486213684,3.77907395362854,29.649384500193086,28.858582720509126,117.95923211949008,105.71406922136148,-0.0001618862152099,0.0915781408548355,0,0,0
9927,335852.4849370331,2010-09-04 10:47:53,870.4400805133565,7,28,-1.099568486213684,3.773084163665772,29.649384500193086,28.867750276715316,117.95923211949008,105.74868614451064,-0.0001618862152099,0.0915781408548355,0,0,0
9928,335882.50000542897,2010-09-04 10:48:23,900.4551489092045,7,28,-1.099568486213684,3.767256259918213,29.649384500193086,28.876917786837453,117.95923211949008,105.78324932202972,-0.0001618862152099,0.0915781408548355,0,0,0
9929,335912.5152634875,2010-09-04 10:48:53,930.4704069727628,7,28,-1.099568486213684,3.761590242385864,29.649384500193086,28.886085381607497,117.95923211949008,105.81776002703188,-0.0001618862152099,0.0915781408548355,0,0,0
9930,335942.5302943097,2010-09-04 10:49:23,960.4854377899536,7,28,-1.099568486213684,3.7560861110687256,29.649384500193086,28.89525291258212,117.95923211949008,105.8522189322496,-0.0001295089750783,0.0915781408548355,0,0,0
9931,335972.54547398794,2010-09-04 10:49:53,990.5006174681514,7,28,-1.0997490882873535,3.750582218170166,29.649384500193086,28.904420555525963,117.95923211949008,105.88662747030962,-0.0001295089750783,0.0915781408548355,0,0,0
9932,336002.56065620744,2010-09-04 10:50:23,1020.5157996876832,7,28,-1.0993878841400146,3.745239973068237,29.649384500193086,28.91358816296359,117.95923211949008,105.92098611947074,-9.713172767078504e-05,0.0915781408548355,0,0,0
9933,336032.5758110637,2010-09-04 10:50:53,1050.5309545540424,7,28,-1.099568486213684,3.740059614181519,29.649384500193086,28.92275577674449,117.95923211949008,105.95529624916844,-6.47544875391759e-05,0.0915781408548355,0,0,0
9934,336062.590980306,2010-09-04 10:51:23,1080.546123791218,7,28,-1.0993878841400146,3.73471736907959,29.649384500193086,28.93192333372671,117.95923211949008,105.98955855748495,-0.0001295089750783,0.0915781408548355,0,0,0
9935,336092.6062943941,2010-09-04 10:51:53,1110.561437879407,7,28,-1.099568486213684,3.729698896408081,29.649384500193086,28.941091032031107,117.95923211949008,106.02377456385724,-9.713172767078504e-05,0.0915781408548355,0,0,0
9936,336122.62167719856,2010-09-04 10:52:23,1140.5768207039082,7,28,-1.099568486213684,3.7248423099517822,29.649384500193086,28.950258620674163,117.95923211949008,106.05794474755118,-0.0001295089750783,0.0915781408548355,0,0,0
9937,336152.63661726465,2010-09-04 10:52:53,1170.5917607548815,7,28,-1.099568486213684,3.7199857234954834,29.649384500193086,28.95942609760201,117.95923211949008,106.09206940339782,-0.0001295089750783,0.0915781408548355,0,0,0
9938,336182.6516531294,2010-09-04 10:53:23,1200.6067966096273,7,28,-1.0993878841400146,3.715129137039185,29.649384500193086,28.968593628903903,117.95923211949008,106.12615007261245,-0.0001295089750783,0.0915781408548355,0,0,0
9939,336212.666798066,2010-09-04 10:53:53,1230.6219415763132,7,28,-1.099568486213684,3.710434436798096,29.649384500193086,28.977760849220253,117.95923211949008,106.1601862652772,-0.0001618862152099,0.0915781408548355,0,0,0
9940,336242.682001333,2010-09-04 10:54:23,1260.6371448232517,7,28,-1.0993878841400146,3.7060635089874263,29.649384500193086,28.986928108257658,117.95923211949008,106.19417977697998,-6.47544875391759e-05,0.0915781408548355,0,0,0
9941,336272.6971827004,2010-09-04 10:54:53,1290.652326185647,7,28,-1.0997490882873535,3.701368808746338,29.649384500193086,28.99609533016213,117.95923211949008,106.2281312494488,-9.713172767078504e-05,0.0915781408548355,0,0,0
9942,336302.7123425943,2010-09-04 10:55:23,1320.6674861096117,7,28,-1.0997490882873535,3.696674108505249,29.649384500193086,29.00526257434839,117.95923211949008,106.26204163617528,-0.0001295089750783,0.0915781408548355,0,0,0
9943,336332.727484368,2010-09-04 10:55:53,1350.6826278482529,7,28,-1.0993878841400146,3.69246506690979,29.649384500193086,29.014430095510225,117.95923211949008,106.2959124477156,-0.0001295089750783,0.0915781408548355,0,0,0
9944,336362.74267336447,2010-09-04 10:56:23,1380.6978168546996,7,28,-1.099568486213684,3.688094139099121,29.649384500193086,29.02359765651641,117.95923211949008,106.32974350647834,-0.0001295089750783,0.0915781408548355,0,0,0
9945,336392.7578256143,2010-09-04 10:56:53,1410.7129690945126,7,28,-1.0993878841400146,3.683885097503662,29.649384500193086,29.03276519474663,117.95923211949008,106.36353500599104,-0.0001295089750783,0.0915781408548355,0,0,0
9946,336422.7730330467,2010-09-04 10:57:23,1440.7281765268824,7,28,-1.099568486213684,3.679676055908203,29.649384500193086,29.04193274561345,117.95923211949008,106.39728798656574,-0.0001295089750783,0.0915781408548355,0,0,0
9947,336452.7881480787,2010-09-04 10:57:53,1470.74329159405,7,28,-1.0993878841400146,3.675628900527954,29.649384500193086,29.051100386050106,117.95923211949008,106.4310032386807,-9.713172767078504e-05,0.0915781408548355,0,0,0
9948,336482.8033491101,2010-09-04 10:58:23,1500.7584926254665,7,28,-1.0997490882873535,3.671581983566284,29.649384500193086,29.060268701015904,117.95923211949008,106.46468329796204,-9.713172767078504e-05,0.0915781408548355,0,0,0
9949,336512.818516643,2010-09-04 10:58:53,1530.7736601583947,7,28,-1.099568486213684,3.667534828186035,29.649384500193086,29.069436997604143,117.95923211949008,106.49832630587464,-9.713172767078504e-05,0.0915781408548355,0,0,0
9950,336542.8337036195,2010-09-04 10:59:23,1560.788847104707,7,28,-1.099568486213684,3.663487672805786,29.649384500193086,29.07860450766968,117.95923211949008,106.53193040148057,-0.0001295089750783,0.0915781408548355,0,0,0
9951,336572.8488712176,2010-09-04 10:59:53,1590.8040147078102,7,28,-1.0993878841400146,3.659764289855957,29.649384500193086,29.08777210543752,117.95923211949008,106.5654991869254,-9.713172767078504e-05,0.0915781408548355,0,0,0
9952,336602.8640532817,2010-09-04 11:00:23,1620.8191967769674,7,28,-1.099568486213684,3.656040906906128,29.649384500193086,29.09693973950182,117.95923211949008,106.59903301484408,-9.713172767078504e-05,0.0915781408548355,0,0,0
9953,336632.8792115114,2010-09-04 11:00:53,1650.8343550067093,7,28,-1.099568486213684,3.652317523956299,29.649384500193086,29.10610729933432,117.95923211949008,106.63253223396998,-6.47544875391759e-05,0.0915781408548355,0,0,0
9954,336662.8944036256,2010-09-04 11:01:23,1680.849547115889,7,28,-1.0997490882873535,3.6485941410064697,29.649384500193086,29.11527488406499,117.95923211949008,106.66599780503545,-9.713172767078504e-05,0.0915781408548355,0,0,0
9955,336692.90967707254,2010-09-04 11:01:53,1710.8648205728125,7,28,-1.0997490882873535,3.6448707580566406,29.649384500193086,29.12444247090525,117.95923211949008,106.6994299652024,-9.713172767078504e-05,0.0915781408548355,0,0,0
9956,336722.9247612427,2010-09-04 11:02:23,1740.8799047529997,7,28,-1.099568486213684,3.641471147537232,29.649384500193086,29.13361001747672,117.95923211949008,106.73282955744418,-9.713172767078504e-05,0.0915781408548355,0,0,0
9957,336752.9399002696,2010-09-04 11:02:53,1770.8950437648448,7,28,-1.099568486213684,3.6380715370178223,29.649384500193086,29.142777580775213,117.95923211949008,106.76619748085544,-6.47544875391759e-05,0.0915781408548355,0,0,0
9958,336782.9550721283,2010-09-04 11:03:23,1800.910215623554,7,28,-1.099568486213684,3.634671926498413,29.649384500193086,29.15194514020588,117.95923211949008,106.79953440561772,-6.47544875391759e-05,0.0915781408548355,0,0,0
9959,336812.9702591698,2010-09-04 11:03:53,1830.9254026901665,7,28,-1.0997490882873535,3.631434202194214,29.649384500193086,29.16111274448476,117.95923211949008,106.83284121066048,-9.713172767078504e-05,0.0915781408548355,0,0,0
9960,336842.9854352491,2010-09-04 11:04:23,1860.94057873932,7,28,-1.099568486213684,3.628196477890015,29.649384500193086,29.170280351496142,117.95923211949008,106.86611843773352,-9.713172767078504e-05,0.0915781408548355,0,0,0
9961,336873.0005929725,2010-09-04 11:04:53,1890.9557364628,7,28,-1.099568486213684,3.6251206398010254,29.649384500193086,29.17944791464934,117.95923211949008,106.89936667489432,-6.47544875391759e-05,0.0915781408548355,0,0,0
9962,336903.0157981543,2010-09-04 11:05:23,1920.9709416445603,7,28,-1.099568486213684,3.622206687927246,29.649384500193086,29.188615552160726,117.95923211949008,106.9325871482669,-3.237724376958795e-05,0.0915781408548355,0,0,0
9963,336933.0310930998,2010-09-04 11:05:53,1950.9862366151024,7,28,-1.099568486213684,3.619292736053467,29.649384500193086,29.197783169555247,117.95923211949008,106.96577993945075,-6.47544875391759e-05,0.0915781408548355,0,0,0
9964,336963.0461093607,2010-09-04 11:06:23,1981.001252850952,7,28,-1.099568486213684,3.616055011749268,29.649384500193086,29.20695075585047,117.95923211949008,106.99894535145287,-9.713172767078504e-05,0.0915781408548355,0,0,0
9965,336993.0613033646,2010-09-04 11:06:53,2011.0164468548537,7,28,-1.0993878841400146,3.613464832305908,29.649384500193086,29.21611833704476,117.95923211949008,107.03208417507832,-6.47544875391759e-05,0.0915781408548355,0,0,0
9966,337023.076557348,2010-09-04 11:07:23,2041.031700848268,7,28,-1.099568486213684,3.610712766647339,29.649384500193086,29.2252859733781,117.95923211949008,107.06519700775002,-6.47544875391759e-05,0.0915781408548355,0,0,0
9967,337053.0917312869,2010-09-04 11:07:53,2071.046874787162,7,28,-1.0993878841400146,3.60779881477356,29.649384500193086,29.2344535954072,117.95923211949008,107.09828391040644,-6.47544875391759e-05,0.0915781408548355,0,0,0
9968,337083.1070114856,2010-09-04 11:08:23,2101.0621549758625,7,28,-1.099568486213684,3.60488486289978,29.649384500193086,29.24362117949172,117.95923211949008,107.1313448848178,-6.47544875391759e-05,0.0915781408548355,0,0,0
9969,337113.1219545642,2010-09-04 11:08:53,2131.0770980543816,7,28,-1.099568486213684,3.602132797241211,29.649384500193086,29.25278868974169,117.95923211949008,107.16438019322202,-6.47544875391759e-05,0.0915781408548355,0,0,0
9970,337143.1371398463,2010-09-04 11:09:23,2161.092283336546,7,28,-1.099568486213684,3.5993807315826416,29.649384500193086,29.26195631416216,117.95923211949008,107.19739057048332,-6.47544875391759e-05,0.0915781408548355,0,0,0
9971,337173.1522836902,2010-09-04 11:09:53,2191.107427180434,7,28,-1.099568486213684,3.5966286659240723,29.649384500193086,29.271123953474884,117.95923211949008,107.23037565648012,-6.47544875391759e-05,0.0915781408548355,0,0,0
9972,337203.1674725112,2010-09-04 11:10:23,2221.122616001419,7,28,-1.099929690361023,3.593876600265503,29.649384500193086,29.280291595132017,117.95923211949008,107.26333515755212,-9.713172767078504e-05,0.0915781408548355,0,0,0
9973,337233.18263898144,2010-09-04 11:10:53,2251.1377824716988,7,28,-1.099568486213684,3.5909628868103027,29.649384500193086,29.28945920940987,117.95923211949008,107.2962692367532,-6.47544875391759e-05,0.0915781408548355,0,0,0
9974,337263.19782318093,2010-09-04 11:11:23,2281.152966671165,7,28,-1.0993878841400146,3.588372707366944,29.649384500193086,29.29862685973707,117.95923211949008,107.32917758829949,-6.47544875391759e-05,0.0915781408548355,0,0,0
9975,337293.21297973144,2010-09-04 11:11:53,2311.168123221722,7,28,-1.099568486213684,3.585134983062744,29.649384500193086,29.307794504238217,117.95923211949008,107.36205957981302,-9.713172767078504e-05,0.0915781408548355,0,0,0
9976,337323.2281540012,2010-09-04 11:12:23,2341.1832974964527,7,28,-1.099568486213684,3.582382917404175,29.649384500193086,29.31696216957313,117.95923211949008,107.3949150506967,-6.47544875391759e-05,0.0915781408548355,0,0,0
9977,337353.2433299601,2010-09-04 11:12:53,2371.198473470419,7,28,-1.099568486213684,3.5794689655303955,29.649384500193086,29.326129800911648,117.95923211949008,107.42774349841328,-3.237724376958795e-05,0.0915781408548355,0,0,0
9978,337383.2584826059,2010-09-04 11:13:23,2401.213626096194,7,28,-1.0997490882873535,3.5763931274414062,29.649384500193086,29.3352974232596,117.95923211949008,107.46054449636644,-9.713172767078504e-05,0.0915781408548355,0,0,0
9979,337413.27377674944,2010-09-04 11:13:53,2431.228920249699,7,28,-1.0997490882873535,3.573317289352417,29.649384500193086,29.344465083111984,117.95923211949008,107.49331779103984,-6.47544875391759e-05,0.0915781408548355,0,0,0
9980,337443.2888330852,2010-09-04 11:14:23,2461.243976575465,7,28,-1.099568486213684,3.570241451263428,29.649384500193086,29.35363264044557,117.95923211949008,107.52606249699907,-9.713172767078504e-05,0.0915781408548355,0,0,0
9981,337473.3039942774,2010-09-04 11:14:53,2491.2591377726026,7,28,-1.0993878841400146,3.5671656131744385,29.649384500193086,29.36280026585053,117.95923211949008,107.5587784114622,-6.47544875391759e-05,0.0915781408548355,0,0,0
9982,337503.31929756363,2010-09-04 11:15:23,2521.274441053857,7,28,-1.0997490882873535,3.56360411643982,29.649384500193086,29.37196800134829,117.95923211949008,107.59146519957189,-9.713172767078504e-05,0.0915781408548355,0,0,0
9983,337533.33434212004,2010-09-04 11:15:53,2551.2894856102903,7,28,-1.0993878841400146,3.56052827835083,29.649384500193086,29.38113551031251,117.95923211949008,107.62412170347908,-6.47544875391759e-05,0.0915781408548355,0,0,0
9984,337563.349630835,2010-09-04 11:16:23,2581.3047743252414,7,28,-1.099568486213684,3.557290554046631,29.649384500193086,29.390303128516848,117.95923211949008,107.6567479247332,-9.713172767078504e-05,0.0915781408548355,0,0,0
9985,337593.3646857973,2010-09-04 11:16:53,2611.319829287609,7,28,-1.0993878841400146,3.5535671710968018,29.649384500193086,29.39947075636409,117.95923211949008,107.68934226169044,-6.47544875391759e-05,0.0915781408548355,0,0,0
9986,337623.37988842773,2010-09-04 11:17:23,2641.3350319180117,7,28,-1.099568486213684,3.5498437881469727,29.649384500193086,29.408638358824764,117.95923211949008,107.72190375358784,-0.0001295089750783,0.0915781408548355,0,0,0
9987,337653.3950246276,2010-09-04 11:17:53,2671.35016812286,7,28,-1.099568486213684,3.546282291412353,29.649384500193086,29.41780593961971,117.95923211949008,107.75443150392483,-6.47544875391759e-05,0.0915781408548355,0,0,0
9988,337683.4130765844,2010-09-04 11:18:23,2701.36822007966,7,28,-1.0997490882873535,3.5423970222473145,29.649384500193086,29.42697439514029,117.95923211949008,107.78692766655412,-9.713172767078504e-05,0.0915781408548355,0,0,0
9989,337713.42537912185,2010-09-04 11:18:54,2731.380522612126,7,28,-1.0997490882873535,3.538349866867065,29.649384500193086,29.436141136734253,117.95923211949008,107.81938239123944,-0.0001295089750783,0.0915781408548355,0,0,0
9990,337743.44089383504,2010-09-04 11:19:24,2761.3960374255835,7,28,-1.099568486213684,3.5346264839172363,29.649384500193086,29.445308919575247,117.95923211949008,107.8518038224058,-6.47544875391759e-05,0.0915781408548355,0,0,0
9991,337773.45588840195,2010-09-04 11:19:54,2791.41103191724,7,28,-1.0997490882873535,3.5300936698913574,29.649384500193086,29.45447648423805,117.95923211949008,107.88418613993942,-0.0001618862152099,0.0915781408548355,0,0,0
9992,337803.4711166662,2010-09-04 11:20:24,2821.426260156467,7,28,-1.099568486213684,3.5257227420806885,29.649384500193086,29.463644083716865,117.95923211949008,107.9165289150472,-0.0001295089750783,0.0915781408548355,0,0,0
9993,337833.48620823986,2010-09-04 11:20:54,2851.441351760156,7,28,-1.0993878841400146,3.5211899280548096,29.649384500193086,29.4728116473226,117.95923211949008,107.94883006261252,-9.713172767078504e-05,0.0915781408548355,0,0,0
9994,337863.5012871669,2010-09-04 11:21:24,2881.4564306621887,7,28,-1.0997490882873535,3.5163333415985107,29.649384500193086,29.481979209681217,117.95923211949008,107.98108816253264,-0.0001295089750783,0.0915781408548355,0,0,0
9995,337893.5164191061,2010-09-04 11:21:54,2911.4715626515317,7,28,-1.0993878841400146,3.511315107345581,29.649384500193086,29.49114689967461,117.95923211949008,108.0133014607244,-0.0001294612884521,0.0915781408548355,0,0,0
9996,337923.5316064334,2010-09-04 11:22:24,2941.4867499286684,7,28,-1.0993878841400146,3.5059728622436523,29.649384500193086,29.500314501258657,117.95923211949008,108.04546689625604,-0.0001295089750783,0.0915781408548355,0,0,0
9997,337953.54673041275,2010-09-04 11:22:54,2971.501873903035,7,28,-1.099568486213684,3.5001449584960938,29.649384500193086,29.50948212812867,117.95923211949008,108.0775815496122,-0.0001618862152099,0.0915781408548355,0,0,0
9998,337983.5619424015,2010-09-04 11:23:24,3001.517085921836,7,28,-1.0997490882873535,3.4938313961029053,29.649384500193086,29.51864973498338,117.95923211949008,108.10964150544667,-0.0001942634553415,0.0915781408548355,0,0,0
9999,338013.5771918286,2010-09-04 11:23:54,3031.532335323807,7,28,-1.099568486213684,3.487032175064087,29.649384500193086,29.5278173882129,117.95923211949008,108.14164206473843,-0.0001942634553415,0.0915781408548355,0,0,0
10000,338043.5926353543,2010-09-04 11:24:24,3061.547778844582,7,28,-1.099568486213684,3.4794235229492188,29.649384500193086,29.536985042634623,117.95923211949008,108.17357641023624,-0.0002266406954731,0.0915781408548355,0,0,0
10001,338073.60754673387,2010-09-04 11:24:54,3091.5626902291096,7,28,-1.0997490882873535,3.470519781112671,29.649384500193086,29.546152504103244,117.95923211949008,108.2054348730914,-0.0002913951757363,0.0915781408548355,0,0,0
10002,338103.62259578146,2010-09-04 11:25:24,3121.577739276736,7,28,-1.0993878841400146,3.4604828357696533,29.649384500193086,29.5553201024234,117.95923211949008,108.2372069367148,-0.0002913951757363,0.0915781408548355,0,0,0
10003,338133.6377546779,2010-09-04 11:25:54,3151.592898168127,7,28,-1.099568486213684,3.4478557109832764,29.649384500193086,29.56448772107501,117.95923211949008,108.2688758872837,-0.0004209041653666,0.0915781408548355,0,0,0
10004,338163.6530258541,2010-09-04 11:26:24,3181.608169374441,7,28,-1.099568486213684,3.43263840675354,29.649384500193086,29.573655367124964,117.95923211949008,108.3004177429378,-0.0004209041653666,0.0915781408548355,0,0,0
10005,338193.66823827394,2010-09-04 11:26:54,3211.623381819304,7,28,-1.0997490882873535,3.412240982055664,29.649384500193086,29.58282298103428,117.95923211949008,108.3317967008574,-0.0005827903514727,0.0915781408548355,0,0,0
10006,338223.68325228925,2010-09-04 11:27:24,3241.638395779481,7,28,-1.099568486213684,3.3848822116851807,29.649384500193086,29.591990528646257,117.95923211949008,108.3629594619464,-0.0008418083307333,0.0915781408548355,0,0,0
10007,338253.6984267394,2010-09-04 11:27:54,3271.6535702597243,7,28,-1.099568486213684,3.346515417098999,29.649384500193086,29.60115810185377,117.95923211949008,108.39382511067232,-0.0011979102855548,0.0915781408548355,0,0,0
10008,338283.7136507982,2010-09-04 11:28:24,3301.6687942884573,7,28,-1.099568486213684,3.291959762573242,29.649384500193086,29.610325653651387,117.95923211949008,108.4242697146718,-0.0016836166614666,0.0915781408548355,0,0,0
10009,338313.7287983714,2010-09-04 11:28:54,3331.68394186164,7,28,-1.0993878841400146,3.2119882106781006,29.649384500193086,29.61949324653704,117.95923211949008,108.45410513704164,-0.0025254250504076,0.0915781408548355,0,0,0
10010,338343.743975032,2010-09-04 11:29:24,3361.6991185273296,7,28,-1.099568486213684,3.087498188018799,29.649384500193086,29.62866083294783,117.95923211949008,108.48302695259376,-0.0040795328095555,0.0915781408548355,0,0,0
10011,338369.1968519981,2010-09-04 11:29:49,3387.151995488371,7,28,-1.099568486213684,2.887245416641236,29.649384500193086,29.63643499054645,117.95923211949008,108.50635924396722,-0.0088389869779348,0.0915781408548355,0,0,0
10012,338382.2591299489,2010-09-04 11:30:02,3400.2142734391878,7,28,-1.0997490882873535,2.699781894683838,29.649384500193086,29.64042465983095,117.95923211949008,108.51752340594123,-0.0125623224303126,0.0915781408548355,0,0,0
10013,338442.2778288486,2010-09-04 11:31:02,60.01469902603412,8,28,0.0,3.420820951461792,29.649384500193086,29.64042465983095,117.95923211949008,108.51752340594123,0.0011979580158367,0.0915781408548355,0,0,0
10014,338442.47033975367,2010-09-04 11:31:03,0.187496534054104,9,28,-1.9243103452026844e-05,3.420982837677002,29.649384500193086,29.640424660833176,117.95923211949008,108.51752340936984,0.0,0.0867940634489059,0,0,0
10015,338447.2985447411,2010-09-04 11:31:08,5.015701496421851,9,28,0.0003419754502829,3.42826771736145,29.64938541586051,29.640424661000207,117.95923525586774,108.51752340994123,0.0010360718006268,0.0867940634489059,0,0,0
