Data_Point,Test_Time(s),Date_Time,Step_Time(s),Step_Index,Cycle_Index,Current(A),Voltage(V),Charge_Capacity(Ah),Discharge_Capacity(Ah),Charge_Energy(Wh),Discharge_Energy(Wh),dV/dt(V/s),Internal_Resistance(Ohm),Is_FC_Data,AC_Impedance(Ohm),ACI_Phase_Angle(Deg)
731,24680.796383354245,2010-08-31 20:21:09,30.015066044989048,1,3,0.0,3.318185329437256,2.149665492833128,2.190949093369006,8.55615790983722,8.040906758371861,0.0006799221155233,0.0851717442274093,0,0,0
732,24710.811584074887,2010-08-31 20:21:39,60.03026677565625,1,3,0.0,3.337935447692871,2.149665492833128,2.190949093369006,8.55615790983722,8.040906758371861,0.0004856586456298,0.0851717442274093,0,0,0
733,24740.826753387253,2010-08-31 20:22:09,90.04543611809433,1,3,0.0,3.3533143997192383,2.149665492833128,2.190949093369006,8.55615790983722,8.040906758371861,0.0003885269106831,0.0851717442274093,0,0,0
734,24770.79510166719,2010-08-31 20:22:39,120.01378437297572,1,3,0.0,3.3657796382904053,2.149665492833128,2.190949093369006,8.55615790983722,8.040906758371861,0.0003237724304199,0.0851717442274093,0,0,0
735,24800.810938465056,2010-08-31 20:23:09,30.0153233412505,2,3,0.5501165986061096,3.5134193897247314,2.154251909748278,2.190949093369006,8.57209872106405,8.040906758371861,0.0017483234405517,0.0851717442274093,0,0,0
736,24830.826037482224,2010-08-31 20:23:39,60.0304223333539,2,3,0.5501165986061096,3.5668418407440186,2.158838300076822,2.190949093369006,8.588341725988581,8.040906758371861,0.0011979580158367,0.0851717442274093,0,0,0
737,24860.84134343513,2010-08-31 20:24:09,90.04572828125481,2,3,0.5499359965324402,3.60715126991272,2.163424710265851,2.190949093369006,8.604796787546661,8.040906758371861,0.0009713172912597,0.0851717442274093,0,0,0
738,24890.856426798287,2010-08-31 20:24:39,120.06081164941855,2,3,0.5499359965324402,3.640014171600342,2.168010972041864,2.190949093369006,8.621418144738309,8.040906758371861,0.0008094310760498,0.0851717442274093,0,0,0
739,24920.871735914086,2010-08-31 20:25:09,150.07612077523984,2,3,0.5501165986061096,3.667696714401245,2.172597370932611,2.190949093369006,8.638178078868878,8.040906758371861,0.0006799221155233,0.0851717442274093,0,0,0
740,24950.8867855582,2010-08-31 20:25:39,180.09117043439034,2,3,0.5499359965324402,3.69133186340332,2.177183612571211,2.190949093369006,8.655054697603374,8.040906758371861,0.0005827903514727,0.0851717442274093,0,0,0
741,24980.902119771545,2010-08-31 20:26:09,210.10650464773744,2,3,0.5501165986061096,3.711891412734986,2.181769984074541,2.190949093369006,8.672032669997208,8.040906758371861,0.0005180359003134,0.0851717442274093,0,0,0
742,25010.917208768737,2010-08-31 20:26:39,240.12159364493044,2,3,0.5501165986061096,3.7288894653320312,2.186356381477369,2.190949093369006,8.689097073650398,8.040906758371861,0.0003885269106831,0.0851717442274093,0,0,0
743,25040.93238751461,2010-08-31 20:27:09,270.1367723607298,2,3,0.5501165986061096,3.742649793624878,2.190942756174652,2.190949093369006,8.706232628968118,8.040906758371861,0.0002913951757363,0.0851717442274093,0,0,0
744,25070.947581333057,2010-08-31 20:27:39,300.1519661841821,2,3,0.5501165986061096,3.7518773078918457,2.195529064302392,2.190949093369006,8.723421056071242,8.040906758371861,0.0001618862152099,0.0851717442274093,0,0,0
745,25100.96278995338,2010-08-31 20:28:09,330.16717481453776,2,3,0.5501165986061096,3.756733655929565,2.200115473339364,2.190949093369006,8.740641109662636,8.040906758371861,9.713172767078504e-05,0.0851717442274093,0,0,0
746,25130.97804099945,2010-08-31 20:28:39,360.18242583554394,2,3,0.5499359965324402,3.7596476078033447,2.20470181890593,2.190949093369006,8.757878211444828,8.040906758371861,3.237724376958795e-05,0.0851717442274093,0,0,0
747,25160.993201950976,2010-08-31 20:29:09,390.19758681213176,2,3,0.550297200679779,3.762399673461914,2.209288168870977,2.190949093369006,8.775127537238577,8.040906758371861,9.713172767078504e-05,0.0851717442274093,0,0,0
748,25191.008394401008,2010-08-31 20:29:39,420.21277926216106,2,3,0.5501165986061096,3.7646660804748535,2.213874467441336,2.190949093369006,8.79238771477601,8.040906758371861,6.47544875391759e-05,0.0851717442274093,0,0,0
749,25221.02375362669,2010-08-31 20:30:09,450.2281384828341,2,3,0.550297200679779,3.766932487487793,2.21846087581995,2.190949093369006,8.80965915981961,8.040906758371861,6.47544875391759e-05,0.0851717442274093,0,0,0
750,25251.03883461392,2010-08-31 20:30:39,480.24321949011386,2,3,0.5501165986061096,3.7693607807159424,2.223047255603333,2.190949093369006,8.826941544266152,8.040906758371861,3.237724376958795e-05,0.0851717442274093,0,0,0
751,25281.05400041753,2010-08-31 20:31:09,510.2583852887196,2,3,0.5499359965324402,3.771789073944092,2.227633680056995,2.190949093369006,8.844235205728708,8.040906758371861,9.713172767078504e-05,0.0851717442274093,0,0,0
752,25311.069201017883,2010-08-31 20:31:39,540.2735858690121,2,3,0.5501165986061096,3.774379253387451,2.232220091816732,2.190949093369006,8.861540109655374,8.040906758371861,6.47544875391759e-05,0.0851717442274093,0,0,0
753,25341.08441558804,2010-08-31 20:32:09,570.288800424134,2,3,0.5499359965324402,3.776645660400391,2.236806441877973,2.190949093369006,8.878856037646768,8.040906758371861,3.237724376958795e-05,0.0851717442274093,0,0,0
754,25371.102492687503,2010-08-31 20:32:39,600.3068775887597,2,3,0.5501165986061096,3.77923583984375,2.241393210878731,2.190949093369006,8.896184779629252,8.040906758371861,6.47544875391759e-05,0.0851717442274093,0,0,0
755,25401.11484718448,2010-08-31 20:33:09,630.3192320406243,2,3,0.5501165986061096,3.7816641330718994,2.245979193386868,2.190949093369006,8.913521764596151,8.040906758371861,6.47544875391759e-05,0.0851717442274093,0,0,0
756,25431.13005752911,2010-08-31 20:33:39,660.3344423652024,2,3,0.5501165986061096,3.784092426300049,2.250565576042375,2.190949093369006,8.930871509011196,8.040906758371861,6.47544875391759e-05,0.0851717442274093,0,0,0
757,25461.145470629068,2010-08-31 20:34:09,690.3498554852092,2,3,0.5501165986061096,3.7865207195281982,2.255152050530517,2.190949093369006,8.948232885273047,8.040906758371861,3.237724376958795e-05,0.0851717442274093,0,0,0
758,25491.160459155853,2010-08-31 20:34:39,720.3648439919492,2,3,0.5501165986061096,3.7891108989715576,2.259738107231246,2.190949093369006,8.965603950306368,8.040906758371861,9.713172767078504e-05,0.0851717442274093,0,0,0
759,25521.175761464685,2010-08-31 20:35:09,750.3801463108052,2,3,0.5499359965324402,3.791377305984497,2.26432365109151,2.190949093369006,8.982984477165315,8.040906758371861,3.237724376958795e-05,0.0851717442274093,0,0,0
760,25551.190872055697,2010-08-31 20:35:39,780.3952568917919,2,3,0.5499359965324402,3.7941293716430655,2.268909476841735,2.190949093369006,9.000377835356685,8.040906758371861,6.47544875391759e-05,0.0851717442274093,0,0,0
761,25581.20607014979,2010-08-31 20:36:09,810.4104549959128,2,3,0.5499359965324402,3.796719551086426,2.273495824561197,2.190949093369006,9.017785346693367,8.040906758371861,6.47544875391759e-05,0.0851717442274093,0,0,0
762,25611.22130088524,2010-08-31 20:36:39,840.4256857463987,2,3,0.5499359965324402,3.799471616744995,2.278082113300761,2.190949093369006,9.035205139754629,8.040906758371861,3.237724376958795e-05,0.0851717442274093,0,0,0
763,25641.236501104635,2010-08-31 20:37:09,870.4408859407292,2,3,0.5501165986061096,3.802547454833984,2.282668548665949,2.190949093369006,9.052638494094625,8.040906758371861,9.713172767078504e-05,0.0851717442274093,0,0,0
764,25671.251688722623,2010-08-31 20:37:39,900.4560735887904,2,3,0.5501165986061096,3.8056232929229736,2.287254910157472,2.190949093369006,9.070085103242093,8.040906758371861,6.47544875391759e-05,0.0851717442274093,0,0,0
765,25701.267155140464,2010-08-31 20:38:09,930.471540026682,2,3,0.5501165986061096,3.808699131011963,2.291841354362036,2.190949093369006,9.087546224148063,8.040906758371861,9.713172767078504e-05,0.0851717442274093,0,0,0
766,25731.2822496113,2010-08-31 20:38:39,960.4866345927544,2,3,0.5497553944587708,3.811936855316162,2.296427739621049,2.190949093369006,9.105021763739993,8.040906758371861,9.713172767078504e-05,0.0851717442274093,0,0,0
767,25761.29743697866,2010-08-31 20:39:09,990.5018218297912,2,3,0.5501165986061096,3.8153364658355713,2.301014169351666,2.190949093369006,9.122512676048098,8.040906758371861,6.47544875391759e-05,0.0851717442274093,0,0,0
768,25791.31251571027,2010-08-31 20:39:39,1020.5169005814492,2,3,0.5501165986061096,3.8185741901397705,2.305600526605281,2.190949093369006,9.140018649276742,8.040906758371861,6.47544875391759e-05,0.0851717442274093,0,0,0
769,25821.327861422276,2010-08-31 20:40:09,1050.532246288442,2,3,0.550297200679779,3.8222975730896,2.310187016482652,2.190949093369006,9.157540503666654,8.040906758371861,0.0001618862152099,0.0851717442274093,0,0,0
770,25851.34301072978,2010-08-31 20:40:39,1080.5473955859218,2,3,0.5501165986061096,3.825373411178589,2.314773397876783,2.190949093369006,9.175077083629017,8.040906758371861,9.713172767078504e-05,0.0851717442274093,0,0,0
771,25881.35828100878,2010-08-31 20:41:09,1110.5626658849749,2,3,0.5501165986061096,3.828611135482788,2.319359778720788,2.190949093369006,9.192628766155766,8.040906758371861,0.0001295089750783,0.0851717442274093,0,0,0
772,25911.37339374013,2010-08-31 20:41:39,1140.5777785862456,2,3,0.550297200679779,3.831686973571777,2.323946128944773,2.190949093369006,9.21019515234154,8.040906758371861,6.47544875391759e-05,0.0851717442274093,0,0,0
773,25941.38857446593,2010-08-31 20:42:09,1170.5929593371172,2,3,0.5501165986061096,3.8349244594573975,2.328532488452814,2.190949093369006,9.227776028553388,8.040906758371861,0.0001295089750783,0.0851717442274093,0,0,0
774,25971.40378966767,2010-08-31 20:42:39,1200.6081745037632,2,3,0.5499359965324402,3.8380002975463863,2.333118840557779,2.190949093369006,9.245371127597656,8.040906758371861,6.47544875391759e-05,0.0851717442274093,0,0,0
775,26001.419098332342,2010-08-31 20:43:09,1230.6234831884854,2,3,0.550297200679779,3.841076135635376,2.337705157380692,2.190949093369006,9.262980089639743,8.040906758371861,0.0001295089750783,0.0851717442274093,0,0,0
776,26031.434103275045,2010-08-31 20:43:39,1260.638488146226,2,3,0.550297200679779,3.8439900875091553,2.342291557462778,2.190949093369006,9.280603251769808,8.040906758371861,9.713172767078504e-05,0.0851717442274093,0,0,0
777,26061.44939714284,2010-08-31 20:44:09,1290.6537819939697,2,3,0.5501165986061096,3.846904039382935,2.346878936533178,2.190949093369006,9.298243900715564,8.040906758371861,6.47544875391759e-05,0.0851717442274093,0,0,0
778,26091.464554350037,2010-08-31 20:44:39,1320.6689392262251,2,3,0.550297200679779,3.849979877471924,2.351466198907555,2.190949093369006,9.315897455234524,8.040906758371861,6.47544875391759e-05,0.0851717442274093,0,0,0
779,26121.479953665632,2010-08-31 20:45:10,1350.6843385368147,2,3,0.5501165986061096,3.852731943130493,2.356052591344097,2.190949093369006,9.33356068696135,8.040906758371861,9.713172767078504e-05,0.0851717442274093,0,0,0
780,26151.49529804432,2010-08-31 20:45:40,1380.6996829004595,2,3,0.5501165986061096,3.855322122573853,2.360639110407969,2.190949093369006,9.351236941762377,8.040906758371861,6.47544875391759e-05,0.0851717442274093,0,0,0
781,26181.51036750281,2010-08-31 20:46:10,1410.7147523539436,2,3,0.5501165986061096,3.857912302017212,2.365225635464181,2.190949093369006,9.36892533961428,8.040906758371861,6.47544875391759e-05,0.0851717442274093,0,0,0
782,26211.5254646002,2010-08-31 20:46:40,1440.7298494463123,2,3,0.550297200679779,3.860340595245361,2.369812012452058,2.190949093369006,9.386624500218725,8.040906758371861,6.47544875391759e-05,0.0851717442274093,0,0,0
783,26241.54064950141,2010-08-31 20:47:10,1470.7450344026652,2,3,0.5501165986061096,3.862445116043091,2.374398373326115,2.190949093369006,9.404334270570706,8.040906758371861,6.47544875391759e-05,0.0851717442274093,0,0,0
784,26271.55583670336,2010-08-31 20:47:40,1500.7602215494771,2,3,0.5501165986061096,3.86454963684082,2.378984661008564,2.190949093369006,9.42205364109338,8.040906758371861,6.47544875391759e-05,0.0851717442274093,0,0,0
785,26301.571026857662,2010-08-31 20:48:10,1530.7754117288473,2,3,0.5501165986061096,3.86665415763855,2.383570865723121,2.190949093369006,9.4397818334428,8.040906758371861,0.0001295089750783,0.0851717442274093,0,0,0
786,26331.58645392744,2010-08-31 20:48:40,1560.7908387635337,2,3,0.5501165986061096,3.8682730197906494,2.388157095230614,2.190949093369006,9.457518523933787,8.040906758371861,6.47544875391759e-05,0.0851717442274093,0,0,0
787,26361.601584618547,2010-08-31 20:49:10,1590.8059694746908,2,3,0.5501165986061096,3.869891881942749,2.392743493348872,2.190949093369006,9.475263517363157,8.040906758371861,6.47544875391759e-05,0.0851717442274093,0,0,0
788,26391.61667674855,2010-08-31 20:49:40,1620.8210615996793,2,3,0.5501165986061096,3.8711869716644287,2.397329929380534,2.190949093369006,9.49301561092066,8.040906758371861,0.0,0.0851717442274093,0,0,0
789,26421.63211674053,2010-08-31 20:50:10,1650.8365016016842,2,3,0.5499359965324402,3.8726439476013184,2.401916361654302,2.190949093369006,9.51077400672544,8.040906758371861,3.237724376958795e-05,0.0851717442274093,0,0,0
790,26451.64708485645,2010-08-31 20:50:40,1680.8514697326411,2,3,0.5501165986061096,3.873777151107788,2.406502757945139,2.190949093369006,9.52853806563258,8.040906758371861,0.0,0.0851717442274093,0,0,0
791,26481.662354383578,2010-08-31 20:51:10,1710.866739234708,2,3,0.5501165986061096,3.874910354614258,2.411089296783555,2.190949093369006,9.546307861571515,8.040906758371861,6.47544875391759e-05,0.0851717442274093,0,0,0
792,26511.67753897903,2010-08-31 20:51:40,1740.8819238301614,2,3,0.5499359965324402,3.876043558120728,2.41567573002935,2.190949093369006,9.564082290963428,8.040906758371861,3.237724376958795e-05,0.0851717442274093,0,0,0
793,26541.692755268472,2010-08-31 20:52:10,1770.8971401246183,2,3,0.5501165986061096,3.8770148754119873,2.420262225720095,2.190949093369006,9.581861718738368,8.040906758371861,3.237724376958795e-05,0.0851717442274093,0,0,0
794,26571.708100970456,2010-08-31 20:52:40,1800.9124858215862,2,3,0.5499359965324402,3.877824306488037,2.424848766290718,2.190949093369006,9.599645896829056,8.040906758371861,0.0,0.0851717442274093,0,0,0
795,26601.723133973093,2010-08-31 20:53:10,1830.927518829236,2,3,0.5501165986061096,3.878795623779297,2.429435262583238,2.190949093369006,9.617434350524077,8.040906758371861,-3.237724376958795e-05,0.0851717442274093,0,0,0
796,26631.738365305027,2010-08-31 20:53:40,1860.9427501762084,2,3,0.5499359965324402,3.8797669410705566,2.434021872701833,2.190949093369006,9.635227455045188,8.040906758371861,-3.237724376958795e-05,0.0851717442274093,0,0,0
797,26661.7535804416,2010-08-31 20:54:10,1890.95796531278,2,3,0.5499359965324402,3.880738258361816,2.438608422933005,2.190949093369006,9.653024558140237,8.040906758371861,0.0,0.0851717442274093,0,0,0
798,26691.768821021586,2010-08-31 20:54:40,1920.973205892764,2,3,0.5499359965324402,3.881709575653076,2.443194992890554,2.190949093369006,9.670825911072344,8.040906758371861,3.237724376958795e-05,0.0851717442274093,0,0,0
799,26721.784013266097,2010-08-31 20:55:10,1950.9883981172304,2,3,0.5501165986061096,3.882519006729126,2.447781566208846,2.190949093369006,9.688631370678952,8.040906758371861,0.0,0.0851717442274093,0,0,0
800,26751.79923141517,2010-08-31 20:55:40,1981.0036162713225,2,3,0.5499359965324402,3.883328437805176,2.452368121260024,2.190949093369006,9.706440924888188,8.040906758371861,3.237724376958795e-05,0.0851717442274093,0,0,0
801,26781.81458986894,2010-08-31 20:56:10,2011.018974725084,2,3,0.5501165986061096,3.884299755096436,2.456954802672767,2.190949093369006,9.724255065426672,8.040906758371861,3.237724376958795e-05,0.0851717442274093,0,0,0
802,26811.829660415147,2010-08-31 20:56:40,2041.0340452612663,2,3,0.5501165986061096,3.885109186172485,2.46154147440266,2.190949093369006,9.74207307960706,8.040906758371861,0.0,0.0851717442274093,0,0,0
803,26841.84498998192,2010-08-31 20:57:10,2071.049374858108,2,3,0.5501165986061096,3.886080503463745,2.46612809169647,2.190949093369006,9.759894999802844,8.040906758371861,3.237724376958795e-05,0.0851717442274093,0,0,0
804,26871.860114888605,2010-08-31 20:57:40,2101.0644997347235,2,3,0.5501165986061096,3.886889934539795,2.470714718533331,2.190949093369006,9.777721111366333,8.040906758371861,3.237724376958795e-05,0.0851717442274093,0,0,0
805,26901.87534217546,2010-08-31 20:58:10,2131.079727046639,2,3,0.5501165986061096,3.8880231380462646,2.475301339821565,2.190949093369006,9.795551233058928,8.040906758371861,6.47544875391759e-05,0.0851717442274093,0,0,0
806,26931.890525557887,2010-08-31 20:58:40,2161.094910409019,2,3,0.5501165986061096,3.8888325691223145,2.479887938269839,2.190949093369006,9.813385453251536,8.040906758371861,3.237724376958795e-05,0.0851717442274093,0,0,0
807,26961.90584427762,2010-08-31 20:59:10,2191.1102291337643,2,3,0.5499359965324402,3.889642000198364,2.484474621866415,2.190949093369006,9.831224236925868,8.040906758371861,0.0,0.0851717442274093,0,0,0
808,26991.920941104327,2010-08-31 20:59:40,2221.125325960471,2,3,0.550297200679779,3.890613317489624,2.48906130961934,2.190949093369006,9.84906712487413,8.040906758371861,3.237724376958795e-05,0.0851717442274093,0,0,0
809,27021.936159408797,2010-08-31 21:00:10,2251.140544254912,2,3,0.5501165986061096,3.891422748565674,2.493647980614306,2.190949093369006,9.866914222083134,8.040906758371861,0.0,0.0851717442274093,0,0,0
810,27051.95140865538,2010-08-31 21:00:40,2281.155793506509,2,3,0.5501165986061096,3.8923940658569336,2.498234605498003,2.190949093369006,9.884765386761591,8.040906758371861,0.0,0.0851717442274093,0,0,0
811,27081.96659554154,2010-08-31 21:01:10,2311.1709803876583,2,3,0.5501165986061096,3.8935272693634033,2.502821261277856,2.190949093369006,9.902621050456045,8.040906758371861,6.47544875391759e-05,0.0851717442274093,0,0,0
812,27111.98188342943,2010-08-31 21:01:40,2341.1862683306854,2,3,0.5501165986061096,3.894336700439453,2.50740796473512,2.190949093369006,9.920481301075435,8.040906758371861,3.237724376958795e-05,0.0851717442274093,0,0,0
813,27141.997139858915,2010-08-31 21:02:10,2371.201524715059,2,3,0.550297200679779,3.895469903945923,2.51199471132831,2.190949093369006,9.938345773368669,8.040906758371861,9.713172767078504e-05,0.0851717442274093,0,0,0
814,27172.012238159296,2010-08-31 21:02:40,2401.2166230054136,2,3,0.5499359965324402,3.8962793350219727,2.516581313002698,2.190949093369006,9.956214153535315,8.040906758371861,0.0,0.0851717442274093,0,0,0
815,27202.027562843898,2010-08-31 21:03:10,2431.231947690012,2,3,0.550297200679779,3.8974125385284415,2.521167937698127,2.190949093369006,9.974087272076298,8.040906758371861,9.713172767078504e-05,0.0851717442274093,0,0,0
816,27232.042653009,2010-08-31 21:03:40,2461.247037855116,2,3,0.5501165986061096,3.898221969604492,2.525754614641537,2.190949093369006,9.991965190537249,8.040906758371861,0.0,0.0851717442274093,0,0,0
817,27262.05799671099,2010-08-31 21:04:10,2491.262381582174,2,3,0.5501165986061096,3.899517059326172,2.530341251892153,2.190949093369006,10.00984765489506,8.040906758371861,6.47544875391759e-05,0.0851717442274093,0,0,0
818,27292.074058247053,2010-08-31 21:04:40,2521.278443088158,2,3,0.5501165986061096,3.9003264904022217,2.534928049463397,2.190949093369006,10.027735501703656,8.040906758371861,3.237724376958795e-05,0.0851717442274093,0,0,0
819,27322.08838293435,2010-08-31 21:05:10,2551.292767785481,2,3,0.550297200679779,3.9014596939086914,2.539514493631967,2.190949093369006,10.045626771206107,8.040906758371861,3.237724376958795e-05,0.0851717442274093,0,0,0
820,27352.103527785748,2010-08-31 21:05:40,2581.307912631867,2,3,0.5501165986061096,3.902592897415161,2.5441010725455,2.190949093369006,10.063523537129331,8.040906758371861,3.237724376958795e-05,0.0851717442274093,0,0,0
821,27382.1188687008,2010-08-31 21:06:10,2611.323253576992,2,3,0.5501165986061096,3.903564214706421,2.548687735879553,2.190949093369006,10.081425561009748,8.040906758371861,3.237724376958795e-05,0.0851717442274093,0,0,0
822,27412.13397577304,2010-08-31 21:06:40,2641.338360624171,2,3,0.5501165986061096,3.90469741821289,2.553274290356632,2.190949093369006,10.099332231902606,8.040906758371861,6.47544875391759e-05,0.0851717442274093,0,0,0
823,27442.149172443587,2010-08-31 21:07:10,2671.353557294719,2,3,0.5499359965324402,3.9056687355041504,2.557860903244308,2.190949093369006,10.11724413602158,8.040906758371861,0.0,0.0851717442274093,0,0,0
824,27472.164389018744,2010-08-31 21:07:40,2701.3687738648628,2,3,0.550297200679779,3.90728759765625,2.56244753019252,2.190949093369006,10.135161353470274,8.040906758371861,6.47544875391759e-05,0.0851717442274093,0,0,0
825,27502.17960968409,2010-08-31 21:08:10,2731.3839945302134,2,3,0.5501165986061096,3.9080970287323,2.567034112796217,2.190949093369006,10.15308365904036,8.040906758371861,0.0,0.0851717442274093,0,0,0
826,27532.19486561233,2010-08-31 21:08:40,2761.3992504785,2,3,0.550297200679779,3.90939211845398,2.571620690898929,2.190949093369006,10.171011284131826,8.040906758371861,6.47544875391759e-05,0.0851717442274093,0,0,0
827,27562.210041075024,2010-08-31 21:09:10,2791.414425921142,2,3,0.5501165986061096,3.910525321960449,2.57620732975876,2.190949093369006,10.188944638327635,8.040906758371861,3.237724376958795e-05,0.0851717442274093,0,0,0
828,27592.22525627676,2010-08-31 21:09:40,2821.429641122875,2,3,0.550297200679779,3.911820411682129,2.580793964279569,2.190949093369006,10.206883420322344,8.040906758371861,6.47544875391759e-05,0.0851717442274093,0,0,0
829,27622.240598209344,2010-08-31 21:10:10,2851.444983060473,2,3,0.5501165986061096,3.912953615188599,2.585380546109631,2.190949093369006,10.224827616341804,8.040906758371861,3.237724376958795e-05,0.0851717442274093,0,0,0
830,27652.255722484457,2010-08-31 21:10:40,2881.4601073355902,2,3,0.5501165986061096,3.914248466491699,2.589967143291962,2.190949093369006,10.242777516743269,8.040906758371861,6.47544875391759e-05,0.0851717442274093,0,0,0
831,27682.27104621167,2010-08-31 21:11:10,2911.4754310577905,2,3,0.5501165986061096,3.915543556213379,2.594553806283833,2.190949093369006,10.260733502576644,8.040906758371861,6.47544875391759e-05,0.0851717442274093,0,0,0
832,27712.286133665017,2010-08-31 21:11:40,2941.490518516148,2,3,0.5501165986061096,3.9166767597198486,2.599140421903686,2.190949093369006,10.27869491118857,8.040906758371861,-3.237724376958795e-05,0.0851717442274093,0,0,0
833,27742.301362781436,2010-08-31 21:12:10,2971.5057476526117,2,3,0.5501165986061096,3.917971849441528,2.603727000477237,2.190949093369006,10.29666218024668,8.040906758371861,6.47544875391759e-05,0.0851717442274093,0,0,0
834,27772.316575837816,2010-08-31 21:12:40,3001.520960708998,2,3,0.5501165986061096,3.919428825378418,2.608313687441624,2.190949093369006,10.314635834065966,8.040906758371861,6.47544875391759e-05,0.0851717442274093,0,0,0
835,27802.331914276696,2010-08-31 21:13:10,3031.5362991278266,2,3,0.5501165986061096,3.920562028884888,2.612900342324009,2.190949093369006,10.332615471761246,8.040906758371861,-3.237724376958795e-05,0.0851717442274093,0,0,0
836,27832.347014672298,2010-08-31 21:13:40,3061.551399523428,2,3,0.5501165986061096,3.9221808910369873,2.617486977138437,2.190949093369006,10.35060108674266,8.040906758371861,6.47544875391759e-05,0.0851717442274093,0,0,0
837,27862.36235977277,2010-08-31 21:14:10,3091.566744648971,2,3,0.5499359965324402,3.923314094543457,2.622073627270731,2.190949093369006,10.36859303695574,8.040906758371861,3.237724376958795e-05,0.0851717442274093,0,0,0
838,27892.37748250906,2010-08-31 21:14:40,3121.5818673601902,2,3,0.550297200679779,3.9249329566955566,2.62666028498504,2.190949093369006,10.38659130467706,8.040906758371861,6.47544875391759e-05,0.0851717442274093,0,0,0
839,27922.392935418236,2010-08-31 21:15:10,3151.597320274376,2,3,0.5501165986061096,3.9260661602020255,2.631247014676247,2.190949093369006,10.40459624021464,8.040906758371861,3.237724376958795e-05,0.0851717442274093,0,0,0
840,27952.40789254176,2010-08-31 21:15:40,3181.612277412937,2,3,0.550297200679779,3.927523136138916,2.635833610151542,2.190949093369006,10.422606993478029,8.040906758371861,3.237724376958795e-05,0.0851717442274093,0,0,0
841,27982.423127968897,2010-08-31 21:16:10,3211.627512815016,2,3,0.5501165986061096,3.928818225860596,2.640420223163519,2.190949093369006,10.44062435470808,8.040906758371861,3.237724376958795e-05,0.0851717442274093,0,0,0
842,28012.438328864977,2010-08-31 21:16:40,3241.642713711095,2,3,0.5501165986061096,3.9304370880126953,2.64500684855646,2.190949093369006,10.458648370262733,8.040906758371861,6.47544875391759e-05,0.0851717442274093,0,0,0
843,28042.453529169583,2010-08-31 21:17:11,3271.657914020713,2,3,0.5499359965324402,3.931894063949585,2.649593455773599,2.190949093369006,10.476678962768288,8.040906758371861,3.237724376958795e-05,0.0851717442274093,0,0,0
844,28072.469019637363,2010-08-31 21:17:41,3301.673404493507,2,3,0.550297200679779,3.933512926101685,2.654180090323731,2.190949093369006,10.494716365027257,8.040906758371861,6.47544875391759e-05,0.0851717442274093,0,0,0
845,28102.484095206088,2010-08-31 21:18:11,3331.6884800572197,2,3,0.5501165986061096,3.934808015823364,2.658766713328588,2.190949093369006,10.512760558288695,8.040906758371861,3.237724376958795e-05,0.0851717442274093,0,0,0
846,28132.499205731936,2010-08-31 21:18:41,3361.703590583069,2,3,0.5501165986061096,3.936264991760254,2.663353366999756,2.190949093369006,10.530811800588213,8.040906758371861,3.237724376958795e-05,0.0851717442274093,0,0,0
847,28162.51443034713,2010-08-31 21:19:11,3391.718815218313,2,3,0.5501165986061096,3.938045740127564,2.667939980828217,2.190949093369006,10.548869725313258,8.040906758371861,3.237724376958795e-05,0.0851717442274093,0,0,0
848,28192.529625639247,2010-08-31 21:19:41,3421.7340105104254,2,3,0.550297200679779,3.939502716064453,2.672526574452479,2.190949093369006,10.566934714262407,8.040906758371861,6.47544875391759e-05,0.0851717442274093,0,0,0
849,28222.54484488105,2010-08-31 21:20:11,3451.7492297321787,2,3,0.5501165986061096,3.940959692001343,2.67711322403883,2.190949093369006,10.585007121699578,8.040906758371861,3.237724376958795e-05,0.0851717442274093,0,0,0
850,28252.56027777534,2010-08-31 21:20:41,3481.764662651532,2,3,0.5499359965324402,3.9425785541534415,2.681699915135055,2.190949093369006,10.60308682457651,8.040906758371861,0.0,0.0851717442274093,0,0,0
851,28282.575290728004,2010-08-31 21:21:11,3511.779675604198,2,3,0.5501165986061096,3.944197416305542,2.686286545099812,2.190949093369006,10.62117360105388,8.040906758371861,6.47544875391759e-05,0.0851717442274093,0,0,0
852,28312.59050080196,2010-08-31 21:21:41,3541.794885648077,2,3,0.5501165986061096,3.9458162784576416,2.690873212210651,2.190949093369006,10.639267913454438,8.040906758371861,3.237724376958795e-05,0.0851717442274093,0,0,0
853,28342.60596607695,2010-08-31 21:22:11,3571.810350933095,2,3,0.550297200679779,3.947435140609741,2.695459976141458,2.190949093369006,10.657370020361556,8.040906758371861,6.47544875391759e-05,0.0851717442274093,0,0,0
854,28372.62095988691,2010-08-31 21:22:41,3601.825344743052,2,3,0.5499359965324402,3.949054002761841,2.700046603580152,2.190949093369006,10.675479167681946,8.040906758371861,3.237724376958795e-05,0.0851717442274093,0,0,0
855,28402.636279804625,2010-08-31 21:23:11,3631.8406646507447,2,3,0.550297200679779,3.9508347511291504,2.704633231799544,2.190949093369006,10.693595912667751,8.040906758371861,6.47544875391759e-05,0.0851717442274093,0,0,0
856,28432.651366486047,2010-08-31 21:23:41,3661.8557513371793,2,3,0.5501165986061096,3.95229172706604,2.709219836913398,2.190949093369006,10.711720323767889,8.040906758371861,3.237724376958795e-05,0.0851717442274093,0,0,0
857,28462.666590945853,2010-08-31 21:24:11,3691.870975791975,2,3,0.5501165986061096,3.95423436164856,2.71380650857872,2.190949093369006,10.729852900802962,8.040906758371861,6.47544875391759e-05,0.0851717442274093,0,0,0
858,28492.68181621769,2010-08-31 21:24:41,3721.8862010688176,2,3,0.5499359965324402,3.955853223800659,2.718393074220402,2.190949093369006,10.747992958367169,8.040906758371861,3.237724376958795e-05,0.0851717442274093,0,0,0
859,28522.697043735112,2010-08-31 21:25:11,3751.9014285812336,2,3,0.5499359965324402,3.9576339721679688,2.722979721208657,2.190949093369006,10.76614133300248,8.040906758371861,6.47544875391759e-05,0.0851717442274093,0,0,0
860,28552.71224661113,2010-08-31 21:25:41,3781.916631457247,2,3,0.5499359965324402,3.9594147205352783,2.727566361213355,2.190949093369006,10.784297888676669,8.040906758371861,3.237724376958795e-05,0.0851717442274093,0,0,0
861,28582.727618127446,2010-08-31 21:26:11,3811.932002998627,2,3,0.5501165986061096,3.961357355117798,2.732153056269732,2.190949093369006,10.802462946214446,8.040906758371861,6.47544875391759e-05,0.0851717442274093,0,0,0
862,28612.742707435413,2010-08-31 21:26:41,3841.947092321632,2,3,0.550297200679779,3.9631381034851074,2.736739740161496,2.190949093369006,10.820636398613084,8.040906758371861,6.47544875391759e-05,0.0851717442274093,0,0,0
863,28642.75802719273,2010-08-31 21:27:11,3871.962412048875,2,3,0.5501165986061096,3.964918851852417,2.741326369551839,2.190949093369006,10.838818148585329,8.040906758371861,3.237724376958795e-05,0.0851717442274093,0,0,0
864,28672.77315334753,2010-08-31 21:27:41,3901.9775382187145,2,3,0.550297200679779,3.9670233726501465,2.745913075229199,2.190949093369006,10.857008908634493,8.040906758371861,6.47544875391759e-05,0.0851717442274093,0,0,0
865,28702.7884762928,2010-08-31 21:28:11,3931.992861148941,2,3,0.550297200679779,3.968966007232666,2.750499761084441,2.190949093369006,10.875208209774598,8.040906758371861,6.47544875391759e-05,0.0851717442274093,0,0,0
866,28732.80358069338,2010-08-31 21:28:41,3962.007965579598,2,3,0.5499359965324402,3.970746755599976,2.755086412947324,2.190949093369006,10.893416285150565,8.040906758371861,6.47544875391759e-05,0.0851717442274093,0,0,0
867,28762.81895388387,2010-08-31 21:29:11,3992.0233387450257,2,3,0.5501165986061096,3.972527503967285,2.759673127105462,2.190949093369006,10.911633575951434,8.040906758371861,3.237724376958795e-05,0.0851717442274093,0,0,0
868,28792.83403280094,2010-08-31 21:29:41,4022.038417672122,2,3,0.550297200679779,3.9749557971954346,2.764259809621403,2.190949093369006,10.929859765766738,8.040906758371861,0.0001295089750783,0.0851717442274093,0,0,0
869,28822.84933846313,2010-08-31 21:30:11,4052.0537233192726,2,3,0.5501165986061096,3.976574659347534,2.768846513545324,2.190949093369006,10.948095130063948,8.040906758371861,0.0,0.0851717442274093,0,0,0
870,28852.86449245732,2010-08-31 21:30:41,4082.0688773034326,2,3,0.550297200679779,3.978679180145264,2.773433220609624,2.190949093369006,10.966339297236534,8.040906758371861,3.237724376958795e-05,0.0851717442274093,0,0,0
871,28882.87966130352,2010-08-31 21:31:11,4112.084046149635,2,3,0.5501165986061096,3.980783700942993,2.77801985019772,2.190949093369006,10.984592749461806,8.040906758371861,3.237724376958795e-05,0.0851717442274093,0,0,0
872,28912.894992208618,2010-08-31 21:31:41,4142.099377064761,2,3,0.5501165986061096,3.9827263355255127,2.782606541296666,2.190949093369006,11.002855739673606,8.040906758371861,3.237724376958795e-05,0.0851717442274093,0,0,0
873,28942.91007977725,2010-08-31 21:32:11,4172.114464623369,2,3,0.5501165986061096,3.984830856323242,2.787193209019757,2.190949093369006,11.021127814757644,8.040906758371861,3.237724376958795e-05,0.0851717442274093,0,0,0
874,28972.92534448737,2010-08-31 21:32:41,4202.129729333493,2,3,0.5499359965324402,3.986611604690552,2.791779793312327,2.190949093369006,11.039408871526945,8.040906758371861,3.237724376958795e-05,0.0851717442274093,0,0,0
875,29002.940544130328,2010-08-31 21:33:11,4232.144929001511,2,3,0.5501165986061096,3.988716125488281,2.796366460358798,2.190949093369006,11.057699558461117,8.040906758371861,3.237724376958795e-05,0.0851717442274093,0,0,0
876,29032.955745642947,2010-08-31 21:33:41,4262.160130494078,2,3,0.5499359965324402,3.990658760070801,2.800953013207741,2.190949093369006,11.075999059556311,8.040906758371861,3.237724376958795e-05,0.0851717442274093,0,0,0
877,29062.970964458684,2010-08-31 21:34:11,4292.175349309818,2,3,0.5499359965324402,3.99292516708374,2.805539575281096,2.190949093369006,11.094308010196658,8.040906758371861,6.47544875391759e-05,0.0851717442274093,0,0,0
878,29092.98619244228,2010-08-31 21:34:41,4322.190577293408,2,3,0.5499359965324402,3.9948675632476807,2.810126151814195,2.190949093369006,11.11262642469077,8.040906758371861,3.237724376958795e-05,0.0851717442274093,0,0,0
879,29123.001392656657,2010-08-31 21:35:11,4352.205777502776,2,3,0.5501165986061096,3.99713397026062,2.814712832708482,2.190949093369006,11.130954824380929,8.040906758371861,9.713172767078504e-05,0.0851717442274093,0,0,0
880,29153.016611978663,2010-08-31 21:35:41,4382.220996824779,2,3,0.5499359965324402,3.9989147186279297,2.819299471828176,2.190949093369006,11.1492925448477,8.040906758371861,0.0,0.0851717442274093,0,0,0
881,29183.031957314728,2010-08-31 21:36:11,4412.236342170872,2,3,0.5501165986061096,4.001343250274658,2.823886062266154,2.190949093369006,11.16763971929535,8.040906758371861,9.71794142969884e-05,0.0851717442274093,0,0,0
882,29213.047824075347,2010-08-31 21:36:41,4442.252208926479,2,3,0.5501165986061096,4.003285884857178,2.828472745147101,2.190949093369006,11.185997052265774,8.040906758371861,3.24249267578125e-05,0.0851717442274093,0,0,0
883,29243.04945826903,2010-08-31 21:37:11,4472.253843115148,2,3,0.550297200679779,4.005552291870117,2.833057275467606,2.190949093369006,11.204355553476114,8.040906758371861,6.47544875391759e-05,0.0851717442274093,0,0,0
884,29273.06201571181,2010-08-31 21:37:41,4502.266400567954,2,3,0.5501165986061096,4.007656574249268,2.837643584401611,2.190949093369006,11.222731135099508,8.040906758371861,6.47544875391759e-05,0.0851717442274093,0,0,0
885,29303.07708637832,2010-08-31 21:38:11,4532.281471224436,2,3,0.550297200679779,4.010085105895996,2.842230233310845,2.190949093369006,11.24111804621768,8.040906758371861,9.71794142969884e-05,0.0851717442274093,0,0,0
886,29333.09255494652,2010-08-31 21:38:41,4562.296939802663,2,3,0.5497553944587708,4.012027740478516,2.84681689793604,2.190949093369006,11.259515124219527,8.040906758371861,6.47544875391759e-05,0.0851717442274093,0,0,0
887,29363.107561408007,2010-08-31 21:39:11,4592.311946269163,2,3,0.550297200679779,4.014455795288086,2.851403506735283,2.190949093369006,11.277922221989598,8.040906758371861,9.70840483205393e-05,0.0851717442274093,0,0,0
888,29393.122764619857,2010-08-31 21:39:41,4622.327149501064,2,3,0.5501165986061096,4.0165605545043945,2.855990088024374,2.190949093369006,11.296339528758358,8.040906758371861,3.24249267578125e-05,0.0851717442274093,0,0,0
889,29423.13797635796,2010-08-31 21:40:11,4652.342361204078,2,3,0.550297200679779,4.018988609313965,2.86057676525015,2.190949093369006,11.314767686907157,8.040906758371861,6.47544875391759e-05,0.0851717442274093,0,0,0
890,29453.153224797537,2010-08-31 21:40:41,4682.357609648662,2,3,0.550297200679779,4.021417140960693,2.865163428253271,2.190949093369006,11.333206233671508,8.040906758371861,9.71794142969884e-05,0.0851717442274093,0,0,0
891,29483.168471367444,2010-08-31 21:41:11,4712.372856323838,2,3,0.550297200679779,4.023683547973633,2.869750104010888,2.190949093369006,11.351655543200026,8.040906758371861,9.71794142969884e-05,0.0851717442274093,0,0,0
892,29513.18362429898,2010-08-31 21:41:41,4742.388009150113,2,3,0.5501165986061096,4.025787830352783,2.874336698834672,2.190949093369006,11.37011529555968,8.040906758371861,3.23295607813634e-05,0.0851717442274093,0,0,0
893,29543.19884265859,2010-08-31 21:42:11,4772.403227509716,2,3,0.5501165986061096,4.028378009796143,2.878923371431537,2.190949093369006,11.388586238943295,8.040906758371861,9.70840483205393e-05,0.0851717442274093,0,0,0
894,29573.214081955368,2010-08-31 21:42:41,4802.4184668265525,2,3,0.5501165986061096,4.030968189239502,2.8835100102613618,2.190949093369006,11.407067979963198,8.040906758371861,9.70840483205393e-05,0.0851717442274093,0,0,0
895,29603.229292425312,2010-08-31 21:43:11,4832.433677276443,2,3,0.5501165986061096,4.0330729484558105,2.888096676532113,2.190949093369006,11.425560916135346,8.040906758371861,6.47544875391759e-05,0.0851717442274093,0,0,0
896,29633.24449740156,2010-08-31 21:43:41,4862.448882252691,2,3,0.550297200679779,4.035662651062012,2.892683296786606,2.190949093369006,11.4440648432353,8.040906758371861,6.47544875391759e-05,0.0851717442274093,0,0,0
897,29663.25971514964,2010-08-31 21:44:11,4892.4641000007705,2,3,0.550297200679779,4.03809118270874,2.897269931129806,2.190949093369006,11.462580138614085,8.040906758371861,3.24249267578125e-05,0.0851717442274093,0,0,0
898,29693.27505630529,2010-08-31 21:44:41,4922.4794411514085,2,3,0.5501165986061096,4.040519237518311,2.901856622761791,2.190949093369006,11.48110707525228,8.040906758371861,6.47544875391759e-05,0.0851717442274093,0,0,0
899,29723.290254023446,2010-08-31 21:45:11,4952.494638899642,2,3,0.5501165986061096,4.04310941696167,2.906443262774973,2.190949093369006,11.499645296637686,8.040906758371861,6.47544875391759e-05,0.0851717442274093,0,0,0
900,29753.305623524742,2010-08-31 21:45:41,4982.510008426,2,3,0.5501165986061096,4.045699596405029,2.911029974235456,2.190949093369006,11.51819547244044,8.040906758371861,9.70840483205393e-05,0.0851717442274093,0,0,0
901,29783.32064117412,2010-08-31 21:46:11,5012.525026045298,2,3,0.5501165986061096,4.048451900482178,2.915616620620874,2.190949093369006,11.536757092285027,8.040906758371861,9.71794142969884e-05,0.0851717442274093,0,0,0
902,29813.33597089627,2010-08-31 21:46:41,5042.540355782488,2,3,0.5499359965324402,4.050556182861328,2.920203313976459,2.190949093369006,11.555330787956333,8.040906758371861,6.47544875391759e-05,0.0851717442274093,0,0,0
903,29843.351052926097,2010-08-31 21:47:11,5072.555437782242,2,3,0.5501165986061096,4.053470134735107,2.924789973078984,2.190949093369006,11.57391625601683,8.040906758371861,6.47544875391759e-05,0.0851717442274093,0,0,0
904,29873.36638159061,2010-08-31 21:47:41,5102.570766436735,2,3,0.550297200679779,4.056060314178467,2.929376704769239,2.190949093369006,11.592514126203891,8.040906758371861,6.47544875391759e-05,0.0851717442274093,0,0,0
905,29903.381472522637,2010-08-31 21:48:11,5132.585857368749,2,3,0.5501165986061096,4.058650493621826,2.933963446061418,2.190949093369006,11.611124234395136,8.040906758371861,6.47544875391759e-05,0.0851717442274093,0,0,0
906,29933.39682053036,2010-08-31 21:48:41,5162.601205381489,2,3,0.5501165986061096,4.0612406730651855,2.938550259169061,2.190949093369006,11.629746754952995,8.040906758371861,9.70840483205393e-05,0.0851717442274093,0,0,0
907,29963.411932885767,2010-08-31 21:49:11,5192.616317756948,2,3,0.5501165986061096,4.064154624938965,2.943136846549845,2.190949093369006,11.648380582694704,8.040906758371861,6.47544875391759e-05,0.0851717442274093,0,0,0
908,29993.427277078987,2010-08-31 21:49:42,5222.631661955181,2,3,0.550297200679779,4.066744804382324,2.947723480013754,2.190949093369006,11.667027100034622,8.040906758371861,3.23295607813634e-05,0.0851717442274093,0,0,0
909,30023.44262532732,2010-08-31 21:50:12,5252.647010178445,2,3,0.5501165986061096,4.069497108459473,2.952310148603073,2.190949093369006,11.68568637246096,8.040906758371861,6.47544875391759e-05,0.0851717442274093,0,0,0
910,30053.45782961184,2010-08-31 21:50:42,5282.662214457957,2,3,0.5499359965324402,4.072248935699463,2.95689688388291,2.190949093369006,11.704358625173723,8.040906758371861,3.23295607813634e-05,0.0851717442274093,0,0,0
911,30083.47281313616,2010-08-31 21:51:12,5312.677197982279,2,3,0.5501165986061096,4.075001239776611,2.96148350326101,2.190949093369006,11.723043208258346,8.040906758371861,6.47544875391759e-05,0.0851717442274093,0,0,0
912,30113.48817861744,2010-08-31 21:51:42,5342.692563463555,2,3,0.5499359965324402,4.077915191650391,2.966070260082713,2.190949093369006,11.74174130583808,8.040906758371861,9.71794142969884e-05,0.0851717442274093,0,0,0
913,30143.503236847948,2010-08-31 21:52:12,5372.707621699081,2,3,0.5501165986061096,4.08082914352417,2.970656951405609,2.190949093369006,11.760452203420073,8.040906758371861,9.71794142969884e-05,0.0851717442274093,0,0,0
914,30173.51845976391,2010-08-31 21:52:42,5402.722844610028,2,3,0.5501165986061096,4.083743095397949,2.975243631722251,2.190949093369006,11.779176157785848,8.040906758371861,6.47544875391759e-05,0.0851717442274093,0,0,0
915,30203.53394329941,2010-08-31 21:53:12,5432.7383282006695,2,3,0.550297200679779,4.0866570472717285,2.979830339759798,2.190949093369006,11.797913560416632,8.040906758371861,9.71794142969884e-05,0.0851717442274093,0,0,0
916,30233.548908884022,2010-08-31 21:53:42,5462.753293730142,2,3,0.5499359965324402,4.089570999145508,2.984416955687628,2.190949093369006,11.816663988919933,8.040906758371861,6.47544875391759e-05,0.0851717442274093,0,0,0
917,30263.56413070225,2010-08-31 21:54:12,5492.768515548367,2,3,0.5501165986061096,4.092484951019287,2.989003626182453,2.190949093369006,11.835428193969332,8.040906758371861,6.47544875391759e-05,0.0851717442274093,0,0,0
918,30293.57948799311,2010-08-31 21:54:42,5522.783872849255,2,3,0.550297200679779,4.095398902893066,2.993590250186318,2.190949093369006,11.854205821578889,8.040906758371861,6.47544875391759e-05,0.0851717442274093,0,0,0
919,30323.59458861929,2010-08-31 21:55:12,5552.798973465407,2,3,0.5501165986061096,4.098474502563477,2.998176938645197,2.190949093369006,11.87299752824786,8.040906758371861,6.47544875391759e-05,0.0851717442274093,0,0,0
920,30353.60978693393,2010-08-31 21:55:42,5582.814171780052,2,3,0.550297200679779,4.101712226867676,3.002763702195963,2.190949093369006,11.891803462219432,8.040906758371861,0.0001295089750783,0.0851717442274093,0,0,0
921,30383.62500940378,2010-08-31 21:56:12,5612.829394249899,2,3,0.5499359965324402,4.104626178741455,3.007350407179418,2.190949093369006,11.910623068605933,8.040906758371861,6.47544875391759e-05,0.0851717442274093,0,0,0
922,30413.6402610714,2010-08-31 21:56:42,5642.844645922531,2,3,0.5501165986061096,4.107702255249023,3.011937094318093,2.190949093369006,11.929456761844705,8.040906758371861,9.71794142969884e-05,0.0851717442274093,0,0,0
923,30443.65549623789,2010-08-31 21:57:12,5672.859881084009,2,3,0.550297200679779,4.110939979553223,3.016523728393783,2.190949093369006,11.948304522231354,8.040906758371861,9.71794142969884e-05,0.0851717442274093,0,0,0
924,30473.670677695525,2010-08-31 21:57:42,5702.875062541642,2,3,0.5501165986061096,4.114015579223633,3.021110396089269,2.190949093369006,11.967166807273166,8.040906758371861,9.70840483205393e-05,0.0851717442274093,0,0,0
925,30503.685895774423,2010-08-31 21:58:12,5732.890280620547,2,3,0.550297200679779,4.117253303527832,3.02569705215911,2.190949093369006,11.986043535135073,8.040906758371861,9.71794142969884e-05,0.0851717442274093,0,0,0
926,30533.701116339525,2010-08-31 21:58:42,5762.905501190659,2,3,0.5501165986061096,4.120491027832031,3.030283739439589,2.190949093369006,12.004934986757494,8.040906758371861,9.71794142969884e-05,0.0851717442274093,0,0,0
927,30563.716357911984,2010-08-31 21:59:12,5792.920742763117,2,3,0.5501165986061096,4.123566627502441,3.034870444827431,2.190949093369006,12.023841284167124,8.040906758371861,6.47544875391759e-05,0.0851717442274093,0,0,0
928,30593.73161891788,2010-08-31 21:59:42,5822.936003794071,2,3,0.5501165986061096,4.12696647644043,3.0394571529809,2.190949093369006,12.042762482050714,8.040906758371861,9.71794142969884e-05,0.0851717442274093,0,0,0
929,30623.746811543344,2010-08-31 22:00:12,5852.951196409514,2,3,0.5501165986061096,4.13004207611084,3.044043838951322,2.190949093369006,12.061698575439072,8.040906758371861,6.47544875391759e-05,0.0851717442274093,0,0,0
930,30653.76200475026,2010-08-31 22:00:42,5882.966389596379,2,3,0.5501165986061096,4.133279800415039,3.048630573410299,2.190949093369006,12.08064999035324,8.040906758371861,6.47544875391759e-05,0.0851717442274093,0,0,0
931,30683.777241590924,2010-08-31 22:01:12,5912.981626437043,2,3,0.5501165986061096,4.136679649353027,3.053217292785132,2.190949093369006,12.099616561923764,8.040906758371861,6.47544875391759e-05,0.0851717442274093,0,0,0
932,30713.792463529448,2010-08-31 22:01:42,5942.996848375567,2,3,0.5501165986061096,4.140241146087647,3.057804005542061,2.190949093369006,12.118598472951687,8.040906758371861,9.71794142969884e-05,0.0851717442274093,0,0,0
933,30743.807791106257,2010-08-31 22:02:12,5973.012175982448,2,3,0.5501165986061096,4.143478870391846,3.062390734159652,2.190949093369006,12.137595998048194,8.040906758371861,9.71794142969884e-05,0.0851717442274093,0,0,0
934,30773.823025195063,2010-08-31 22:02:42,6003.027410051204,2,3,0.5501165986061096,4.147202014923096,3.066977421810995,2.190949093369006,12.156609162197483,8.040906758371861,0.0001295089750783,0.0851717442274093,0,0,0
935,30803.838146648144,2010-08-31 22:03:12,6033.042531504288,2,3,0.5501165986061096,4.150278091430664,3.071564070983897,2.190949093369006,12.17563797777421,8.040906758371861,6.47544875391759e-05,0.0851717442274093,0,0,0
936,30833.85337451645,2010-08-31 22:03:42,6063.057759387627,2,3,0.5501165986061096,4.153839588165283,3.07615081210932,2.190949093369006,12.194683093732143,8.040906758371861,6.47544875391759e-05,0.0851717442274093,0,0,0
937,30863.86856050036,2010-08-31 22:04:12,6093.072945351491,2,3,0.5501165986061096,4.157238960266113,3.080737452247925,2.190949093369006,12.2137436981871,8.040906758371861,3.23295607813634e-05,0.0851717442274093,0,0,0
938,30893.883786859904,2010-08-31 22:04:42,6123.088171706021,2,3,0.550297200679779,4.161124229431152,3.085324152549917,2.190949093369006,12.232820733809648,8.040906758371861,0.0001295089750783,0.0851717442274093,0,0,0
939,30923.899051184064,2010-08-31 22:05:12,6153.103436060258,2,3,0.5501165986061096,4.164361953735352,3.089910889264592,2.190949093369006,12.251914173854374,8.040906758371861,6.47544875391759e-05,0.0851717442274093,0,0,0
940,30953.91424921801,2010-08-31 22:05:42,6183.118634069142,2,3,0.5501165986061096,4.16808557510376,3.094497486287219,2.190949093369006,12.271023295258011,8.040906758371861,6.47544875391759e-05,0.0851717442274093,0,0,0
941,30983.929452254422,2010-08-31 22:06:12,6213.133837095531,2,3,0.5501165986061096,4.171647071838379,3.099084170593043,2.190949093369006,12.290149329494588,8.040906758371861,9.71794142969884e-05,0.0851717442274093,0,0,0
942,31013.94468718032,2010-08-31 22:06:42,6243.149072026436,2,3,0.550297200679779,4.175370216369629,3.103670841653352,2.190949093369006,12.30929188886231,8.040906758371861,0.0001295089750783,0.0851717442274093,0,0,0
943,31043.95992158992,2010-08-31 22:07:12,6273.1643064360405,2,3,0.5501165986061096,4.178931713104248,3.108257487753128,2.190949093369006,12.328451015095345,8.040906758371861,9.70840483205393e-05,0.0851717442274093,0,0,0
944,31073.975132320516,2010-08-31 22:07:42,6303.17951716663,2,3,0.5499359965324402,4.182655334472656,3.112844158815585,2.190949093369006,12.34762712929094,8.040906758371861,9.71794142969884e-05,0.0851717442274093,0,0,0
945,31103.990343316764,2010-08-31 22:08:12,6333.194728162883,2,3,0.5501165986061096,4.186378479003906,3.117430792125627,2.190949093369006,12.36682002169472,8.040906758371861,9.70840483205393e-05,0.0851717442274093,0,0,0
946,31134.00556683924,2010-08-31 22:08:42,6363.209951690366,2,3,0.5501165986061096,4.1901021003723145,3.122017446900058,2.190949093369006,12.38603013508375,8.040906758371861,6.47544875391759e-05,0.0851717442274093,0,0,0
947,31164.023655111545,2010-08-31 22:09:12,6393.228040012801,2,3,0.5501165986061096,4.1939873695373535,3.126604523285788,2.190949093369006,12.40525920529557,8.040906758371861,0.0001295089750783,0.0851717442274093,0,0,0
948,31194.036030686053,2010-08-31 22:09:42,6423.240415532173,2,3,0.5501165986061096,4.197710514068604,3.131190736872029,2.190949093369006,12.42450196683656,8.040906758371861,9.71794142969884e-05,0.0851717442274093,0,0,0
949,31210.817071407928,2010-08-31 22:09:59,6440.021456259061,2,3,0.550297200679779,4.200138568878174,3.133755088343628,2.190949093369006,12.435269044821242,8.040906758371861,0.0001618385285837,0.0851717442274093,0,0,0
950,31240.832782422556,2010-08-31 22:10:29,30.015167728415435,3,3,0.0,4.12534761428833,3.133755088343628,2.190949093369006,12.435269044821242,8.040906758371861,-0.0003885269106831,0.0851717442274093,0,0,0
951,31270.847991669445,2010-08-31 22:10:59,60.0303769702952,3,3,0.0,4.116443634033203,3.133755088343628,2.190949093369006,12.435269044821242,8.040906758371861,-0.0001942634553415,0.0851717442274093,0,0,0
952,31300.863197287297,2010-08-31 22:11:29,90.04558258814276,3,3,0.0,4.110939979553223,3.133755088343628,2.190949093369006,12.435269044821242,8.040906758371861,-0.0001295089750783,0.0851717442274093,0,0,0
953,31330.831548735136,2010-08-31 22:11:59,120.01393404099449,3,3,0.0,4.107702255249023,3.133755088343628,2.190949093369006,12.435269044821242,8.040906758371861,-6.47544875391759e-05,0.0851717442274093,0,0,0
954,31330.831780682,2010-08-31 22:11:59,2.66163361e-06,4,3,0.9967633485794068,4.199814796447754,3.133755089080577,2.190949093369006,12.435269047916291,8.040906758371861,0.0,0.0851717442274093,0,0,0
955,31331.644272110632,2010-08-31 22:12:00,0.812494105308615,4,3,0.946734607219696,4.199653148651123,3.133972665665701,2.190949093369006,12.436182803813098,8.040906758371861,-3.23295607813634e-05,0.0851717442274093,0,0,0
956,31333.722375478643,2010-08-31 22:12:02,2.890597448255653,4,3,0.8959833979606628,4.199653148651123,3.134503429830756,2.190949093369006,12.438411852293052,8.040906758371861,-3.23295607813634e-05,0.0851717442274093,0,0,0
957,31336.89419528956,2010-08-31 22:12:05,6.062417259169006,4,3,0.8459545969963074,4.199653148651123,3.135269796487136,2.190949093369006,12.441630345593532,8.040906758371861,0.0,0.0851717442274093,0,0,0
958,31341.144141192424,2010-08-31 22:12:10,10.312363167047105,4,3,0.7957452535629272,4.199653148651123,3.136237669099568,2.190949093369006,12.4456951076417,8.040906758371861,0.0,0.0851717442274093,0,0,0
959,31346.581565742457,2010-08-31 22:12:15,15.74978771707949,4,3,0.7455358505249023,4.199814796447754,3.1374003850959298,2.190949093369006,12.45057815474267,8.040906758371861,3.23295607813634e-05,0.0851717442274093,0,0,0
960,31353.56587865425,2010-08-31 22:12:22,22.73410062386255,4,3,0.6953264474868774,4.199653148651123,3.138796329842678,2.190949093369006,12.456440721185364,8.040906758371861,-3.23295607813634e-05,0.0851717442274093,0,0,0
961,31362.65947658332,2010-08-31 22:12:31,31.82769855293192,4,3,0.6452977061271667,4.199491024017334,3.140487021402197,2.190949093369006,12.463541117880885,8.040906758371861,-3.24249267578125e-05,0.0851717442274093,0,0,0
962,31375.15957835312,2010-08-31 22:12:44,44.3278003277399,4,3,0.5950883030891418,4.199653148651123,3.142636529914384,2.190949093369006,12.472568424894238,8.040906758371861,0.0,0.0851717442274093,0,0,0
963,31393.502844917475,2010-08-31 22:13:02,62.67106688708783,4,3,0.5450595617294312,4.199653148651123,3.145532588805677,2.190949093369006,12.48473102853296,8.040906758371861,0.0,0.0851717442274093,0,0,0
964,31422.26807172853,2010-08-31 22:13:31,91.43629369813998,4,3,0.495030790567398,4.199653148651123,3.149671314638125,2.190949093369006,12.502112478070046,8.040906758371861,3.24249267578125e-05,0.0851717442274093,0,0,0
965,31470.87679623152,2010-08-31 22:14:19,140.04501822619451,4,3,0.445002019405365,4.199653148651123,3.15599257345068,2.190949093369006,12.528659890986193,8.040906758371861,-3.23295607813634e-05,0.0851717442274093,0,0,0
966,31548.531990108568,2010-08-31 22:15:37,217.70021207817948,4,3,0.3949732482433319,4.199491024017334,3.16502586759192,2.190949093369006,12.566597083652033,8.040906758371861,-3.24249267578125e-05,0.0851717442274093,0,0,0
967,31651.233736937204,2010-08-31 22:17:20,320.40195891182645,4,3,0.3449444770812988,4.199814796447754,3.175561067863585,2.190949093369006,12.610841938107992,8.040906758371861,3.23295607813634e-05,0.0851717442274093,0,0,0
968,31777.107064459644,2010-08-31 22:19:25,446.27528643426695,4,3,0.2949157059192657,4.199653148651123,3.186728256729827,2.190949093369006,12.65774097862078,8.040906758371861,-3.23295607813634e-05,0.0851717442274093,0,0,0
969,31928.63632207401,2010-08-31 22:21:57,597.8045440686789,4,3,0.2448869347572326,4.199491024017334,3.198061378610682,2.190949093369006,12.705336822232344,8.040906758371861,-3.24249267578125e-05,0.0851717442274093,0,0,0
970,32117.461907187288,2010-08-31 22:25:06,786.6301291568988,4,3,0.1948581635951995,4.199653148651123,3.209556979970763,2.190949093369006,12.753615072636414,8.040906758371861,0.0,0.0851717442274093,0,0,0
971,32368.81793145508,2010-08-31 22:29:17,1037.9861534246893,4,3,0.1448293924331665,4.199814796447754,3.221340824725491,2.190949093369006,12.8031038468752,8.040906758371861,3.23295607813634e-05,0.0851717442274093,0,0,0
972,32736.71940577955,2010-08-31 22:35:25,1405.8876277491595,4,3,0.094800628721714,4.199653148651123,3.233419943564826,2.190949093369006,12.853832671556669,8.040906758371861,-3.23295607813634e-05,0.0851717442274093,0,0,0
973,33334.805073118914,2010-08-31 22:45:23,2003.9732950785035,4,3,0.0498289167881011,4.199653148651123,3.24503408979785,2.190949093369006,12.902608507813492,8.040906758371861,0.0,0.0851717442274093,0,0,0
974,33364.819905215205,2010-08-31 22:45:53,30.015237046176622,5,3,0.0,4.192853927612305,3.24503408979785,2.190949093369006,12.902608507813492,8.040906758371861,-3.24249267578125e-05,0.0851717442274093,0,0,0
975,33394.81950998093,2010-08-31 22:46:23,60.01484180688793,5,3,0.0,4.192044734954834,3.24503408979785,2.190949093369006,12.902608507813492,8.040906758371861,3.24249267578125e-05,0.0851717442274093,0,0,0
976,33395.00757040344,2010-08-31 22:46:24,0.187681144159289,6,3,-1.9243103452026844e-05,4.191882610321045,3.24503408979785,2.19094909437222,12.902608507813492,8.040906762577213,0.0,0.0881769880652427,0,0,0
977,33399.83550854581,2010-08-31 22:46:28,5.015619266479534,6,3,0.0008838032954372,4.192044734954834,3.245034938019272,2.190949094455496,12.902612063499491,8.0409067629263,0.0,0.0881769880652427,0,0,0
978,33429.85085438202,2010-08-31 22:46:59,30.015015218313337,7,3,-1.0997490882873535,4.0390625,3.245034938019272,2.200118100602509,12.902612063499491,8.078111244300414,-0.0008093834039755,0.0881769880652427,0,0,0
979,33459.866001138165,2010-08-31 22:47:29,60.03016194438447,7,3,-1.099568486213684,4.017045974731445,3.245034938019272,2.209286402555585,12.902612063499491,8.115034003336552,-0.0004532813909463,0.0881769880652427,0,0,0
980,33489.88132981772,2010-08-31 22:47:59,90.04549063897716,7,3,-1.0997490882873535,4.001667022705078,3.245034938019272,2.218454727494358,12.902612063499491,8.151789131308629,-0.0003561019839253,0.0881769880652427,0,0,0
981,33519.896463020086,2010-08-31 22:48:29,120.06062382630556,7,3,-1.099568486213684,3.989525556564331,3.245034938019272,2.227623007568459,12.902612063499491,8.188420749797135,-0.0003561496851034,0.0881769880652427,0,0,0
982,33549.91182327333,2010-08-31 22:48:59,150.07598407955211,7,3,-1.099568486213684,3.979326725006104,3.245034938019272,2.236791266871547,12.902612063499491,8.224950444154862,-0.0002590179501567,0.0881769880652427,0,0,0
983,33579.92710562743,2010-08-31 22:49:29,180.0912664386625,7,3,-1.099568486213684,3.969775438308716,3.245034938019272,2.245959463806864,12.902612063499491,8.261389070114227,-0.0002266406954731,0.0881769880652427,0,0,0
984,33609.94226417797,2010-08-31 22:49:59,210.10642498419136,7,3,-1.0997490882873535,3.960871696472168,3.245034938019272,2.255127607131412,12.902612063499491,8.297743968194487,-0.0002266406954731,0.0881769880652427,0,0,0
985,33639.95730032344,2010-08-31 22:50:29,240.12146115973653,7,3,-1.099568486213684,3.95245361328125,3.245034938019272,2.264296431934757,12.902612063499491,8.334022153476615,-0.0002266406954731,0.0881769880652427,0,0,0
986,33669.97270953371,2010-08-31 22:50:59,270.1368703499491,7,3,-1.0997490882873535,3.944197416305542,3.245034938019272,2.273465338285682,12.902612063499491,8.370224461229064,-0.0002266406954731,0.0881769880652427,0,0,0
987,33699.98781092178,2010-08-31 22:51:29,300.15197174804894,7,3,-1.0997490882873535,3.936264991760254,3.245034938019272,2.282634150102911,12.902612063499491,8.40635223860068,-0.0002266406954731,0.0881769880652427,0,0,0
988,33730.00302883527,2010-08-31 22:51:59,330.1671896465036,7,3,-1.099568486213684,3.928494453430176,3.245034938019272,2.291803074477005,12.902612063499491,8.442408028165525,-0.0001942634553415,0.0881769880652427,0,0,0
989,33760.01822968123,2010-08-31 22:52:29,360.18239047742065,7,3,-1.0997490882873535,3.920885801315308,3.245034938019272,2.300971959185358,12.902612063499491,8.478392740021492,-0.0001618862152099,0.0881769880652427,0,0,0
990,33790.0334808526,2010-08-31 22:52:59,390.1976416488016,7,3,-1.0997490882873535,3.9132773876190186,3.245034938019272,2.310140870353627,12.902612063499491,8.514307735394379,-0.0001942157687153,0.0881769880652427,0,0,0
991,33820.04872315689,2010-08-31 22:53:29,420.2128839580956,7,3,-1.0997490882873535,3.90583062171936,3.245034938019272,2.319309759308683,12.902612063499491,8.55015380942696,-0.0001618862152099,0.0881769880652427,0,0,0
992,33850.06394406284,2010-08-31 22:53:59,450.2281048640458,7,3,-1.0997490882873535,3.898545742034912,3.245034938019272,2.328478599819189,12.902612063499491,8.585931841190702,-0.0001942634553415,0.0881769880652427,0,0,0
993,33880.07916634221,2010-08-31 22:54:29,480.2433271484314,7,3,-1.0997490882873535,3.891098976135254,3.245034938019272,2.337647379383486,12.902612063499491,8.621642818819971,-0.0002266406954731,0.0881769880652427,0,0,0
994,33910.09440717282,2010-08-31 22:54:59,510.258567969015,7,3,-1.0997490882873535,3.8841378688812256,3.245034938019272,2.3468162272244,12.902612063499491,8.657288150414423,-0.0001618862152099,0.0881769880652427,0,0,0
995,33940.109643772885,2010-08-31 22:55:29,540.2738045690799,7,3,-1.099568486213684,3.8770148754119873,3.245034938019272,2.355985089514288,12.902612063499491,8.692868104993295,-0.0001618862152099,0.0881769880652427,0,0,0
996,33970.12488048824,2010-08-31 22:55:59,570.289041284432,7,3,-1.0997490882873535,3.869891881942749,3.245034938019272,2.365153991320736,12.902612063499491,8.728383418265876,-0.0001942634553415,0.0881769880652427,0,0,0
997,34000.14011013097,2010-08-31 22:56:29,600.3042709321694,7,3,-1.0997490882873535,3.86309266090393,3.245034938019272,2.374322838440441,12.902612063499491,8.763834524561247,-0.0001942634553415,0.0881769880652427,0,0,0
998,34030.15531110223,2010-08-31 22:56:59,630.3194719134613,7,3,-1.0997490882873535,3.8561315536499023,3.245034938019272,2.383491745944018,12.902612063499491,8.799222534718778,-0.0001942634553415,0.0881769880652427,0,0,0
999,34060.170552659656,2010-08-31 22:57:29,660.3347134708812,7,3,-1.0997490882873535,3.849332332611084,3.245034938019272,2.392660717995577,12.902612063499491,8.834548171195259,-0.0001942634553415,0.0881769880652427,0,0,0
1000,34090.18577943523,2010-08-31 22:57:59,690.3499402715229,7,3,-1.0997490882873535,3.842694997787476,3.245034938019272,2.401829660699592,12.902612063499491,8.869812084954429,-0.0001942634553415,0.0881769880652427,0,0,0
1001,34120.2010859746,2010-08-31 22:58:29,720.3652468008729,7,3,-1.0997490882873535,3.836057662963867,3.245034938019272,2.410998667043725,12.902612063499491,8.905015615506198,-0.0001942634553415,0.0881769880652427,0,0,0
1002,34150.21624939729,2010-08-31 22:58:59,750.3804102285696,7,3,-1.0997490882873535,3.829582452774048,3.245034938019272,2.420167620839853,12.902612063499491,8.940158966827575,-0.0001618862152099,0.0881769880652427,0,0,0
1003,34180.23149112513,2010-08-31 22:59:29,780.395651941377,7,3,-1.0997490882873535,3.8231070041656494,3.245034938019272,2.429336552822178,12.902612063499491,8.975243299905646,-0.0001942634553415,0.0881769880652427,0,0,0
1004,34210.24667400631,2010-08-31 22:59:59,810.4108348175453,7,3,-1.0997490882873535,3.816955327987671,3.245034938019272,2.438505500617401,12.902612063499491,9.010269583244996,-0.0001618862152099,0.0881769880652427,0,0,0
1005,34240.26202989368,2010-08-31 23:00:29,840.426190699898,7,3,-1.0997490882873535,3.810803651809693,3.245034938019272,2.447674403725644,12.902612063499491,9.045238326819677,-0.0001618862152099,0.0881769880652427,0,0,0
1006,34270.27713075544,2010-08-31 23:00:59,870.4412915516364,7,3,-1.0997490882873535,3.804651975631714,3.245034938019272,2.456843305273572,12.902612063499491,9.080150364905093,-0.0001618862152099,0.0881769880652427,0,0,0
1007,34300.29255563977,2010-08-31 23:01:29,900.4567164359635,7,3,-1.0997490882873535,3.798662185668945,3.245034938019272,2.466012347912443,12.902612063499491,9.115007762754033,-0.0001942634553415,0.0881769880652427,0,0,0
1008,34330.30760417612,2010-08-31 23:01:59,930.4717649723156,7,3,-1.0997490882873535,3.7926723957061768,3.245034938019272,2.475181277446195,12.902612063499491,9.149810607457889,-0.0001942634553415,0.0881769880652427,0,0,0
1009,34360.32282386905,2010-08-31 23:02:29,960.4869846752676,7,3,-1.099568486213684,3.787168264389038,3.245034938019272,2.484350216018809,12.902612063499491,9.184560250756691,-0.0001295089750783,0.0881769880652427,0,0,0
1010,34390.3380761532,2010-08-31 23:02:59,990.5022369544092,7,3,-1.0997490882873535,3.78134036064148,3.245034938019272,2.493519152083252,12.902612063499491,9.219257757795392,-0.0001942634553415,0.0881769880652427,0,0,0
1011,34420.353324116586,2010-08-31 23:03:29,1020.5174857949812,7,3,-1.099568486213684,3.775998115539551,3.245034938019272,2.502688113422981,12.902612063499491,9.253904209740623,-0.0001295089750783,0.0881769880652427,0,0,0
1012,34450.36852461668,2010-08-31 23:03:59,1050.5326854279128,7,3,-1.0997490882873535,3.770493984222412,3.245034938019272,2.511857111122501,12.902612063499491,9.288500684172927,-0.0001295089750783,0.0881769880652427,0,0,0
1013,34480.38376256511,2010-08-31 23:04:29,1080.5479233713254,7,3,-1.0997490882873535,3.7651517391204834,3.245034938019272,2.521026081568703,12.902612063499491,9.323048043066638,-0.0001942634553415,0.0881769880652427,0,0,0
1014,34510.39897461398,2010-08-31 23:04:59,1110.5631354202012,7,3,-1.0997490882873535,3.7599713802337646,3.245034938019272,2.530194978034328,12.902612063499491,9.3575468976089,-0.0001295089750783,0.0881769880652427,0,0,0
1015,34540.41702265602,2010-08-31 23:05:29,1140.5811835073569,7,3,-1.099929690361023,3.754952907562256,3.245034938019272,2.539364799594835,12.902612063499491,9.392002074222445,-0.0001295089750783,0.0881769880652427,0,0,0
1016,34570.429443132445,2010-08-31 23:05:59,1170.5936039386625,7,3,-1.099568486213684,3.750096559524536,3.245034938019272,2.548532929263474,12.902612063499491,9.426404530288586,-0.0001295089750783,0.0881769880652427,0,0,0
1017,34600.444688775046,2010-08-31 23:06:29,1200.6088495862766,7,3,-1.099568486213684,3.7450780868530273,3.245034938019272,2.55770189899168,12.902612063499491,9.460764792697024,-0.0001295089750783,0.0881769880652427,0,0,0
1018,34630.46002364503,2010-08-31 23:06:59,1230.6241844612728,7,3,-1.0997490882873535,3.740221500396729,3.245034938019272,2.566870931640777,12.902612063499491,9.49508068019252,-9.713172767078504e-05,0.0881769880652427,0,0,0
1019,34660.47513769967,2010-08-31 23:07:29,1260.6392984958666,7,3,-1.0997490882873535,3.73552680015564,3.245034938019272,2.576039831434238,12.902612063499491,9.529352273183742,-0.0001295089750783,0.0881769880652427,0,0,0
1020,34690.490499581974,2010-08-31 23:07:59,1290.6546603982233,7,3,-1.099568486213684,3.7309939861297607,3.245034938019272,2.585208919833202,12.902612063499491,9.563581493607629,-9.713172767078504e-05,0.0881769880652427,0,0,0
1021,34720.50557834366,2010-08-31 23:08:29,1320.6697391498813,7,3,-1.099568486213684,3.726299285888672,3.245034938019272,2.594377798612487,12.902612063499491,9.59776774456137,-0.0001295089750783,0.0881769880652427,0,0,0
1022,34750.52131309026,2010-08-31 23:08:59,1350.685473901493,7,3,-1.099568486213684,3.721928358078003,3.245034938019272,2.603546930583446,12.902612063499491,9.631913451410862,-6.47544875391759e-05,0.0881769880652427,0,0,0
1023,34780.53605819035,2010-08-31 23:09:29,1380.7002189865511,7,3,-1.099568486213684,3.717233657836914,3.245034938019272,2.612715773995676,12.902612063499491,9.666016976962606,-0.0001295089750783,0.0881769880652427,0,0,0
1024,34810.55142108518,2010-08-31 23:09:59,1410.7155818863937,7,3,-1.0997490882873535,3.712862730026245,3.245034938019272,2.621884770523127,12.902612063499491,9.700080644251306,-0.0001295089750783,0.0881769880652427,0,0,0
1025,34840.566501706504,2010-08-31 23:10:29,1440.730662502699,7,3,-1.099568486213684,3.708491802215576,3.245034938019272,2.631053737811685,12.902612063499491,9.734104372559392,-0.0001295089750783,0.0881769880652427,0,0,0
1026,34870.581858806894,2010-08-31 23:10:59,1470.7460196131128,7,3,-1.099929690361023,3.7041208744049072,3.245034938019272,2.640222768257068,12.902612063499491,9.768089192635074,-0.0001942634553415,0.0881769880652427,0,0,0
1027,34900.59697496177,2010-08-31 23:11:29,1500.7611357679907,7,3,-1.099929690361023,3.700073719024658,3.245034938019272,2.649391780004899,12.902612063499491,9.802035202235466,-0.0001295089750783,0.0881769880652427,0,0,0
1028,34930.612194218615,2010-08-31 23:11:59,1530.7763550248312,7,3,-1.0997490882873535,3.696026563644409,3.245034938019272,2.658560790527134,12.902612063499491,9.835943041281466,-0.0001295089750783,0.0881769880652427,0,0,0
1029,34960.62742552548,2010-08-31 23:12:29,1560.7915863216788,7,3,-1.099929690361023,3.69197940826416,3.245034938019272,2.667729810714049,12.902612063499491,9.869813364096146,-9.713172767078504e-05,0.0881769880652427,0,0,0
1030,34990.642720596275,2010-08-31 23:12:59,1590.8068814175328,7,3,-1.099568486213684,3.687932252883911,3.245034938019272,2.676898893610035,12.902612063499491,9.90364683001076,-0.0001295089750783,0.0881769880652427,0,0,0
1031,35020.6579252818,2010-08-31 23:13:29,1620.8220860980443,7,3,-1.0997490882873535,3.683885097503662,3.245034938019272,2.686067811914434,12.902612063499491,9.937443251326078,-0.0001295089750783,0.0881769880652427,0,0,0
1032,35050.67311742105,2010-08-31 23:13:59,1650.8372782222616,7,3,-1.0997490882873535,3.679999828338623,3.245034938019272,2.695236749250891,12.902612063499491,9.971203869751672,-0.0001295089750783,0.0881769880652427,0,0,0
1033,35080.688359830594,2010-08-31 23:14:29,1680.852520626793,7,3,-1.0997490882873535,3.676438331604004,3.245034938019272,2.704405724293557,12.902612063499491,10.004929383404424,-6.47544875391759e-05,0.0881769880652427,0,0,0
1034,35110.70360600452,2010-08-31 23:14:59,1710.8677668007183,7,3,-1.099929690361023,3.672391414642334,3.245034938019272,2.713574712393355,12.902612063499491,10.038620296630878,-9.70840483205393e-05,0.0881769880652427,0,0,0
1035,35140.71883063476,2010-08-31 23:15:29,1740.8829914309513,7,3,-1.0997490882873535,3.668991804122925,3.245034938019272,2.722743716856911,12.902612063499491,10.072277202478071,-9.713172767078504e-05,0.0881769880652427,0,0,0
1036,35170.734040803945,2010-08-31 23:15:59,1770.898201600142,7,3,-1.0997490882873535,3.665268421173096,3.245034938019272,2.731912684700537,12.902612063499491,10.105900495319409,-9.713172767078504e-05,0.0881769880652427,0,0,0
1037,35200.749275088245,2010-08-31 23:16:29,1800.913435904485,7,3,-1.0997490882873535,3.661706924438477,3.245034938019272,2.741081674831355,12.902612063499491,10.139491166817994,-9.713172767078504e-05,0.0881769880652427,0,0,0
1038,35230.764524976425,2010-08-31 23:16:59,1830.9286857676057,7,3,-1.0997490882873535,3.6583073139190674,3.245034938019272,2.750250674651265,12.902612063499491,10.173049727772044,-9.713172767078504e-05,0.0881769880652427,0,0,0
1039,35260.779751150505,2010-08-31 23:17:29,1860.9439119567228,7,3,-1.0997490882873535,3.654745817184448,3.245034938019272,2.759419692970071,12.902612063499491,10.206576856340805,-0.0001295089750783,0.0881769880652427,0,0,0
1040,35290.79510194016,2010-08-31 23:18:00,1890.9592627463835,7,3,-1.0997490882873535,3.651346206665039,3.245034938019272,2.768588720841644,12.902612063499491,10.240073315949251,-0.0001618862152099,0.0881769880652427,0,0,0
1041,35320.81046857432,2010-08-31 23:18:30,1920.9746293855453,7,3,-1.0997490882873535,3.64827036857605,3.245034938019272,2.777757747418718,12.902612063499491,10.27353971951549,-9.713172767078504e-05,0.0881769880652427,0,0,0
1042,35350.82573445736,2010-08-31 23:19:00,1950.98989526358,7,3,-1.0997490882873535,3.645194530487061,3.245034938019272,2.786926707604891,12.902612063499491,10.3069761921915,-3.237724376958795e-05,0.0881769880652427,0,0,0
1043,35380.840650393235,2010-08-31 23:19:30,1981.0048111994508,7,3,-1.0997490882873535,3.6421186923980713,3.245034938019272,2.796095582134599,12.902612063499491,10.34038386020001,-6.47544875391759e-05,0.0881769880652427,0,0,0
1044,35410.85599724307,2010-08-31 23:20:00,2011.020158049292,7,3,-1.0997490882873535,3.639204740524292,3.245034938019272,2.805264531906685,12.902612063499491,10.373763915361735,-6.47544875391759e-05,0.0881769880652427,0,0,0
1045,35440.87119077079,2010-08-31 23:20:30,2041.035351587032,7,3,-1.0997490882873535,3.636128902435303,3.245034938019272,2.814433418249795,12.902612063499491,10.407116628929048,-9.713172767078504e-05,0.0881769880652427,0,0,0
1046,35470.88648129024,2010-08-31 23:21:00,2071.0506421014684,7,3,-1.099568486213684,3.633214950561523,3.245034938019272,2.823602376094312,12.902612063499491,10.440443199456508,-0.0001295089750783,0.0881769880652427,0,0,0
1047,35500.90181952862,2010-08-31 23:21:30,2101.065980324809,7,3,-1.0997490882873535,3.630300998687744,3.245034938019272,2.832771368747345,12.902612063499491,10.473744003051683,-0.0001295089750783,0.0881769880652427,0,0,0
1048,35530.916845278174,2010-08-31 23:22:00,2131.0810061094576,7,3,-1.0997490882873535,3.6278727054595943,3.245034938019272,2.841940279393852,12.902612063499491,10.507019364462725,-6.47544875391759e-05,0.0881769880652427,0,0,0
1049,35560.932079221624,2010-08-31 23:22:30,2161.0962400178137,7,3,-1.099568486213684,3.6251206398010254,3.245034938019272,2.85110921974217,12.902612063499491,10.540270186021235,-6.47544875391759e-05,0.0881769880652427,0,0,0
1050,35590.947452793065,2010-08-31 23:23:00,2191.111613599278,7,3,-1.0997490882873535,3.622692346572876,3.245034938019272,2.860278224919597,12.902612063499491,10.57349724119782,0.0,0.0881769880652427,0,0,0
1051,35620.96256400562,2010-08-31 23:23:30,2221.126724801814,7,3,-1.0997490882873535,3.619940280914306,3.245034938019272,2.869447182616366,12.902612063499491,10.606700367094906,-6.47544875391759e-05,0.0881769880652427,0,0,0
1052,35650.977790129575,2010-08-31 23:24:00,2251.1419509357934,7,3,-1.0997490882873535,3.6173501014709473,3.245034938019272,2.878616166409089,12.902612063499491,10.639880235526734,-6.47544875391759e-05,0.0881769880652427,0,0,0
1053,35680.992936584975,2010-08-31 23:24:30,2281.157097421265,7,3,-1.0997490882873535,3.614921808242798,3.245034938019272,2.887785091972353,12.902612063499491,10.673036726730135,-6.47544875391759e-05,0.0881769880652427,0,0,0
1054,35711.008314086204,2010-08-31 23:25:00,2311.172474917487,7,3,-1.0997490882873535,3.6123316287994394,3.245034938019272,2.896953935830295,12.902612063499491,10.706170199497832,-9.713172767078504e-05,0.0881769880652427,0,0,0
1055,35741.023412436705,2010-08-31 23:25:30,2341.187573247941,7,3,-1.0997490882873535,3.609903335571289,3.245034938019272,2.906122830066739,12.902612063499491,10.739281082666873,-6.47544875391759e-05,0.0881769880652427,0,0,0
1056,35771.03874613878,2010-08-31 23:26:00,2371.2029069500136,7,3,-1.099929690361023,3.60747504234314,3.245034938019272,2.91529182520914,12.902612063499491,10.772369566451346,-6.47544875391759e-05,0.0881769880652427,0,0,0
1057,35801.053977581,2010-08-31 23:26:30,2401.2181383922234,7,3,-1.0997490882873535,3.60488486289978,3.245034938019272,2.924460795092135,12.902612063499491,10.805434992994453,-6.47544875391759e-05,0.0881769880652427,0,0,0
1058,35831.069216657226,2010-08-31 23:27:00,2431.233377463448,7,3,-1.0997490882873535,3.602456569671631,3.245034938019272,2.9336297164288,12.902612063499491,10.83847736680984,-6.47544875391759e-05,0.0881769880652427,0,0,0
1059,35861.08454428416,2010-08-31 23:27:30,2461.2487051455164,7,3,-1.099568486213684,3.600028276443481,3.245034938019272,2.942798712154735,12.902612063499491,10.871496789339302,-6.47544875391759e-05,0.0881769880652427,0,0,0
1060,35891.09967722587,2010-08-31 23:28:00,2491.263838032095,7,3,-1.099568486213684,3.597438097000122,3.245034938019272,2.951967751064934,12.902612063499491,10.904492887406953,-9.713172767078504e-05,0.0881769880652427,0,0,0
1061,35921.11491388609,2010-08-31 23:28:30,2521.2790746923097,7,3,-1.0997490882873535,3.5946860313415527,3.245034938019272,2.961136820439304,12.902612063499491,10.937465187672318,-6.47544875391759e-05,0.0881769880652427,0,0,0
1062,35951.13013962408,2010-08-31 23:29:00,2551.294300430304,7,3,-1.099568486213684,3.5920960903167725,3.245034938019272,2.970305838883701,12.902612063499491,10.970413278435537,-6.470680091297254e-05,0.0881769880652427,0,0,0
1063,35981.145469461524,2010-08-31 23:29:30,2581.3096302978192,7,3,-1.099568486213684,3.589182138442993,3.245034938019272,2.979474870820543,12.902612063499491,11.003336894591154,-0.0001295089750783,0.0881769880652427,0,0,0
1064,36011.16063660849,2010-08-31 23:30:00,2611.324797419723,7,3,-1.099568486213684,3.586753845214844,3.245034938019272,2.988643929499133,12.902612063499491,11.036235483322194,-3.237724376958795e-05,0.0881769880652427,0,0,0
1065,36041.175854772606,2010-08-31 23:30:30,2641.340015578827,7,3,-1.099568486213684,3.5840017795562744,3.245034938019272,2.997812973625955,12.902612063499491,11.06910833107437,-3.237724376958795e-05,0.0881769880652427,0,0,0
1066,36071.19113544752,2010-08-31 23:31:00,2671.3552962788026,7,3,-1.0997490882873535,3.580925941467285,3.245034938019272,3.006982009488884,12.902612063499491,11.101954957188086,-9.713172767078504e-05,0.0881769880652427,0,0,0
1067,36101.20633407294,2010-08-31 23:31:30,2701.370494879161,7,3,-1.0997490882873535,3.578011989593506,3.245034938019272,3.016151014861641,12.902612063499491,11.134774188154635,-6.47544875391759e-05,0.0881769880652427,0,0,0
1068,36131.22153248283,2010-08-31 23:32:00,2731.385693294056,7,3,-1.0997490882873535,3.5746123790740967,3.245034938019272,3.025320052636633,12.902612063499491,11.167565277181708,-9.713172767078504e-05,0.0881769880652427,0,0,0
1069,36161.23689173858,2010-08-31 23:32:30,2761.401052544804,7,3,-1.099568486213684,3.5715365409851074,3.245034938019272,3.034489108048935,12.902612063499491,11.200327133016236,-9.713172767078504e-05,0.0881769880652427,0,0,0
1070,36191.25207621875,2010-08-31 23:33:00,2791.416237170332,7,3,-1.0997490882873535,3.5681369304656982,3.245034938019272,3.043658086266807,12.902612063499491,11.2330578781158,-6.47544875391759e-05,0.0881769880652427,0,0,0
1071,36221.2673829085,2010-08-31 23:33:30,2821.4315437197324,7,3,-1.099929690361023,3.564413547515869,3.245034938019272,3.052827219785121,12.902612063499491,11.265757081268047,-6.47544875391759e-05,0.0881769880652427,0,0,0
1072,36251.28245389581,2010-08-31 23:34:00,2851.446614732102,7,3,-1.0997490882873535,3.56069016456604,3.245034938019272,3.061996161476346,12.902612063499491,11.298422427720832,-0.0001295089750783,0.0881769880652427,0,0,0
1073,36281.29770537797,2010-08-31 23:34:30,2881.4618662092444,7,3,-1.0997490882873535,3.556804895401001,3.245034938019272,3.071165112299557,12.902612063499491,11.331053204238891,-9.713172767078504e-05,0.0881769880652427,0,0,0
1074,36311.31296268464,2010-08-31 23:35:00,2911.477123490854,7,3,-1.099568486213684,3.552757740020752,3.245034938019272,3.080334147464713,12.902612063499491,11.363647514010207,-0.0001295089750783,0.0881769880652427,0,0,0
1075,36341.32820465308,2010-08-31 23:35:30,2941.4923654592985,7,3,-1.099568486213684,3.548548698425293,3.245034938019272,3.089503286634059,12.902612063499491,11.396204357580444,-0.0001295089750783,0.0881769880652427,0,0,0
1076,36371.34342606028,2010-08-31 23:36:00,2971.5075868765234,7,3,-1.099929690361023,3.544177770614624,3.245034938019272,3.098672445289656,12.902612063499491,11.428721844032223,-0.0001295089750783,0.0881769880652427,0,0,0
1077,36401.35868741704,2010-08-31 23:36:30,3001.5228482182515,7,3,-1.0997490882873535,3.539806842803955,3.245034938019272,3.107841550433704,12.902612063499491,11.461199012012914,-0.0001295089750783,0.0881769880652427,0,0,0
1078,36431.37389951103,2010-08-31 23:37:00,3031.538060317252,7,3,-1.0997490882873535,3.535274028778076,3.245034938019272,3.117010659648137,12.902612063499491,11.493635654192175,-0.0001295089750783,0.0881769880652427,0,0,0
1079,36461.39250610015,2010-08-31 23:37:30,3061.556666911379,7,3,-1.0997490882873535,3.5309031009674072,3.245034938019272,3.126180785149749,12.902612063499491,11.526034911447114,-0.0001618862152099,0.0881769880652427,0,0,0
1080,36491.40439835006,2010-08-31 23:38:00,3091.568559166307,7,3,-1.0997490882873535,3.5262084007263184,3.245034938019272,3.135348875099186,12.902612063499491,11.558385428220998,-0.0001295089750783,0.0881769880652427,0,0,0
1081,36521.41959756696,2010-08-31 23:38:30,3121.5837583832013,7,3,-1.099568486213684,3.521513700485229,3.245034938019272,3.144517985316067,12.902612063499491,11.590696024299902,-9.713172767078504e-05,0.0881769880652427,0,0,0
1082,36551.43495190045,2010-08-31 23:39:00,3151.5991127116813,7,3,-1.0997490882873535,3.516171455383301,3.245034938019272,3.153687199508952,12.902612063499491,11.62296129432802,-0.0001295089750783,0.0881769880652427,0,0,0
1083,36581.45008107277,2010-08-31 23:39:30,3181.6142418990407,7,3,-1.0997490882873535,3.510667562484741,3.245034938019272,3.162856284812895,12.902612063499491,11.65517669113485,-0.0001618862152099,0.0881769880652427,0,0,0
1084,36611.450569811626,2010-08-31 23:40:00,3211.614730617848,7,3,-1.0997490882873535,3.5045158863067627,3.245034938019272,3.172020945063209,12.902612063499491,11.687322956790805,-0.0001942634553415,0.0881769880652427,0,0,0
1085,36641.46506355526,2010-08-31 23:40:30,3241.6292243915605,7,3,-1.0997490882873535,3.4977166652679443,3.245034938019272,3.181189881593864,12.902612063499491,11.719425080375244,-0.0002266406954731,0.0881769880652427,0,0,0
1086,36671.48013207141,2010-08-31 23:41:00,3271.644292887658,7,3,-1.099929690361023,3.489946126937866,3.245034938019272,3.190358967475823,12.902612063499491,11.751461639911112,-0.0002590179501567,0.0881769880652427,0,0,0
1087,36701.49560535136,2010-08-31 23:41:30,3301.6597661876526,7,3,-1.0997490882873535,3.4812042713165283,3.245034938019272,3.199528157375403,12.902612063499491,11.7834232708154,-0.0002590179501567,0.0881769880652427,0,0,0
1088,36731.51070685973,2010-08-31 23:42:00,3331.674867696027,7,3,-1.099929690361023,3.470519781112671,3.245034938019272,3.208697205437061,12.902612063499491,11.8152953213308,-0.0003237724304199,0.0881769880652427,0,0,0
1089,36761.52595518903,2010-08-31 23:42:30,3361.6901160052744,7,3,-1.0997490882873535,3.457406997680664,3.245034938019272,3.217866325790424,12.902612063499491,11.847060262465972,-0.0004209041653666,0.0881769880652427,0,0,0
1090,36791.54105784026,2010-08-31 23:43:00,3391.705218656497,7,3,-1.099929690361023,3.440247058868408,3.245034938019272,3.227035374918858,12.902612063499491,11.878687417828344,-0.0005180359003134,0.0881769880652427,0,0,0
1091,36821.55690609976,2010-08-31 23:43:30,3421.7210669160063,7,3,-1.099568486213684,3.416126251220703,3.245034938019272,3.236204652592878,12.902612063499491,11.910127935748209,-0.0007446765666827,0.0881769880652427,0,0,0
1092,36851.57157738589,2010-08-31 23:44:00,3451.7357382121595,7,3,-1.0997490882873535,3.3814826011657715,3.245034938019272,3.245373610124297,12.902612063499491,11.941300741332832,-0.0011008263099938,0.0881769880652427,0,0,0
1093,36881.586890812425,2010-08-31 23:44:30,3481.7510516186494,7,3,-1.0997490882873535,3.3316218852996826,3.245034938019272,3.254542827870716,12.902612063499491,11.9720908840247,-0.0015217304462566,0.0881769880652427,0,0,0
1094,36911.60199099751,2010-08-31 23:45:00,3511.766151803726,7,3,-1.0997490882873535,3.2610397338867188,3.245034938019272,3.263711859462384,12.902612063499491,12.002334121609808,-0.0022339820861816,0.0881769880652427,0,0,0
1095,36941.617351115405,2010-08-31 23:45:30,3541.7815119316606,7,3,-1.099568486213684,3.1592135429382324,3.245034938019272,3.272881038590299,12.902612063499491,12.0318012028376,-0.0032377243041992,0.0881769880652427,0,0,0
1096,36971.63248385664,2010-08-31 23:46:00,3571.796644662852,7,3,-1.0997490882873535,2.988100290298462,3.245034938019272,3.282050104069058,12.902612063499491,12.060072952203502,-0.0062164305709302,0.0881769880652427,0,0,0
1097,36987.397902410565,2010-08-31 23:46:16,3587.5620632268115,7,3,-1.099568486213684,2.7880096435546875,3.245034938019272,3.28686616328124,12.902612063499491,12.074042624711163,-0.0131127359345555,0.0881769880652427,0,0,0
1098,36992.241572847655,2010-08-31 23:46:21,3592.4057336639007,7,3,-1.099929690361023,2.699620008468628,3.245034938019272,3.288345822062573,12.902612063499491,12.078103381344253,-0.0147315980866551,0.0881769880652427,0,0,0
1099,37052.25711595715,2010-08-31 23:47:21,60.01484133070113,8,3,0.0,3.246631860733032,3.245034938019272,3.288345822062573,12.902612063499491,12.078103381344253,0.0010684489971026,0.0881769880652427,0,0,0
1100,37052.4461267068,2010-08-31 23:47:21,0.187520583993954,9,3,-1.9243103452026844e-05,3.246793746948242,3.245034938019272,3.288345823064928,12.902612063499491,12.078103384598691,0.0,0.0872892439365387,0,0,0
1101,37057.27429006548,2010-08-31 23:47:26,5.01568396773497,9,3,0.0005225847125984,3.2531073093414307,3.245035743823332,3.288345823149458,12.902614682709611,12.078103384873144,0.0009065627818927,0.0872892439365387,0,0,0
