Data_Point,Test_Time(s),Date_Time,Step_Time(s),Step_Index,Cycle_Index,Current(A),Voltage(V),Charge_Capacity(Ah),Discharge_Capacity(Ah),Charge_Energy(Wh),Discharge_Energy(Wh),dV/dt(V/s),Internal_Resistance(Ohm),Is_FC_Data,AC_Impedance(Ohm),ACI_Phase_Angle(Deg)
8255,278563.2649216644,2010-09-03 18:52:57,30.015150605740462,1,24,0.0,3.4760239124298096,24.44359582009594,24.43561163864396,97.21668678728064,89.47303296941033,0.0005827903514727,0.0874469503760337,0,0,0
8256,278593.28020850965,2010-09-03 18:53:27,60.03043748611925,1,24,0.0,3.494478940963745,24.44359582009594,24.43561163864396,97.21668678728064,89.47303296941033,0.0004209041653666,0.0874469503760337,0,0,0
8257,278623.29543689423,2010-09-03 18:53:57,90.04566583060857,1,24,0.0,3.507753610610962,24.44359582009594,24.43561163864396,97.21668678728064,89.47303296941033,0.0002913951757363,0.0874469503760337,0,0,0
8258,278653.26345290605,2010-09-03 18:54:27,120.01368185246308,1,24,0.0,3.5181140899658203,24.44359582009594,24.43561163864396,97.21668678728064,89.47303296941033,0.0002266406954731,0.0874469503760337,0,0,0
8259,278683.2647675082,2010-09-03 18:54:58,30.0151514678892,2,24,0.5499359965324402,3.6443850994110103,24.448181242254805,24.43561163864396,97.233278501936,89.47303296941033,0.0011332035064697,0.0874469503760337,0,0,0
8260,278713.2799157681,2010-09-03 18:55:28,60.03029970773312,2,24,0.5501165986061096,3.680161714553833,24.45276685487117,24.43561163864396,97.25007727846771,89.47303296941033,0.0008418083307333,0.0874469503760337,0,0,0
8261,278743.2950503088,2010-09-03 18:55:58,90.04543425344706,2,24,0.5499359965324402,3.7060635089874263,24.457352235959583,24.43561163864396,97.26701440282258,89.47303296941033,0.0005827903514727,0.0874469503760337,0,0,0
8262,278773.3102098669,2010-09-03 18:56:28,120.06059381149944,2,24,0.5501165986061096,3.7271087169647217,24.461937607487616,24.43561163864396,97.2840584190909,89.47303296941033,0.0005180359003134,0.0874469503760337,0,0,0
8263,278803.32534661307,2010-09-03 18:56:58,150.07573055769765,2,24,0.5499359965324402,3.743135452270508,24.46652293686411,24.43561163864396,97.3011859855537,89.47303296941033,0.0004209041653666,0.0874469503760337,0,0,0
8264,278833.3404944168,2010-09-03 18:57:28,180.09087837147968,2,24,0.5501165986061096,3.754467248916626,24.471109102671942,24.43561163864396,97.31837967912094,89.47303296941033,0.0002913951757363,0.0874469503760337,0,0,0
8265,278863.3558866648,2010-09-03 18:57:58,210.1062706144545,2,24,0.5501165986061096,3.761266469955444,24.475695468456795,24.43561163864396,97.3356153515159,89.47303296941033,0.0001942634553415,0.0874469503760337,0,0,0
8266,278893.3708253524,2010-09-03 18:58:28,240.1212092920047,2,24,0.5501165986061096,3.7654755115509033,24.48028180981868,24.43561163864396,97.35287584132716,89.47303296941033,9.713172767078504e-05,0.0874469503760337,0,0,0
8267,278923.3859507804,2010-09-03 18:58:58,270.13633471999447,2,24,0.5499359965324402,3.768875122070313,24.484868154787986,24.43561163864396,97.37015396916588,89.47303296941033,6.47544875391759e-05,0.0874469503760337,0,0,0
8268,278953.4010825843,2010-09-03 18:59:28,300.1514665489374,2,24,0.5499359965324402,3.772112846374512,24.489454544816567,24.43561163864396,97.38744757363546,89.47303296941033,6.47544875391759e-05,0.0874469503760337,0,0,0
8269,278983.4162247991,2010-09-03 18:59:58,330.1666087387026,2,24,0.5499359965324402,3.775188684463501,24.494040802208502,24.43561163864396,97.4047552353549,89.47303296941033,6.47544875391759e-05,0.0874469503760337,0,0,0
8270,279013.4313901616,2010-09-03 19:00:28,360.18177410122155,2,24,0.5499359965324402,3.7784264087677,24.49862709610751,24.43561163864396,97.42207741150304,89.47303296941033,9.713172767078504e-05,0.0874469503760337,0,0,0
8271,279043.44653262204,2010-09-03 19:00:58,390.1969165616613,2,24,0.550297200679779,3.7816641330718994,24.50321345230958,24.43561163864396,97.43941421980284,89.47303296941033,6.47544875391759e-05,0.0874469503760337,0,0,0
8272,279073.4617994374,2010-09-03 19:01:28,420.212183387057,2,24,0.5501165986061096,3.784578084945679,24.50779975657386,24.43561163864396,97.4567651088704,89.47303296941033,6.47544875391759e-05,0.0874469503760337,0,0,0
8273,279103.4769773462,2010-09-03 19:01:58,450.227361295845,2,24,0.5501165986061096,3.787977695465088,24.5123860988676,24.43561163864396,97.47413036552736,89.47303296941033,0.0001295089750783,0.0874469503760337,0,0,0
8274,279133.4919696474,2010-09-03 19:02:28,480.24235359202936,2,24,0.5501165986061096,3.790891647338867,24.516972446067328,24.43561163864396,97.491509789917,89.47303296941033,6.47544875391759e-05,0.0874469503760337,0,0,0
8275,279163.50710698,2010-09-03 19:02:58,510.2574909196768,2,24,0.5499359965324402,3.793967485427856,24.521558741384577,24.43561163864396,97.50890300455949,89.47303296941033,3.237724376958795e-05,0.0874469503760337,0,0,0
8276,279193.52226127,2010-09-03 19:03:28,540.2726452146118,2,24,0.5501165986061096,3.7970433235168457,24.52614511755688,24.43561163864396,97.52631063072296,89.47303296941033,9.713172767078504e-05,0.0874469503760337,0,0,0
8277,279223.53739996604,2010-09-03 19:03:58,570.2877839056571,2,24,0.5499359965324402,3.799957275390625,24.5307314938668,24.43561163864396,97.54373229951044,89.47303296941033,3.237724376958795e-05,0.0874469503760337,0,0,0
8278,279253.55258374446,2010-09-03 19:04:28,600.3029676840741,2,24,0.5501165986061096,3.803194999694824,24.53531788091029,24.43561163864396,97.56116795761656,89.47303296941033,9.713172767078504e-05,0.0874469503760337,0,0,0
8279,279283.5676883456,2010-09-03 19:04:58,630.3180722901693,2,24,0.5501165986061096,3.8062708377838135,24.539904262738435,24.43561163864396,97.57861773290573,89.47303296941033,9.713172767078504e-05,0.0874469503760337,0,0,0
8280,279313.5828633872,2010-09-03 19:05:28,660.3332473267991,2,24,0.5501165986061096,3.8093466758728023,24.54449064141293,24.43561163864396,97.59608176832704,89.47303296941033,6.47544875391759e-05,0.0874469503760337,0,0,0
8281,279343.59801768215,2010-09-03 19:05:58,690.3484016217342,2,24,0.5501165986061096,3.812584400177002,24.54907709293333,24.43561163864396,97.6135606404734,89.47303296941033,9.713172767078504e-05,0.0874469503760337,0,0,0
8282,279373.61314217275,2010-09-03 19:06:28,720.3635261174003,2,24,0.5501165986061096,3.815984010696411,24.553663451192097,24.43561163864396,97.63105445608326,89.47303296941033,6.47544875391759e-05,0.0874469503760337,0,0,0
8283,279403.62827101426,2010-09-03 19:06:58,750.3786549538851,2,24,0.5501165986061096,3.81938362121582,24.55824982598817,24.43561163864396,97.64856366073316,89.47303296941033,6.47544875391759e-05,0.0874469503760337,0,0,0
8284,279433.64341191086,2010-09-03 19:07:28,780.3937958454147,2,24,0.5501165986061096,3.8227832317352295,24.562836246701305,24.43561163864396,97.66608868507372,89.47303296941033,0.0001295089750783,0.0874469503760337,0,0,0
8285,279463.65856235113,2010-09-03 19:07:58,810.4089462907555,2,24,0.5499359965324402,3.826182842254639,24.567422521512796,24.43561163864396,97.68362908778644,89.47303296941033,3.237724376958795e-05,0.0874469503760337,0,0,0
8286,279493.67385933164,2010-09-03 19:08:28,840.424243281332,2,24,0.5501165986061096,3.829744338989258,24.57200890010541,24.43561163864396,97.70118602792373,89.47303296941033,9.713172767078504e-05,0.0874469503760337,0,0,0
8287,279523.6888741741,2010-09-03 19:08:58,870.4392581387458,2,24,0.5499359965324402,3.833305597305298,24.57659527974505,24.43561163864396,97.71875911014531,89.47303296941033,9.70840483205393e-05,0.0874469503760337,0,0,0
8288,279553.70400356693,2010-09-03 19:09:28,900.4543875065547,2,24,0.5499359965324402,3.836867094039917,24.581181631827224,24.43561163864396,97.73634808738836,89.47303296941033,9.713172767078504e-05,0.0874469503760337,0,0,0
8289,279583.71913154627,2010-09-03 19:09:58,930.4695154859032,2,24,0.5499359965324402,3.840104818344116,24.58576802405365,24.43561163864396,97.75395300629016,89.47303296941033,6.47544875391759e-05,0.0874469503760337,0,0,0
8290,279613.7342886783,2010-09-03 19:10:28,960.4846726179092,2,24,0.5501165986061096,3.843666315078736,24.59035434306892,24.43561163864396,97.7715731002174,89.47303296941033,0.0001295089750783,0.0874469503760337,0,0,0
8291,279643.74947120354,2010-09-03 19:10:58,990.499855143203,2,24,0.5501165986061096,3.8467421531677246,24.594940698018917,24.43561163864396,97.78920849524783,89.47303296941033,6.47544875391759e-05,0.0874469503760337,0,0,0
8292,279673.7646181753,2010-09-03 19:11:28,1020.5150021148864,2,24,0.550297200679779,3.850141763687134,24.59952710136562,24.43561163864396,97.80685901058663,89.47303296941033,9.713172767078504e-05,0.0874469503760337,0,0,0
8293,279703.7797693625,2010-09-03 19:11:58,1050.5301532970634,2,24,0.5501165986061096,3.853055715560913,24.60411353453661,24.43561163864396,97.8245243329905,89.47303296941033,6.47544875391759e-05,0.0874469503760337,0,0,0
8294,279733.7949316523,2010-09-03 19:12:28,1080.545315611987,2,24,0.5501165986061096,3.856293439865112,24.60869995791616,24.43561163864396,97.84220387508194,89.47303296941033,9.713172767078504e-05,0.0874469503760337,0,0,0
8295,279763.81005188235,2010-09-03 19:12:58,1110.5604358219716,2,24,0.5499359965324402,3.859207391738892,24.61328634883526,24.43561163864396,97.8598973520894,89.47303296941033,3.237724376958795e-05,0.0874469503760337,0,0,0
8296,279793.8252001573,2010-09-03 19:13:28,1140.575584096903,2,24,0.5501165986061096,3.862121343612671,24.617872659612136,24.43561163864396,97.8776040477019,89.47303296941033,3.237724376958795e-05,0.0874469503760337,0,0,0
8297,279823.8404707721,2010-09-03 19:13:58,1170.5908547117433,2,24,0.5499359965324402,3.86487340927124,24.62245903955849,24.43561163864396,97.89532399392915,89.47303296941033,6.47544875391759e-05,0.0874469503760337,0,0,0
8298,279853.8557138634,2010-09-03 19:14:28,1200.606097802986,2,24,0.550297200679779,3.86778736114502,24.62704537953923,24.43561163864396,97.91305619134675,89.47303296941033,9.713172767078504e-05,0.0874469503760337,0,0,0
8299,279883.8706618892,2010-09-03 19:14:58,1230.621045828835,2,24,0.5501165986061096,3.870053768157959,24.631631778087197,24.43561163864396,97.9308004308208,89.47303296941033,6.47544875391759e-05,0.0874469503760337,0,0,0
8300,279913.88582920155,2010-09-03 19:15:28,1260.6362131412134,2,24,0.5499359965324402,3.8723201751708975,24.63621812174238,24.43561163864396,97.948555522167,89.47303296941033,3.237724376958795e-05,0.0874469503760337,0,0,0
8301,279943.9009588451,2010-09-03 19:15:58,1290.6513427947343,2,24,0.550297200679779,3.874748468399048,24.640804501978117,24.43561163864396,97.96632104365612,89.47303296941033,6.47544875391759e-05,0.0874469503760337,0,0,0
8302,279973.9161581071,2010-09-03 19:16:28,1320.6665420567415,2,24,0.5501165986061096,3.876691102981568,24.645390872898417,24.43561163864396,97.98409613521898,89.47303296941033,6.47544875391759e-05,0.0874469503760337,0,0,0
8303,280003.93123304425,2010-09-03 19:16:58,1350.6816169938925,2,24,0.5501165986061096,3.878471851348877,24.64997724668377,24.43561163864396,98.0018800625624,89.47303296941033,3.237724376958795e-05,0.0874469503760337,0,0,0
8304,280033.9464754337,2010-09-03 19:17:28,1380.6968593733611,2,24,0.5499359965324402,3.880090713500977,24.654563716207413,24.43561163864396,98.01967251184584,89.47303296941033,0.0,0.0874469503760337,0,0,0
8305,280063.9616935277,2010-09-03 19:17:58,1410.7120774673033,2,24,0.5501165986061096,3.881871461868286,24.659150089366904,24.43561163864396,98.03747202468374,89.47303296941033,9.713172767078504e-05,0.0874469503760337,0,0,0
8306,280093.9767665902,2010-09-03 19:18:28,1440.7271505297815,2,24,0.5499359965324402,3.883166551589966,24.663736473518263,24.43561163864396,98.05527840704168,89.47303296941033,3.237724376958795e-05,0.0874469503760337,0,0,0
8307,280123.99181580823,2010-09-03 19:18:58,1470.742199777908,2,24,0.5499359965324402,3.8844616413116455,24.668322859103128,24.43561163864396,98.07309117197458,89.47303296941033,6.47544875391759e-05,0.0874469503760337,0,0,0
8308,280154.0070692402,2010-09-03 19:19:28,1500.7574531948858,2,24,0.5499359965324402,3.8855948448181152,24.67290925902344,24.43561163864396,98.09090975984272,89.47303296941033,3.237724376958795e-05,0.0874469503760337,0,0,0
8309,280184.0221193756,2010-09-03 19:19:58,1530.7725033151855,2,24,0.5499359965324402,3.886889934539795,24.677495582037864,24.43561163864396,98.10873370383192,89.47303296941033,0.0,0.0874469503760337,0,0,0
8310,280214.0373044773,2010-09-03 19:20:28,1560.7876884269256,2,24,0.5501165986061096,3.8880231380462646,24.682081926939567,24.43561163864396,98.12656305605547,89.47303296941033,3.237724376958795e-05,0.0874469503760337,0,0,0
8311,280244.05241104827,2010-09-03 19:20:58,1590.8027950129554,2,24,0.5501165986061096,3.8891563415527344,24.68666830199136,24.43561163864396,98.14439777742734,89.47303296941033,0.0,0.0874469503760337,0,0,0
8312,280274.06757448096,2010-09-03 19:21:28,1620.817958420602,2,24,0.5501165986061096,3.890289545059204,24.69125464496573,24.43561163864396,98.1622373090116,89.47303296941033,3.237724376958795e-05,0.0874469503760337,0,0,0
8313,280304.0827140993,2010-09-03 19:21:58,1650.8330980389587,2,24,0.5501165986061096,3.891422748565674,24.69584101133811,24.43561163864396,98.18008190284186,89.47303296941033,3.237724376958795e-05,0.0874469503760337,0,0,0
8314,280334.0978856272,2010-09-03 19:22:28,1680.8482695768685,2,24,0.5499359965324402,3.892232179641724,24.700427392840304,24.43561163864396,98.197931412918,89.47303296941033,0.0,0.0874469503760337,0,0,0
8315,280364.1130228345,2010-09-03 19:22:58,1710.8634067992537,2,24,0.5501165986061096,3.893365383148194,24.705013830137613,24.43561163864396,98.21578597401265,89.47303296941033,3.237724376958795e-05,0.0874469503760337,0,0,0
8316,280394.12817004684,2010-09-03 19:23:28,1740.8785539914866,2,24,0.5501165986061096,3.894498586654663,24.70960024689773,24.43561163864396,98.23364533752944,89.47303296941033,0.0,0.0874469503760337,0,0,0
8317,280424.1433005926,2010-09-03 19:23:58,1770.893684562294,2,24,0.5499359965324402,3.895308017730713,24.714186778770948,24.43561163864396,98.25150945868012,89.47303296941033,0.0,0.0874469503760337,0,0,0
8318,280454.1590366574,2010-09-03 19:24:28,1800.9094206071286,2,24,0.550297200679779,3.8966031074523926,24.71877323060512,24.43561163864396,98.26937818292096,89.47303296941033,3.237724376958795e-05,0.0874469503760337,0,0,0
8319,280484.1608162937,2010-09-03 19:24:58,1830.9112002332736,2,24,0.5501165986061096,3.897574424743652,24.72335755489182,24.43561163864396,98.28724341667063,89.47303296941033,3.237724376958795e-05,0.0874469503760337,0,0,0
8320,280514.17320625903,2010-09-03 19:25:29,1860.9235902186988,2,24,0.5501165986061096,3.898545742034912,24.72794352505106,24.43561163864396,98.30511986410856,89.47303296941033,0.0,0.0874469503760337,0,0,0
8321,280544.1885356203,2010-09-03 19:25:59,1890.9389195599035,2,24,0.5501165986061096,3.899678945541382,24.732529873315805,24.43561163864396,98.32300269295652,89.47303296941033,3.237724376958795e-05,0.0874469503760337,0,0,0
8322,280574.203533751,2010-09-03 19:26:29,1920.9539176906287,2,24,0.550297200679779,3.900812149047852,24.737116230075195,24.43561163864396,98.340890328338,89.47303296941033,6.47544875391759e-05,0.0874469503760337,0,0,0
8323,280604.2188572978,2010-09-03 19:26:59,1950.969241232379,2,24,0.5499359965324402,3.901621580123901,24.7417026396344,24.43561163864396,98.35878310661,89.47303296941033,-3.237724376958795e-05,0.0874469503760337,0,0,0
8324,280634.2337267728,2010-09-03 19:27:29,1980.984110712468,2,24,0.5501165986061096,3.902916669845581,24.74628889482558,24.43561163864396,98.3766802028761,89.47303296941033,6.47544875391759e-05,0.0874469503760337,0,0,0
8325,280664.24885643634,2010-09-03 19:27:59,2010.999240406089,2,24,0.5501165986061096,3.903887987136841,24.75087521059265,24.43561163864396,98.39458252498544,89.47303296941033,0.0,0.0874469503760337,0,0,0
8326,280694.2639888017,2010-09-03 19:28:29,2041.0143727412933,2,24,0.5501165986061096,3.905021190643311,24.755461616092543,24.43561163864396,98.41249027505212,89.47303296941033,3.237724376958795e-05,0.0874469503760337,0,0,0
8327,280724.27916994854,2010-09-03 19:28:59,2071.029553888152,2,24,0.5501165986061096,3.90615439414978,24.76004797539786,24.43561163864396,98.43040269872634,89.47303296941033,3.237724376958795e-05,0.0874469503760337,0,0,0
8328,280754.2943002236,2010-09-03 19:29:29,2101.044684163222,2,24,0.5499359965324402,3.90728759765625,24.764634343295977,24.43561163864396,98.448320344108,89.47303296941033,3.237724376958795e-05,0.0874469503760337,0,0,0
8329,280784.30943295977,2010-09-03 19:29:59,2131.059816909451,2,24,0.5501165986061096,3.90842080116272,24.769220677400963,24.43561163864396,98.46624296144157,89.47303296941033,3.237724376958795e-05,0.0874469503760337,0,0,0
8330,280814.3248231878,2010-09-03 19:30:29,2161.075207137404,2,24,0.5499359965324402,3.90939211845398,24.77380707944426,24.43561163864396,98.48417109159656,89.47303296941033,0.0,0.0874469503760337,0,0,0
8331,280844.3398278999,2010-09-03 19:30:59,2191.09021186457,2,24,0.5501165986061096,3.910687208175659,24.778393443446625,24.43561163864396,98.50210431604022,89.47303296941033,3.237724376958795e-05,0.0874469503760337,0,0,0
8332,280874.35500086134,2010-09-03 19:31:29,2221.105384805978,2,24,0.5499359965324402,3.911820411682129,24.78297979264044,24.43561163864396,98.5200427450257,89.47303296941033,3.237724376958795e-05,0.0874469503760337,0,0,0
8333,280904.3700154982,2010-09-03 19:31:59,2251.1203994378297,2,24,0.5501165986061096,3.912953615188599,24.787566120158377,24.43561163864396,98.53798654633046,89.47303296941033,3.237724376958795e-05,0.0874469503760337,0,0,0
8334,280934.385182946,2010-09-03 19:32:29,2281.135566885546,2,24,0.5499359965324402,3.914086580276489,24.79215249366896,24.43561163864396,98.55593595308268,89.47303296941033,0.0,0.0874469503760337,0,0,0
8335,280964.40032312064,2010-09-03 19:32:59,2311.150707090364,2,24,0.550297200679779,3.915381669998169,24.7967388749014,24.43561163864396,98.57389091861664,89.47303296941033,3.237724376958795e-05,0.0874469503760337,0,0,0
8336,280994.41545099474,2010-09-03 19:33:29,2341.1658349343747,2,24,0.5499359965324402,3.9166767597198486,24.801325258890703,24.43561163864396,98.59185125561908,89.47303296941033,3.237724376958795e-05,0.0874469503760337,0,0,0
8337,281024.43063074315,2010-09-03 19:33:59,2371.181014682748,2,24,0.5501165986061096,3.917971849441528,24.805911556362005,24.43561163864396,98.60981700982974,89.47303296941033,3.237724376958795e-05,0.0874469503760337,0,0,0
8338,281054.4457513641,2010-09-03 19:34:29,2401.1961353137817,2,24,0.5499359965324402,3.919105052947998,24.810497922984144,24.43561163864396,98.62778871853848,89.47303296941033,0.0,0.0874469503760337,0,0,0
8339,281084.46090789966,2010-09-03 19:34:59,2431.2112918392763,2,24,0.5501165986061096,3.9204001426696777,24.81508435301412,24.43561163864396,98.6457665207096,89.47303296941033,3.237724376958795e-05,0.0874469503760337,0,0,0
8340,281114.4760408263,2010-09-03 19:35:29,2461.226424770968,2,24,0.5499359965324402,3.921695232391357,24.819670739246185,24.43561163864396,98.66374988087988,89.47303296941033,6.47544875391759e-05,0.0874469503760337,0,0,0
8341,281144.4912376924,2010-09-03 19:35:59,2491.2416216319907,2,24,0.5501165986061096,3.922990322113037,24.82425710958995,24.43561163864396,98.6817390945126,89.47303296941033,3.237724376958795e-05,0.0874469503760337,0,0,0
8342,281174.50632796274,2010-09-03 19:36:29,2521.2567119023565,2,24,0.5501165986061096,3.924285411834717,24.828843519686945,24.43561163864396,98.69973438145124,89.47303296941033,3.237724376958795e-05,0.0874469503760337,0,0,0
8343,281204.5214912551,2010-09-03 19:36:59,2551.2718751947164,2,24,0.5501165986061096,3.925580501556397,24.833429879257544,24.43561163864396,98.71773547732523,89.47303296941033,3.237724376958795e-05,0.0874469503760337,0,0,0
8344,281234.5366200164,2010-09-03 19:37:29,2581.2870039660384,2,24,0.5501165986061096,3.927037477493286,24.83801627863491,24.43561163864396,98.7357427086998,89.47303296941033,6.47544875391759e-05,0.0874469503760337,0,0,0
8345,281264.55177405564,2010-09-03 19:37:59,2611.3021579953115,2,24,0.5499359965324402,3.928170680999756,24.84260266926769,24.43561163864396,98.75375604841294,89.47303296941033,0.0,0.0874469503760337,0,0,0
8346,281294.5669205863,2010-09-03 19:38:29,2641.317304530908,2,24,0.5501165986061096,3.9296276569366455,24.847189089822216,24.43561163864396,98.7717756520053,89.47303296941033,3.237724376958795e-05,0.0874469503760337,0,0,0
8347,281324.58207030984,2010-09-03 19:38:59,2671.332454249437,2,24,0.5501165986061096,3.930922746658325,24.851775437890435,24.43561163864396,98.78980125037992,89.47303296941033,0.0,0.0874469503760337,0,0,0
8348,281354.5972206148,2010-09-03 19:39:29,2701.347604584503,2,24,0.5501165986061096,3.932379722595215,24.856361878020955,24.43561163864396,98.80783342978084,89.47303296941033,3.237724376958795e-05,0.0874469503760337,0,0,0
8349,281384.6124760268,2010-09-03 19:39:59,2731.362859981415,2,24,0.550297200679779,3.933836698532105,24.86094825282649,24.43561163864396,98.82587170831528,89.47303296941033,6.47544875391759e-05,0.0874469503760337,0,0,0
8350,281414.6274979067,2010-09-03 19:40:29,2761.377881846294,2,24,0.5501165986061096,3.935293674468994,24.865534740742,24.43561163864396,98.843916825194,89.47303296941033,6.47544875391759e-05,0.0874469503760337,0,0,0
8351,281444.64290181873,2010-09-03 19:40:59,2791.3932858987014,2,24,0.5501165986061096,3.936426877975464,24.87012128910296,24.43561163864396,98.86196862954044,89.47303296941033,3.237724376958795e-05,0.0874469503760337,0,0,0
8352,281474.6577994691,2010-09-03 19:41:29,2821.4081834136614,2,24,0.550297200679779,3.938045740127564,24.87470767990899,24.43561163864396,98.88002624365002,89.47303296941033,6.47544875391759e-05,0.0874469503760337,0,0,0
8353,281504.67296314234,2010-09-03 19:41:59,2851.423347086971,2,24,0.5501165986061096,3.939340829849243,24.879294098261667,24.43561163864396,98.89809057726458,89.47303296941033,3.237724376958795e-05,0.0874469503760337,0,0,0
8354,281534.6880905653,2010-09-03 19:42:29,2881.438474514945,2,24,0.5501165986061096,3.940797805786133,24.88388051224056,24.43561163864396,98.91616151237046,89.47303296941033,3.237724376958795e-05,0.0874469503760337,0,0,0
8355,281564.70324851933,2010-09-03 19:42:59,2911.453632469,2,24,0.5501165986061096,3.9422547817230233,24.88846695066469,24.43561163864396,98.93423912782931,89.47303296941033,3.237724376958795e-05,0.0874469503760337,0,0,0
8356,281594.7183687544,2010-09-03 19:43:29,2941.4687527190845,2,24,0.5501165986061096,3.943873643875122,24.893053337519937,24.43561163864396,98.95232323923084,89.47303296941033,6.47544875391759e-05,0.0874469503760337,0,0,0
8357,281624.73356500384,2010-09-03 19:43:59,2971.483948948533,2,24,0.5499359965324402,3.9451687335968018,24.897639752996657,24.43561163864396,98.970414165954,89.47303296941033,6.47544875391759e-05,0.0874469503760337,0,0,0
8358,281654.7488281802,2010-09-03 19:44:29,3001.499212134859,2,24,0.5499359965324402,3.9466257095336914,24.90222620783524,24.43561163864396,98.98851213982496,89.47303296941033,0.0,0.0874469503760337,0,0,0
8359,281684.7638505263,2010-09-03 19:44:59,3031.5142344709125,2,24,0.5501165986061096,3.948244571685791,24.90681261633321,24.43561163864396,99.00661660798043,89.47303296941033,3.237724376958795e-05,0.0874469503760337,0,0,0
8360,281714.77916921093,2010-09-03 19:45:29,3061.529553170594,2,24,0.5501165986061096,3.9497015476226807,24.911399007334104,24.43561163864396,99.0247279467026,89.47303296941033,3.237724376958795e-05,0.0874469503760337,0,0,0
8361,281744.7941250964,2010-09-03 19:45:59,3091.544509046007,2,24,0.5501165986061096,3.9511585235595694,24.915985441931312,24.43561163864396,99.04284647442394,89.47303296941033,3.237724376958795e-05,0.0874469503760337,0,0,0
8362,281774.80953211617,2010-09-03 19:46:29,3121.559916080848,2,24,0.5501165986061096,3.95277738571167,24.920571994302097,24.43561163864396,99.06097243926732,89.47303296941033,3.237724376958795e-05,0.0874469503760337,0,0,0
8363,281804.82462873735,2010-09-03 19:46:59,3151.575012692017,2,24,0.5501165986061096,3.95423436164856,24.92515834307165,24.43561163864396,99.0791047096404,89.47303296941033,3.237724376958795e-05,0.0874469503760337,0,0,0
8364,281834.839551405,2010-09-03 19:47:29,3181.5899353546533,2,24,0.5501165986061096,3.955853223800659,24.92974466789417,24.43561163864396,99.09724402402992,89.47303296941033,6.47544875391759e-05,0.0874469503760337,0,0,0
8365,281864.85469783534,2010-09-03 19:47:59,3211.6050817849878,2,24,0.5501165986061096,3.957472085952759,24.93433106781004,24.43561163864396,99.1153908418944,89.47303296941033,6.47544875391759e-05,0.0874469503760337,0,0,0
8366,281894.8699114431,2010-09-03 19:48:29,3241.620295377711,2,24,0.5501165986061096,3.958929061889648,24.938917459922035,24.43561163864396,99.13354493597532,89.47303296941033,3.237724376958795e-05,0.0874469503760337,0,0,0
8367,281924.8851268052,2010-09-03 19:48:59,3271.6355107548816,2,24,0.5501165986061096,3.960709810256958,24.94350385908153,24.43561163864396,99.1517064765454,89.47303296941033,6.47544875391759e-05,0.0874469503760337,0,0,0
8368,281954.9001338281,2010-09-03 19:49:29,3301.650517767744,2,24,0.550297200679779,3.9623286724090576,24.94809032017925,24.43561163864396,99.16987581181594,89.47303296941033,3.237724376958795e-05,0.0874469503760337,0,0,0
8369,281984.915320213,2010-09-03 19:49:59,3331.6657041626822,2,24,0.5501165986061096,3.963947534561157,24.95267673000598,24.43561163864396,99.188052499778,89.47303296941033,3.237724376958795e-05,0.0874469503760337,0,0,0
8370,282014.9304299219,2010-09-03 19:50:29,3361.680813871495,2,24,0.5501165986061096,3.965728282928467,24.957263210128698,24.43561163864396,99.20623718229211,89.47303296941033,6.47544875391759e-05,0.0874469503760337,0,0,0
8371,282044.9455877355,2010-09-03 19:50:59,3391.6959716801875,2,24,0.550297200679779,3.967509031295776,24.961849673124668,24.43561163864396,99.22442964339903,89.47303296941033,6.47544875391759e-05,0.0874469503760337,0,0,0
8372,282074.9607198903,2010-09-03 19:51:29,3421.711103839955,2,24,0.5501165986061096,3.969127893447876,24.966436090346924,24.43561163864396,99.24262974765944,89.47303296941033,3.237724376958795e-05,0.0874469503760337,0,0,0
8373,282104.97586291214,2010-09-03 19:51:59,3451.726246851769,2,24,0.5501165986061096,3.9709086418151855,24.971022542336883,24.43561163864396,99.26083804238138,89.47303296941033,6.47544875391759e-05,0.0874469503760337,0,0,0
8374,282134.99101456546,2010-09-03 19:52:29,3481.741398515145,2,24,0.550297200679779,3.972689390182495,24.97560905098056,24.43561163864396,99.2790547624254,89.47303296941033,3.237724376958795e-05,0.0874469503760337,0,0,0
8375,282165.006177913,2010-09-03 19:52:59,3511.7565618626422,2,24,0.5501165986061096,3.9744701385498047,24.980195570637136,24.43561163864396,99.29727973342705,89.47303296941033,3.237724376958795e-05,0.0874469503760337,0,0,0
8376,282195.0214544075,2010-09-03 19:53:29,3541.771838377186,2,24,0.5501165986061096,3.976412773132324,24.984782035031007,24.43561163864396,99.31551287293046,89.47303296941033,3.237724376958795e-05,0.0874469503760337,0,0,0
8377,282225.0364829239,2010-09-03 19:53:59,3571.7868668735928,2,24,0.5501165986061096,3.977869749069214,24.98936853766997,24.43561163864396,99.33375444638342,89.47303296941033,0.0,0.0874469503760337,0,0,0
8378,282255.0517352933,2010-09-03 19:54:29,3601.802119263009,2,24,0.5501165986061096,3.980136156082153,24.993954964898084,24.43561163864396,99.3520042376914,89.47303296941033,6.47544875391759e-05,0.0874469503760337,0,0,0
8379,282285.066760722,2010-09-03 19:54:59,3631.8171446717206,2,24,0.5501165986061096,3.982078790664673,24.99854125847127,24.43561163864396,99.3702624203486,89.47303296941033,3.237724376958795e-05,0.0874469503760337,0,0,0
8380,282315.0818956788,2010-09-03 19:55:29,3661.8322796184334,2,24,0.5501165986061096,3.9838595390319824,25.003127684045587,24.43561163864396,99.38852990327388,89.47303296941033,0.0,0.0874469503760337,0,0,0
8381,282345.0970479838,2010-09-03 19:55:59,3691.8474319334346,2,24,0.5501165986061096,3.985802173614502,25.00771396808183,24.43561163864396,99.40680562633752,89.47303296941033,3.237724376958795e-05,0.0874469503760337,0,0,0
8382,282375.11219168734,2010-09-03 19:56:29,3721.8625756219344,2,24,0.5499359965324402,3.987582921981812,25.01230036025944,24.43561163864396,99.42509075760286,89.47303296941033,0.0,0.0874469503760337,0,0,0
8383,282405.1301768777,2010-09-03 19:56:59,3751.88056090757,2,24,0.5499359965324402,3.989687442779541,25.01688719434233,24.43561163864396,99.443386536721,89.47303296941033,3.237724376958795e-05,0.0874469503760337,0,0,0
8384,282435.1425031694,2010-09-03 19:57:30,3781.8928871140383,2,24,0.5501165986061096,3.9917919635772714,25.02147315662948,24.43561163864396,99.46168796122087,89.47303296941033,6.47544875391759e-05,0.0874469503760337,0,0,0
8385,282465.15793765767,2010-09-03 19:58:00,3811.908321617339,2,24,0.5501165986061096,3.99357271194458,25.02605956348769,24.43561163864396,99.480000306664,89.47303296941033,3.237724376958795e-05,0.0874469503760337,0,0,0
8386,282495.17304530635,2010-09-03 19:58:30,3841.923429250979,2,24,0.5501165986061096,3.995838880538941,25.03064595313755,24.43561163864396,99.49832181508472,89.47303296941033,6.47544875391759e-05,0.0874469503760337,0,0,0
8387,282525.1879536784,2010-09-03 19:59:00,3871.938337628011,2,24,0.5501165986061096,3.99778151512146,25.035232286702666,24.43561163864396,99.51665239725834,89.47303296941033,3.237724376958795e-05,0.0874469503760337,0,0,0
8388,282555.20308017905,2010-09-03 19:59:30,3901.9534641286746,2,24,0.5501165986061096,3.9998860359191895,25.03981864366246,24.43561163864396,99.53499231968956,89.47303296941033,9.713172767078504e-05,0.0874469503760337,0,0,0
8389,282585.21842069813,2010-09-03 20:00:00,3931.9688046477377,2,24,0.5501165986061096,4.001990795135498,25.04440504478232,24.43561163864396,99.55334192928906,89.47303296941033,6.47544875391759e-05,0.0874469503760337,0,0,0
8390,282615.23342268844,2010-09-03 20:00:30,3961.983806648108,2,24,0.5499359965324402,4.003933429718018,25.048991367915736,24.43561163864396,99.57170065826334,89.47303296941033,6.47544875391759e-05,0.0874469503760337,0,0,0
8391,282645.2485513194,2010-09-03 20:01:00,3991.998935289105,2,24,0.5499359965324402,4.006037712097168,25.053577738586835,24.43561163864396,99.59006906197207,89.47303296941033,6.47544875391759e-05,0.0874469503760337,0,0,0
8392,282675.26368575986,2010-09-03 20:01:30,4022.014069729557,2,24,0.5501165986061096,4.008142471313477,25.05816415567203,24.43561163864396,99.60844716485695,89.47303296941033,6.47544875391759e-05,0.0874469503760337,0,0,0
8393,282705.27881599986,2010-09-03 20:02:00,4052.029199969539,2,24,0.550297200679779,4.010246753692627,25.06275054991012,24.43561163864396,99.62683470811116,89.47303296941033,6.47544875391759e-05,0.0874469503760337,0,0,0
8394,282735.29410838895,2010-09-03 20:02:30,4082.0444923385976,2,24,0.5501165986061096,4.012351512908936,25.067336937657277,24.43561163864396,99.6452319156588,89.47303296941033,3.24249267578125e-05,0.0874469503760337,0,0,0
8395,282765.3091473564,2010-09-03 20:03:00,4112.059531296076,2,24,0.5501165986061096,4.014455795288086,25.07192330845536,24.43561163864396,99.66363886667162,89.47303296941033,6.47544875391759e-05,0.0874469503760337,0,0,0
8396,282795.3242885838,2010-09-03 20:03:30,4142.074672523443,2,24,0.550297200679779,4.016884326934815,25.076509736802983,24.43561163864396,99.68205589258991,89.47303296941033,9.71794142969884e-05,0.0874469503760337,0,0,0
8397,282825.3394852594,2010-09-03 20:04:00,4172.089869214041,2,24,0.5501165986061096,4.018664836883545,25.08109614847321,24.43561163864396,99.70048277045991,89.47303296941033,0.0,0.0874469503760337,0,0,0
8398,282855.3545763117,2010-09-03 20:04:30,4202.104960251319,2,24,0.5501165986061096,4.021093368530273,25.085682520512425,24.43561163864396,99.71891943730536,89.47303296941033,9.71794142969884e-05,0.0874469503760337,0,0,0
8399,282885.3698131674,2010-09-03 20:05:00,4232.12019710702,2,24,0.5499359965324402,4.023197650909424,25.09026890677426,24.43561163864396,99.73736636521444,89.47303296941033,6.47544875391759e-05,0.0874469503760337,0,0,0
8400,282915.38482620526,2010-09-03 20:05:30,4262.1352101449,2,24,0.5501165986061096,4.025464057922363,25.094855521533862,24.43561163864396,99.7558244682546,89.47303296941033,3.23295607813634e-05,0.0874469503760337,0,0,0
8401,282945.4001381481,2010-09-03 20:06:00,4292.150522117817,2,24,0.550297200679779,4.027892589569092,25.099442861433843,24.43561163864396,99.77429586502988,89.47303296941033,9.71794142969884e-05,0.0874469503760337,0,0,0
8402,282975.41530083393,2010-09-03 20:06:30,4322.165684803665,2,24,0.550297200679779,4.030158996582031,25.104029998515067,24.43561163864396,99.79277688625602,89.47303296941033,9.71794142969884e-05,0.0874469503760337,0,0,0
8403,283005.4304041268,2010-09-03 20:07:00,4352.180788066411,2,24,0.5501165986061096,4.032263278961182,25.108617278759265,24.43561163864396,99.81126901198616,89.47303296941033,3.23295607813634e-05,0.0874469503760337,0,0,0
8404,283035.4453878466,2010-09-03 20:07:30,4382.1957717862215,2,24,0.5499359965324402,4.034529685974121,25.11320451451639,24.43561163864396,99.8297716291738,89.47303296941033,3.24249267578125e-05,0.0874469503760337,0,0,0
8405,283065.46061301813,2010-09-03 20:08:00,4412.210996957802,2,24,0.550297200679779,4.0371198654174805,25.117791854677595,24.43561163864396,99.84828540534195,89.47303296941033,6.47544875391759e-05,0.0874469503760337,0,0,0
8406,283095.47571854654,2010-09-03 20:08:30,4442.226102521284,2,24,0.550297200679779,4.03938627243042,25.122379101015323,24.43561163864396,99.86680966499549,89.47303296941033,6.47544875391759e-05,0.0874469503760337,0,0,0
8407,283125.49092250527,2010-09-03 20:09:00,4472.241306469971,2,24,0.5501165986061096,4.04181432723999,25.12696561665675,24.43561163864396,99.88534177681748,89.47303296941033,6.47544875391759e-05,0.0874469503760337,0,0,0
8408,283155.5060567904,2010-09-03 20:09:30,4502.2564407349855,2,24,0.5501165986061096,4.04408073425293,25.13155207725815,24.43561163864396,99.9038847915267,89.47303296941033,3.23295607813634e-05,0.0874469503760337,0,0,0
8409,283185.52126997703,2010-09-03 20:10:00,4532.271653916685,2,24,0.5501165986061096,4.046670913696289,25.136138684441164,24.43561163864396,99.92243960829336,89.47303296941033,6.47544875391759e-05,0.0874469503760337,0,0,0
8410,283215.5363708388,2010-09-03 20:10:30,4562.286754778447,2,24,0.5499359965324402,4.049099445343018,25.140725321891207,24.43561163864396,99.94100586698616,89.47303296941033,6.47544875391759e-05,0.0874469503760337,0,0,0
8411,283245.5515627124,2010-09-03 20:11:00,4592.301946672091,2,24,0.550297200679779,4.051851272583008,25.14531201358127,24.43561163864396,99.95958371784248,89.47303296941033,9.70840483205393e-05,0.0874469503760337,0,0,0
8412,283275.5666750227,2010-09-03 20:11:30,4622.317058967349,2,24,0.550297200679779,4.054279804229736,25.1498986379113,24.43561163864396,99.97817284985928,89.47303296941033,9.71794142969884e-05,0.0874469503760337,0,0,0
8413,283305.5818320795,2010-09-03 20:12:00,4652.332216024168,2,24,0.5501165986061096,4.056707859039307,25.154485356562684,24.43561163864396,99.99677399284202,89.47303296941033,3.23295607813634e-05,0.0874469503760337,0,0,0
8414,283335.596986179,2010-09-03 20:12:30,4682.347370123615,2,24,0.5501165986061096,4.059136390686035,25.15907196586136,24.43561163864396,100.01538646742226,89.47303296941033,3.24249267578125e-05,0.0874469503760337,0,0,0
8415,283365.61230384104,2010-09-03 20:13:00,4712.3626877907245,2,24,0.5501165986061096,4.0617265701293945,25.1636586138082,24.43561163864396,100.03401069716284,89.47303296941033,6.47544875391759e-05,0.0874469503760337,0,0,0
8416,283395.627313265,2010-09-03 20:13:30,4742.377697209584,2,24,0.5501165986061096,4.064316749572754,25.168245115204417,24.43561163864396,100.0526462364762,89.47303296941033,6.47544875391759e-05,0.0874469503760337,0,0,0
8417,283425.64249340934,2010-09-03 20:14:00,4772.392877353944,2,24,0.5501165986061096,4.067230701446533,25.17283173131583,24.43561163864396,100.07129443188325,89.47303296941033,9.71794142969884e-05,0.0874469503760337,0,0,0
8418,283455.6576998893,2010-09-03 20:14:30,4802.408083853989,2,24,0.5501165986061096,4.069820880889893,25.177418287626995,24.43561163864396,100.08995458842766,89.47303296941033,6.47544875391759e-05,0.0874469503760337,0,0,0
8419,283485.67279704683,2010-09-03 20:15:00,4832.423180981446,2,24,0.550297200679779,4.072572708129883,25.182004872341217,24.43561163864396,100.10862717832062,89.47303296941033,9.70840483205393e-05,0.0874469503760337,0,0,0
8420,283515.6879421539,2010-09-03 20:15:30,4862.438326093495,2,24,0.5501165986061096,4.075162887573242,25.186591413355018,24.43561163864396,100.12731200487478,89.47303296941033,6.47544875391759e-05,0.0874469503760337,0,0,0
8421,283545.7031142933,2010-09-03 20:16:00,4892.453498232904,2,24,0.5501165986061096,4.077915191650391,25.1911780133719,24.43561163864396,100.14600963986716,89.47303296941033,3.24249267578125e-05,0.0874469503760337,0,0,0
8422,283575.718272909,2010-09-03 20:16:30,4922.46865685362,2,24,0.550297200679779,4.080667018890381,25.19576465889701,24.43561163864396,100.16472018540972,89.47303296941033,6.47544875391759e-05,0.0874469503760337,0,0,0
8423,283605.7334540809,2010-09-03 20:17:00,4952.483838020527,2,24,0.550297200679779,4.083743095397949,25.200351252575345,24.43561163864396,100.18344326007976,89.47303296941033,9.71794142969884e-05,0.0874469503760337,0,0,0
8424,283635.74870861566,2010-09-03 20:17:30,4982.499092555292,2,24,0.550297200679779,4.08649492263794,25.20493776201542,24.43561163864396,100.20217895822752,89.47303296941033,9.70840483205393e-05,0.0874469503760337,0,0,0
8425,283665.76374842523,2010-09-03 20:18:00,5012.514132389956,2,24,0.5501165986061096,4.089247226715088,25.20952430200063,24.43561163864396,100.22092781306802,89.47303296941033,6.47544875391759e-05,0.0874469503760337,0,0,0
8426,283695.7790257017,2010-09-03 20:18:30,5042.529409646349,2,24,0.5499359965324402,4.092161178588867,25.21411092636069,24.43561163864396,100.23969018329257,89.47303296941033,6.47544875391759e-05,0.0874469503760337,0,0,0
8427,283725.7942944669,2010-09-03 20:19:00,5072.544678406567,2,24,0.5501165986061096,4.095075130462647,25.218697538379956,24.43561163864396,100.25846577844254,89.47303296941033,9.71794142969884e-05,0.0874469503760337,0,0,0
8428,283755.80922329496,2010-09-03 20:19:30,5102.559607239582,2,24,0.5501165986061096,4.097989082336426,25.2232841119542,24.43561163864396,100.27725462334335,89.47303296941033,6.47544875391759e-05,0.0874469503760337,0,0,0
8429,283785.8243811337,2010-09-03 20:20:00,5132.5747650733365,2,24,0.5501165986061096,4.101064682006836,25.22787073229764,24.43561163864396,100.2960571592927,89.47303296941033,9.70840483205393e-05,0.0874469503760337,0,0,0
8430,283815.83953852137,2010-09-03 20:20:30,5162.589922455967,2,24,0.5501165986061096,4.103978633880615,25.23245729283257,24.43561163864396,100.31487306434926,89.47303296941033,9.70840483205393e-05,0.0874469503760337,0,0,0
8431,283845.8548375921,2010-09-03 20:21:00,5192.60522153174,2,24,0.5501165986061096,4.1068925857543945,25.23704392788777,24.43561163864396,100.33370317102413,89.47303296941033,6.47544875391759e-05,0.0874469503760337,0,0,0
8432,283875.87001818256,2010-09-03 20:21:30,5222.620402132237,2,24,0.5501165986061096,4.110130310058594,25.24163058364715,24.43561163864396,100.35254726536408,89.47303296941033,0.0001295089750783,0.0874469503760337,0,0,0
8433,283905.88502409775,2010-09-03 20:22:00,5252.635408037339,2,24,0.5501165986061096,4.113044261932373,25.246217173009136,24.43561163864396,100.37140516538736,89.47303296941033,9.70840483205393e-05,0.0874469503760337,0,0,0
8434,283935.9001956557,2010-09-03 20:22:30,5282.6505795953,2,24,0.5501165986061096,4.116281986236572,25.2508037281646,24.43561163864396,100.3902770770946,89.47303296941033,9.71794142969884e-05,0.0874469503760337,0,0,0
8435,283965.9153618553,2010-09-03 20:23:00,5312.665745799917,2,24,0.550297200679779,4.119357585906982,25.25539029041163,24.43561163864396,100.4091633054306,89.47303296941033,9.70840483205393e-05,0.0874469503760337,0,0,0
8436,283995.93050603505,2010-09-03 20:23:30,5342.6808899796415,2,24,0.5501165986061096,4.122595310211182,25.259976934511133,24.43561163864396,100.42806436142742,89.47303296941033,0.0001295089750783,0.0874469503760337,0,0,0
8437,284025.94569394377,2010-09-03 20:24:00,5372.696077888353,2,24,0.5501165986061096,4.12567138671875,25.26456354002002,24.43561163864396,100.446979717349,89.47303296941033,9.71794142969884e-05,0.0874469503760337,0,0,0
8438,284055.96082016366,2010-09-03 20:24:30,5402.711204108316,2,24,0.5501165986061096,4.12874698638916,25.26915019226047,24.43561163864396,100.46591002350748,89.47303296941033,6.47544875391759e-05,0.0874469503760337,0,0,0
8439,284085.9760109395,2010-09-03 20:25:00,5432.72639489921,2,24,0.5499359965324402,4.131984710693359,25.27373680011475,24.43561163864396,100.48485496751933,89.47303296941033,6.47544875391759e-05,0.0874469503760337,0,0,0
8440,284115.9911499614,2010-09-03 20:25:30,5462.741533906043,2,24,0.5501165986061096,4.135384559631348,25.27832345107027,24.43561163864396,100.50381504696443,89.47303296941033,9.71794142969884e-05,0.0874469503760337,0,0,0
8441,284146.0063077049,2010-09-03 20:26:00,5492.75669164456,2,24,0.5501165986061096,4.138783931732178,25.28291009044664,24.43561163864396,100.5227901742366,89.47303296941033,9.70840483205393e-05,0.0874469503760337,0,0,0
8442,284176.02144642104,2010-09-03 20:26:30,5522.771830385731,2,24,0.5501165986061096,4.142183780670166,25.28749671024213,24.43561163864396,100.54178049665782,89.47303296941033,0.0001295089750783,0.0874469503760337,0,0,0
8443,284206.0366189063,2010-09-03 20:27:00,5552.787002850952,2,24,0.5501165986061096,4.145583152770996,25.292083297212024,24.43561163864396,100.56078611696444,89.47303296941033,9.70840483205393e-05,0.0874469503760337,0,0,0
8444,284236.0517778027,2010-09-03 20:27:30,5582.802161737331,2,24,0.5501165986061096,4.148820877075195,25.29666981589019,24.43561163864396,100.57980724794284,89.47303296941033,9.70840483205393e-05,0.0874469503760337,0,0,0
8445,284266.06692890974,2010-09-03 20:28:00,5612.817312854345,2,24,0.5501165986061096,4.152382373809815,25.301256331623435,24.43561163864396,100.59884400626594,89.47303296941033,9.70840483205393e-05,0.0874469503760337,0,0,0
8446,284296.08211770566,2010-09-03 20:28:30,5642.832501670317,2,24,0.5497553944587708,4.155620098114014,25.305842908165797,24.43561163864396,100.61789676158617,89.47303296941033,3.23295607813634e-05,0.0874469503760337,0,0,0
8447,284326.0979192888,2010-09-03 20:29:00,5672.84830322843,2,24,0.5501165986061096,4.159343719482422,25.31042956292393,24.43561163864396,100.6369657857264,89.47303296941033,9.71794142969884e-05,0.0874469503760337,0,0,0
8448,284356.09965882,2010-09-03 20:29:30,5702.85004276466,2,24,0.5501165986061096,4.162743091583252,25.31501410760507,24.43561163864396,100.65604206200877,89.47303296941033,9.70840483205393e-05,0.0874469503760337,0,0,0
8449,284386.1120179586,2010-09-03 20:30:01,5732.862401898192,2,24,0.5501165986061096,4.166304588317871,25.31960024027393,24.43561163864396,100.67514110275768,89.47303296941033,9.70840483205393e-05,0.0874469503760337,0,0,0
8450,284416.1274311588,2010-09-03 20:30:31,5762.877815098399,2,24,0.5499359965324402,4.169704437255859,25.324186897404317,24.43561163864396,100.69425864752392,89.47303296941033,9.71794142969884e-05,0.0874469503760337,0,0,0
8451,284446.1428095372,2010-09-03 20:31:01,5792.893193536969,2,24,0.5501165986061096,4.173427581787109,25.328773472605217,24.43561163864396,100.71339237401538,89.47303296941033,6.47544875391759e-05,0.0874469503760337,0,0,0
8452,284476.1576081757,2010-09-03 20:31:31,5822.907992120362,2,24,0.5499359965324402,4.1769890785217285,25.33336003657461,24.43561163864396,100.7325426174596,89.47303296941033,9.70840483205393e-05,0.0874469503760337,0,0,0
8453,284506.172628612,2010-09-03 20:32:01,5852.923012551667,2,24,0.550297200679779,4.180712699890137,25.33794666224617,24.43561163864396,100.75170983777546,89.47303296941033,9.71794142969884e-05,0.0874469503760337,0,0,0
8454,284536.18778128794,2010-09-03 20:32:31,5882.938165232579,2,24,0.5501165986061096,4.184435844421387,25.34253327463933,24.43561163864396,100.77089386661645,89.47303296941033,9.70840483205393e-05,0.0874469503760337,0,0,0
8455,284566.2030675919,2010-09-03 20:33:01,5912.953451531509,2,24,0.5501165986061096,4.188159465789795,25.34711986998932,24.43561163864396,100.79009472992058,89.47303296941033,6.47544875391759e-05,0.0874469503760337,0,0,0
8456,284596.21812433866,2010-09-03 20:33:31,5942.968508283337,2,24,0.5501165986061096,4.192044734954834,25.35170639086364,24.43561163864396,100.80931248492088,89.47303296941033,0.0001295089750783,0.0874469503760337,0,0,0
8457,284626.2332831399,2010-09-03 20:34:01,5972.98366707949,2,24,0.5501165986061096,4.195605754852295,25.3562930281945,24.43561163864396,100.82854806542632,89.47303296941033,9.70840483205393e-05,0.0874469503760337,0,0,0
8458,284656.24845930934,2010-09-03 20:34:31,6002.998843268993,2,24,0.550297200679779,4.199653148651123,25.36087954884917,24.43561163864396,100.84780052856436,89.47303296941033,0.0001295089750783,0.0874469503760337,0,0,0
8459,284658.6390232552,2010-09-03 20:34:33,6005.389407199868,2,24,0.550297200679779,4.200138568878174,25.361244856805666,24.43561163864396,100.84933471667068,89.47303296941033,0.0001295089750783,0.0874469503760337,0,0,0
8460,284688.6573348102,2010-09-03 20:35:03,30.015301176007892,3,24,0.0,4.118224620819092,25.361244856805666,24.43561163864396,100.84933471667068,89.47303296941033,-0.0004208564641885,0.0874469503760337,0,0,0
8461,284718.6725872598,2010-09-03 20:35:33,60.03055361554952,3,24,0.0,4.108026027679443,25.361244856805666,24.43561163864396,100.84933471667068,89.47303296941033,-0.0002590179501567,0.0874469503760337,0,0,0
8462,284748.6875353207,2010-09-03 20:36:03,90.045501676486,3,24,0.0,4.102035999298096,25.361244856805666,24.43561163864396,100.84933471667068,89.47303296941033,-0.0001619339018361,0.0874469503760337,0,0,0
8463,284778.65612973407,2010-09-03 20:36:33,120.01409621016997,3,24,0.0,4.098150730133057,25.361244856805666,24.43561163864396,100.84933471667068,89.47303296941033,-9.71794142969884e-05,0.0874469503760337,0,0,0
8464,284778.660675814,2010-09-03 20:36:33,2.666646103e-06,4,24,1.0094059705734253,4.199653148651123,25.36124485755337,24.43561163864396,100.84933471981076,89.47303296941033,0.0,0.0874469503760337,0,0,0
8465,284779.4419247567,2010-09-03 20:36:34,0.781251604383232,4,24,0.9588354229927064,4.199653148651123,25.361456813758785,24.43561163864396,100.85022487729488,89.47303296941033,0.0,0.0874469503760337,0,0,0
8466,284781.4888816832,2010-09-03 20:36:36,2.828208520851969,4,24,0.9080842137336732,4.199814796447754,25.361986541795005,24.43561163864396,100.85244959729332,89.47303296941033,3.23295607813634e-05,0.0874469503760337,0,0,0
8467,284784.5668563682,2010-09-03 20:36:39,5.906183210848577,4,24,0.8576942086219788,4.199653148651123,25.362740450417324,24.43561163864396,100.85561581787027,89.47303296941033,-3.23295607813634e-05,0.0874469503760337,0,0,0
8468,284788.7230149241,2010-09-03 20:36:43,10.062341771800488,4,24,0.8073042035102844,4.199814796447754,25.36370055980659,24.43561163864396,100.85964803334316,89.47303296941033,0.0,0.0874469503760337,0,0,0
8469,284794.0668184617,2010-09-03 20:36:49,15.406145309463586,4,24,0.7572754621505737,4.199814796447754,25.36486043933996,24.43561163864396,100.86451925026752,89.47303296941033,0.0,0.0874469503760337,0,0,0
8470,284800.7853490122,2010-09-03 20:36:55,22.12467585983528,4,24,0.7072466611862183,4.199653148651123,25.36622535194995,24.43561163864396,100.87025156713452,89.47303296941033,-3.23295607813634e-05,0.0874469503760337,0,0,0
8471,284809.72269418126,2010-09-03 20:37:04,31.062021028949072,4,24,0.6572179198265076,4.199653148651123,25.367916460130363,24.43561163864396,100.87735382975718,89.47303296941033,-3.23295607813634e-05,0.0874469503760337,0,0,0
8472,284821.691279689,2010-09-03 20:37:16,43.03060653166353,4,24,0.6071891188621521,4.199653148651123,25.37001432545662,24.43561163864396,100.8861643703722,89.47303296941033,-3.23295607813634e-05,0.0874469503760337,0,0,0
8473,284839.2535015998,2010-09-03 20:37:34,60.59282844242573,4,24,0.5571603775024414,4.199814796447754,25.372847105121377,24.43561163864396,100.89806139925848,89.47303296941033,-3.24249267578125e-05,0.0874469503760337,0,0,0
8474,284867.3937021631,2010-09-03 20:38:02,88.73302903081526,4,24,0.5071315765380859,4.199814796447754,25.376990955710408,24.43561163864396,100.91546466135644,89.47303296941033,3.23295607813634e-05,0.0874469503760337,0,0,0
8475,284916.50252197246,2010-09-03 20:38:51,137.84184884018632,4,24,0.4569222331047058,4.199653148651123,25.38353719303565,24.43561163864396,100.94295740210336,89.47303296941033,-3.23295607813634e-05,0.0874469503760337,0,0,0
8476,284996.7666937252,2010-09-03 20:40:11,218.10602057281224,4,24,0.4068934619426727,4.199814796447754,25.393136379220977,24.43561163864396,100.98327188580464,89.47303296941033,0.0,0.0874469503760337,0,0,0
8477,285104.8900196822,2010-09-03 20:42:00,326.2293465248003,4,24,0.3568646907806396,4.199814796447754,25.404585575547745,24.43561163864396,101.03135609630496,89.47303296941033,0.0,0.0874469503760337,0,0,0
8478,285234.71616398025,2010-09-03 20:44:09,456.055490822897,4,24,0.3068359196186065,4.199653148651123,25.41653807352727,24.43561163864396,101.08155386415258,89.47303296941033,0.0,0.0874469503760337,0,0,0
8479,285392.9953726646,2010-09-03 20:46:48,614.3346994972085,4,24,0.2568071484565735,4.199653148651123,25.42890583128363,24.43561163864396,101.1334952804992,89.47303296941033,0.0,0.0874469503760337,0,0,0
8480,285584.99265292304,2010-09-03 20:50:00,806.3319797757488,4,24,0.2067783772945404,4.199814796447754,25.44123692941432,24.43561163864396,101.18528321884504,89.47303296941033,0.0,0.0874469503760337,0,0,0
8481,285837.3006950072,2010-09-03 20:54:12,1058.6400218398162,4,24,0.1565690040588379,4.199653148651123,25.453921632219675,24.43561163864396,101.23855616879916,89.47303296941033,-3.23295607813634e-05,0.0874469503760337,0,0,0
8482,286201.1544673328,2010-09-03 21:00:16,1422.4937941654584,4,24,0.1063596233725547,4.199653148651123,25.46708530129605,24.43561163864396,101.29384058038902,89.47303296941033,-3.23295607813634e-05,0.0874469503760337,0,0,0
8483,286848.6289805176,2010-09-03 21:11:03,2069.968307360267,4,24,0.0563308522105217,4.199653148651123,25.481246557456124,24.43561163864396,101.35331460160164,89.47303296941033,0.0,0.0874469503760337,0,0,0
8484,286979.9394649932,2010-09-03 21:13:15,2201.278791865881,4,24,0.0498289167881011,4.199814796447754,25.483192946341543,24.43561163864396,101.36148898985635,89.47303296941033,0.0,0.0874469503760337,0,0,0
8485,287009.94630328286,2010-09-03 21:13:45,30.015147593232363,5,24,0.0,4.192206382751465,25.483192946341543,24.43561163864396,101.36148898985635,89.47303296941033,-3.24249267578125e-05,0.0874469503760337,0,0,0
8486,287039.94581912697,2010-09-03 21:14:15,60.014663437336125,5,24,0.0,4.191235065460205,25.483192946341543,24.43561163864396,101.36148898985635,89.47303296941033,6.47544875391759e-05,0.0874469503760337,0,0,0
8487,287040.14167534583,2010-09-03 21:14:15,0.187611345198803,6,24,-1.9243103452026844e-05,4.190911293029785,25.483192946341543,24.4356116396468,101.36148898985635,89.47303297361313,0.0,0.0923051163554191,0,0,0
8488,287044.96960611985,2010-09-03 21:14:20,5.015542144267251,6,24,0.0008838032954372,4.190911293029785,25.483193905742336,24.43561163981312,101.36149301071984,89.47303297431017,-6.47544875391759e-05,0.0923051163554191,0,0,0
8489,287074.99307947204,2010-09-03 21:14:50,30.01516882615133,7,24,-1.099568486213684,4.020445823669434,25.483193905742336,24.44477922609613,101.36149301071984,89.51008547537211,-0.0008741378551349,0.0923051163554191,0,0,0
8490,287105.00825595227,2010-09-03 21:15:20,60.030345306378976,7,24,-1.099568486213684,3.99373459815979,25.483193905742336,24.45394677898756,101.36149301071984,89.5468116464805,-0.000615119934082,0.0923051163554191,0,0,0
8491,287135.02342629724,2010-09-03 21:15:50,90.04551568139055,7,24,-1.099568486213684,3.9756033420562735,25.483193905742336,24.46311433673662,101.36149301071984,89.58333731930539,-0.0003885269106831,0.0923051163554191,0,0,0
8492,287165.0387023356,2010-09-03 21:16:20,120.06079169969772,7,24,-1.0997490882873535,3.9616811275482178,25.483193905742336,24.472281821360163,101.36149301071984,89.61971727823101,-0.0003237724304199,0.0923051163554191,0,0,0
8493,287195.05387741735,2010-09-03 21:16:50,150.0759667764274,7,24,-1.0993878841400146,3.9500253200531006,25.483193905742336,24.48144926787189,101.36149301071984,89.65598068931645,-0.0002590179501567,0.0923051163554191,0,0,0
8494,287225.0689199788,2010-09-03 21:17:20,180.0910093328758,7,24,-1.099568486213684,3.939664602279663,25.483193905742336,24.490616727408327,101.36149301071984,89.69214394028907,-0.0002590179501567,0.0923051163554191,0,0,0
8495,287255.084084424,2010-09-03 21:17:50,210.1061737781085,7,24,-1.099568486213684,3.9304370880126953,25.483193905742336,24.49978420349643,101.36149301071984,89.72821687742376,-0.0001942634553415,0.0923051163554191,0,0,0
8496,287285.0992497816,2010-09-03 21:18:20,240.12133913561493,7,24,-1.0997490882873535,3.921209573745728,25.483193905742336,24.508951671978245,101.36149301071984,89.76420568956053,-0.0002266406954731,0.0923051163554191,0,0,0
8497,287315.1145755037,2010-09-03 21:18:50,270.1366648828619,7,24,-1.0993878841400146,3.9127917289733887,25.483193905742336,24.51811923622993,101.36149301071984,89.80011485251816,-0.0001942157687153,0.0923051163554191,0,0,0
8498,287345.129839898,2010-09-03 21:19:20,300.1519292471236,7,24,-1.099929690361023,3.9042117595672607,25.483193905742336,24.527286749111862,101.36149301071984,89.83594657796395,-0.0002590179501567,0.0923051163554191,0,0,0
8499,287375.1447615281,2010-09-03 21:19:50,330.16685088721124,7,24,-1.0993878841400146,3.896441221237183,25.483193905742336,24.53645416149603,101.36149301071984,89.87170318447083,-0.0001942634553415,0.0923051163554191,0,0,0
8500,287405.1599162291,2010-09-03 21:20:20,360.1820055881582,7,24,-1.0993878841400146,3.888670682907105,25.483193905742336,24.54562159120743,101.36149301071984,89.9073874282886,-0.0001942634553415,0.0923051163554191,0,0,0
8501,287435.17529867764,2010-09-03 21:20:50,390.1973880617847,7,24,-1.0993878841400146,3.8809001445770255,25.483193905742336,24.55478910364149,101.36149301071984,89.94300077900327,-0.0001942634553415,0.0923051163554191,0,0,0
8502,287465.19028368563,2010-09-03 21:21:20,420.21237303972975,7,24,-1.099568486213684,3.873291492462158,25.483193905742336,24.5639565608303,101.36149301071984,89.9785438036922,-0.0001942634553415,0.0923051163554191,0,0,0
8503,287495.2055039901,2010-09-03 21:21:50,450.22759337425583,7,24,-1.099568486213684,3.86600661277771,25.483193905742336,24.573124037172587,101.36149301071984,90.01401803447898,-0.0001942634553415,0.0923051163554191,0,0,0
8504,287525.22059211007,2010-09-03 21:22:20,480.2426814641877,7,24,-1.099568486213684,3.858559846878052,25.483193905742336,24.58229152543938,101.36149301071984,90.049424608536,-0.0001942634553415,0.0923051163554191,0,0,0
8505,287555.2358577876,2010-09-03 21:22:50,510.2579471417224,7,24,-1.099568486213684,3.851274967193604,25.483193905742336,24.591458999385218,101.36149301071984,90.08476460763865,-0.0002266406954731,0.0923051163554191,0,0,0
8506,287585.25093748164,2010-09-03 21:23:20,540.273026845754,7,24,-1.099568486213684,3.844151973724365,25.483193905742336,24.60062646925181,101.36149301071984,90.12003888296944,-0.0002266406954731,0.0923051163554191,0,0,0
8507,287615.266085541,2010-09-03 21:23:50,570.2881749001357,7,24,-1.099568486213684,3.837190866470337,25.483193905742336,24.60979389358241,101.36149301071984,90.15524832293998,-0.0002266406954731,0.0923051163554191,0,0,0
8508,287645.28126277315,2010-09-03 21:24:20,600.3033521272248,7,24,-1.0993878841400146,3.830229997634888,25.483193905742336,24.618961933427904,101.36149301071984,90.19039634475868,-0.0001942634553415,0.0923051163554191,0,0,0
8509,287675.2964276344,2010-09-03 21:24:50,630.3185169834819,7,24,-1.0997490882873535,3.8232688903808594,25.483193905742336,24.628130236939583,101.36149301071984,90.22548275316286,-0.0002266406954731,0.0923051163554191,0,0,0
8510,287705.3116398687,2010-09-03 21:25:20,660.3337292278447,7,24,-1.0993878841400146,3.816955327987671,25.483193905742336,24.63729814101685,101.36149301071984,90.2605063178662,-0.0001618862152099,0.0923051163554191,0,0,0
8511,287735.3270275503,2010-09-03 21:25:50,690.3491170347636,7,24,-1.0997490882873535,3.810156106948853,25.483193905742336,24.646465771866385,101.36149301071984,90.2954683250137,-0.0001942634553415,0.0923051163554191,0,0,0
8512,287765.34195537085,2010-09-03 21:26:20,720.3640447449799,7,24,-1.0997490882873535,3.803842544555664,25.483193905742336,24.655633263824537,101.36149301071984,90.33037004716098,-0.0001942634553415,0.0923051163554191,0,0,0
8513,287795.35747529706,2010-09-03 21:26:50,750.3795646862179,7,24,-1.0997490882873535,3.797528982162476,25.483193905742336,24.664800857487865,101.36149301071984,90.36521365824338,-0.0001942634553415,0.0923051163554191,0,0,0
8514,287825.3724185109,2010-09-03 21:27:20,780.3945078649865,7,24,-1.099568486213684,3.791215419769287,25.483193905742336,24.673968350085765,101.36149301071984,90.39999899393892,-0.0001618862152099,0.0923051163554191,0,0,0
8515,287855.3874440399,2010-09-03 21:27:50,810.4095333990099,7,24,-1.099568486213684,3.785225629806519,25.483193905742336,24.68313582113621,101.36149301071984,90.43472761894158,-0.0001295089750783,0.0923051163554191,0,0,0
8516,287885.402622084,2010-09-03 21:28:20,840.4247114381227,7,24,-1.099568486213684,3.77923583984375,25.483193905742336,24.69230345365064,101.36149301071984,90.46940131954668,-0.0001942634553415,0.0923051163554191,0,0,0
8517,287915.4178087697,2010-09-03 21:28:50,870.4398981237855,7,24,-1.099568486213684,3.773407936096192,25.483193905742336,24.701471045942085,101.36149301071984,90.50402068345188,-0.0001295089750783,0.0923051163554191,0,0,0
8518,287945.4359384101,2010-09-03 21:29:20,900.4580277942719,7,24,-1.099568486213684,3.767580032348633,25.483193905742336,24.710639518777427,101.36149301071984,90.53859023755136,-0.0001618862152099,0.0923051163554191,0,0,0
8519,287975.4481594244,2010-09-03 21:29:51,930.4702487835066,7,24,-1.0997490882873535,3.761914014816284,25.483193905742336,24.719806194354792,101.36149301071984,90.57310082698872,-0.0001618862152099,0.0923051163554191,0,0,0
8520,288005.46356285026,2010-09-03 21:30:21,960.4856522093528,7,24,-1.0993878841400146,3.756571769714356,25.483193905742336,24.728973838610777,101.36149301071984,90.60756374863684,-0.0001295089750783,0.0923051163554191,0,0,0
8521,288035.4785738681,2010-09-03 21:30:51,990.5006632221844,7,24,-1.0993878841400146,3.751067876815796,25.483193905742336,24.738141330103684,101.36149301071984,90.64197573563692,-9.713172767078504e-05,0.0923051163554191,0,0,0
8522,288065.49376713514,2010-09-03 21:31:21,1020.5158565143124,7,24,-1.099568486213684,3.745563745498657,25.483193905742336,24.747308885184296,101.36149301071984,90.67633873412704,-0.0001618862152099,0.0923051163554191,0,0,0
8523,288095.508785361,2010-09-03 21:31:51,1050.530874715059,7,24,-1.099568486213684,3.740545272827149,25.483193905742336,24.75647634153577,101.36149301071984,90.71065283152436,-0.0001295089750783,0.0923051163554191,0,0,0
8524,288125.5239600517,2010-09-03 21:32:21,1080.5460494108393,7,24,-1.099568486213684,3.7350411415100098,25.483193905742336,24.765643922288525,101.36149301071984,90.74491965646848,-0.0001942634553415,0.0923051163554191,0,0,0
8525,288155.53912097315,2010-09-03 21:32:51,1110.56121033229,7,24,-1.099568486213684,3.730184555053711,25.483193905742336,24.774811579942504,101.36149301071984,90.77913992968996,-9.713172767078504e-05,0.0923051163554191,0,0,0
8526,288185.55431804975,2010-09-03 21:33:21,1140.5764074288998,7,24,-1.099568486213684,3.725327968597412,25.483193905742336,24.78397912280055,101.36149301071984,90.81331440008417,-0.0001295089750783,0.0923051163554191,0,0,0
8527,288215.56945580343,2010-09-03 21:33:51,1170.5915451575463,7,24,-1.099568486213684,3.7203094959259033,25.483193905742336,24.793146662674648,101.36149301071984,90.84744406936792,-0.0001295089750783,0.0923051163554191,0,0,0
8528,288245.5846230707,2010-09-03 21:34:21,1200.6067124248127,7,24,-1.099568486213684,3.715776681900024,25.483193905742336,24.802314196093928,101.36149301071984,90.88152933403148,-9.713172767078504e-05,0.0923051163554191,0,0,0
8529,288275.59991880314,2010-09-03 21:34:51,1230.6220081572535,7,24,-1.099568486213684,3.7109200954437256,25.483193905742336,24.81148182880245,101.36149301071984,90.91557144472463,-0.0001295089750783,0.0923051163554191,0,0,0
8530,288305.6151873328,2010-09-03 21:35:21,1260.6372766868965,7,24,-1.099568486213684,3.706387281417847,25.483193905742336,24.82064942580681,101.36149301071984,90.94957064903991,-0.0001295089750783,0.0923051163554191,0,0,0
8531,288335.63014261174,2010-09-03 21:35:51,1290.6522319658225,7,24,-1.0997490882873535,3.701854467391968,25.483193905742336,24.82981696565514,101.36149301071984,90.9835275175121,-9.713172767078504e-05,0.0923051163554191,0,0,0
8532,288365.64530155325,2010-09-03 21:36:21,1320.6673908923008,7,24,-1.099568486213684,3.697321653366089,25.483193905742336,24.83898450460252,101.36149301071984,91.01744304305808,-0.0001295089750783,0.0923051163554191,0,0,0
8533,288395.6604850109,2010-09-03 21:36:51,1350.682574369968,7,24,-1.099568486213684,3.69278883934021,25.483193905742336,24.84815211584863,101.36149301071984,91.051318264432,-0.0001295089750783,0.0923051163554191,0,0,0
8534,288425.67564200755,2010-09-03 21:37:21,1380.6977313616244,7,24,-1.099568486213684,3.688579797744751,25.483193905742336,24.857319678362003,101.36149301071984,91.08515330769188,-9.713172767078504e-05,0.0923051163554191,0,0,0
8535,288455.6909201812,2010-09-03 21:37:51,1410.7130095353034,7,24,-1.099568486213684,3.684208869934082,25.483193905742336,24.86648727068323,101.36149301071984,91.11894910783651,-0.0001618862152099,0.0923051163554191,0,0,0
8536,288485.7060766917,2010-09-03 21:38:21,1440.728166055785,7,24,-1.099568486213684,3.680161714553833,25.483193905742336,24.87565486910073,101.36149301071984,91.15270614884253,-0.0001295089750783,0.0923051163554191,0,0,0
8537,288515.721138867,2010-09-03 21:38:51,1470.743228221105,7,24,-1.099568486213684,3.675952672958374,25.483193905742336,24.884822459970348,101.36149301071984,91.18642476747765,-9.713172767078504e-05,0.0923051163554191,0,0,0
8538,288545.7363223196,2010-09-03 21:39:21,1500.7584116737098,7,24,-1.099568486213684,3.671905755996704,25.483193905742336,24.89399004362824,101.36149301071984,91.22010568443346,-9.713172767078504e-05,0.0923051163554191,0,0,0
8539,288575.7514661134,2010-09-03 21:39:51,1530.773555467473,7,24,-1.099568486213684,3.667858600616455,25.483193905742336,24.903157676626403,101.36149301071984,91.25374979071474,-9.713172767078504e-05,0.0923051163554191,0,0,0
8540,288605.76667341543,2010-09-03 21:40:21,1560.788762769518,7,24,-1.0997490882873535,3.664135217666626,25.483193905742336,24.91232520072515,101.36149301071984,91.28735714456133,-6.47544875391759e-05,0.0923051163554191,0,0,0
8541,288635.7818010038,2010-09-03 21:40:51,1590.803890357892,7,24,-1.0993878841400146,3.660249948501587,25.483193905742336,24.921492733760093,101.36149301071984,91.320929088812,-9.713172767078504e-05,0.0923051163554191,0,0,0
8542,288665.79699646134,2010-09-03 21:41:21,1620.8190858454918,7,24,-1.0997490882873535,3.656202793121338,25.483193905742336,24.930660310815792,101.36149301071984,91.35446595339036,-0.0001295089750783,0.0923051163554191,0,0,0
8543,288695.8122844796,2010-09-03 21:41:51,1650.8343738336314,7,24,-1.099568486213684,3.652479410171509,25.483193905742336,24.93982797518253,101.36149301071984,91.38796890886051,-0.0001618862152099,0.0923051163554191,0,0,0
8544,288725.82730716147,2010-09-03 21:42:21,1680.849396520559,7,24,-1.099568486213684,3.64875602722168,25.483193905742336,24.94899548633117,101.36149301071984,91.4214375968976,-0.0001295089750783,0.0923051163554191,0,0,0
8545,288755.8424785039,2010-09-03 21:42:51,1710.8645678579692,7,24,-1.099568486213684,3.645518302917481,25.483193905742336,24.95816296926256,101.36149301071984,91.45487278461584,-6.47544875391759e-05,0.0923051163554191,0,0,0
8546,288785.85765656806,2010-09-03 21:43:21,1740.8797459271568,7,24,-1.099568486213684,3.6416330337524414,25.483193905742336,24.967330497602656,101.36149301071984,91.48827562577526,-0.0001618862152099,0.0923051163554191,0,0,0
8547,288815.8728248779,2010-09-03 21:43:51,1770.8949142320091,7,24,-1.099568486213684,3.638395309448242,25.483193905742336,24.97649806376863,101.36149301071984,91.52164670153866,-0.0001295089750783,0.0923051163554191,0,0,0
8548,288845.88809745765,2010-09-03 21:44:21,1800.9101868167586,7,24,-1.099568486213684,3.635157585144043,25.483193905742336,24.985665639388905,101.36149301071984,91.55498687972562,-9.713172767078504e-05,0.0923051163554191,0,0,0
8549,288875.90313946776,2010-09-03 21:44:51,1830.925228821833,7,24,-1.099568486213684,3.631919860839844,25.483193905742336,24.99483323614992,101.36149301071984,91.58829697583523,-6.47544875391759e-05,0.0923051163554191,0,0,0
8550,288905.9183320982,2010-09-03 21:45:21,1860.940421452312,7,24,-1.099568486213684,3.628682136535645,25.483193905742336,25.004000759122903,101.36149301071984,91.62157714237436,-3.237724376958795e-05,0.0923051163554191,0,0,0
8551,288935.9336019963,2010-09-03 21:45:51,1890.9556913603903,7,24,-1.0992072820663452,3.6256062984466553,25.483193905742336,25.01316839941689,101.36149301071984,91.65482875672676,-3.237724376958795e-05,0.0923051163554191,0,0,0
8552,288965.9486429588,2010-09-03 21:46:21,1920.9707323228663,7,24,-1.099568486213684,3.622530460357666,25.483193905742336,25.022335931474995,101.36149301071984,91.68805201243435,-9.713172767078504e-05,0.0923051163554191,0,0,0
8553,288995.9638115744,2010-09-03 21:46:51,1950.985900928468,7,24,-1.099568486213684,3.619616508483887,25.483193905742336,25.03150349776136,101.36149301071984,91.72124770615484,-3.237724376958795e-05,0.0923051163554191,0,0,0
8554,289025.9791225197,2010-09-03 21:47:21,1981.001211933974,7,24,-1.099568486213684,3.6165406703948975,25.483193905742336,25.040671224233577,101.36149301071984,91.75441684870312,-6.47544875391759e-05,0.0923051163554191,0,0,0
8555,289055.99415057,2010-09-03 21:47:51,2011.0162399241185,7,24,-1.0993878841400146,3.613950490951538,25.483193905742336,25.04983875283933,101.36149301071984,91.7875587117849,0.0,0.0923051163554191,0,0,0
8556,289086.0093914408,2010-09-03 21:48:21,2041.031480885052,7,24,-1.099568486213684,3.610874652862549,25.483193905742336,25.059006380225725,101.36149301071984,91.82067484128288,-6.47544875391759e-05,0.0923051163554191,0,0,0
8557,289116.0244909241,2010-09-03 21:48:51,2071.0465802781546,7,24,-1.099568486213684,3.6079607009887695,25.483193905742336,25.06817393625456,101.36149301071984,91.853764880308,-9.713172767078504e-05,0.0923051163554191,0,0,0
8558,289146.03967564483,2010-09-03 21:49:21,2101.0617649989204,7,24,-1.099568486213684,3.6050467491149902,25.483193905742336,25.07734156578536,101.36149301071984,91.8868294513228,-0.0001295089750783,0.0923051163554191,0,0,0
8559,289176.05486303224,2010-09-03 21:49:51,2131.0769523863323,7,24,-1.0993878841400146,3.602456569671631,25.483193905742336,25.08650919496966,101.36149301071984,91.91986841703424,-6.47544875391759e-05,0.0923051163554191,0,0,0
8560,289206.07001743745,2010-09-03 21:50:21,2161.092106791542,7,24,-1.0997490882873535,3.599542617797852,25.483193905742336,25.09567679250863,101.36149301071984,91.952882063655,-0.0001295089750783,0.0923051163554191,0,0,0
8561,289236.0853098416,2010-09-03 21:50:51,2191.1073992007,7,24,-1.0993878841400146,3.596952438354492,25.483193905742336,25.10484448103552,101.36149301071984,91.98587079574924,-9.713172767078504e-05,0.0923051163554191,0,0,0
8562,289266.1005491885,2010-09-03 21:51:21,2221.1226385425985,7,24,-1.099568486213684,3.594200372695923,25.483193905742336,25.114012115407498,101.36149301071984,92.01883412879543,-6.47544875391759e-05,0.0923051163554191,0,0,0
8563,289296.1154995552,2010-09-03 21:51:51,2251.137588909281,7,24,-1.099568486213684,3.5914485454559326,25.483193905742336,25.12317963615845,101.36149301071984,92.0517716294819,-9.713172767078504e-05,0.0923051163554191,0,0,0
8564,289326.13066691766,2010-09-03 21:52:21,2281.152756271785,7,24,-1.099568486213684,3.5885345935821533,25.483193905742336,25.13234726072068,101.36149301071984,92.08468382763468,-0.0001295089750783,0.0923051163554191,0,0,0
8565,289356.1459592617,2010-09-03 21:52:51,2311.168048645856,7,24,-1.099568486213684,3.585944414138794,25.483193905742336,25.141514518817665,101.36149301071984,92.11756910628203,-6.47544875391759e-05,0.0923051163554191,0,0,0
8566,289386.16105726635,2010-09-03 21:53:21,2341.183146625436,7,24,-1.099568486213684,3.5828685760498047,25.483193905742336,25.150681379972184,101.36149301071984,92.15042694072028,-9.713172767078504e-05,0.0923051163554191,0,0,0
8567,289416.17617836857,2010-09-03 21:53:51,2371.198267722632,7,24,-1.0993878841400146,3.580116510391236,25.483193905742336,25.159848209140076,101.36149301071984,92.18325817291648,-6.47544875391759e-05,0.0923051163554191,0,0,0
8568,289446.19144483807,2010-09-03 21:54:21,2401.2135341921403,7,24,-1.099568486213684,3.577040672302246,25.483193905742336,25.169015132092905,101.36149301071984,92.216062998643,-0.0001295089750783,0.0923051163554191,0,0,0
8569,289476.206520096,2010-09-03 21:54:51,2431.228609450091,7,24,-1.099568486213684,3.573964834213257,25.483193905742336,25.17818239508341,101.36149301071984,92.2488417278453,-9.713172767078504e-05,0.0923051163554191,0,0,0
8570,289506.2217746909,2010-09-03 21:55:21,2461.24386407508,7,24,-1.0993878841400146,3.571050882339477,25.483193905742336,25.18735002830298,101.36149301071984,92.28159411995613,-0.0001295089750783,0.0923051163554191,0,0,0
8571,289536.2368506206,2010-09-03 21:55:51,2491.2589399796416,7,24,-1.099568486213684,3.5679750442504883,25.483193905742336,25.196517653452656,101.36149301071984,92.31431820427414,-6.47544875391759e-05,0.0923051163554191,0,0,0
8572,289566.252074524,2010-09-03 21:56:21,2521.27416387805,7,24,-1.0993878841400146,3.564899206161499,25.483193905742336,25.20568533548713,101.36149301071984,92.34701367829592,-6.47544875391759e-05,0.0923051163554191,0,0,0
8573,289596.2671972051,2010-09-03 21:56:51,2551.289286574231,7,24,-1.099568486213684,3.56149959564209,25.483193905742336,25.21485297963068,101.36149301071984,92.37967966017544,-9.713172767078504e-05,0.0923051163554191,0,0,0
8574,289626.28238986066,2010-09-03 21:57:21,2581.30447922476,7,24,-1.099568486213684,3.5580999851226807,25.483193905742336,25.22402061961652,101.36149301071984,92.41231580440302,-9.713172767078504e-05,0.0923051163554191,0,0,0
8575,289656.29767493653,2010-09-03 21:57:51,2611.3197642956293,7,24,-1.099568486213684,3.554862260818481,25.483193905742336,25.23318827072896,101.36149301071984,92.44492086829476,-9.713172767078504e-05,0.0923051163554191,0,0,0
8576,289686.31272684626,2010-09-03 21:58:21,2641.3348162003763,7,24,-1.0997490882873535,3.5513007640838623,25.483193905742336,25.242355891473004,101.36149301071984,92.47749391640836,-6.47544875391759e-05,0.0923051163554191,0,0,0
8577,289716.327855367,2010-09-03 21:58:51,2671.3499447260865,7,24,-1.099568486213684,3.547577381134033,25.483193905742336,25.251523470575243,101.36149301071984,92.5100338768432,-0.0001295089750783,0.0923051163554191,0,0,0
8578,289746.3431073654,2010-09-03 21:59:21,2701.365196839816,7,24,-1.099568486213684,3.543853998184204,25.483193905742336,25.260691101650647,101.36149301071984,92.54254018234542,-9.713172767078504e-05,0.0923051163554191,0,0,0
8579,289776.358165616,2010-09-03 21:59:51,2731.380254985117,7,24,-1.0997490882873535,3.539806842803955,25.483193905742336,25.269858624044915,101.36149301071984,92.57501095965816,-0.0001295089750783,0.0923051163554191,0,0,0
8580,289806.3733434847,2010-09-03 22:00:21,2761.3954328638297,7,24,-1.0993878841400146,3.536083459854126,25.483193905742336,25.27902621339496,101.36149301071984,92.60744595569872,-9.713172767078504e-05,0.0923051163554191,0,0,0
8581,289836.3885105213,2010-09-03 22:00:51,2791.410599875459,7,24,-1.0993878841400146,3.532036304473877,25.483193905742336,25.288193714117007,101.36149301071984,92.63984336325096,-6.47544875391759e-05,0.0923051163554191,0,0,0
8582,289866.4048053639,2010-09-03 22:01:21,2821.426894723002,7,24,-1.099568486213684,3.527503490447998,25.483193905742336,25.29736164686322,101.36149301071984,92.67220365194652,-0.0001295089750783,0.0923051163554191,0,0,0
8583,289896.40675843233,2010-09-03 22:01:51,2851.4288478164813,7,24,-1.099568486213684,3.523132562637329,25.483193905742336,25.30652520690759,101.36149301071984,92.7045078267208,-9.713172767078504e-05,0.0923051163554191,0,0,0
8584,289926.41844334546,2010-09-03 22:02:22,2881.4405326995743,7,24,-1.0993878841400146,3.5182759761810303,25.483193905742336,25.315691713961385,101.36149301071984,92.73678003743473,-0.0001295089750783,0.0923051163554191,0,0,0
8585,289956.4338422801,2010-09-03 22:02:52,2911.455931639239,7,24,-1.099568486213684,3.5134193897247314,25.483193905742336,25.324859370489257,101.36149301071984,92.76901237026804,-0.0001295089750783,0.0923051163554191,0,0,0
8586,289986.4488654733,2010-09-03 22:03:22,2941.470954842453,7,24,-1.099568486213684,3.508239269256592,25.483193905742336,25.33402698882068,101.36149301071984,92.80119822108747,-0.0001295089750783,0.0923051163554191,0,0,0
8587,290016.46406698093,2010-09-03 22:03:52,2971.486156345045,7,24,-1.099568486213684,3.502573251724243,25.483193905742336,25.34319459364732,101.36149301071984,92.83333505650003,-0.0001618862152099,0.0923051163554191,0,0,0
8588,290046.4790679989,2010-09-03 22:04:22,3001.501157352941,7,24,-1.0997490882873535,3.4965834617614746,25.483193905742336,25.352362093670784,101.36149301071984,92.86541926791377,-0.0001942634553415,0.0923051163554191,0,0,0
8589,290076.4942411308,2010-09-03 22:04:52,3031.516330479812,7,24,-1.0997490882873535,3.490269899368286,25.483193905742336,25.361529725205283,101.36149301071984,92.89744728339495,-0.0001942634553415,0.0923051163554191,0,0,0
8590,290106.5095322216,2010-09-03 22:05:22,3061.5316215756966,7,24,-1.0997490882873535,3.483146905899048,25.483193905742336,25.3706973583436,101.36149301071984,92.92941305690044,-0.0001942634553415,0.0923051163554191,0,0,0
8591,290136.52458067273,2010-09-03 22:05:52,3091.5466700218235,7,24,-1.099568486213684,3.47505259513855,25.483193905742336,25.37986489374768,101.36149301071984,92.9613079895139,-0.0001942634553415,0.0923051163554191,0,0,0
8592,290166.5398662048,2010-09-03 22:06:22,3121.5619555588546,7,24,-1.0993878841400146,3.465663194656372,25.483193905742336,25.38903247583229,101.36149301071984,92.99312302019244,-0.0002590179501567,0.0923051163554191,0,0,0
8593,290196.55504094064,2010-09-03 22:06:52,3151.5771303147844,7,24,-1.099568486213684,3.4544930458068848,25.483193905742336,25.398200077388985,101.36149301071984,93.0248443570264,-0.0002913951757363,0.0923051163554191,0,0,0
8594,290226.5703543171,2010-09-03 22:07:22,3181.59244367115,7,24,-1.0993878841400146,3.440732717514038,25.483193905742336,25.40736770815088,101.36149301071984,93.05645247016416,-0.0004209041653666,0.0923051163554191,0,0,0
8595,290256.5856298241,2010-09-03 22:07:52,3211.607719183195,7,24,-1.099568486213684,3.4232492446899414,25.483193905742336,25.4165353043537,101.36149301071984,93.08791795172549,-0.0004856586456298,0.0923051163554191,0,0,0
8596,290286.60043278843,2010-09-03 22:08:22,3241.6225221324685,7,24,-1.0993878841400146,3.399775743484497,25.483193905742336,25.42570275856079,101.36149301071984,93.11919714055556,-0.0007122993702068,0.0923051163554191,0,0,0
8597,290316.61558976,2010-09-03 22:08:52,3271.637679144175,7,24,-1.099568486213684,3.367560386657715,25.483193905742336,25.434870323390232,101.36149301071984,93.15022503507508,-0.0010036944877356,0.0923051163554191,0,0,0
8598,290346.63075571903,2010-09-03 22:09:22,3301.6528450731053,7,24,-1.0993878841400146,3.321746826171875,25.483193905742336,25.444037839700453,101.36149301071984,93.18089926091658,-0.0013922214275225,0.0923051163554191,0,0,0
8599,290376.6459873868,2010-09-03 22:09:52,3331.6680767509024,7,24,-1.0993878841400146,3.25488805770874,25.483193905742336,25.45320536213083,101.36149301071984,93.21106370118774,-0.0020721436012536,0.0923051163554191,0,0,0
8600,290406.6610946896,2010-09-03 22:10:22,3361.6831840637437,7,24,-1.099568486213684,3.155004501342773,25.483193905742336,25.462372897441018,101.36149301071984,93.24047829407095,-0.0031729699112474,0.0923051163554191,0,0,0
8601,290436.6764033041,2010-09-03 22:10:52,3391.698492663253,7,24,-1.099568486213684,2.9848625659942627,25.483193905742336,25.47154052335415,101.36149301071984,93.2687100697508,-0.0061516761779785,0.0923051163554191,0,0,0
8602,290454.08247426874,2010-09-03 22:11:09,3409.104563652874,7,24,-1.0997490882873535,2.7847719192504883,25.483193905742336,25.476856835888466,101.36149301071984,93.28410074688507,-0.0114291189238429,0.0923051163554191,0,0,0
8603,290459.51967738685,2010-09-03 22:11:15,3414.5417667710294,7,24,-1.0993878841400146,2.699620008468628,25.483193905742336,25.478517514234778,101.36149301071984,93.28865572498869,-0.0126594547182321,0.0923051163554191,0,0,0
8604,290519.5479534106,2010-09-03 22:12:15,60.01483952119128,8,24,0.0,3.416450023651123,25.483193905742336,25.478517514234778,101.36149301071984,93.28865572498869,0.0011655807029455,0.0923051163554191,0,0,0
8605,290519.74974293227,2010-09-03 22:12:15,0.187572057281224,9,24,-1.9243103452026844e-05,3.416450023651123,25.483193905742336,25.478517515237403,101.36149301071984,93.28865572841411,0.0,0.0872892439365387,0,0,0
8606,290524.5777207636,2010-09-03 22:12:20,5.01554988355594,9,24,0.0008838032954372,3.4235730171203613,25.483194821827297,25.47851751532105,101.36149614430026,93.28865572869992,0.0010360718006268,0.0872892439365387,0,0,0
