Data_Point,Test_Time(s),Date_Time,Step_Time(s),Step_Index,Cycle_Index,Current(A),Voltage(V),Charge_Capacity(Ah),Discharge_Capacity(Ah),Charge_Energy(Wh),Discharge_Energy(Wh),dV/dt(V/s),Internal_Resistance(Ohm),Is_FC_Data,AC_Impedance(Ohm),ACI_Phase_Angle(Deg)
4355,145501.3371625257,2010-09-02 05:55:02,30.015272514574782,1,13,0.0,3.425677537918091,12.867864340017638,12.881060212260516,51.10623143196088,47.222644744880014,0.0006151676061563,0.0874469503760337,0,0,0
4356,145531.35219608975,2010-09-02 05:55:32,60.03030605354885,1,13,0.0,3.442837238311768,12.867864340017638,12.881060212260516,51.10623143196088,47.222644744880014,0.0004209041653666,0.0874469503760337,0,0,0
4357,145561.3674637723,2010-09-02 05:56:02,90.04557378620562,1,13,0.0,3.4557881355285645,12.867864340017638,12.881060212260516,51.10623143196088,47.222644744880014,0.0003561496851034,0.0874469503760337,0,0,0
4358,145591.3358272902,2010-09-02 05:56:32,120.01393725901475,1,13,0.0,3.465825080871582,12.867864340017638,12.881060212260516,51.10623143196088,47.222644744880014,0.0002266406954731,0.0874469503760337,0,0,0
4359,145621.35388283205,2010-09-02 05:57:02,30.015129994370582,2,13,0.5501165986061096,3.601323366165161,12.872450715903367,12.881060212260516,51.12260999673077,47.222644744880014,0.0013922214275225,0.0874469503760337,0,0,0
4360,145651.36904580862,2010-09-02 05:57:32,60.03029299099294,2,13,0.5501165986061096,3.642928123474121,12.877037098368207,12.881060212260516,51.13922786840818,47.222644744880014,0.0009389400365762,0.0874469503760337,0,0,0
4361,145681.38417658996,2010-09-02 05:58:02,90.0454237522749,2,13,0.5501165986061096,3.6746575832366943,12.88162338159359,12.881060212260516,51.156011111709134,47.222644744880014,0.0007770061492919,0.0874469503760337,0,0,0
4362,145711.3993417169,2010-09-02 05:58:32,120.06058887419414,2,13,0.5499359965324402,3.699911832809448,12.886209644719695,12.881060212260516,51.1729240594998,47.222644744880014,0.0005827903514727,0.0874469503760337,0,0,0
4363,145741.4144936058,2010-09-02 05:59:02,150.07574076313273,2,13,0.5501165986061096,3.721280813217163,12.890795925291252,12.881060212260516,51.189943260408825,47.222644744880014,0.0005827903514727,0.0874469503760337,0,0,0
4364,145771.4296687026,2010-09-02 05:59:32,180.09091588497486,2,13,0.5501165986061096,3.738278865814209,12.895382178425482,12.881060212260516,51.20704965236442,47.222644744880014,0.0004532813909463,0.0874469503760337,0,0,0
4365,145801.44478395526,2010-09-02 06:00:02,210.1060311175545,2,13,0.5499359965324402,3.750905990600586,12.899968453817284,12.881060212260516,51.22422516281259,47.222644744880014,0.0002913951757363,0.0874469503760337,0,0,0
4366,145831.45993880156,2010-09-02 06:00:32,240.1211859588513,2,13,0.5499359965324402,3.758838176727295,12.904554780954474,12.881060212260516,51.24144815907709,47.222644744880014,0.0001618862152099,0.0874469503760337,0,0,0
4367,145861.4750741292,2010-09-02 06:01:02,270.13632129152654,2,13,0.5501165986061096,3.763532876968384,12.909141063150438,12.881060212260516,51.25869852227713,47.222644744880014,0.0001295089750783,0.0874469503760337,0,0,0
4368,145891.49024180247,2010-09-02 06:01:32,300.15148895979206,2,13,0.5501165986061096,3.766770601272583,12.913727324145889,12.881060212260516,51.27596637539221,47.222644744880014,9.713172767078504e-05,0.0874469503760337,0,0,0
4369,145921.50536988207,2010-09-02 06:02:02,330.1666170494155,2,13,0.5499359965324402,3.7696845531463614,12.918313593431824,12.881060212260516,51.29324853538567,47.222644744880014,9.713172767078504e-05,0.0874469503760337,0,0,0
4370,145951.52077411494,2010-09-02 06:02:32,360.1820212822728,2,13,0.5501165986061096,3.7725985050201416,12.92289992342922,12.881060212260516,51.31054419227731,47.222644744880014,6.47544875391759e-05,0.0874469503760337,0,0,0
4371,145981.5357081108,2010-09-02 06:03:02,390.1969552931922,2,13,0.550297200679779,3.775512456893921,12.927486127217554,12.881060212260516,51.327852625642976,47.222644744880014,0.0001295089750783,0.0874469503760337,0,0,0
4372,146011.55095508674,2010-09-02 06:03:32,420.2122022540794,2,13,0.5499359965324402,3.77826452255249,12.932072438879532,12.881060212260516,51.3451747629139,47.222644744880014,6.47544875391759e-05,0.0874469503760337,0,0,0
4373,146041.56610260982,2010-09-02 06:04:02,450.2273497771369,2,13,0.5499359965324402,3.78101658821106,12.936658719854922,12.881060212260516,51.362510141623176,47.222644744880014,3.237724376958795e-05,0.0874469503760337,0,0,0
4374,146071.58113354226,2010-09-02 06:04:32,480.2423807046022,2,13,0.5501165986061096,3.784254312515259,12.941245001053518,12.881060212260516,51.37985878271455,47.222644744880014,6.47544875391759e-05,0.0874469503760337,0,0,0
4375,146101.59627365187,2010-09-02 06:05:02,510.2575208141831,2,13,0.5501165986061096,3.787006378173828,12.945831309485392,12.881060212260516,51.39722078585739,47.222644744880014,9.713172767078504e-05,0.0874469503760337,0,0,0
4376,146131.6114185534,2010-09-02 06:05:32,540.2726657157069,2,13,0.5499359965324402,3.789920330047608,12.950417577752273,12.881060212260516,51.41459572460244,47.222644744880014,6.47544875391759e-05,0.0874469503760337,0,0,0
4377,146161.62657439717,2010-09-02 06:06:02,570.2878215595022,2,13,0.5501165986061096,3.7928342819213863,12.95500394687274,12.881060212260516,51.431984013251565,47.222644744880014,9.713172767078504e-05,0.0874469503760337,0,0,0
4378,146191.6445976374,2010-09-02 06:06:32,600.3058448498566,2,13,0.5501165986061096,3.795586347579956,12.959590626523786,12.881060212260516,51.44938660127094,47.222644744880014,6.47544875391759e-05,0.0874469503760337,0,0,0
4379,146221.65688576398,2010-09-02 06:07:02,630.3181329262932,2,13,0.5499359965324402,3.798500299453736,12.964176528558069,12.881060212260516,51.466799359986425,47.222644744880014,9.713172767078504e-05,0.0874469503760337,0,0,0
4380,146251.67204024436,2010-09-02 06:07:32,660.3332874066905,2,13,0.5501165986061096,3.801414251327514,12.968762813041293,12.881060212260516,51.484226690990894,47.222644744880014,6.47544875391759e-05,0.0874469503760337,0,0,0
4381,146281.68729863878,2010-09-02 06:08:02,690.3485458211234,2,13,0.550297200679779,3.804328203201294,12.973349166030683,12.881060212260516,51.50166752773101,47.222644744880014,9.713172767078504e-05,0.0874469503760337,0,0,0
4382,146311.70235874894,2010-09-02 06:08:32,720.3636059313211,2,13,0.5499359965324402,3.807242155075073,12.977935495075128,12.881060212260516,51.51912187464173,47.222644744880014,9.713172767078504e-05,0.0874469503760337,0,0,0
4383,146341.71746380618,2010-09-02 06:09:02,750.3787109684907,2,13,0.5501165986061096,3.810479879379273,12.982521851142636,12.881060212260516,51.53659035298987,47.222644744880014,9.713172767078504e-05,0.0874469503760337,0,0,0
4384,146371.7326133242,2010-09-02 06:09:32,780.3938604865201,2,13,0.5501165986061096,3.8135557174682617,12.987108198305274,12.881060212260516,51.55407311785536,47.222644744880014,9.713172767078504e-05,0.0874469503760337,0,0,0
4385,146401.74782243074,2010-09-02 06:10:02,810.4090696131126,2,13,0.5501165986061096,3.816955327987671,12.991694505016072,12.881060212260516,51.57157073350214,47.222644744880014,9.713172767078504e-05,0.0874469503760337,0,0,0
4386,146431.76292255064,2010-09-02 06:10:32,840.424169712977,2,13,0.5501165986061096,3.82019305229187,12.996280810045649,12.881060212260516,51.58908346107421,47.222644744880014,6.47544875391759e-05,0.0874469503760337,0,0,0
4387,146461.7780557731,2010-09-02 06:11:02,870.4393029353928,2,13,0.5497553944587708,3.8235926628112793,13.000867108543028,12.881060212260516,51.60661172403861,47.222644744880014,9.713172767078504e-05,0.0874469503760337,0,0,0
4388,146491.79323114554,2010-09-02 06:11:32,900.4544783028472,2,13,0.5501165986061096,3.826992273330689,13.005453424246213,12.881060212260516,51.62415584240693,47.222644744880014,9.713172767078504e-05,0.0874469503760337,0,0,0
4389,146521.8084870086,2010-09-02 06:12:02,930.4697341759462,2,13,0.5501165986061096,3.830553770065308,13.010039701515025,12.881060212260516,51.64171563177352,47.222644744880014,0.0001295089750783,0.0874469503760337,0,0,0
4390,146551.82352250745,2010-09-02 06:12:32,960.4847696647798,2,13,0.5501165986061096,3.833791255950928,13.014625961317543,12.881060212260516,51.65929121214114,47.222644744880014,6.47544875391759e-05,0.0874469503760337,0,0,0
4391,146581.83880580892,2010-09-02 06:13:02,990.5000529913016,2,13,0.5499359965324402,3.837190866470337,13.019212274486776,12.881060212260516,51.67688254076061,47.222644744880014,3.237724376958795e-05,0.0874469503760337,0,0,0
4392,146611.853837368,2010-09-02 06:13:32,1020.5150845302908,2,13,0.5501165986061096,3.840590476989746,13.02379845059338,12.881060212260516,51.694488611115226,47.222644744880014,9.713172767078504e-05,0.0874469503760337,0,0,0
4393,146641.868957603,2010-09-02 06:14:02,1050.530204760326,2,13,0.550297200679779,3.843828201293945,13.028384747697569,12.881060212260516,51.71211018867665,47.222644744880014,6.47544875391759e-05,0.0874469503760337,0,0,0
4394,146671.88418833844,2010-09-02 06:14:32,1080.545435495774,2,13,0.5497553944587708,3.846904039382935,13.032970963844098,12.881060212260516,51.7297462079573,47.222644744880014,3.237724376958795e-05,0.0874469503760337,0,0,0
4395,146701.89924320058,2010-09-02 06:15:02,1110.5604903629046,2,13,0.5501165986061096,3.850303649902344,13.037557277085064,12.881060212260516,51.74739718772018,47.222644744880014,9.713172767078504e-05,0.0874469503760337,0,0,0
4396,146731.9144071596,2010-09-02 06:15:32,1140.5756543219254,2,13,0.5501165986061096,3.853379487991333,13.042143621090691,12.881060212260516,51.76506265194491,47.222644744880014,9.713172767078504e-05,0.0874469503760337,0,0,0
4397,146761.92956026155,2010-09-02 06:16:02,1170.5908074188746,2,13,0.5499359965324402,3.856293439865112,13.04672997869822,12.881060212260516,51.78274215021324,47.222644744880014,6.47544875391759e-05,0.0874469503760337,0,0,0
4398,146791.9447193334,2010-09-02 06:16:32,1200.605966495728,2,13,0.5501165986061096,3.859207391738892,13.051316285106516,12.881060212260516,51.8004352369897,47.222644744880014,6.47544875391759e-05,0.0874469503760337,0,0,0
4399,146821.9598554681,2010-09-02 06:17:02,1230.6211026253893,2,13,0.5501165986061096,3.862121343612671,13.055902575734263,12.881060212260516,51.81814153626052,47.222644744880014,9.713172767078504e-05,0.0874469503760337,0,0,0
4400,146851.97499014917,2010-09-02 06:17:32,1260.6362373064408,2,13,0.5499359965324402,3.8647115230560303,13.060488839306608,12.881060212260516,51.83586041526494,47.222644744880014,3.237724376958795e-05,0.0874469503760337,0,0,0
4401,146881.99012953189,2010-09-02 06:18:02,1290.65137668921,2,13,0.5501165986061096,3.8674635887146,13.06507519662401,12.881060212260516,51.853591757717446,47.222644744880014,3.237724376958795e-05,0.0874469503760337,0,0,0
4402,146912.0053015861,2010-09-02 06:18:32,1320.6665487434066,2,13,0.5501165986061096,3.869891881942749,13.069661536891152,12.881060212260516,51.87133444515606,47.222644744880014,6.47544875391759e-05,0.0874469503760337,0,0,0
4403,146942.0204323925,2010-09-02 06:19:03,1350.6816795498007,2,13,0.5501165986061096,3.8719964027404794,13.07424789645406,12.881060212260516,51.88908783850806,47.222644744880014,3.237724376958795e-05,0.0874469503760337,0,0,0
4404,146972.03580616444,2010-09-02 06:19:33,1380.6970533367778,2,13,0.5499359965324402,3.874100923538208,13.07883422394774,12.881060212260516,51.90685102490504,47.222644744880014,6.47544875391759e-05,0.0874469503760337,0,0,0
4405,147002.05092141705,2010-09-02 06:20:03,1410.7121685793825,2,13,0.5501165986061096,3.876043558120728,13.083420548880216,12.881060212260516,51.92462321891449,47.222644744880014,6.47544875391759e-05,0.0874469503760337,0,0,0
4406,147032.0659057584,2010-09-02 06:20:33,1440.7271529357786,2,13,0.5499359965324402,3.877662420272827,13.088006820805957,12.881060212260516,51.94240364886864,47.222644744880014,6.47544875391759e-05,0.0874469503760337,0,0,0
4407,147062.0810550509,2010-09-02 06:21:03,1470.742302208196,2,13,0.5499359965324402,3.879281282424927,13.09259309146182,12.881060212260516,51.96019169855906,47.222644744880014,3.237724376958795e-05,0.0874469503760337,0,0,0
4408,147092.09617692503,2010-09-02 06:21:33,1500.7574240873407,2,13,0.5501165986061096,3.8809001445770255,13.097179419335063,12.881060212260516,51.97798682287079,47.222644744880014,6.47544875391759e-05,0.0874469503760337,0,0,0
4409,147122.11144626167,2010-09-02 06:22:03,1530.7726934290076,2,13,0.550297200679779,3.882195234298706,13.101765708839295,12.881060212260516,51.995788161897245,47.222644744880014,6.47544875391759e-05,0.0874469503760337,0,0,0
4410,147152.12668563868,2010-09-02 06:22:33,1560.787932800981,2,13,0.5501165986061096,3.883328437805176,13.106352027088954,12.881060212260516,52.013595399503465,47.222644744880014,3.237724376958795e-05,0.0874469503760337,0,0,0
4411,147182.1416259252,2010-09-02 06:23:03,1590.8028730825288,2,13,0.5501165986061096,3.8844616413116455,13.110938319723902,12.881060212260516,52.03140793729344,47.222644744880014,6.47544875391759e-05,0.0874469503760337,0,0,0
4412,147212.15676675158,2010-09-02 06:23:33,1620.818013908896,2,13,0.5501165986061096,3.8855948448181152,13.115524671423051,12.881060212260516,52.04922566776556,47.222644744880014,6.47544875391759e-05,0.0874469503760337,0,0,0
4413,147242.17206109056,2010-09-02 06:24:03,1650.833308257889,2,13,0.5501165986061096,3.886566162109375,13.120111032262953,12.881060212260516,52.06704845673184,47.222644744880014,3.237724376958795e-05,0.0874469503760337,0,0,0
4414,147272.1870733114,2010-09-02 06:24:33,1680.8483204737192,2,13,0.5499359965324402,3.8875374794006343,13.124697400990684,12.881060212260516,52.08487597862011,47.222644744880014,3.237724376958795e-05,0.0874469503760337,0,0,0
4415,147302.20220961148,2010-09-02 06:25:03,1710.8634567738054,2,13,0.5499359965324402,3.8885087966918954,13.12928373713458,12.881060212260516,52.10270801729763,47.222644744880014,3.237724376958795e-05,0.0874469503760337,0,0,0
4416,147332.21735550047,2010-09-02 06:25:33,1740.8786026627904,2,13,0.550297200679779,3.8894801139831534,13.133870091510644,12.881060212260516,52.12054468722336,47.222644744880014,3.237724376958795e-05,0.0874469503760337,0,0,0
4417,147362.2325055047,2010-09-02 06:26:03,1770.893752662019,2,13,0.5501165986061096,3.890613317489624,13.138456515686912,12.881060212260516,52.13838601608688,47.222644744880014,6.47544875391759e-05,0.0874469503760337,0,0,0
4418,147392.2477032329,2010-09-02 06:26:33,1800.9089503902037,2,13,0.5501165986061096,3.891584634780884,13.14304286726297,12.881060212260516,52.156231538202725,47.222644744880014,3.237724376958795e-05,0.0874469503760337,0,0,0
4419,147422.26281011463,2010-09-02 06:27:03,1830.9240572769827,2,13,0.5499359965324402,3.8923940658569336,13.14762916713904,12.881060212260516,52.17408126917988,47.222644744880014,6.47544875391759e-05,0.0874469503760337,0,0,0
4420,147452.2779800235,2010-09-02 06:27:33,1860.9392271958573,2,13,0.5501165986061096,3.893365383148194,13.152215538150651,12.881060212260516,52.1919357054418,47.222644744880014,0.0,0.0874469503760337,0,0,0
4421,147482.29312343634,2010-09-02 06:28:03,1890.9543705936333,2,13,0.5501165986061096,3.894336700439453,13.156801958813643,12.881060212260516,52.20979479892795,47.222644744880014,3.237724376958795e-05,0.0874469503760337,0,0,0
4422,147512.308267997,2010-09-02 06:28:33,1920.969515154308,2,13,0.5501165986061096,3.895308017730713,13.161388335505018,12.881060212260516,52.22765772257389,47.222644744880014,6.47544875391759e-05,0.0874469503760337,0,0,0
4423,147542.32339485857,2010-09-02 06:29:03,1950.9846420208828,2,13,0.5501165986061096,3.896441221237183,13.16597463690159,12.881060212260516,52.24552473153664,47.222644744880014,6.47544875391759e-05,0.0874469503760337,0,0,0
4424,147572.33855836643,2010-09-02 06:29:33,1980.99980552878,2,13,0.5501165986061096,3.897250652313232,13.170561001952212,12.881060212260516,52.26339653006918,47.222644744880014,0.0,0.0874469503760337,0,0,0
4425,147602.35368940845,2010-09-02 06:30:03,2011.0149365657485,2,13,0.5499359965324402,3.898221969604492,13.175147354224915,12.881060212260516,52.28127267017304,47.222644744880014,0.0,0.0874469503760337,0,0,0
4426,147632.36885705666,2010-09-02 06:30:33,2041.030104213964,2,13,0.550297200679779,3.899193286895752,13.17973364665444,12.881060212260516,52.299153129522416,47.222644744880014,0.0,0.0874469503760337,0,0,0
4427,147662.3840105546,2010-09-02 06:31:03,2071.045257731963,2,13,0.5499359965324402,3.9000027179718018,13.184319948178231,12.881060212260516,52.31703815646932,47.222644744880014,0.0,0.0874469503760337,0,0,0
4428,147692.39913701016,2010-09-02 06:31:33,2101.060384172476,2,13,0.5501165986061096,3.901135921478272,13.188906271103663,12.881060212260516,52.33492779311295,47.222644744880014,3.237724376958795e-05,0.0874469503760337,0,0,0
4429,147722.41437151,2010-09-02 06:32:03,2131.075618672306,2,13,0.5501165986061096,3.9021072387695312,13.193492656972271,12.881060212260516,52.35282237153561,47.222644744880014,0.0,0.0874469503760337,0,0,0
4430,147752.4295966966,2010-09-02 06:32:33,2161.090843863938,2,13,0.5501165986061096,3.903240442276001,13.198078983526305,12.881060212260516,52.37072139861726,47.222644744880014,3.237724376958795e-05,0.0874469503760337,0,0,0
4431,147782.44459223087,2010-09-02 06:33:03,2191.10583939318,2,13,0.5501165986061096,3.9042117595672607,13.202665341093654,12.881060212260516,52.38862536497866,47.222644744880014,0.0,0.0874469503760337,0,0,0
4432,147812.45974614986,2010-09-02 06:33:33,2221.120993312178,2,13,0.5501165986061096,3.9053449630737305,13.20725172882148,12.881060212260516,52.406534194926806,47.222644744880014,3.237724376958795e-05,0.0874469503760337,0,0,0
4433,147842.47488450506,2010-09-02 06:34:03,2251.136131667386,2,13,0.550297200679779,3.9063162803649902,13.211838095360267,12.881060212260516,52.42444757481123,47.222644744880014,3.237724376958795e-05,0.0874469503760337,0,0,0
4434,147872.49021054304,2010-09-02 06:34:33,2281.1514577304206,2,13,0.5499359965324402,3.90761137008667,13.21642359596284,12.881060212260516,52.44236236139541,47.222644744880014,6.47544875391759e-05,0.0874469503760337,0,0,0
4435,147902.50521657345,2010-09-02 06:35:03,2311.166463760834,2,13,0.5499359965324402,3.90842080116272,13.221008957906934,12.881060212260516,52.4602814898119,47.222644744880014,0.0,0.0874469503760337,0,0,0
4436,147932.52030140025,2010-09-02 06:35:33,2341.181548562572,2,13,0.5497553944587708,3.9095540046691895,13.225594469088312,12.881060212260516,52.478206338227714,47.222644744880014,3.237724376958795e-05,0.0874469503760337,0,0,0
4437,147962.53545474782,2010-09-02 06:36:03,2371.1967019101453,2,13,0.5499359965324402,3.910687208175659,13.230179876754663,12.881060212260516,52.49613591774434,47.222644744880014,0.0,0.0874469503760337,0,0,0
4438,147992.5506108723,2010-09-02 06:36:33,2401.21185803464,2,13,0.5497553944587708,3.911820411682129,13.23476528393539,12.881060212260516,52.514070732946266,47.222644744880014,0.0,0.0874469503760337,0,0,0
4439,148022.56574489674,2010-09-02 06:37:03,2431.2269920540425,2,13,0.5501165986061096,3.912953615188599,13.239350664781258,12.881060212260516,52.53201077798891,47.222644744880014,0.0,0.0874469503760337,0,0,0
4440,148052.58090103627,2010-09-02 06:37:33,2461.2421482036,2,13,0.5499359965324402,3.914248466491699,13.243936830208488,12.881060212260516,52.54995936473522,47.222644744880014,3.237724376958795e-05,0.0874469503760337,0,0,0
4441,148082.59619025246,2010-09-02 06:38:03,2491.2574374248125,2,13,0.5501165986061096,3.915543556213379,13.248523307982046,12.881060212260516,52.567914798491564,47.222644744880014,3.237724376958795e-05,0.0874469503760337,0,0,0
4442,148112.61408213532,2010-09-02 06:38:33,2521.2753293226965,2,13,0.5501165986061096,3.9166767597198486,13.253110089640924,12.881060212260516,52.58587679214427,47.222644744880014,3.237724376958795e-05,0.0874469503760337,0,0,0
4443,148142.62636294865,2010-09-02 06:39:03,2551.2876101109687,2,13,0.5501165986061096,3.917971849441528,13.257696087514017,12.881060212260516,52.60384154733595,47.222644744880014,6.47544875391759e-05,0.0874469503760337,0,0,0
4444,148172.64149775502,2010-09-02 06:39:33,2581.30274491232,2,13,0.5501165986061096,3.919105052947998,13.262282537186978,12.881060212260516,52.62181377361614,47.222644744880014,3.237724376958795e-05,0.0874469503760337,0,0,0
4445,148202.65677526203,2010-09-02 06:40:03,2611.318022414325,2,13,0.5499359965324402,3.9204001426696777,13.26686897844144,12.881060212260516,52.6397918726862,47.222644744880014,3.237724376958795e-05,0.0874469503760337,0,0,0
4446,148232.67180866067,2010-09-02 06:40:33,2641.3330558279863,2,13,0.5501165986061096,3.921857118606568,13.271455359523552,12.881060212260516,52.65777558028578,47.222644744880014,6.47544875391759e-05,0.0874469503760337,0,0,0
4447,148262.6869473467,2010-09-02 06:41:03,2671.348194534069,2,13,0.5501165986061096,3.922990322113037,13.276041711396148,12.881060212260516,52.67576523952837,47.222644744880014,3.237724376958795e-05,0.0874469503760337,0,0,0
4448,148292.70219648298,2010-09-02 06:41:33,2701.3634436954408,2,13,0.5499359965324402,3.924285411834717,13.280628058507292,12.881060212260516,52.69376090589592,47.222644744880014,0.0,0.0874469503760337,0,0,0
4449,148322.71725428745,2010-09-02 06:42:03,2731.37850145478,2,13,0.5499359965324402,3.9257423877716064,13.28521438731322,12.881060212260516,52.71176265041999,47.222644744880014,6.47544875391759e-05,0.0874469503760337,0,0,0
4450,148352.73240870266,2010-09-02 06:42:33,2761.3936558599894,2,13,0.5497553944587708,3.926875591278076,13.289800763073131,12.881060212260516,52.72977059046979,47.222644744880014,-3.237724376958795e-05,0.0874469503760337,0,0,0
4451,148382.74754162433,2010-09-02 06:43:03,2791.408788781656,2,13,0.5499359965324402,3.928332567214966,13.29438709985992,12.881060212260516,52.7477847292404,47.222644744880014,-3.237724376958795e-05,0.0874469503760337,0,0,0
4452,148412.76268510232,2010-09-02 06:43:33,2821.423932264644,2,13,0.5501165986061096,3.929789543151856,13.298973483707734,12.881060212260516,52.76580538340349,47.222644744880014,0.0,0.0874469503760337,0,0,0
4453,148442.7778579134,2010-09-02 06:44:03,2851.4391051007897,2,13,0.5497553944587708,3.931084632873535,13.303559886939412,12.881060212260516,52.783832603162296,47.222644744880014,-3.237724376958795e-05,0.0874469503760337,0,0,0
4454,148472.79304330584,2010-09-02 06:44:33,2881.4542904631544,2,13,0.5501165986061096,3.932541608810425,13.308146273281416,12.881060212260516,52.80186627608028,47.222644744880014,0.0,0.0874469503760337,0,0,0
4455,148502.80828442215,2010-09-02 06:45:03,2911.4695315844874,2,13,0.5501165986061096,3.934160470962525,13.312732725508308,12.881060212260516,52.81990672054832,47.222644744880014,3.237724376958795e-05,0.0874469503760337,0,0,0
4456,148532.8232735605,2010-09-02 06:45:33,2941.4845207228013,2,13,0.550297200679779,3.935779333114624,13.31731911841381,12.881060212260516,52.837953506562016,47.222644744880014,9.713172767078504e-05,0.0874469503760337,0,0,0
4457,148562.83855703237,2010-09-02 06:46:03,2971.499804199698,2,13,0.5499359965324402,3.9369125366210938,13.321905640214858,12.881060212260516,52.85600734329394,47.222644744880014,-3.237724376958795e-05,0.0874469503760337,0,0,0
4458,148592.85371792372,2010-09-02 06:46:33,3001.514965081048,2,13,0.5501165986061096,3.938531398773194,13.32649202421,12.881060212260516,52.87406746623302,47.222644744880014,6.47544875391759e-05,0.0874469503760337,0,0,0
4459,148622.86873736756,2010-09-02 06:47:03,3031.529984524893,2,13,0.5501165986061096,3.939988374710083,13.331078400376589,12.881060212260516,52.89213426795781,47.222644744880014,3.237724376958795e-05,0.0874469503760337,0,0,0
4460,148652.8839966592,2010-09-02 06:47:33,3061.545243816512,2,13,0.550297200679779,3.9414453506469727,13.335664844677432,12.881060212260516,52.91020821927415,47.222644744880014,0.0,0.0874469503760337,0,0,0
4461,148682.89901582236,2010-09-02 06:48:03,3091.5602629796567,2,13,0.5499359965324402,3.942740440368652,13.340251222019662,12.881060212260516,52.92828868060506,47.222644744880014,0.0,0.0874469503760337,0,0,0
4462,148712.9143378804,2010-09-02 06:48:33,3121.5755850477344,2,13,0.5501165986061096,3.944521188735962,13.344837624863382,12.881060212260516,52.9463761656808,47.222644744880014,3.237724376958795e-05,0.0874469503760337,0,0,0
4463,148742.9293353044,2010-09-02 06:49:03,3151.590582461674,2,13,0.5501165986061096,3.9461400508880615,13.349424001966335,12.881060212260516,52.964470557393625,47.222644744880014,6.47544875391759e-05,0.0874469503760337,0,0,0
4464,148772.94459368373,2010-09-02 06:49:33,3181.6058408510444,2,13,0.5501165986061096,3.947435140609741,13.354010467245546,12.881060212260516,52.98257220862404,47.222644744880014,0.0,0.0874469503760337,0,0,0
4465,148802.95960529303,2010-09-02 06:50:03,3211.620852480413,2,13,0.5501165986061096,3.948892116546631,13.35859683883332,12.881060212260516,53.000680578779146,47.222644744880014,0.0,0.0874469503760337,0,0,0
4466,148832.97485750198,2010-09-02 06:50:33,3241.63610468938,2,13,0.550297200679779,3.950672864913941,13.363183229820194,12.881060212260516,53.0187960750715,47.222644744880014,6.47544875391759e-05,0.0874469503760337,0,0,0
4467,148862.98990269503,2010-09-02 06:51:04,3271.651149882399,2,13,0.5501165986061096,3.95229172706604,13.367769663506728,12.881060212260516,53.036918889968895,47.222644744880014,6.47544875391759e-05,0.0874469503760337,0,0,0
4468,148893.0053281207,2010-09-02 06:51:34,3301.6665752780004,2,13,0.5499359965324402,3.9537487030029297,13.3723561500523,12.881060212260516,53.055049128367735,47.222644744880014,3.237724376958795e-05,0.0874469503760337,0,0,0
4469,148923.02034198566,2010-09-02 06:52:04,3331.6815891680035,2,13,0.5501165986061096,3.955367565155029,13.376942512277603,12.881060212260516,53.073186159880855,47.222644744880014,3.237724376958795e-05,0.0874469503760337,0,0,0
4470,148953.03536131923,2010-09-02 06:52:34,3361.696608476511,2,13,0.5501165986061096,3.956986427307129,13.381528905957047,12.881060212260516,53.09133074691078,47.222644744880014,3.237724376958795e-05,0.0874469503760337,0,0,0
4471,148983.0506172675,2010-09-02 06:53:04,3391.711864434822,2,13,0.550297200679779,3.9587671756744394,13.386115373523666,12.881060212260516,53.109482950397805,47.222644744880014,9.713172767078504e-05,0.0874469503760337,0,0,0
4472,149013.06563448076,2010-09-02 06:53:34,3421.726881663145,2,13,0.5501165986061096,3.960224151611328,13.390701799893645,12.881060212260516,53.12764264625535,47.222644744880014,0.0,0.0874469503760337,0,0,0
4473,149043.08091384242,2010-09-02 06:54:04,3451.742161009748,2,13,0.5499359965324402,3.9620048999786377,13.39528826461894,12.881060212260516,53.14581017688729,47.222644744880014,6.47544875391759e-05,0.0874469503760337,0,0,0
4474,149073.09655490052,2010-09-02 06:54:34,3481.7578020929086,2,13,0.5501165986061096,3.9637856483459473,13.39987479094122,12.881060212260516,53.16398562552804,47.222644744880014,6.47544875391759e-05,0.0874469503760337,0,0,0
4475,149103.11110413243,2010-09-02 06:55:04,3511.772351289753,2,13,0.5501165986061096,3.965404510498047,13.404461148466542,12.881060212260516,53.18216837689301,47.222644744880014,3.237724376958795e-05,0.0874469503760337,0,0,0
4476,149133.12625696874,2010-09-02 06:55:34,3541.787504131066,2,13,0.5501165986061096,3.967185258865357,13.409047609703697,12.881060212260516,53.20035956866781,47.222644744880014,3.237724376958795e-05,0.0874469503760337,0,0,0
4477,149163.1420497199,2010-09-02 06:56:04,3571.803296917317,2,13,0.5501165986061096,3.968966007232666,13.413634104082632,12.881060212260516,53.218558877186,47.222644744880014,6.47544875391759e-05,0.0874469503760337,0,0,0
4478,149193.15653700745,2010-09-02 06:56:34,3601.8177841647644,2,13,0.5501165986061096,3.970746755599976,13.418220462536032,12.881060212260516,53.236765918716905,47.222644744880014,6.47544875391759e-05,0.0874469503760337,0,0,0
4479,149223.1716684354,2010-09-02 06:57:04,3631.832915627795,2,13,0.5501165986061096,3.972527503967285,13.422806892240372,12.881060212260516,53.25498156951059,47.222644744880014,3.237724376958795e-05,0.0874469503760337,0,0,0
4480,149253.18681214395,2010-09-02 06:57:34,3661.848059311283,2,13,0.5499359965324402,3.9744701385498047,13.427393386169246,12.881060212260516,53.273205865895015,47.222644744880014,6.47544875391759e-05,0.0874469503760337,0,0,0
4481,149283.20196036375,2010-09-02 06:58:04,3691.863207526065,2,13,0.550297200679779,3.976412773132324,13.431979815567212,12.881060212260516,53.291438442353126,47.222644744880014,6.47544875391759e-05,0.0874469503760337,0,0,0
4482,149313.21716016208,2010-09-02 06:58:34,3721.8784073344336,2,13,0.5501165986061096,3.977869749069214,13.436566334609145,12.881060212260516,53.30967986280847,47.222644744880014,3.237724376958795e-05,0.0874469503760337,0,0,0
4483,149343.23227217665,2010-09-02 06:59:04,3751.893519348993,2,13,0.5499359965324402,3.979974269866944,13.4411526859298,12.881060212260516,53.32792923998504,47.222644744880014,6.47544875391759e-05,0.0874469503760337,0,0,0
4484,149373.24741879746,2010-09-02 06:59:34,3781.9086659447394,2,13,0.5501165986061096,3.982078790664673,13.445739024820032,12.881060212260516,53.34618766296852,47.222644744880014,9.713172767078504e-05,0.0874469503760337,0,0,0
4485,149403.26254694726,2010-09-02 07:00:04,3811.9237941045376,2,13,0.550297200679779,3.984021425247192,13.45032541375972,12.881060212260516,53.364455161911614,47.222644744880014,6.47544875391759e-05,0.0874469503760337,0,0,0
4486,149433.27771226462,2010-09-02 07:00:34,3841.938959421944,2,13,0.5501165986061096,3.985964059829712,13.454911752137564,12.881060212260516,53.38273134875222,47.222644744880014,6.47544875391759e-05,0.0874469503760337,0,0,0
4487,149463.2928489908,2010-09-02 07:01:04,3871.9540961531047,2,13,0.5501165986061096,3.9877448081970215,13.459498172901904,12.881060212260516,53.4010168892123,47.222644744880014,3.237724376958795e-05,0.0874469503760337,0,0,0
4488,149493.30801296985,2010-09-02 07:01:34,3901.969260137188,2,13,0.5501165986061096,3.989687442779541,13.46408445367509,12.881060212260516,53.41931076879816,47.222644744880014,0.0,0.0874469503760337,0,0,0
4489,149523.3231601721,2010-09-02 07:02:04,3931.9844073394456,2,13,0.5501165986061096,3.9917919635772714,13.468670705408003,12.881060212260516,53.43761367156,47.222644744880014,3.237724376958795e-05,0.0874469503760337,0,0,0
4490,149553.33832599077,2010-09-02 07:02:34,3961.9995731581016,2,13,0.5499359965324402,3.99373459815979,13.473256999507452,12.881060212260516,53.45592588400505,47.222644744880014,6.47544875391759e-05,0.0874469503760337,0,0,0
4491,149583.35342915327,2010-09-02 07:03:04,3992.014676335637,2,13,0.5499359965324402,3.9956769943237305,13.477843264895055,12.881060212260516,53.47424719176371,47.222644744880014,3.237724376958795e-05,0.0874469503760337,0,0,0
4492,149613.36857796455,2010-09-02 07:03:34,4022.029825111817,2,13,0.5501165986061096,3.99778151512146,13.482429590849677,12.881060212260516,53.492577969357775,47.222644744880014,6.47544875391759e-05,0.0874469503760337,0,0,0
4493,149643.3837277332,2010-09-02 07:04:04,4052.044974885484,2,13,0.5501165986061096,3.99972414970398,13.48701594469292,12.881060212260516,53.51091799488852,47.222644744880014,3.237724376958795e-05,0.0874469503760337,0,0,0
4494,149673.3988846998,2010-09-02 07:04:34,4082.060131847065,2,13,0.5501165986061096,4.001828670501709,13.491602362021869,12.881060212260516,53.52926768424914,47.222644744880014,3.23295607813634e-05,0.0874469503760337,0,0,0
4495,149703.41403065392,2010-09-02 07:05:04,4112.075277801212,2,13,0.5501165986061096,4.003933429718018,13.496188746251796,12.881060212260516,53.547626628788045,47.222644744880014,3.24249267578125e-05,0.0874469503760337,0,0,0
4496,149733.42920815173,2010-09-02 07:05:34,4142.090455298976,2,13,0.5501165986061096,4.005876064300537,13.500775065670776,12.881060212260516,53.565994738354895,47.222644744880014,3.24249267578125e-05,0.0874469503760337,0,0,0
4497,149763.44435659202,2010-09-02 07:06:04,4172.105603734307,2,13,0.5501165986061096,4.008142471313477,13.505361424889893,12.881060212260516,53.58437259713744,47.222644744880014,6.47544875391759e-05,0.0874469503760337,0,0,0
4498,149793.45948884706,2010-09-02 07:06:34,4202.120736004349,2,13,0.5499359965324402,4.010085105895996,13.509947802006144,12.881060212260516,53.60276008848246,47.222644744880014,3.24249267578125e-05,0.0874469503760337,0,0,0
4499,149823.47460748308,2010-09-02 07:07:04,4232.135854625374,2,13,0.5499359965324402,4.012351512908936,13.514534147399807,12.881060212260516,53.62115714396754,47.222644744880014,6.47544875391759e-05,0.0874469503760337,0,0,0
4500,149853.4897520889,2010-09-02 07:07:34,4262.150999241186,2,13,0.550297200679779,4.014455795288086,13.519120478828947,12.881060212260516,53.63956395365944,47.222644744880014,6.47544875391759e-05,0.0874469503760337,0,0,0
4501,149883.50498170656,2010-09-02 07:08:04,4292.166228853836,2,13,0.5501165986061096,4.0165605545043945,13.523706866166412,12.881060212260516,53.657980857632815,47.222644744880014,6.47544875391759e-05,0.0874469503760337,0,0,0
4502,149913.52006388176,2010-09-02 07:08:34,4322.181311029026,2,13,0.5499359965324402,4.018664836883545,13.52829327526085,12.881060212260516,53.67640786176942,47.222644744880014,0.0,0.0874469503760337,0,0,0
4503,149943.53519681844,2010-09-02 07:09:04,4352.196443975755,2,13,0.5499359965324402,4.020931243896484,13.532879664188169,12.881060212260516,53.69484471303076,47.222644744880014,3.23295607813634e-05,0.0874469503760337,0,0,0
4504,149973.55035825117,2010-09-02 07:09:34,4382.211605413492,2,13,0.5501165986061096,4.023359775543213,13.537465979443011,12.881060212260516,53.713291557026935,47.222644744880014,6.47544875391759e-05,0.0874469503760337,0,0,0
4505,150003.56548743352,2010-09-02 07:10:04,4412.226734585815,2,13,0.5499359965324402,4.025626182556152,13.542052314919626,12.881060212260516,53.7317487713028,47.222644744880014,9.71794142969884e-05,0.0874469503760337,0,0,0
4506,150033.58145127608,2010-09-02 07:10:34,4442.242698463479,2,13,0.5501165986061096,4.027730464935303,13.5466388010816,12.881060212260516,53.75021701601457,47.222644744880014,3.23295607813634e-05,0.0874469503760337,0,0,0
4507,150063.58299450306,2010-09-02 07:11:04,4472.244241665381,2,13,0.5499359965324402,4.029996871948242,13.551223110186177,12.881060212260516,53.76868695725548,47.222644744880014,3.23295607813634e-05,0.0874469503760337,0,0,0
4508,150093.5953194614,2010-09-02 07:11:34,4502.256566608702,2,13,0.5501165986061096,4.032425403594971,13.555809012023465,12.881060212260516,53.78717385053356,47.222644744880014,9.71794142969884e-05,0.0874469503760337,0,0,0
4509,150123.6104858615,2010-09-02 07:12:04,4532.271733023844,2,13,0.5501165986061096,4.034691333770752,13.560395342924942,12.881060212260516,53.80567319717541,47.222644744880014,3.23295607813634e-05,0.0874469503760337,0,0,0
4510,150153.62573424095,2010-09-02 07:12:34,4562.286981403267,2,13,0.5501165986061096,4.0371198654174805,13.56498173318434,12.881060212260516,53.82418357759382,47.222644744880014,6.47544875391759e-05,0.0874469503760337,0,0,0
4511,150183.64071746953,2010-09-02 07:13:04,4592.301964626839,2,13,0.5501165986061096,4.03971004486084,13.569568941730983,12.881060212260516,53.84270826316524,47.222644744880014,6.47544875391759e-05,0.0874469503760337,0,0,0
4512,150213.6558541205,2010-09-02 07:13:34,4622.3171012828125,2,13,0.550297200679779,4.041976451873779,13.574156239052028,12.881060212260516,53.86124428964564,47.222644744880014,6.47544875391759e-05,0.0874469503760337,0,0,0
4513,150243.67105662057,2010-09-02 07:14:04,4652.3323037828895,2,13,0.550297200679779,4.04440450668335,13.578743332345748,12.881060212260516,53.87979073009129,47.222644744880014,9.70840483205393e-05,0.0874469503760337,0,0,0
4514,150273.68656389022,2010-09-02 07:14:34,4682.3478110475335,2,13,0.550297200679779,4.046833038330078,13.583330706628514,12.881060212260516,53.89834958934144,47.222644744880014,6.47544875391759e-05,0.0874469503760337,0,0,0
4515,150303.70134896995,2010-09-02 07:15:04,4712.362596127271,2,13,0.5501165986061096,4.0494232177734375,13.58791794505118,12.881060212260516,53.91691928585775,47.222644744880014,9.71794142969884e-05,0.0874469503760337,0,0,0
4516,150333.71648596678,2010-09-02 07:15:34,4742.377733129107,2,13,0.550297200679779,4.051851272583008,13.592505264058532,12.881060212260516,53.93550080549527,47.222644744880014,6.47544875391759e-05,0.0874469503760337,0,0,0
4517,150363.73160563543,2010-09-02 07:16:04,4772.392852797742,2,13,0.5497553944587708,4.054441452026367,13.597092017362442,12.881060212260516,53.954091666770935,47.222644744880014,6.47544875391759e-05,0.0874469503760337,0,0,0
4518,150393.74675168982,2010-09-02 07:16:34,4802.407998837101,2,13,0.5501165986061096,4.057031631469727,13.601678582834452,12.881060212260516,53.97269355188836,47.222644744880014,6.47544875391759e-05,0.0874469503760337,0,0,0
4519,150423.76192320266,2010-09-02 07:17:04,4832.4231703599735,2,13,0.5501165986061096,4.059783935546875,13.60626512473803,12.881060212260516,53.99130724589087,47.222644744880014,9.71794142969884e-05,0.0874469503760337,0,0,0
4520,150453.77708954763,2010-09-02 07:17:34,4862.438336694917,2,13,0.5499359965324402,4.062050342559815,13.610851650169932,12.881060212260516,54.00993250877443,47.222644744880014,3.24249267578125e-05,0.0874469503760337,0,0,0
4521,150483.79222910083,2010-09-02 07:18:04,4892.453476258135,2,13,0.5499359965324402,4.064802169799805,13.6154381166975,12.881060212260516,54.02856959654952,47.222644744880014,6.47544875391759e-05,0.0874469503760337,0,0,0
4522,150513.8073515113,2010-09-02 07:18:34,4922.468598668605,2,13,0.550297200679779,4.067554473876953,13.620024608166643,12.881060212260516,54.04721907762122,47.222644744880014,6.47544875391759e-05,0.0874469503760337,0,0,0
4523,150543.82252733991,2010-09-02 07:19:04,4952.483774522271,2,13,0.5501165986061096,4.070306301116943,13.624611108135904,12.881060212260516,54.06588099588334,47.222644744880014,9.70840483205393e-05,0.0874469503760337,0,0,0
4524,150573.8376429685,2010-09-02 07:19:34,4982.49889011575,2,13,0.550297200679779,4.072896480560303,13.6291976039378,12.881060212260516,54.08455538783733,47.222644744880014,6.47544875391759e-05,0.0874469503760337,0,0,0
4525,150603.8528604509,2010-09-02 07:20:04,5012.514107608193,2,13,0.5501165986061096,4.075810432434082,13.633784132565976,12.881060212260516,54.10324257784927,47.222644744880014,6.47544875391759e-05,0.0874469503760337,0,0,0
4526,150633.86793604968,2010-09-02 07:20:34,5042.529183212006,2,13,0.5499359965324402,4.078400611877441,13.638370583856206,12.881060212260516,54.121942288229626,47.222644744880014,3.23295607813634e-05,0.0874469503760337,0,0,0
4527,150663.88309978315,2010-09-02 07:21:04,5072.544346930426,2,13,0.5501165986061096,4.081314563751221,13.64295710129255,12.881060212260516,54.14065523450834,47.222644744880014,3.23295607813634e-05,0.0874469503760337,0,0,0
4528,150693.89823877995,2010-09-02 07:21:34,5102.559485942272,2,13,0.5499359965324402,4.084228515625,13.647543542655852,12.881060212260516,54.159380780648895,47.222644744880014,6.47544875391759e-05,0.0874469503760337,0,0,0
4529,150723.91338471908,2010-09-02 07:22:04,5132.574631866344,2,13,0.5499359965324402,4.087142467498779,13.65213000125654,12.881060212260516,54.178119631598726,47.222644744880014,0.0001295089750783,0.0874469503760337,0,0,0
4530,150753.92854635732,2010-09-02 07:22:34,5162.5897935045805,2,13,0.5501165986061096,4.090218544006348,13.656716461622644,12.881060212260516,54.19687179971175,47.222644744880014,9.71794142969884e-05,0.0874469503760337,0,0,0
4531,150783.943698557,2010-09-02 07:23:04,5192.604945714319,2,13,0.5501165986061096,4.093132495880127,13.661302900533553,12.881060212260516,54.21563722450474,47.222644744880014,9.71794142969884e-05,0.0874469503760337,0,0,0
4532,150813.95879892254,2010-09-02 07:23:35,5222.620046079845,2,13,0.5499359965324402,4.095884323120117,13.665889414014275,12.881060212260516,54.23441644042005,47.222644744880014,3.23295607813634e-05,0.0874469503760337,0,0,0
4533,150843.97421941592,2010-09-02 07:24:05,5252.635466588266,2,13,0.5501165986061096,4.0989603996276855,13.670475916404492,12.881060212260516,54.253209271319896,47.222644744880014,9.71794142969884e-05,0.0874469503760337,0,0,0
4534,150873.98934606696,2010-09-02 07:24:35,5282.650593234292,2,13,0.5501165986061096,4.101874351501465,13.67506248505586,12.881060212260516,54.27201615649086,47.222644744880014,6.47544875391759e-05,0.0874469503760337,0,0,0
4535,150904.00433251358,2010-09-02 07:25:05,5312.665579690922,2,13,0.550297200679779,4.104949951171875,13.679648910690714,12.881060212260516,54.29083622366202,47.222644744880014,6.47544875391759e-05,0.0874469503760337,0,0,0
4536,150934.01941304968,2010-09-02 07:25:35,5342.680660206977,2,13,0.5499359965324402,4.108026027679443,13.684235407857978,12.881060212260516,54.30967065251908,47.222644744880014,9.71794142969884e-05,0.0874469503760337,0,0,0
4537,150964.03463687788,2010-09-02 07:26:05,5372.695884085336,2,13,0.5501165986061096,4.1111016273498535,13.688821959174124,12.881060212260516,54.32851946278486,47.222644744880014,3.23295607813634e-05,0.0874469503760337,0,0,0
4538,150994.04968612103,2010-09-02 07:26:35,5402.710933278324,2,13,0.5501165986061096,4.114339351654053,13.693408501809222,12.881060212260516,54.34738246588061,47.222644744880014,0.0001295089750783,0.0874469503760337,0,0,0
4539,151024.0650378029,2010-09-02 07:27:05,5432.726284960208,2,13,0.5501165986061096,4.117577075958252,13.697995063610332,12.881060212260516,54.36625994308576,47.222644744880014,0.0001295089750783,0.0874469503760337,0,0,0
4540,151054.07999997403,2010-09-02 07:27:35,5462.741247131312,2,13,0.5501165986061096,4.120652675628662,13.702581543836734,12.881060212260516,54.385151570482215,47.222644744880014,9.70840483205393e-05,0.0874469503760337,0,0,0
4541,151084.09512626915,2010-09-02 07:28:05,5492.756373426462,2,13,0.5499359965324402,4.123566627502441,13.707168057961209,12.881060212260516,54.40405791023357,47.222644744880014,6.47544875391759e-05,0.0874469503760337,0,0,0
4542,151114.11053484786,2010-09-02 07:28:35,5522.7717820151765,2,13,0.5501165986061096,4.1271281242370605,13.711754586844062,12.881060212260516,54.42297896777413,47.222644744880014,0.0001295089750783,0.0874469503760337,0,0,0
4543,151144.12544990654,2010-09-02 07:29:05,5552.786697053811,2,13,0.5501165986061096,4.130204200744629,13.716341070096744,12.881060212260516,54.44191462060738,47.222644744880014,9.71794142969884e-05,0.0874469503760337,0,0,0
4544,151174.14074121794,2010-09-02 07:29:35,5582.801988370246,2,13,0.5501165986061096,4.133441925048828,13.720927690002313,12.881060212260516,54.46086580218291,47.222644744880014,9.71794142969884e-05,0.0874469503760337,0,0,0
4545,151204.1557614688,2010-09-02 07:30:05,5612.817008626114,2,13,0.5501165986061096,4.136679649353027,13.725514182884185,12.881060212260516,54.47983146925791,47.222644744880014,6.47544875391759e-05,0.0874469503760337,0,0,0
4546,151234.17102585314,2010-09-02 07:30:35,5642.832273000401,2,13,0.5501165986061096,4.140079021453857,13.730100727506032,12.881060212260516,54.498812519796296,47.222644744880014,6.47544875391759e-05,0.0874469503760337,0,0,0
4547,151264.1860590312,2010-09-02 07:31:05,5672.847306188501,2,13,0.5499359965324402,4.143478870391846,13.73468727759066,12.881060212260516,54.517808959576,47.222644744880014,0.0001295089750783,0.0874469503760337,0,0,0
4548,151294.20130918003,2010-09-02 07:31:35,5702.862556347358,2,13,0.5499359965324402,4.146878242492676,13.739273876921995,12.881060212260516,54.53682121633657,47.222644744880014,9.70840483205393e-05,0.0874469503760337,0,0,0
4549,151324.216322248,2010-09-02 07:32:05,5732.8775694103,2,13,0.5501165986061096,4.150439739227295,13.743860413318664,12.881060212260516,54.55584892892552,47.222644744880014,0.0001295089750783,0.0874469503760337,0,0,0
4550,151354.2314443978,2010-09-02 07:32:35,5762.892691545081,2,13,0.5501165986061096,4.153839588165283,13.748446902980977,12.881060212260516,54.5748922203073,47.222644744880014,9.71794142969884e-05,0.0874469503760337,0,0,0
4551,151384.24661553974,2010-09-02 07:33:05,5792.9078626970295,2,13,0.5501165986061096,4.157238960266113,13.753033455669422,12.881060212260516,54.5939515952479,47.222644744880014,0.0001295089750783,0.0874469503760337,0,0,0
4552,151414.2617367021,2010-09-02 07:33:35,5822.92298384435,2,13,0.5501165986061096,4.160800457000732,13.757619983523432,12.881060212260516,54.6130269227361,47.222644744880014,9.70840483205393e-05,0.0874469503760337,0,0,0
4553,151444.27691548807,2010-09-02 07:34:05,5852.938162655387,2,13,0.5501165986061096,4.164361953735352,13.76220654832096,12.881060212260516,54.63211858359704,47.222644744880014,0.0001295089750783,0.0874469503760337,0,0,0
4554,151474.29202252018,2010-09-02 07:34:35,5882.953269677504,2,13,0.5501165986061096,4.16776180267334,13.76679298450988,12.881060212260516,54.65122584904292,47.222644744880014,6.47544875391759e-05,0.0874469503760337,0,0,0
4555,151504.3071853163,2010-09-02 07:35:05,5912.968432478639,2,13,0.5501165986061096,4.17148494720459,13.771379527926236,12.881060212260516,54.67035003727669,47.222644744880014,9.70840483205393e-05,0.0874469503760337,0,0,0
4556,151534.32231701494,2010-09-02 07:35:35,5942.983564172245,2,13,0.550297200679779,4.175046443939209,13.7759660499023,12.881060212260516,54.68949061462236,47.222644744880014,9.70840483205393e-05,0.0874469503760337,0,0,0
4557,151564.33746213702,2010-09-02 07:36:05,5972.998709319381,2,13,0.550297200679779,4.178607940673828,13.78055258920268,12.881060212260516,54.70864784520551,47.222644744880014,9.70840483205393e-05,0.0874469503760337,0,0,0
4558,151594.35275793963,2010-09-02 07:36:35,6003.014005096934,2,13,0.5501165986061096,4.182331562042236,13.785139129139592,12.881060212260516,54.72782180166942,47.222644744880014,9.71794142969884e-05,0.0874469503760337,0,0,0
4559,151624.3677589024,2010-09-02 07:37:05,6033.029006069743,2,13,0.5499359965324402,4.186054706573486,13.789725694092684,12.881060212260516,54.747012650775645,47.222644744880014,9.70840483205393e-05,0.0874469503760337,0,0,0
4560,151654.38309017342,2010-09-02 07:37:35,6063.044337320707,2,13,0.5501165986061096,4.189778327941895,13.7943122758444,12.881060212260516,54.76622069554982,47.222644744880014,9.71794142969884e-05,0.0874469503760337,0,0,0
4561,151684.3980418634,2010-09-02 07:38:05,6093.059289025726,2,13,0.5501165986061096,4.1935014724731445,13.798898785064631,12.881060212260516,54.785445545475135,47.222644744880014,9.70840483205393e-05,0.0874469503760337,0,0,0
4562,151714.41320760688,2010-09-02 07:38:35,6123.074454774206,2,13,0.5497553944587708,4.197062969207764,13.803485303260976,12.881060212260516,54.80468769891981,47.222644744880014,6.47544875391759e-05,0.0874469503760337,0,0,0
4563,151735.2566301843,2010-09-02 07:38:56,6143.917877326568,2,13,0.550297200679779,4.200138568878174,13.806670309995331,12.881060212260516,54.818060225778325,47.222644744880014,0.0001295089750783,0.0874469503760337,0,0,0
4564,151765.27898696525,2010-09-02 07:39:26,30.01521273057466,3,13,0.0,4.118386268615723,13.806670309995331,12.881060212260516,54.818060225778325,47.222644744880014,-0.0003885269106831,0.0874469503760337,0,0,0
4565,151795.29407885965,2010-09-02 07:39:56,60.030304635013415,3,13,0.0,4.108187675476074,13.806670309995331,12.881060212260516,54.818060225778325,47.222644744880014,-0.0002266883820993,0.0874469503760337,0,0,0
4566,151825.3092337661,2010-09-02 07:40:26,90.0454595414726,3,13,0.0,4.102035999298096,13.806670309995331,12.881060212260516,54.818060225778325,47.222644744880014,-0.0001295089750783,0.0874469503760337,0,0,0
4567,151855.27748020223,2010-09-02 07:40:56,120.0137059826028,3,13,0.0,4.098150730133057,13.806670309995331,12.881060212260516,54.818060225778325,47.222644744880014,-9.71794142969884e-05,0.0874469503760337,0,0,0
4568,151855.28390879434,2010-09-02 07:40:56,0.012992691785681,4,13,1.000375509262085,4.199976921081543,13.806673934775418,12.881060212260516,54.81807544947713,47.222644744880014,3.24249267578125e-05,0.0874469503760337,0,0,0
4569,151856.31524193886,2010-09-02 07:40:57,1.044325836315124,4,13,0.9501661658287048,4.199814796447754,13.806951830352125,12.881060212260516,54.8192425529896,47.222644744880014,0.0,0.0874469503760337,0,0,0
4570,151858.54945068952,2010-09-02 07:40:59,3.278534586970604,4,13,0.8997761607170105,4.199653148651123,13.807524763887267,12.881060212260516,54.82164874864406,47.222644744880014,-3.23295607813634e-05,0.0874469503760337,0,0,0
4571,151861.81516663847,2010-09-02 07:41:03,6.544250535951139,4,13,0.8497474193572998,4.199653148651123,13.808317202445878,12.881060212260516,54.82497681605994,47.222644744880014,-3.23295607813634e-05,0.0874469503760337,0,0,0
4572,151866.1743301653,2010-09-02 07:41:07,10.903414067753475,4,13,0.7997186183929443,4.199814796447754,13.809314504102726,12.881060212260516,54.82916527653197,47.222644744880014,0.0,0.0874469503760337,0,0,0
4573,151871.70550749107,2010-09-02 07:41:13,16.434591388537584,4,13,0.7496898770332336,4.199814796447754,13.810503093061657,12.881060212260516,54.83415711400803,47.222644744880014,0.0,0.0874469503760337,0,0,0
4574,151878.81487690716,2010-09-02 07:41:20,23.543960804620745,4,13,0.6994804739952087,4.199814796447754,13.811931872466308,12.881060212260516,54.84015771363523,47.222644744880014,0.0,0.0874469503760337,0,0,0
4575,151888.11148794738,2010-09-02 07:41:29,32.84057184482865,4,13,0.649451732635498,4.199814796447754,13.813670636497566,12.881060212260516,54.84746017807412,47.222644744880014,6.47544875391759e-05,0.0874469503760337,0,0,0
4576,151900.86131279895,2010-09-02 07:41:42,45.59039669136926,4,13,0.5992423295974731,4.199653148651123,13.81587751829179,12.881060212260516,54.85672865815656,47.222644744880014,-3.23295607813634e-05,0.0874469503760337,0,0,0
4577,151919.51724627544,2010-09-02 07:42:00,64.24633017289244,4,13,0.5492135882377625,4.199653148651123,13.818846288501856,12.881060212260516,54.86919693404832,47.222644744880014,0.0,0.0874469503760337,0,0,0
4578,151950.4229818229,2010-09-02 07:42:31,95.15206571532129,4,13,0.499184787273407,4.199653148651123,13.823329602863971,12.881060212260516,54.88802597566358,47.222644744880014,-3.23295607813634e-05,0.0874469503760337,0,0,0
4579,152004.65663751517,2010-09-02 07:43:26,149.38572144267252,4,13,0.4491560161113739,4.199653148651123,13.830440134332754,12.881060212260516,54.91788888511382,47.222644744880014,-3.23295607813634e-05,0.0874469503760337,0,0,0
4580,152090.295802184,2010-09-02 07:44:51,235.02488608146456,4,13,0.3991272449493408,4.199491024017334,13.840502962214394,12.881060212260516,54.96015087460027,47.222644744880014,-3.24249267578125e-05,0.0874469503760337,0,0,0
4581,152204.4033160686,2010-09-02 07:46:45,349.13239995604425,4,13,0.3490985035896301,4.199653148651123,13.85234492629974,12.881060212260516,55.009884883340256,47.222644744880014,-3.23295607813634e-05,0.0874469503760337,0,0,0
4582,152340.21369115615,2010-09-02 07:49:01,484.9427750485826,4,13,0.299069732427597,4.199653148651123,13.864557753063146,12.881060212260516,55.0611764231976,47.222644744880014,-3.23295607813634e-05,0.0874469503760337,0,0,0
4583,152505.67990318922,2010-09-02 07:51:47,650.4089870866621,4,13,0.2488603442907333,4.199653148651123,13.877138798272233,12.881060212260516,55.11401438373486,47.222644744880014,-3.23295607813634e-05,0.0874469503760337,0,0,0
4584,152711.1296628055,2010-09-02 07:55:12,855.8587467079491,4,13,0.1986509561538696,4.199653148651123,13.889878738631657,12.881060212260516,55.1675196778596,47.222644744880014,-3.23295607813634e-05,0.0874469503760337,0,0,0
4585,152978.6724263581,2010-09-02 07:59:40,1123.401510265585,4,13,0.1486221849918365,4.199653148651123,13.902721494574852,12.881060212260516,55.22145684992739,47.222644744880014,-3.23295607813634e-05,0.0874469503760337,0,0,0
4586,153367.46302236122,2010-09-02 08:06:08,1512.1921062586755,4,13,0.098593421280384,4.199814796447754,13.915914434177246,12.881060212260516,55.276864745521245,47.222644744880014,0.0,0.0874469503760337,0,0,0
4587,154063.35829191457,2010-09-02 08:17:44,2208.0873758170364,4,13,0.0498289167881011,4.199814796447754,13.929727731926532,12.881060212260516,55.33487803381125,47.222644744880014,0.0,0.0874469503760337,0,0,0
4588,154093.37067792565,2010-09-02 08:18:14,30.01523820406243,5,13,0.0,4.192206382751465,13.929727731926532,12.881060212260516,55.33487803381125,47.222644744880014,-3.24249267578125e-05,0.0874469503760337,0,0,0
4589,154123.37018662193,2010-09-02 08:18:44,60.01474688030167,5,13,0.0,4.191073417663574,13.929727731926532,12.881060212260516,55.33487803381125,47.222644744880014,-3.23295607813634e-05,0.0874469503760337,0,0,0
4590,154123.55539922146,2010-09-02 08:18:45,0.187155824902064,6,13,-0.0025477730669081,4.191235065460205,13.929727731926532,12.881060344713454,55.33487803381125,47.22264530002142,0.0,0.0939245000481605,0,0,0
4591,154128.3835595927,2010-09-02 08:18:50,5.015316196134982,6,13,0.0008838032954372,4.191073417663574,13.929728733442335,12.881060347159773,55.33488223132858,47.22264531027828,-3.23295607813634e-05,0.0939245000481605,0,0,0
4592,154158.39662931525,2010-09-02 08:19:20,30.014930963323977,7,13,-1.099568486213684,4.021740913391113,13.929728733442335,12.890227387009729,55.33488223132858,47.259704846299066,-0.0009065627818927,0.0939245000481605,0,0,0
4593,154188.4117682118,2010-09-02 08:19:50,60.030069854869055,7,13,-1.0993878841400146,3.995838880538941,13.929728733442335,12.899394533557706,55.33488223132858,47.29644518376828,-0.0005504131549969,0.0939245000481605,0,0,0
4594,154218.42724477494,2010-09-02 08:20:20,90.04554645809556,7,13,-1.0997490882873535,3.977707862854004,13.929728733442335,12.90856172474446,55.33488223132858,47.332989994675145,-0.0004856586456298,0.0939245000481605,0,0,0
4595,154248.44207323782,2010-09-02 08:20:50,120.06037488085693,7,13,-1.099568486213684,3.964271306991577,13.929728733442335,12.917728614305837,55.33488223132858,47.36939147870555,-0.0003885269106831,0.0939245000481605,0,0,0
4596,154278.45734035393,2010-09-02 08:21:20,150.07564200700205,7,13,-1.099568486213684,3.95293927192688,13.929728733442335,12.926895708549036,55.33488223132858,47.4056798743992,-0.0002913951757363,0.0939245000481605,0,0,0
4597,154308.47237603326,2010-09-02 08:21:50,180.0906776863105,7,13,-1.099568486213684,3.9429023265838623,13.929728733442335,12.936062719076183,55.33488223132858,47.44186955107072,-0.0002590179501567,0.0939245000481605,0,0,0
4598,154338.48763322463,2010-09-02 08:22:20,210.1059348676702,7,13,-1.099568486213684,3.9333510398864746,13.929728733442335,12.945229830472552,55.33488223132858,47.47797012706931,-0.0002266406954731,0.0939245000481605,0,0,0
4599,154368.50266152053,2010-09-02 08:22:50,240.1209631736019,7,13,-1.099568486213684,3.924447298049927,13.929728733442335,12.954396830335424,55.33488223132858,47.51398641971547,-0.0002266406954731,0.0939245000481605,0,0,0
4600,154398.51792411038,2010-09-02 08:23:20,270.13622577847866,7,13,-1.099568486213684,3.916029214859009,13.929728733442335,12.963563935758351,55.33488223132858,47.54992344558707,-0.0001942634553415,0.0939245000481605,0,0,0
4601,154428.53305816988,2010-09-02 08:23:50,300.1513598129184,7,13,-1.0993878841400146,3.90761137008667,13.929728733442335,12.972730998965767,55.33488223132858,47.58578335865175,-0.0002590179501567,0.0939245000481605,0,0,0
4602,154458.54822556747,2010-09-02 08:24:20,330.16652722053425,7,13,-1.099568486213684,3.899517059326172,13.929728733442335,12.98189805026265,55.33488223132858,47.6215686569773,-0.0002590179501567,0.0939245000481605,0,0,0
4603,154488.5632607856,2010-09-02 08:24:50,360.1815624386934,7,13,-1.0993878841400146,3.8920702934265137,13.929728733442335,12.991065265150189,55.33488223132858,47.65728191556042,-0.0001618862152099,0.0939245000481605,0,0,0
4604,154518.5785335709,2010-09-02 08:25:20,390.1968352389802,7,13,-1.0997490882873535,3.8841378688812256,13.929728733442335,13.000233259379211,55.33488223132858,47.69292722575946,-0.0001942634553415,0.0939245000481605,0,0,0
4605,154548.59362060818,2010-09-02 08:25:50,420.2119222813011,7,13,-1.099568486213684,3.876529216766357,13.929728733442335,13.009401171956828,55.33488223132858,47.72850230235581,-0.0002266406954731,0.0939245000481605,0,0,0
4606,154578.60868153544,2010-09-02 08:26:20,450.2269831884851,7,13,-1.099568486213684,3.869082450866699,13.929728733442335,13.01856906812105,55.33488223132858,47.76400837862447,-0.0001942634553415,0.0939245000481605,0,0,0
4607,154608.62400392428,2010-09-02 08:26:50,480.24230559239953,7,13,-1.0993878841400146,3.861797571182251,13.929728733442335,13.027736813560422,55.33488223132858,47.79944586981113,-0.0001942634553415,0.0939245000481605,0,0,0
4608,154638.63898169427,2010-09-02 08:27:20,510.2572833272926,7,13,-1.099568486213684,3.8545126914978023,13.929728733442335,13.036903920854304,55.33488223132858,47.83481422190511,-0.0001942634553415,0.0939245000481605,0,0,0
4609,154668.65414864576,2010-09-02 08:27:50,540.2724502787717,7,13,-1.0993878841400146,3.8475515842437744,13.929728733442335,13.046071001125853,55.33488223132858,47.870116477368256,-0.0001618862152099,0.0939245000481605,0,0,0
4610,154698.66928651475,2010-09-02 08:28:20,570.2875881678183,7,13,-1.0997490882873535,3.840104818344116,13.929728733442335,13.055238197313397,55.33488223132858,47.90535416887527,-0.0002266406954731,0.0939245000481605,0,0,0
4611,154728.6844560677,2010-09-02 08:28:50,600.3027577207811,7,13,-1.099568486213684,3.833305597305298,13.929728733442335,13.064405339751914,55.33488223132858,47.94052807746149,-0.0002590179501567,0.0939245000481605,0,0,0
4612,154758.69957973133,2010-09-02 08:29:20,630.3178813743484,7,13,-1.099568486213684,3.826668500900269,13.929728733442335,13.073572504404943,55.33488223132858,47.975639361581145,-0.0001618862152099,0.0939245000481605,0,0,0
4613,154788.71472074313,2010-09-02 08:29:50,660.333022386178,7,13,-1.0993878841400146,3.82019305229187,13.929728733442335,13.08273965195782,55.33488223132858,48.010688950373,-0.0001618862152099,0.0939245000481605,0,0,0
4614,154818.72988355428,2010-09-02 08:30:20,690.348185187313,7,13,-1.0993878841400146,3.8135557174682617,13.929728733442335,13.09190680745404,55.33488223132858,48.04567796112789,-0.0001295089750783,0.0939245000481605,0,0,0
4615,154848.74508587393,2010-09-02 08:30:50,720.3633875169654,7,13,-1.099568486213684,3.8070802688598633,13.929728733442335,13.101073954618276,55.33488223132858,48.080606787595066,-0.0001295089750783,0.0939245000481605,0,0,0
4616,154878.76017263051,2010-09-02 08:31:20,750.3784742685617,7,13,-1.099568486213684,3.800604820251465,13.929728733442335,13.110241049572393,55.33488223132858,48.115476661448895,-0.0001942634553415,0.0939245000481605,0,0,0
4617,154908.77534064968,2010-09-02 08:31:50,780.3936422826891,7,13,-1.099568486213684,3.7944531440734863,13.929728733442335,13.119408200317071,55.33488223132858,48.15028916023698,-0.0001295089750783,0.0939245000481605,0,0,0
4618,154938.79057536004,2010-09-02 08:32:20,810.4088771083315,7,13,-1.099568486213684,3.788301467895508,13.929728733442335,13.128575407409716,55.33488223132858,48.18504492749176,-0.0001618862152099,0.0939245000481605,0,0,0
4619,154968.80562273346,2010-09-02 08:32:50,840.423924406598,7,13,-1.0993878841400146,3.7823116779327393,13.929728733442335,13.137742559392365,55.33488223132858,48.21974473396621,-0.0001618862152099,0.0939245000481605,0,0,0
4620,154998.82076087315,2010-09-02 08:33:20,870.4390625161942,7,13,-1.099568486213684,3.7763218879699703,13.929728733442335,13.14690973485027,55.33488223132858,48.25438991822162,-0.0001618862152099,0.0939245000481605,0,0,0
4621,155028.83590740373,2010-09-02 08:33:50,900.454209046778,7,13,-1.099568486213684,3.770493984222412,13.929728733442335,13.156076989584498,55.33488223132858,48.28898161137434,-0.0001618862152099,0.0939245000481605,0,0,0
4622,155058.85105679647,2010-09-02 08:34:20,930.4693584394954,7,13,-1.099568486213684,3.764827966690064,13.929728733442335,13.165244191749252,55.33488223132858,48.32352058584229,-0.0001295089750783,0.0939245000481605,0,0,0
4623,155088.86695111074,2010-09-02 08:34:50,960.4852527437614,7,13,-1.0997490882873535,3.759323835372925,13.929728733442335,13.174411658533732,55.33488223132858,48.35800907496303,-0.0001618862152099,0.0939245000481605,0,0,0
4624,155118.88140941106,2010-09-02 08:35:20,990.4997110540886,7,13,-1.099568486213684,3.753819704055786,13.929728733442335,13.183578673246991,55.33488223132858,48.392445542015,-0.0001618862152099,0.0939245000481605,0,0,0
4625,155148.89653609716,2010-09-02 08:35:50,1020.5148377502392,7,13,-1.0993878841400146,3.748477697372437,13.929728733442335,13.192745885588366,55.33488223132858,48.42683266275848,-0.0001295089750783,0.0939245000481605,0,0,0
4626,155178.91175383524,2010-09-02 08:36:20,1050.530055468244,7,13,-1.099568486213684,3.743135452270508,13.929728733442335,13.201913148376182,55.33488223132858,48.461170852881885,-0.0001295089750783,0.0939245000481605,0,0,0
4627,155208.9267969681,2010-09-02 08:36:50,1080.5450986211788,7,13,-1.0993878841400146,3.738116979598999,13.929728733442335,13.211080389791915,55.33488223132858,48.49546109550941,-9.713172767078504e-05,0.0939245000481605,0,0,0
4628,155238.9419042208,2010-09-02 08:37:20,1110.5602058688578,7,13,-1.099568486213684,3.73293662071228,13.929728733442335,13.220247576258709,55.33488223132858,48.5297041963604,-0.0001295089750783,0.0939245000481605,0,0,0
4629,155268.95712275585,2010-09-02 08:37:50,1140.5754244189366,7,13,-1.099568486213684,3.728080034255981,13.929728733442335,13.229414743236784,55.33488223132858,48.56390102673127,-9.713172767078504e-05,0.0939245000481605,0,0,0
4630,155298.97225002342,2010-09-02 08:38:20,1170.590551666461,7,13,-1.099568486213684,3.7230615615844727,13.929728733442335,13.238581903882505,55.33488223132858,48.598053009921415,-0.0001618862152099,0.0939245000481605,0,0,0
4631,155328.98741151128,2010-09-02 08:38:50,1200.6057131593354,7,13,-1.099568486213684,3.718204975128174,13.929728733442335,13.24774916222906,55.33488223132858,48.63216081800592,-9.713172767078504e-05,0.0939245000481605,0,0,0
4632,155359.00258614693,2010-09-02 08:39:20,1230.6208878150155,7,13,-1.0997490882873535,3.713348388671875,13.929728733442335,13.256916391087485,55.33488223132858,48.66622452686082,-0.0001295089750783,0.0939245000481605,0,0,0
4633,155389.01769222168,2010-09-02 08:39:50,1260.635993864709,7,13,-1.099568486213684,3.708815574645996,13.929728733442335,13.266083635829798,55.33488223132858,48.70024522708544,-9.713172767078504e-05,0.0939245000481605,0,0,0
4634,155419.0328457647,2010-09-02 08:40:20,1290.6511474077702,7,13,-1.099568486213684,3.704282760620117,13.929728733442335,13.275250908872987,55.33488223132858,48.73422393983661,-9.713172767078504e-05,0.0939245000481605,0,0,0
4635,155449.04800867615,2010-09-02 08:40:50,1320.6663103191802,7,13,-1.099568486213684,3.6997499465942383,13.929728733442335,13.284418206965094,55.33488223132858,48.76816103506495,-9.713172767078504e-05,0.0939245000481605,0,0,0
4636,155479.0631845348,2010-09-02 08:41:20,1350.6814861979087,7,13,-1.099568486213684,3.69521713256836,13.929728733442335,13.29358548680772,55.33488223132858,48.802056676860175,-9.713172767078504e-05,0.0939245000481605,0,0,0
4637,155509.07829225867,2010-09-02 08:41:50,1380.6965939067368,7,13,-1.099568486213684,3.6908462047576895,13.929728733442335,13.302752779466063,55.33488223132858,48.83591181070148,-0.0001295089750783,0.0939245000481605,0,0,0
4638,155539.09343827298,2010-09-02 08:42:20,1410.7117399160215,7,13,-1.0997490882873535,3.6864752769470215,13.929728733442335,13.31192005229094,55.33488223132858,48.86972735501776,-0.0001618862152099,0.0939245000481605,0,0,0
4639,155569.108641961,2010-09-02 08:42:50,1440.7269436040592,7,13,-1.099568486213684,3.6822662353515625,13.929728733442335,13.32108733945727,55.33488223132858,48.90350381182834,-0.0001295089750783,0.0939245000481605,0,0,0
4640,155599.12375110845,2010-09-02 08:43:20,1470.7420527564852,7,13,-1.099568486213684,3.6782190799713135,13.929728733442335,13.330254579168155,55.33488223132858,48.93724158014146,-9.713172767078504e-05,0.0939245000481605,0,0,0
4641,155629.1388835539,2010-09-02 08:43:50,1500.7571852019648,7,13,-1.099568486213684,3.674171924591065,13.929728733442335,13.33942186416542,55.33488223132858,48.970941594007925,-9.713172767078504e-05,0.0939245000481605,0,0,0
4642,155659.1542515314,2010-09-02 08:44:20,1530.7725531945,7,13,-1.099568486213684,3.669963121414185,13.929728733442335,13.348589189832548,55.33488223132858,49.004604522708,-9.713172767078504e-05,0.0939245000481605,0,0,0
4643,155689.1691858932,2010-09-02 08:44:50,1560.787487536244,7,13,-1.0997490882873535,3.665915966033936,13.929728733442335,13.357756397044168,55.33488223132858,49.03823004014113,-0.0001618862152099,0.0939245000481605,0,0,0
4644,155719.18445048304,2010-09-02 08:45:20,1590.802752126068,7,13,-1.099568486213684,3.662030696868897,13.929728733442335,13.366923703309729,55.33488223132858,49.07181978834825,-9.713172767078504e-05,0.0939245000481605,0,0,0
4645,155749.19947076394,2010-09-02 08:45:50,1620.8177724120114,7,13,-1.0993878841400146,3.6583073139190674,13.929728733442335,13.376090939397717,55.33488223132858,49.105373619791074,-0.0001295089750783,0.0939245000481605,0,0,0
4646,155779.2146357756,2010-09-02 08:46:20,1650.8329374487184,7,13,-1.099568486213684,3.654422044754028,13.929728733442335,13.38525815556677,55.33488223132858,49.1388923526401,-0.0001295089750783,0.0939245000481605,0,0,0
4647,155809.22992789402,2010-09-02 08:46:50,1680.848229537077,7,13,-1.099568486213684,3.650698661804199,13.929728733442335,13.394425475740192,55.33488223132858,49.17237697711837,-9.713172767078504e-05,0.0939245000481605,0,0,0
4648,155839.24493511743,2010-09-02 08:47:21,1710.8632367604646,7,13,-1.099568486213684,3.64713716506958,13.929728733442335,13.403592794133726,55.33488223132858,49.20582744199685,-6.47544875391759e-05,0.0939245000481605,0,0,0
4649,155869.26047388557,2010-09-02 08:47:51,1740.8787755536878,7,13,-1.099568486213684,3.643413782119751,13.929728733442335,13.412760096131482,55.33488223132858,49.23924405734887,-9.713172767078504e-05,0.0939245000481605,0,0,0
4650,155899.27546228204,2010-09-02 08:48:21,1770.8937639351152,7,13,-1.0997490882873535,3.639852285385132,13.929728733442335,13.421927302660691,55.33488223132858,49.27262822314516,-9.713172767078504e-05,0.0939245000481605,0,0,0
4651,155929.29037033833,2010-09-02 08:48:51,1800.9086719913475,7,13,-1.0997490882873535,3.636452674865722,13.929728733442335,13.43109451153348,55.33488223132858,49.30598049018716,-9.713172767078504e-05,0.0939245000481605,0,0,0
4652,155959.3055143977,2010-09-02 08:49:21,1830.923816040748,7,13,-1.0993878841400146,3.633214950561523,13.929728733442335,13.440261701746888,55.33488223132858,49.3393016127633,-6.47544875391759e-05,0.0939245000481605,0,0,0
4653,155989.3206805522,2010-09-02 08:49:51,1860.938982200253,7,13,-1.099568486213684,3.629815340042114,13.929728733442335,13.449428955699858,55.33488223132858,49.37259284500691,-9.713172767078504e-05,0.0939245000481605,0,0,0
4654,156019.3358085165,2010-09-02 08:50:21,1890.9541101595512,7,13,-1.099568486213684,3.626901388168335,13.929728733442335,13.45859617418342,55.33488223132858,49.4058547346763,-6.47544875391759e-05,0.0939245000481605,0,0,0
4655,156049.3510169213,2010-09-02 08:50:51,1920.9693185643448,7,13,-1.099568486213684,3.623501777648926,13.929728733442335,13.467763412320387,55.33488223132858,49.43908793028152,-0.0001295089750783,0.0939245000481605,0,0,0
4656,156079.3661019436,2010-09-02 08:51:21,1950.9844035916435,7,13,-1.0993878841400146,3.6205878257751465,13.929728733442335,13.4769306857203,55.33488223132858,49.47229329274585,-9.713172767078504e-05,0.0939245000481605,0,0,0
4657,156109.3812482787,2010-09-02 08:51:51,1980.999549921728,7,13,-1.0993878841400146,3.617673873901367,13.929728733442335,13.48609797232102,55.33488223132858,49.50547103660124,-6.47544875391759e-05,0.0939245000481605,0,0,0
4658,156139.39652900875,2010-09-02 08:52:21,2011.0148306618032,7,13,-1.0993878841400146,3.614759922027588,13.929728733442335,13.49526527827,55.33488223132858,49.53862160513354,-3.237724376958795e-05,0.0939245000481605,0,0,0
4659,156169.41156118433,2010-09-02 08:52:51,2041.0298628323667,7,13,-1.0993878841400146,3.6120078563690186,13.929728733442335,13.504432489775349,55.33488223132858,49.57174540302281,0.0,0.0939245000481605,0,0,0
4660,156199.4267539752,2010-09-02 08:53:21,2071.045055638283,7,13,-1.099568486213684,3.608932018280029,13.929728733442335,13.5135997878158,55.33488223132858,49.60484332225048,-9.713172767078504e-05,0.0939245000481605,0,0,0
4661,156229.44187605986,2010-09-02 08:53:51,2101.06017770289,7,13,-1.0993878841400146,3.60617995262146,13.929728733442335,13.522767074120363,55.33488223132858,49.63791519333112,-6.47544875391759e-05,0.0939245000481605,0,0,0
4662,156259.45698123734,2010-09-02 08:54:21,2131.0752828804098,7,13,-1.099568486213684,3.6032660007476807,13.929728733442335,13.531934254156305,55.33488223132858,49.67096035546006,-6.47544875391759e-05,0.0939245000481605,0,0,0
4663,156289.4721194021,2010-09-02 08:54:51,2161.0904210702056,7,13,-1.0993878841400146,3.6006758213043213,13.929728733442335,13.541101470249382,55.33488223132858,49.70397999468938,-6.47544875391759e-05,0.0939245000481605,0,0,0
4664,156319.48725439393,2010-09-02 08:55:21,2191.105556067044,7,13,-1.099568486213684,3.597761869430542,13.929728733442335,13.550268634626816,55.33488223132858,49.73697362289295,-6.47544875391759e-05,0.0939245000481605,0,0,0
4665,156349.5024290145,2010-09-02 08:55:51,2221.1207306625747,7,13,-1.099568486213684,3.5950098037719727,13.929728733442335,13.559435830768908,55.33488223132858,49.76994197112232,-9.713172767078504e-05,0.0939245000481605,0,0,0
4666,156379.51755457785,2010-09-02 08:56:21,2251.135856225901,7,13,-1.099568486213684,3.5922577381134038,13.929728733442335,13.5686029698419,55.33488223132858,49.80288486401424,-6.47544875391759e-05,0.0939245000481605,0,0,0
4667,156409.5328712625,2010-09-02 08:56:51,2281.1511729356243,7,13,-1.099568486213684,3.589505910873413,13.929728733442335,13.577770305892033,55.33488223132858,49.8358030396091,-3.237724376958795e-05,0.0939245000481605,0,0,0
4668,156439.5478453132,2010-09-02 08:57:21,2311.1661469612727,7,13,-1.099568486213684,3.586430072784424,13.929728733442335,13.586937558239722,55.33488223132858,49.86869548699969,-0.0001295089750783,0.0939245000481605,0,0,0
4669,156469.5631646595,2010-09-02 08:57:51,2341.181466312579,7,13,-1.0993878841400146,3.5840017795562744,13.929728733442335,13.596104857143338,55.33488223132858,49.90156246948951,-3.237724376958795e-05,0.0939245000481605,0,0,0
4670,156499.57814754723,2010-09-02 08:58:21,2371.196449190289,7,13,-1.0993878841400146,3.581087827682495,13.929728733442335,13.605272072442723,55.33488223132858,49.934403474324704,-3.237724376958795e-05,0.0939245000481605,0,0,0
4671,156529.59333923037,2010-09-02 08:58:51,2401.21164087842,7,13,-1.099568486213684,3.578173875808716,13.929728733442335,13.614439343414976,55.33488223132858,49.96721821377831,-6.47544875391759e-05,0.0939245000481605,0,0,0
4672,156559.60841472892,2010-09-02 08:59:21,2431.2267163769707,7,13,-1.0993878841400146,3.5752599239349365,13.929728733442335,13.623606604854832,55.33488223132858,50.00000607584584,-6.47544875391759e-05,0.0939245000481605,0,0,0
4673,156589.62356283845,2010-09-02 08:59:51,2461.241864481477,7,13,-1.0993878841400146,3.572345972061157,13.929728733442335,13.632773887280882,55.33488223132858,50.0327668807273,-6.47544875391759e-05,0.0939245000481605,0,0,0
4674,156619.638741063,2010-09-02 09:00:21,2491.257042706052,7,13,-1.099568486213684,3.569108247756958,13.929728733442335,13.641941153507156,55.33488223132858,50.06550017675763,-6.47544875391759e-05,0.0939245000481605,0,0,0
4675,156649.65387109248,2010-09-02 09:00:51,2521.27217273551,7,13,-1.099568486213684,3.565870523452759,13.929728733442335,13.651107869041317,55.33488223132858,50.098203180009335,-0.0001295089750783,0.0939245000481605,0,0,0
4676,156679.6690102497,2010-09-02 09:01:21,2551.28731191778,7,13,-1.0992072820663452,3.563118457794189,13.929728733442335,13.66027436702208,55.33488223132858,50.1308767580648,-3.237724376958795e-05,0.0939245000481605,0,0,0
4677,156709.68415116126,2010-09-02 09:01:51,2581.3024528093097,7,13,-1.0992072820663452,3.5598807334899902,13.929728733442335,13.669440795471909,55.33488223132858,50.16352175370398,-6.47544875391759e-05,0.0939245000481605,0,0,0
4678,156739.69946705896,2010-09-02 09:02:21,2611.317768701996,7,13,-1.0993878841400146,3.556319236755371,13.929728733442335,13.67860732324542,55.33488223132858,50.19613694981084,-9.713172767078504e-05,0.0939245000481605,0,0,0
4679,156769.7144959363,2010-09-02 09:02:51,2641.332797584364,7,13,-1.0993878841400146,3.552919626235962,13.929728733442335,13.687774347959776,55.33488223132858,50.22872291876335,-0.0001618862152099,0.0939245000481605,0,0,0
4680,156799.72962278785,2010-09-02 09:03:21,2671.347924455952,7,13,-1.099568486213684,3.5495200157165527,13.929728733442335,13.69694161149768,55.33488223132858,50.26127858706983,-0.0001295089750783,0.0939245000481605,0,0,0
4681,156829.74480026055,2010-09-02 09:03:51,2701.3631019236404,7,13,-1.099568486213684,3.5459585189819336,13.929728733442335,13.706108989106268,55.33488223132858,50.293802638617954,-9.713172767078504e-05,0.0939245000481605,0,0,0
4682,156859.75990060603,2010-09-02 09:04:21,2731.3782022741293,7,13,-1.0993878841400146,3.5423970222473145,13.929728733442335,13.715276308721473,55.33488223132858,50.32629326661368,-9.713172767078504e-05,0.0939245000481605,0,0,0
4683,156889.77506525678,2010-09-02 09:04:51,2761.3933669248745,7,13,-1.099568486213684,3.5386736392974854,13.929728733442335,13.72444358958956,55.33488223132858,50.358749689708176,-6.47544875391759e-05,0.0939245000481605,0,0,0
4684,156919.79031382664,2010-09-02 09:05:21,2791.408615469709,7,13,-1.0997490882873535,3.5344645977020264,13.929728733442335,13.733611582965572,55.33488223132858,50.391172229134575,-6.47544875391759e-05,0.0939245000481605,0,0,0
4685,156949.8053338971,2010-09-02 09:05:51,2821.423635560165,7,13,-1.099568486213684,3.5302555561065674,13.929728733442335,13.742779686786989,55.33488223132858,50.42355722255707,-9.713172767078504e-05,0.0939245000481605,0,0,0
4686,156979.82063753923,2010-09-02 09:06:21,2851.4389391922946,7,13,-1.099568486213684,3.5260465145111084,13.929728733442335,13.75194731601494,55.33488223132858,50.45590222771124,-0.0001295089750783,0.0939245000481605,0,0,0
4687,157009.83855955215,2010-09-02 09:06:51,2881.456861195209,7,13,-1.099568486213684,3.5216755867004395,13.929728733442335,13.761115523319384,55.33488223132858,50.48820975556127,-9.713172767078504e-05,0.0939245000481605,0,0,0
4688,157039.85097165272,2010-09-02 09:07:21,2911.469273295753,7,13,-1.099568486213684,3.5169808864593506,13.929728733442335,13.770282031976862,55.33488223132858,50.52047037237602,-0.0001618862152099,0.0939245000481605,0,0,0
4689,157069.8659637985,2010-09-02 09:07:51,2941.484265446574,7,13,-1.0992072820663452,3.512448072433472,13.929728733442335,13.779449441691812,55.33488223132858,50.55269082566831,-6.47544875391759e-05,0.0939245000481605,0,0,0
4690,157099.88130498424,2010-09-02 09:08:21,2971.4996066673866,7,13,-1.0993878841400146,3.507267951965332,13.929728733442335,13.788616954265274,55.33488223132858,50.58486652030805,-0.0001618862152099,0.0939245000481605,0,0,0
4691,157129.8962731954,2010-09-02 09:08:51,3001.514574838444,7,13,-1.099568486213684,3.5017638206481934,13.929728733442335,13.797784313558196,55.33488223132858,50.61699453598427,-0.0001942634553415,0.0939245000481605,0,0,0
4692,157159.91142959055,2010-09-02 09:09:21,3031.529731243638,7,13,-1.0993878841400146,3.4962596893310547,13.929728733442335,13.806951731422515,55.33488223132858,50.64907322091134,-0.0001942634553415,0.0939245000481605,0,0,0
4693,157189.92655389578,2010-09-02 09:09:51,3061.5448555688795,7,13,-1.099568486213684,3.490431785583496,13.929728733442335,13.816119192107672,55.33488223132858,50.68109878797981,-0.0001618862152099,0.0939245000481605,0,0,0
4694,157219.94170276215,2010-09-02 09:10:21,3091.560004410222,7,13,-1.099568486213684,3.4836325645446777,13.929728733442335,13.825286610178736,55.33488223132858,50.713066711274585,-0.0002266406954731,0.0939245000481605,0,0,0
4695,157249.95688201932,2010-09-02 09:10:51,3121.575183682409,7,13,-1.0993878841400146,3.476347684860229,13.929728733442335,13.834454076096575,55.33488223132858,50.74497047611482,-0.0001618862152099,0.0939245000481605,0,0,0
4696,157279.97199896615,2010-09-02 09:11:21,3151.590300599186,7,13,-1.0993878841400146,3.4679296016693115,13.929728733442335,13.843621518816994,55.33488223132858,50.77680216792128,-0.0002266406954731,0.0939245000481605,0,0,0
4697,157309.98727220757,2010-09-02 09:11:51,3181.605573860622,7,13,-1.0993878841400146,3.458216428756714,13.929728733442335,13.852789027207804,55.33488223132858,50.80855072136377,-0.0002590179501567,0.0939245000481605,0,0,0
4698,157340.00229273908,2010-09-02 09:12:21,3211.6205943821524,7,13,-1.099568486213684,3.4465606212615967,13.929728733442335,13.861956435351328,55.33488223132858,50.84020160683679,-0.0003561496851034,0.0939245000481605,0,0,0
4699,157370.01758619084,2010-09-02 09:12:51,3241.635887833909,7,13,-1.099568486213684,3.43247652053833,13.929728733442335,13.871123939836114,55.33488223132858,50.87173555191334,-0.0003885269106831,0.0939245000481605,0,0,0
4700,157400.03260549434,2010-09-02 09:13:21,3271.650907147429,7,13,-1.099568486213684,3.414183616638184,13.929728733442335,13.880291340890633,55.33488223132858,50.90312158486423,-0.0005504131549969,0.0939245000481605,0,0,0
4701,157430.04795548704,2010-09-02 09:13:51,3301.666257130078,7,13,-1.0993878841400146,3.389900684356689,13.929728733442335,13.889458876679203,55.33488223132858,50.93431505301252,-0.0007122993702068,0.0939245000481605,0,0,0
4702,157460.06293508658,2010-09-02 09:14:21,3331.6812367496686,7,13,-1.0993878841400146,3.3559045791625977,13.929728733442335,13.89862626987726,55.33488223132858,50.965244877445066,-0.0010684489971026,0.0939245000481605,0,0,0
4703,157490.07813410298,2010-09-02 09:14:51,3361.696435735988,7,13,-1.0993878841400146,3.3071770668029785,13.929728733442335,13.90779376133492,55.33488223132858,50.99580108892342,-0.0015217304462566,0.0939245000481605,0,0,0
4704,157520.09319350138,2010-09-02 09:15:21,3391.7114951544618,7,13,-1.0993878841400146,3.235623598098755,13.929728733442335,13.91696112906603,55.33488223132858,51.025812754589104,-0.0022664070129394,0.0939245000481605,0,0,0
4705,157550.10834277884,2010-09-02 09:15:51,3421.726644431892,7,13,-1.0993878841400146,3.12699818611145,13.929728733442335,13.92612855776802,55.33488223132858,51.05501519383543,-0.0035291195381432,0.0939245000481605,0,0,0
4706,157580.12349807125,2010-09-02 09:16:21,3451.741799744363,7,13,-1.099568486213684,2.9372682571411133,13.929728733442335,13.935296013476725,55.33488223132858,51.082913660853045,-0.006896304897964,0.0939245000481605,0,0,0
4707,157596.6388735085,2010-09-02 09:16:38,3468.257175151532,7,13,-1.0993878841400146,2.73717737197876,13.929728733442335,13.940340257023546,55.33488223132858,51.097268656871,-0.0115910051390528,0.0939245000481605,0,0,0
4708,157599.02949397024,2010-09-02 09:16:40,3470.647795623323,7,13,-1.0993878841400146,2.699943780899048,13.929728733442335,13.9410704081185,55.33488223132858,51.09925378020193,-0.0122061725705862,0.0939245000481605,0,0,0
4709,157659.05077160842,2010-09-02 09:17:40,60.01477810813103,8,13,0.0,3.3968617916107178,13.929728733442335,13.9410704081185,55.33488223132858,51.09925378020193,0.0010036944877356,0.0939245000481605,0,0,0
4710,157659.2456075136,2010-09-02 09:17:41,0.187457722323329,9,13,-1.9243103452026844e-05,3.3971855640411377,13.929728733442335,13.94107040912052,55.33488223132858,51.09925378360597,0.0,0.0859051570296287,0,0,0
4711,157664.07361910903,2010-09-02 09:17:46,5.01546933781116,9,13,0.0005225847125984,3.4031753540039062,13.9297296638013,13.941070409287512,55.33488539511194,51.099253784173285,0.0008741855854168,0.0859051570296287,0,0,0
