Data_Point,Test_Time(s),Date_Time,Step_Time(s),Step_Index,Cycle_Index,Current(A),Voltage(V),Charge_Capacity(Ah),Discharge_Capacity(Ah),Charge_Energy(Wh),Discharge_Energy(Wh),dV/dt(V/s),Internal_Resistance(Ohm),Is_FC_Data,AC_Impedance(Ohm),ACI_Phase_Angle(Deg)
9313,314541.2643770029,2010-09-04 04:52:39,30.015262128689965,1,27,0.0,3.453845500946045,27.568667099294103,27.562249773090333,109.66944052498069,100.91377338477388,0.0006475448608398,0.0867155864834785,0,0,0
9314,314571.27934832184,2010-09-04 04:53:09,60.03023345260495,1,27,0.0,3.4731099605560303,27.568667099294103,27.562249773090333,109.66944052498069,100.91377338477388,0.0004532813909463,0.0867155864834785,0,0,0
9315,314601.29450145893,2010-09-04 04:53:39,90.04538658965421,1,27,0.0,3.487032175064087,27.568667099294103,27.562249773090333,109.66944052498069,100.91377338477388,0.0002913951757363,0.0867155864834785,0,0,0
9316,314631.2630177827,2010-09-04 04:54:09,120.01390291341498,1,27,0.0,3.4978785514831543,27.568667099294103,27.562249773090333,109.66944052498069,100.91377338477388,0.0002590179501567,0.0867155864834785,0,0,0
9317,314661.2818574188,2010-09-04 04:54:39,30.015175432616672,2,27,0.550297200679779,3.626577615737915,27.573253536227128,27.562249773090333,109.68594600461532,100.91377338477388,0.0012627125252038,0.0867155864834785,0,0,0
9318,314691.29713461007,2010-09-04 04:55:09,60.03045260379716,2,27,0.5501165986061096,3.664458990097046,27.57784002865823,27.562249773090333,109.70267094367892,100.91377338477388,0.0008741855854168,0.0867155864834785,0,0,0
9319,314721.3121853268,2010-09-04 04:55:39,90.04550331557111,2,27,0.5499359965324402,3.69246506690979,27.58242632328741,27.562249773090333,109.71954424399404,100.91377338477388,0.0006475448608398,0.0867155864834785,0,0,0
9320,314751.3273696365,2010-09-04 04:56:09,120.06068762029984,2,27,0.5501165986061096,3.715129137039185,27.587012750768345,27.562249773090333,109.73653344586394,100.91377338477388,0.0005504131549969,0.0867155864834785,0,0,0
9321,314781.342529741,2010-09-04 04:56:39,150.0758477247139,2,27,0.5499359965324402,3.73293662071228,27.591599153336087,27.562249773090333,109.75361525817836,100.91377338477388,0.0004209041653666,0.0867155864834785,0,0,0
9322,314811.35769969993,2010-09-04 04:57:09,180.0910176736636,2,27,0.5501165986061096,3.746858835220337,27.596185468410315,27.562249773090333,109.77076974425312,100.91377338477388,0.0003237724304199,0.0867155864834785,0,0,0
9323,314841.3728683657,2010-09-04 04:57:39,210.1061863494401,2,27,0.5501165986061096,3.755924224853516,27.600771768097577,27.562249773090333,109.78797648076646,100.91377338477388,0.0001942634553415,0.0867155864834785,0,0,0
9324,314871.3880903744,2010-09-04 04:58:09,240.1214083781887,2,27,0.5501165986061096,3.761266469955444,27.605358136839584,27.562249773090333,109.80521551896284,100.91377338477388,0.0001295089750783,0.0867155864834785,0,0,0
9325,314901.4032394964,2010-09-04 04:58:39,270.1365574801814,2,27,0.5501165986061096,3.7649898529052734,27.60994451464152,27.562249773090333,109.82247477965416,100.91377338477388,9.713172767078504e-05,0.0867155864834785,0,0,0
9326,314931.41839326505,2010-09-04 04:59:09,300.1517112638422,2,27,0.5501165986061096,3.7682275772094727,27.614530881231392,27.562249773090333,109.839749817167,100.91377338477388,6.47544875391759e-05,0.0867155864834785,0,0,0
9327,314961.43390548707,2010-09-04 04:59:39,330.1672235209291,2,27,0.5499359965324402,3.771465301513672,27.619117321347417,27.562249773090333,109.85703960822066,100.91377338477388,9.713172767078504e-05,0.0867155864834785,0,0,0
9328,314991.4515431313,2010-09-04 05:00:09,360.1848611150097,2,27,0.5499359965324402,3.774217367172241,27.62370400926932,27.562249773090333,109.87434453526949,100.91377338477388,9.713172767078504e-05,0.0867155864834785,0,0,0
9329,315021.46390863566,2010-09-04 05:00:40,390.1972266194208,2,27,0.5499359965324402,3.7772932052612314,27.628290022442307,27.562249773090333,109.89166099904364,100.91377338477388,6.47544875391759e-05,0.0867155864834785,0,0,0
9330,315051.4793061568,2010-09-04 05:01:10,420.21262415057527,2,27,0.5501165986061096,3.7805309295654297,27.63287646981691,27.562249773090333,109.90899316624242,100.91377338477388,6.47544875391759e-05,0.0867155864834785,0,0,0
9331,315081.4944226725,2010-09-04 05:01:40,450.2277406713655,2,27,0.5501165986061096,3.783606767654419,27.637462823470464,27.562249773090333,109.92633882987388,100.91377338477388,0.0001295089750783,0.0867155864834785,0,0,0
9332,315111.5094477856,2010-09-04 05:02:10,480.24276579937685,2,27,0.5501165986061096,3.786682605743408,27.64204921647184,27.562249773090333,109.94369848386344,100.91377338477388,0.0001295089750783,0.0867155864834785,0,0,0
9333,315141.5245840004,2010-09-04 05:02:40,510.25790198417593,2,27,0.5501165986061096,3.7894346714019775,27.646635591362863,27.562249773090333,109.96107183026834,100.91377338477388,9.713172767078504e-05,0.0867155864834785,0,0,0
9334,315171.5397499795,2010-09-04 05:03:10,540.273067988294,2,27,0.5501165986061096,3.792510509490967,27.651221952055867,27.562249773090333,109.97845873817724,100.91377338477388,9.713172767078504e-05,0.0867155864834785,0,0,0
9335,315201.5550756565,2010-09-04 05:03:40,570.2883937606034,2,27,0.5501165986061096,3.795586347579956,27.65580830473012,27.562249773090333,109.99585929497434,100.91377338477388,9.713172767078504e-05,0.0867155864834785,0,0,0
9336,315231.57013678434,2010-09-04 05:04:10,600.3034547680373,2,27,0.5499359965324402,3.798176527023315,27.660394683565947,27.562249773090333,110.01327362627912,100.91377338477388,3.237724376958795e-05,0.0867155864834785,0,0,0
9337,315261.5852702574,2010-09-04 05:04:40,630.3185882360652,2,27,0.5501165986061096,3.801414251327514,27.66498106454691,27.562249773090333,110.03070172594244,100.91377338477388,6.47544875391759e-05,0.0867155864834785,0,0,0
9338,315291.6004557601,2010-09-04 05:05:10,660.3337737437922,2,27,0.5499359965324402,3.804490089416504,27.669567502698587,27.562249773090333,110.0481438753939,100.91377338477388,6.47544875391759e-05,0.0867155864834785,0,0,0
9339,315321.61573093623,2010-09-04 05:05:40,690.3490489300257,2,27,0.5501165986061096,3.807727813720703,27.674153999122677,27.562249773090333,110.0656004611308,100.91377338477388,9.713172767078504e-05,0.0867155864834785,0,0,0
9340,315351.6307911718,2010-09-04 05:06:10,720.3641091555106,2,27,0.550297200679779,3.8109655380249023,27.678740365623607,27.562249773090333,110.08307099926876,100.91377338477388,9.713172767078504e-05,0.0867155864834785,0,0,0
9341,315381.64595584257,2010-09-04 05:06:40,750.379273831318,2,27,0.5501165986061096,3.8142032623291016,27.683326818909645,27.562249773090333,110.10055687378826,100.91377338477388,9.713172767078504e-05,0.0867155864834785,0,0,0
9342,315411.66111960605,2010-09-04 05:07:10,780.3944375898393,2,27,0.5501165986061096,3.817602872848511,27.687913211274527,27.562249773090333,110.11805802125582,100.91377338477388,9.713172767078504e-05,0.0867155864834785,0,0,0
9343,315441.6762861716,2010-09-04 05:07:40,810.4096041804189,2,27,0.5501165986061096,3.82116436958313,27.692499604932348,27.562249773090333,110.1355748933359,100.91377338477388,9.713172767078504e-05,0.0867155864834785,0,0,0
9344,315471.6916074928,2010-09-04 05:08:10,840.4249254765725,2,27,0.5501165986061096,3.824563980102539,27.697086052285137,27.562249773090333,110.15310799794624,100.91377338477388,6.47544875391759e-05,0.0867155864834785,0,0,0
9345,315501.7067753015,2010-09-04 05:08:40,870.4400932952126,2,27,0.5499359965324402,3.827963590621948,27.70167242893378,27.562249773090333,110.17065695063852,100.91377338477388,6.47544875391759e-05,0.0867155864834785,0,0,0
9346,315531.7219132807,2010-09-04 05:09:10,900.455231264459,2,27,0.5501165986061096,3.831686973571777,27.706258763906945,27.562249773090333,110.18822187917934,100.91377338477388,0.0001295089750783,0.0867155864834785,0,0,0
9347,315561.73697254376,2010-09-04 05:09:40,930.4702905275456,2,27,0.5499359965324402,3.8349244594573975,27.710845142384247,27.562249773090333,110.20580285452756,100.91377338477388,9.713172767078504e-05,0.0867155864834785,0,0,0
9348,315591.7521515303,2010-09-04 05:10:10,960.485469519032,2,27,0.5499359965324402,3.8384859561920166,27.715431493747893,27.562249773090333,110.22339940795098,100.91377338477388,9.713172767078504e-05,0.0867155864834785,0,0,0
9349,315621.7673103715,2010-09-04 05:10:40,990.500628360298,2,27,0.5501165986061096,3.841723680496216,27.72001785813612,27.562249773090333,110.24101141331435,100.91377338477388,6.47544875391759e-05,0.0867155864834785,0,0,0
9350,315651.7824907816,2010-09-04 05:11:10,1020.5158087653074,2,27,0.5499359965324402,3.844799518585205,27.72460421927945,27.562249773090333,110.25863842689742,100.91377338477388,3.237724376958795e-05,0.0867155864834785,0,0,0
9351,315681.79764561285,2010-09-04 05:11:40,1050.5309636015918,2,27,0.5501165986061096,3.8481991291046143,27.729190554409275,27.562249773090333,110.27628013926764,100.91377338477388,9.713172767078504e-05,0.0867155864834785,0,0,0
9352,315711.81285984715,2010-09-04 05:12:10,1080.546177855964,2,27,0.5501165986061096,3.8514368534088135,27.733776965741143,27.562249773090333,110.2939366950951,100.91377338477388,0.0001295089750783,0.0867155864834785,0,0,0
9353,315741.8279663279,2010-09-04 05:12:40,1110.5612843116692,2,27,0.5501165986061096,3.8545126914978023,27.73836340993068,27.562249773090333,110.31160761741452,100.91377338477388,9.713172767078504e-05,0.0867155864834785,0,0,0
9354,315771.84313571546,2010-09-04 05:13:10,1140.5764537292944,2,27,0.5499359965324402,3.857426643371582,27.74294985459424,27.562249773090333,110.3292924680876,100.91377338477388,9.713172767078504e-05,0.0867155864834785,0,0,0
9355,315801.85844452545,2010-09-04 05:13:40,1170.5917625343163,2,27,0.5501165986061096,3.860178709030152,27.747536369142185,27.562249773090333,110.34699102156176,100.91377338477388,6.47544875391759e-05,0.0867155864834785,0,0,0
9356,315831.87349077617,2010-09-04 05:14:10,1200.6068087899844,2,27,0.5499359965324402,3.8629307746887207,27.752122826196807,27.562249773090333,110.36470227116054,100.91377338477388,6.47544875391759e-05,0.0867155864834785,0,0,0
9357,315861.8886609005,2010-09-04 05:14:40,1230.6219788842964,2,27,0.5499359965324402,3.86552095413208,27.75670929476242,27.562249773090333,110.38242573572356,100.91377338477388,6.47544875391759e-05,0.0867155864834785,0,0,0
9358,315891.9039046284,2010-09-04 05:15:10,1260.6372226121257,2,27,0.5499359965324402,3.8679492473602295,27.76129577050465,27.562249773090333,110.40016077282772,100.91377338477388,3.237724376958795e-05,0.0867155864834785,0,0,0
9359,315921.9190207532,2010-09-04 05:15:40,1290.6523387619914,2,27,0.5501165986061096,3.870215654373169,27.765882199875197,27.562249773090333,110.4179064426232,100.91377338477388,3.237724376958795e-05,0.0867155864834785,0,0,0
9360,315951.93415440165,2010-09-04 05:16:10,1320.6674724104691,2,27,0.550297200679779,3.8723201751708975,27.770468776460767,27.562249773090333,110.43566278610186,100.91377338477388,0.0,0.0867155864834785,0,0,0
9361,315981.9493031979,2010-09-04 05:16:40,1350.6826211816374,2,27,0.5501165986061096,3.874424695968628,27.775056134040412,27.562249773090333,110.4534315617406,100.91377338477388,6.47544875391759e-05,0.0867155864834785,0,0,0
9362,316011.9644537034,2010-09-04 05:17:10,1380.697771687128,2,27,0.550297200679779,3.876367330551148,27.77964339064429,27.562249773090333,110.47120848730424,100.91377338477388,6.47544875391759e-05,0.0867155864834785,0,0,0
9363,316041.9796654064,2010-09-04 05:17:40,1410.7129833951542,2,27,0.550297200679779,3.877824306488037,27.784230762778325,27.562249773090333,110.4889937967943,100.91377338477388,6.47544875391759e-05,0.0867155864834785,0,0,0
9364,316071.99487671844,2010-09-04 05:18:10,1440.728194707193,2,27,0.550297200679779,3.879281282424927,27.788818209552936,27.562249773090333,110.50678665244249,100.91377338477388,3.237724376958795e-05,0.0867155864834785,0,0,0
9365,316102.0100030938,2010-09-04 05:18:40,1470.7433210775316,2,27,0.550297200679779,3.880738258361816,27.79340557591193,27.562249773090333,110.5245857941002,100.91377338477388,3.237724376958795e-05,0.0867155864834785,0,0,0
9366,316132.0251814788,2010-09-04 05:19:10,1500.7584994625065,2,27,0.550297200679779,3.882033348083496,27.797992980987942,27.562249773090333,110.54239136179125,100.91377338477388,6.47544875391759e-05,0.0867155864834785,0,0,0
9367,316162.0403437486,2010-09-04 05:19:40,1530.77366173733,2,27,0.5501165986061096,3.883166551589966,27.80257957661815,27.562249773090333,110.56019949583812,100.91377338477388,3.237724376958795e-05,0.0867155864834785,0,0,0
9368,316192.0555296573,2010-09-04 05:20:10,1560.7888476410435,2,27,0.5501165986061096,3.8844616413116455,27.807166198974425,27.562249773090333,110.5780133274372,100.91377338477388,6.47544875391759e-05,0.0867155864834785,0,0,0
9369,316222.0707038268,2010-09-04 05:20:40,1590.8040218105125,2,27,0.5499359965324402,3.885432958602905,27.81175291284048,27.562249773090333,110.5958326386879,100.91377338477388,0.0,0.0867155864834785,0,0,0
9370,316252.08591339947,2010-09-04 05:21:10,1620.8192314082792,2,27,0.5501165986061096,3.886566162109375,27.81633954925528,27.562249773090333,110.6136568378614,100.91377338477388,3.237724376958795e-05,0.0867155864834785,0,0,0
9371,316282.1011563855,2010-09-04 05:21:40,1650.834474369197,2,27,0.5501165986061096,3.8876993656158447,27.82092619397694,27.562249773090333,110.6314860443423,100.91377338477388,3.237724376958795e-05,0.0867155864834785,0,0,0
9372,316312.11654822243,2010-09-04 05:22:10,1680.8498662111724,2,27,0.550297200679779,3.8888325691223145,27.82551288754872,27.562249773090333,110.64932040599692,100.91377338477388,3.237724376958795e-05,0.0867155864834785,0,0,0
9373,316342.13139701594,2010-09-04 05:22:40,1710.8647149996916,2,27,0.5501165986061096,3.889642000198364,27.830099591106613,27.562249773090333,110.66715965325098,100.91377338477388,0.0,0.0867155864834785,0,0,0
9374,316372.14654039365,2010-09-04 05:23:10,1740.8798583824305,2,27,0.550297200679779,3.890937089920044,27.83468631429741,27.562249773090333,110.6850038176372,100.91377338477388,3.237724376958795e-05,0.0867155864834785,0,0,0
9375,316402.1617500416,2010-09-04 05:23:40,1770.8950680253092,2,27,0.5501165986061096,3.891908407211304,27.83927298859262,27.562249773090333,110.70285263476802,100.91377338477388,3.237724376958795e-05,0.0867155864834785,0,0,0
9376,316432.176899314,2010-09-04 05:24:10,1800.9102173027393,2,27,0.5501165986061096,3.893041610717773,27.843859757595865,27.562249773090333,110.7207066367212,100.91377338477388,3.237724376958795e-05,0.0867155864834785,0,0,0
9377,316462.1922665847,2010-09-04 05:24:40,1830.9255845734751,2,27,0.5501165986061096,3.894012928009033,27.848446495559777,27.562249773090333,110.73856535033852,100.91377338477388,3.237724376958795e-05,0.0867155864834785,0,0,0
9378,316492.20736802294,2010-09-04 05:25:10,1860.940686026713,2,27,0.5501165986061096,3.894984245300293,27.85303332851084,27.562249773090333,110.7564291541045,100.91377338477388,0.0,0.0867155864834785,0,0,0
9379,316522.22246529075,2010-09-04 05:25:40,1890.9557832744688,2,27,0.550297200679779,3.8962793350219727,27.857620032230137,27.562249773090333,110.77429689944778,100.91377338477388,6.47544875391759e-05,0.0867155864834785,0,0,0
9380,316552.2376172047,2010-09-04 05:26:10,1920.970935293732,2,27,0.5501165986061096,3.8970887660980233,27.862206796945117,27.562249773090333,110.7921699460409,100.91377338477388,0.0,0.0867155864834785,0,0,0
9381,316582.25276626664,2010-09-04 05:26:40,1950.9860842403373,2,27,0.5499359965324402,3.898221969604492,27.866793471376607,27.562249773090333,110.81004748026642,100.91377338477388,3.237724376958795e-05,0.0867155864834785,0,0,0
9382,316612.2679085015,2010-09-04 05:27:10,1981.0012264752152,2,27,0.5501165986061096,3.899517059326172,27.87138008311461,27.562249773090333,110.82792975166764,100.91377338477388,6.47544875391759e-05,0.0867155864834785,0,0,0
9383,316642.2830841797,2010-09-04 05:27:40,2011.016402153444,2,27,0.5501165986061096,3.900488376617432,27.87596669454168,27.562249773090333,110.84581695152278,100.91377338477388,3.237724376958795e-05,0.0867155864834785,0,0,0
9384,316672.29839494964,2010-09-04 05:28:10,2041.031712943413,2,27,0.550297200679779,3.9014596939086914,27.880553398383697,27.562249773090333,110.86370953160696,100.91377338477388,3.237724376958795e-05,0.0867155864834785,0,0,0
9385,316702.3135875651,2010-09-04 05:28:40,2071.046905583917,2,27,0.5501165986061096,3.902754783630371,27.88514005856296,27.562249773090333,110.88160702370794,100.91377338477388,6.47544875391759e-05,0.0867155864834785,0,0,0
9386,316732.3285929589,2010-09-04 05:29:10,2101.0619109476697,2,27,0.5501165986061096,3.903726100921631,27.88972675971339,27.562249773090333,110.89950977633094,100.91377338477388,3.237724376958795e-05,0.0867155864834785,0,0,0
9387,316762.3437896946,2010-09-04 05:29:40,2131.0771076833803,2,27,0.5499359965324402,3.9048593044281006,27.894313492973136,27.562249773090333,110.91741783144032,100.91377338477388,0.0,0.0867155864834785,0,0,0
9388,316792.358928145,2010-09-04 05:30:10,2161.0922461288133,2,27,0.5501165986061096,3.90583062171936,27.8989001867727,27.562249773090333,110.93533078924052,100.91377338477388,-3.237724376958795e-05,0.0867155864834785,0,0,0
9389,316822.3740871969,2010-09-04 05:30:40,2191.1074052056665,2,27,0.5501165986061096,3.90712571144104,27.90348677961482,27.562249773090333,110.95324870203244,100.91377338477388,0.0,0.0867155864834785,0,0,0
9390,316852.3894595904,2010-09-04 05:31:10,2221.122777584133,2,27,0.5501165986061096,3.90842080116272,27.90807346703797,27.562249773090333,110.97117230092792,100.91377338477388,3.237724376958795e-05,0.0867155864834785,0,0,0
9391,316882.4044891745,2010-09-04 05:31:40,2251.137807163237,2,27,0.5499359965324402,3.9095540046691895,27.91266004759615,27.562249773090333,110.9891009149492,100.91377338477388,3.237724376958795e-05,0.0867155864834785,0,0,0
9392,316912.42246419954,2010-09-04 05:32:10,2281.155782183288,2,27,0.5501165986061096,3.910687208175659,27.917247177305608,27.562249773090333,111.0070371374821,100.91377338477388,3.237724376958795e-05,0.0867155864834785,0,0,0
9393,316942.4349955022,2010-09-04 05:32:41,2311.168313495944,2,27,0.5501165986061096,3.911820411682129,27.921833390582925,27.562249773090333,111.02497529852104,100.91377338477388,0.0,0.0867155864834785,0,0,0
9394,316972.4502385784,2010-09-04 05:33:11,2341.183556572149,2,27,0.5501165986061096,3.9131155014038086,27.92642002147377,27.562249773090333,111.04292069670448,100.91377338477388,3.237724376958795e-05,0.0867155864834785,0,0,0
9395,317002.4652903127,2010-09-04 05:33:41,2371.198608306472,2,27,0.550297200679779,3.914410352706909,27.93100666696417,27.562249773090333,111.06087180965628,100.91377338477388,3.237724376958795e-05,0.0867155864834785,0,0,0
9396,317032.480365696,2010-09-04 05:34:11,2401.213683679709,2,27,0.5499359965324402,3.915543556213379,27.93559332661465,27.562249773090333,111.0788287395714,100.91377338477388,0.0,0.0867155864834785,0,0,0
9397,317062.49553317874,2010-09-04 05:34:41,2431.228851162513,2,27,0.5501165986061096,3.917000532150269,27.940179866285003,27.562249773090333,111.09679085135998,100.91377338477388,6.47544875391759e-05,0.0867155864834785,0,0,0
9398,317092.51068223565,2010-09-04 05:35:11,2461.244000219393,2,27,0.5501165986061096,3.9181337356567374,27.94476642483238,27.562249773090333,111.11475900553488,100.91377338477388,6.47544875391759e-05,0.0867155864834785,0,0,0
9399,317122.5258465806,2010-09-04 05:35:41,2491.259164564376,2,27,0.550297200679779,3.919428825378418,27.949353018113825,27.562249773090333,111.13273316845932,100.91377338477388,0.0,0.0867155864834785,0,0,0
9400,317152.5410328954,2010-09-04 05:36:11,2521.274350879114,2,27,0.550297200679779,3.920885801315308,27.95393966950859,27.562249773090333,111.15071366657432,100.91377338477388,3.237724376958795e-05,0.0867155864834785,0,0,0
9401,317182.55621142074,2010-09-04 05:36:41,2551.2895294295013,2,27,0.5501165986061096,3.922019004821777,27.95852632970088,27.562249773090333,111.16870017344658,100.91377338477388,0.0,0.0867155864834785,0,0,0
9402,317212.5713563272,2010-09-04 05:37:11,2581.3046743109758,2,27,0.5499359965324402,3.923475980758667,27.963112991702403,27.562249773090333,111.1866928596894,100.91377338477388,3.237724376958795e-05,0.0867155864834785,0,0,0
9403,317242.5866667663,2010-09-04 05:37:41,2611.319984750069,2,27,0.5501165986061096,3.9247710704803462,27.96769963184653,27.562249773090333,111.20469162746862,100.91377338477388,0.0,0.0867155864834785,0,0,0
9404,317272.60196397745,2010-09-04 05:38:11,2641.33528205142,2,27,0.5499359965324402,3.9260661602020255,27.972286342898204,27.562249773090333,111.22269689337422,100.91377338477388,0.0,0.0867155864834785,0,0,0
9405,317302.61689742195,2010-09-04 05:38:41,2671.350215405704,2,27,0.5501165986061096,3.927523136138916,27.97687295485549,27.562249773090333,111.24070804671824,100.91377338477388,3.237724376958795e-05,0.0867155864834785,0,0,0
9406,317332.6320478974,2010-09-04 05:39:11,2701.365365881119,2,27,0.5501165986061096,3.9289801120758057,27.98145955974912,27.562249773090333,111.25872549982854,100.91377338477388,3.237724376958795e-05,0.0867155864834785,0,0,0
9407,317362.64731872274,2010-09-04 05:39:41,2731.3806367014718,2,27,0.5501165986061096,3.9304370880126953,27.98604615217449,27.562249773090333,111.27674934356033,100.91377338477388,6.47544875391759e-05,0.0867155864834785,0,0,0
9408,317392.6623937652,2010-09-04 05:40:11,2761.395711748897,2,27,0.5501165986061096,3.931894063949585,27.99063275842767,27.562249773090333,111.294779664622,100.91377338477388,9.713172767078504e-05,0.0867155864834785,0,0,0
9409,317422.67766356294,2010-09-04 05:40:41,2791.410981576776,2,27,0.5501165986061096,3.9331891536712646,27.995219425625923,27.562249773090333,111.3128167691723,100.91377338477388,3.237724376958795e-05,0.0867155864834785,0,0,0
9410,317452.69273479586,2010-09-04 05:41:11,2821.426052789645,2,27,0.5501165986061096,3.9346461296081534,27.999806078774416,27.562249773090333,111.33086033485792,100.91377338477388,6.47544875391759e-05,0.0867155864834785,0,0,0
9411,317482.7078822036,2010-09-04 05:41:41,2851.4412001924024,2,27,0.5499359965324402,3.936103105545044,28.004392777125403,27.562249773090333,111.34891076737024,100.91377338477388,3.237724376958795e-05,0.0867155864834785,0,0,0
9412,317512.7085945999,2010-09-04 05:42:11,2881.4419125936947,2,27,0.5501165986061096,3.9375600814819336,28.008977268095578,27.562249773090333,111.36695895435122,100.91377338477388,3.237724376958795e-05,0.0867155864834785,0,0,0
9413,317542.7228154084,2010-09-04 05:42:41,2911.456133442194,2,27,0.5501165986061096,3.9390170574188232,28.013563796703536,27.562249773090333,111.38502198808705,100.91377338477388,3.237724376958795e-05,0.0867155864834785,0,0,0
9414,317572.7377749479,2010-09-04 05:43:11,2941.4710929366265,2,27,0.550297200679779,3.940474033355713,28.01815038413239,27.562249773090333,111.4030919773746,100.91377338477388,3.237724376958795e-05,0.0867155864834785,0,0,0
9415,317602.7530096532,2010-09-04 05:43:41,2971.4863276369565,2,27,0.5501165986061096,3.9419310092926025,28.022737077805303,27.562249773090333,111.42116915443307,100.91377338477388,3.237724376958795e-05,0.0867155864834785,0,0,0
9416,317632.7681335224,2010-09-04 05:44:11,3001.5014515060616,2,27,0.5501165986061096,3.943387985229492,28.02732375688213,27.562249773090333,111.43925312512393,100.91377338477388,3.237724376958795e-05,0.0867155864834785,0,0,0
9417,317662.78330795746,2010-09-04 05:44:41,3031.5166259311677,2,27,0.5499359965324402,3.944844961166382,28.03191043037693,27.562249773090333,111.45734394181272,100.91377338477388,3.237724376958795e-05,0.0867155864834785,0,0,0
9418,317692.7984375308,2010-09-04 05:45:11,3061.5317555195256,2,27,0.5501165986061096,3.9464638233184814,28.036497051390675,27.562249773090333,111.47544152920445,100.91377338477388,6.47544875391759e-05,0.0867155864834785,0,0,0
9419,317722.81360160507,2010-09-04 05:45:41,3091.5469195888213,2,27,0.5501165986061096,3.948082685470581,28.041083692946803,27.562249773090333,111.4935460393908,100.91377338477388,6.47544875391759e-05,0.0867155864834785,0,0,0
9420,317752.8289634974,2010-09-04 05:46:11,3121.5622814811527,2,27,0.5501165986061096,3.949539661407471,28.045670409311064,27.562249773090333,111.5116579833054,100.91377338477388,3.237724376958795e-05,0.0867155864834785,0,0,0
9421,317782.8441405842,2010-09-04 05:46:41,3151.577458577917,2,27,0.5501165986061096,3.9511585235595694,28.05025706500019,27.562249773090333,111.52977683577085,100.91377338477388,3.237724376958795e-05,0.0867155864834785,0,0,0
9422,317812.85915724107,2010-09-04 05:47:11,3181.592475234816,2,27,0.5499359965324402,3.95261549949646,28.0548432113078,27.562249773090333,111.5479007772458,100.91377338477388,3.237724376958795e-05,0.0867155864834785,0,0,0
9423,317842.8743456159,2010-09-04 05:47:41,3211.6076636147013,2,27,0.5499359965324402,3.95423436164856,28.059428921190605,27.562249773090333,111.5660301887946,100.91377338477388,6.47544875391759e-05,0.0867155864834785,0,0,0
9424,317872.8896302507,2010-09-04 05:48:11,3241.6229482444705,2,27,0.5501165986061096,3.955853223800659,28.064014702166663,27.562249773090333,111.58416725138872,100.91377338477388,3.237724376958795e-05,0.0867155864834785,0,0,0
9425,317902.9046990476,2010-09-04 05:48:41,3271.6380170613684,2,27,0.5499359965324402,3.957310199737549,28.06860054430221,27.562249773090333,111.60231198073566,100.91377338477388,3.237724376958795e-05,0.0867155864834785,0,0,0
9426,317932.91984886135,2010-09-04 05:49:11,3301.65316684506,2,27,0.5504778623580933,3.959252834320069,28.073186827076995,27.562249773090333,111.62046605332228,100.91377338477388,3.237724376958795e-05,0.0867155864834785,0,0,0
9427,317962.9350352212,2010-09-04 05:49:41,3331.668353209923,2,27,0.550297200679779,3.960871696472168,28.07777348140125,27.562249773090333,111.63862929975058,100.91377338477388,3.237724376958795e-05,0.0867155864834785,0,0,0
9428,317992.95018320536,2010-09-04 05:50:11,3361.683501189117,2,27,0.5501165986061096,3.9626524448394775,28.082360211450805,27.562249773090333,111.6568006354256,100.91377338477388,6.47544875391759e-05,0.0867155864834785,0,0,0
9429,318022.9654973788,2010-09-04 05:50:41,3391.69881536252,2,27,0.5501165986061096,3.964271306991577,28.086946911413204,27.562249773090333,111.67497966879844,100.91377338477388,6.47544875391759e-05,0.0867155864834785,0,0,0
9430,318052.9805350631,2010-09-04 05:51:11,3421.713853046824,2,27,0.5501165986061096,3.966052055358887,28.09153358303669,27.562249773090333,111.69316651963663,100.91377338477388,3.237724376958795e-05,0.0867155864834785,0,0,0
9431,318082.9956996437,2010-09-04 05:51:41,3451.729017627394,2,27,0.550297200679779,3.967832803726196,28.096120262233168,27.562249773090333,111.71136145591105,100.91377338477388,3.237724376958795e-05,0.0867155864834785,0,0,0
9432,318113.01087088586,2010-09-04 05:52:11,3481.744188869567,2,27,0.5501165986061096,3.969613552093506,28.100706906209247,27.562249773090333,111.72956439445016,100.91377338477388,3.237724376958795e-05,0.0867155864834785,0,0,0
9433,318143.02604697004,2010-09-04 05:52:41,3511.759364953808,2,27,0.5501165986061096,3.971394300460816,28.10529366666224,27.562249773090333,111.74777607949105,100.91377338477388,9.713172767078504e-05,0.0867155864834785,0,0,0
9434,318173.0412264227,2010-09-04 05:53:11,3541.774544406444,2,27,0.5499359965324402,3.973013162612915,28.109880429364328,27.562249773090333,111.76599618461404,100.91377338477388,3.237724376958795e-05,0.0867155864834785,0,0,0
9435,318203.05637576524,2010-09-04 05:53:41,3571.7896937490364,2,27,0.550297200679779,3.9752795696258554,28.11446708526813,27.562249773090333,111.78422436049368,100.91377338477388,9.713172767078504e-05,0.0867155864834785,0,0,0
9436,318233.0717934918,2010-09-04 05:54:11,3601.805111480536,2,27,0.550297200679779,3.977060317993164,28.11905386006179,27.562249773090333,111.80246160246476,100.91377338477388,3.237724376958795e-05,0.0867155864834785,0,0,0
9437,318263.0870813396,2010-09-04 05:54:41,3631.8203993283255,2,27,0.550297200679779,3.979002952575684,28.12364063535092,27.562249773090333,111.82070712324652,100.91377338477388,3.237724376958795e-05,0.0867155864834785,0,0,0
9438,318293.10189270484,2010-09-04 05:55:11,3661.835210688562,2,27,0.5501165986061096,3.980783700942993,28.128227193888268,27.562249773090333,111.838961023694,100.91377338477388,3.237724376958795e-05,0.0867155864834785,0,0,0
9439,318323.11706357106,2010-09-04 05:55:41,3691.8503815598106,2,27,0.5501165986061096,3.9827263355255127,28.13281383686213,27.562249773090333,111.85722415671462,100.91377338477388,3.237724376958795e-05,0.0867155864834785,0,0,0
9440,318353.1322360112,2010-09-04 05:56:11,3721.865553994957,2,27,0.550297200679779,3.984668970108032,28.137400502340228,27.562249773090333,111.87549624890184,100.91377338477388,3.237724376958795e-05,0.0867155864834785,0,0,0
9441,318383.1474369323,2010-09-04 05:56:41,3751.8807549160974,2,27,0.5501165986061096,3.986611604690552,28.141987104222157,27.562249773090333,111.89377707328433,100.91377338477388,0.0,0.0867155864834785,0,0,0
9442,318413.1625897486,2010-09-04 05:57:11,3781.895907762423,2,27,0.5501165986061096,3.9885542392730713,28.146573769829157,27.562249773090333,111.91206719916634,100.91377338477388,3.237724376958795e-05,0.0867155864834785,0,0,0
9443,318443.1777465648,2010-09-04 05:57:41,3811.911064548567,2,27,0.5501165986061096,3.990658760070801,28.15116036731401,27.562249773090333,111.93036613890878,100.91377338477388,9.713172767078504e-05,0.0867155864834785,0,0,0
9444,318473.19304181606,2010-09-04 05:58:11,3841.926359794797,2,27,0.550297200679779,3.9927632808685294,28.155746980923546,27.562249773090333,111.948674339269,100.91377338477388,6.47544875391759e-05,0.0867155864834785,0,0,0
9445,318503.20810635225,2010-09-04 05:58:41,3871.9414243310257,2,27,0.5501165986061096,3.994705677032471,28.1603336085611,27.562249773090333,111.96699185936474,100.91377338477388,3.237724376958795e-05,0.0867155864834785,0,0,0
9446,318533.2232615896,2010-09-04 05:59:11,3901.9565795733206,2,27,0.5499359965324402,3.9966483116149902,28.164920262025603,27.562249773090333,111.98531887534622,100.91377338477388,6.47544875391759e-05,0.0867155864834785,0,0,0
9447,318563.2384311626,2010-09-04 05:59:41,3931.971749146333,2,27,0.5501165986061096,3.9985909461975098,28.16950686142749,27.562249773090333,112.00365505301204,100.91377338477388,0.0,0.0867155864834785,0,0,0
9448,318593.25363764755,2010-09-04 06:00:11,3961.9869556313433,2,27,0.5499359965324402,4.000695705413818,28.1740934558254,27.562249773090333,112.02200066355698,100.91377338477388,3.24249267578125e-05,0.0867155864834785,0,0,0
9449,318623.26880852383,2010-09-04 06:00:41,3992.0021265076034,2,27,0.5501165986061096,4.002799987792969,28.17868002821151,27.562249773090333,112.0403557023014,100.91377338477388,3.23295607813634e-05,0.0867155864834785,0,0,0
9450,318653.28407189564,2010-09-04 06:01:11,4022.017389879391,2,27,0.550297200679779,4.005066394805908,28.18326663218973,27.562249773090333,112.05872043867208,100.91377338477388,6.47544875391759e-05,0.0867155864834785,0,0,0
9451,318683.29911623657,2010-09-04 06:01:41,4052.032434220287,2,27,0.5501165986061096,4.007171154022217,28.187853229050027,27.562249773090333,112.07709485348823,100.91377338477388,6.47544875391759e-05,0.0867155864834785,0,0,0
9452,318713.31428044115,2010-09-04 06:02:11,4082.0475984299337,2,27,0.5501165986061096,4.009275436401367,28.19243987326193,27.562249773090333,112.09547921411284,100.91377338477388,6.47544875391759e-05,0.0867155864834785,0,0,0
9453,318743.32946920703,2010-09-04 06:02:41,4112.062787185755,2,27,0.5501165986061096,4.011380195617676,28.19702643996152,27.562249773090333,112.11387306481734,100.91377338477388,0.0,0.0867155864834785,0,0,0
9454,318773.34462542675,2010-09-04 06:03:11,4142.0779434105,2,27,0.5501165986061096,4.013808250427246,28.20161308838088,27.562249773090333,112.13227717209644,100.91377338477388,6.47544875391759e-05,0.0867155864834785,0,0,0
9455,318803.3598106287,2010-09-04 06:03:41,4172.093128637528,2,27,0.5501165986061096,4.015913009643555,28.20619973097577,27.562249773090333,112.1506912290612,100.91377338477388,9.71794142969884e-05,0.0867155864834785,0,0,0
9456,318833.3754380779,2010-09-04 06:04:11,4202.108756186958,2,27,0.5499359965324402,4.018017292022705,28.21078642950173,27.562249773090333,112.16911563467823,100.91377338477388,3.23295607813634e-05,0.0867155864834785,0,0,0
9457,318863.3936690459,2010-09-04 06:04:41,4232.126987029597,2,27,0.5501165986061096,4.0202836990356445,28.215373567337103,27.562249773090333,112.18755195630224,100.91377338477388,6.47544875391759e-05,0.0867155864834785,0,0,0
9458,318893.40532627,2010-09-04 06:05:12,4262.138644258768,2,27,0.5501165986061096,4.022388458251953,28.2199596037026,27.562249773090333,112.20599418854502,100.91377338477388,6.47544875391759e-05,0.0867155864834785,0,0,0
9459,318923.42078122933,2010-09-04 06:05:42,4292.154099233089,2,27,0.550297200679779,4.0249786376953125,28.224546302832536,27.562249773090333,112.22444947845663,100.91377338477388,0.0001295089750783,0.0867155864834785,0,0,0
9460,318953.43579413183,2010-09-04 06:06:12,4322.169112115581,2,27,0.550297200679779,4.026921272277832,28.229132845622843,27.562249773090333,112.24291465312122,100.91377338477388,3.24249267578125e-05,0.0867155864834785,0,0,0
9461,318983.4509704015,2010-09-04 06:06:42,4352.184288395308,2,27,0.5501165986061096,4.029511451721191,28.23371946250361,27.562249773090333,112.26139076914322,100.91377338477388,6.47544875391759e-05,0.0867155864834785,0,0,0
9462,319013.4660140657,2010-09-04 06:07:12,4382.199332074555,2,27,0.5499359965324402,4.031615734100342,28.2383060133277,27.562249773090333,112.27987719405428,100.91377338477388,3.23295607813634e-05,0.0867155864834785,0,0,0
9463,319043.48116445594,2010-09-04 06:07:42,4412.214482449721,2,27,0.5501165986061096,4.034205913543701,28.24289257286723,27.562249773090333,112.29837449390962,100.91377338477388,6.47544875391759e-05,0.0867155864834785,0,0,0
9464,319073.49633317185,2010-09-04 06:08:12,4442.229651155572,2,27,0.550297200679779,4.036633968353272,28.24747920646047,27.562249773090333,112.31688302035536,100.91377338477388,6.47544875391759e-05,0.0867155864834785,0,0,0
9465,319103.5115179427,2010-09-04 06:08:42,4472.244835926463,2,27,0.550297200679779,4.038900375366211,28.252065831976317,27.562249773090333,112.3354025790484,100.91377338477388,6.47544875391759e-05,0.0867155864834785,0,0,0
9466,319133.52667433285,2010-09-04 06:09:12,4502.259992321633,2,27,0.5501165986061096,4.04132890701294,28.25665248204135,27.562249773090333,112.35393333350731,100.91377338477388,6.47544875391759e-05,0.0867155864834785,0,0,0
9467,319163.5418451991,2010-09-04 06:09:42,4532.275163187868,2,27,0.550297200679779,4.04375696182251,28.26123908585192,27.562249773090333,112.37247517332558,100.91377338477388,3.23295607813634e-05,0.0867155864834785,0,0,0
9468,319193.5572673416,2010-09-04 06:10:12,4562.290585330362,2,27,0.550297200679779,4.046347141265869,28.2658258098848,27.562249773090333,112.39102885355184,100.91377338477388,9.70840483205393e-05,0.0867155864834785,0,0,0
9469,319223.5723735166,2010-09-04 06:10:42,4592.30569153043,2,27,0.5499359965324402,4.048775672912598,28.27041242588938,27.562249773090333,112.40959356821884,100.91377338477388,9.71794142969884e-05,0.0867155864834785,0,0,0
9470,319253.5873717275,2010-09-04 06:11:12,4622.3206897112805,2,27,0.5499359965324402,4.051365852355957,28.27499904109783,27.562249773090333,112.4281698142984,100.91377338477388,6.47544875391759e-05,0.0867155864834785,0,0,0
9471,319283.60265819187,2010-09-04 06:11:42,4652.335976180634,2,27,0.5501165986061096,4.053956031799316,28.27958573152368,27.562249773090333,112.44675805883328,100.91377338477388,9.71794142969884e-05,0.0867155864834785,0,0,0
9472,319313.617743154,2010-09-04 06:12:12,4682.351061142772,2,27,0.550297200679779,4.056546211242676,28.284172430934465,27.562249773090333,112.46535819435763,100.91377338477388,6.47544875391759e-05,0.0867155864834785,0,0,0
9473,319343.63289464195,2010-09-04 06:12:42,4712.366212625699,2,27,0.5501165986061096,4.059136390686035,28.28875904095973,27.562249773090333,112.48396989817748,100.91377338477388,6.47544875391759e-05,0.0867155864834785,0,0,0
9474,319373.64813790366,2010-09-04 06:13:12,4742.3814558873655,2,27,0.5499359965324402,4.0617265701293945,28.293345735672595,27.562249773090333,112.50259378887723,100.91377338477388,9.71794142969884e-05,0.0867155864834785,0,0,0
9475,319403.6633395516,2010-09-04 06:13:42,4772.396657535319,2,27,0.5501165986061096,4.064478397369385,28.29793235086435,27.562249773090333,112.52122941678576,100.91377338477388,9.70840483205393e-05,0.0867155864834785,0,0,0
9476,319433.67849497934,2010-09-04 06:14:12,4802.41181298814,2,27,0.550297200679779,4.067068576812744,28.302518934946352,27.562249773090333,112.5398772250544,100.91377338477388,3.23295607813634e-05,0.0867155864834785,0,0,0
9477,319463.6938769066,2010-09-04 06:14:42,4832.427194900368,2,27,0.5501165986061096,4.069820880889893,28.30710555448623,27.562249773090333,112.55853761694324,100.91377338477388,6.47544875391759e-05,0.0867155864834785,0,0,0
9478,319493.7088117997,2010-09-04 06:15:12,4862.44212978346,2,27,0.5501165986061096,4.072572708129883,28.31169215512347,27.562249773090333,112.57721044794704,100.91377338477388,6.47544875391759e-05,0.0867155864834785,0,0,0
9479,319523.72392022534,2010-09-04 06:15:42,4892.457238214088,2,27,0.550297200679779,4.075486660003662,28.316278780363486,27.562249773090333,112.59589603374884,100.91377338477388,9.70840483205393e-05,0.0867155864834785,0,0,0
9480,319553.7391100337,2010-09-04 06:16:12,4922.4724280175205,2,27,0.5501165986061096,4.0780768394470215,28.320865403151327,27.562249773090333,112.6145943543516,100.91377338477388,6.47544875391759e-05,0.0867155864834785,0,0,0
9481,319583.75427935616,2010-09-04 06:16:42,4952.4875973399085,2,27,0.5501165986061096,4.08082914352417,28.32545207703059,27.562249773090333,112.63330578557844,100.91377338477388,3.24249267578125e-05,0.0867155864834785,0,0,0
9482,319613.7695262118,2010-09-04 06:17:12,4982.502844250671,2,27,0.5501165986061096,4.083743095397949,28.33003871666376,27.562249773090333,112.65202996748948,100.91377338477388,0.0001295089750783,0.0867155864834785,0,0,0
9483,319643.7846139157,2010-09-04 06:17:42,5012.517931924565,2,27,0.5501165986061096,4.0866570472717285,28.3346252751409,27.562249773090333,112.67076698497378,100.91377338477388,6.47544875391759e-05,0.0867155864834785,0,0,0
9484,319673.7998925908,2010-09-04 06:18:12,5042.533210584457,2,27,0.5501165986061096,4.089570999145508,28.33921185059676,27.562249773090333,112.68951730904917,100.91377338477388,9.71794142969884e-05,0.0867155864834785,0,0,0
9485,319703.8150732363,2010-09-04 06:18:42,5072.548391230065,2,27,0.5501165986061096,4.092322826385498,28.343798476121243,27.562249773090333,112.70828120952332,100.91377338477388,3.23295607813634e-05,0.0867155864834785,0,0,0
9486,319733.8301058931,2010-09-04 06:19:12,5102.563423881828,2,27,0.5501165986061096,4.095398902893066,28.34838505913428,27.562249773090333,112.7270584027172,100.91377338477388,6.47544875391759e-05,0.0867155864834785,0,0,0
9487,319763.84527540096,2010-09-04 06:19:42,5132.578593389679,2,27,0.5501165986061096,4.098474502563477,28.35297169654837,27.562249773090333,112.74584939395083,100.91377338477388,9.70840483205393e-05,0.0867155864834785,0,0,0
9488,319793.86045342,2010-09-04 06:20:12,5162.593771383679,2,27,0.5501165986061096,4.101388454437256,28.357558334461164,27.562249773090333,112.76465415110336,100.91377338477388,9.70840483205393e-05,0.0867155864834785,0,0,0
9489,319823.87565482734,2010-09-04 06:20:42,5192.608972811084,2,27,0.5501165986061096,4.104464530944824,28.36214492657569,27.562249773090333,112.78347243409948,100.91377338477388,6.47544875391759e-05,0.0867155864834785,0,0,0
9490,319853.89081646554,2010-09-04 06:21:12,5222.624134474383,2,27,0.5501165986061096,4.107378482818604,28.366731517660405,27.562249773090333,112.8023047802278,100.91377338477388,6.47544875391759e-05,0.0867155864834785,0,0,0
9491,319883.9059579185,2010-09-04 06:21:42,5252.639275902249,2,27,0.5501165986061096,4.110616207122803,28.3713180783602,27.562249773090333,112.82115111636251,100.91377338477388,9.71794142969884e-05,0.0867155864834785,0,0,0
9492,319913.92117297486,2010-09-04 06:22:12,5282.654490963632,2,27,0.5501165986061096,4.113691806793213,28.37590468354379,27.562249773090333,112.84001184867112,100.91377338477388,0.0001295089750783,0.0867155864834785,0,0,0
9493,319943.9363237059,2010-09-04 06:22:42,5312.669641689673,2,27,0.550297200679779,4.116929531097412,28.38049124419344,27.562249773090333,112.85888671617732,100.91377338477388,6.47544875391759e-05,0.0867155864834785,0,0,0
9494,319973.9514511088,2010-09-04 06:23:12,5342.684769122659,2,27,0.5501165986061096,4.120005130767822,28.38507786515236,27.562249773090333,112.87777634289024,100.91377338477388,9.70840483205393e-05,0.0867155864834785,0,0,0
9495,320003.9666341855,2010-09-04 06:23:42,5372.699952189303,2,27,0.5497553944587708,4.122919082641602,28.38966450867681,27.562249773090333,112.8966806642139,100.91377338477388,0.0,0.0867155864834785,0,0,0
9496,320033.9818833769,2010-09-04 06:24:12,5402.715201360699,2,27,0.5499359965324402,4.126480579376221,28.39425116912977,27.562249773090333,112.91559981863456,100.91377338477388,0.0001295089750783,0.0867155864834785,0,0,0
9497,320063.99705089984,2010-09-04 06:24:42,5432.730368893627,2,27,0.550297200679779,4.129880428314209,28.398837798506307,27.562249773090333,112.93453372673224,100.91377338477388,0.0001295089750783,0.0867155864834785,0,0,0
9498,320094.0122517809,2010-09-04 06:25:12,5462.745569764644,2,27,0.5501165986061096,4.133118152618408,28.403424490715203,27.562249773090333,112.95348292792676,100.91377338477388,9.71794142969884e-05,0.0867155864834785,0,0,0
9499,320124.012901872,2010-09-04 06:25:42,5492.74621989574,2,27,0.5499359965324402,4.136193752288818,28.408008894122258,27.562249773090333,112.9724377024016,100.91377338477388,9.70840483205393e-05,0.0867155864834785,0,0,0
9500,320154.02691133355,2010-09-04 06:26:12,5522.760229327324,2,27,0.550297200679779,4.1397552490234375,28.41259535843936,27.562249773090333,112.99141628894397,100.91377338477388,0.0001295089750783,0.0867155864834785,0,0,0
9501,320184.0421622844,2010-09-04 06:26:42,5552.775480278155,2,27,0.5501165986061096,4.142992973327637,28.41718199662437,27.562249773090333,113.01041102586488,100.91377338477388,9.70840483205393e-05,0.0867155864834785,0,0,0
9502,320214.05750688363,2010-09-04 06:27:12,5582.790824892424,2,27,0.5501165986061096,4.146554470062256,28.421767835688147,27.562249773090333,113.02941796759455,100.91377338477388,9.70840483205393e-05,0.0867155864834785,0,0,0
9503,320244.0723905992,2010-09-04 06:27:42,5612.80570858293,2,27,0.550297200679779,4.149954319000244,28.42635354734633,27.562249773090333,113.04844024385734,100.91377338477388,9.71794142969884e-05,0.0867155864834785,0,0,0
9504,320274.08761458786,2010-09-04 06:28:12,5642.820932581588,2,27,0.5501165986061096,4.153353691101074,28.430940154169253,27.562249773090333,113.06748219686853,100.91377338477388,9.70840483205393e-05,0.0867155864834785,0,0,0
9505,320304.10287859617,2010-09-04 06:28:42,5672.836196579938,2,27,0.5501165986061096,4.156753540039063,28.43552674831622,27.562249773090333,113.08653998199298,100.91377338477388,0.0001295089750783,0.0867155864834785,0,0,0
9506,320334.11794033047,2010-09-04 06:29:12,5702.85125834927,2,27,0.5501165986061096,4.1604766845703125,28.440113276174586,27.562249773090333,113.10561358613032,100.91377338477388,9.70840483205393e-05,0.0867155864834785,0,0,0
9507,320364.13312003366,2010-09-04 06:29:42,5732.866438047518,2,27,0.550297200679779,4.164038181304932,28.44469988132016,27.562249773090333,113.12470377223153,100.91377338477388,9.70840483205393e-05,0.0867155864834785,0,0,0
9508,320394.1482663588,2010-09-04 06:30:12,5762.881584342515,2,27,0.5501165986061096,4.167275905609131,28.449286436069293,27.562249773090333,113.14380993730504,100.91377338477388,3.23295607813634e-05,0.0867155864834785,0,0,0
9509,320424.1636052688,2010-09-04 06:30:42,5792.896923262593,2,27,0.5501165986061096,4.170999526977539,28.453873008527413,27.562249773090333,113.16293267812348,100.91377338477388,6.47544875391759e-05,0.0867155864834785,0,0,0
9510,320454.1786224721,2010-09-04 06:31:12,5822.911940460841,2,27,0.5499359965324402,4.174561023712158,28.45845957387957,27.562249773090333,113.18207201429416,100.91377338477388,6.47544875391759e-05,0.0867155864834785,0,0,0
9511,320484.1937773384,2010-09-04 06:31:42,5852.927095322188,2,27,0.5501165986061096,4.178446292877197,28.463046186800337,27.562249773090333,113.2012282298768,100.91377338477388,0.0001295089750783,0.0867155864834785,0,0,0
9512,320514.2089545004,2010-09-04 06:32:12,5882.942272484114,2,27,0.5501165986061096,4.182169437408447,28.467632776120755,27.562249773090333,113.22040125252722,100.91377338477388,0.0001295089750783,0.0867155864834785,0,0,0
9513,320544.2241231009,2010-09-04 06:32:42,5912.957441094728,2,27,0.5501165986061096,4.185893058776856,28.472219421982707,27.562249773090333,113.23959150854093,100.91377338477388,6.47544875391759e-05,0.0867155864834785,0,0,0
9514,320574.23930706986,2010-09-04 06:33:12,5942.97262506362,2,27,0.550297200679779,4.1896162033081055,28.47680605530547,27.562249773090333,113.25879890838408,100.91377338477388,0.0001295089750783,0.0867155864834785,0,0,0
9515,320604.25447772053,2010-09-04 06:33:42,5972.987795714319,2,27,0.550297200679779,4.1935014724731445,28.48139267948786,27.562249773090333,113.27802352965428,100.91377338477388,0.0001295089750783,0.0867155864834785,0,0,0
9516,320634.26965045143,2010-09-04 06:34:12,6003.002968440189,2,27,0.5501165986061096,4.197062969207764,28.48597933746636,27.562249773090333,113.29726570852264,100.91377338477388,9.71794142969884e-05,0.0867155864834785,0,0,0
9517,320655.9413105867,2010-09-04 06:34:34,6024.674628580462,2,27,0.550297200679779,4.200138568878174,28.48929092275208,27.562249773090333,113.31116954987596,100.91377338477388,0.0001295089750783,0.0867155864834785,0,0,0
9518,320685.9417498039,2010-09-04 06:35:04,30.0149466173386,3,27,0.0,4.1190338134765625,28.48929092275208,27.562249773090333,113.31116954987596,100.91377338477388,-0.0003885269106831,0.0867155864834785,0,0,0
9519,320715.95693830407,2010-09-04 06:35:34,60.03013511752368,3,27,0.0,4.108835220336914,28.48929092275208,27.562249773090333,113.31116954987596,100.91377338477388,-0.0002266883820993,0.0867155864834785,0,0,0
9520,320745.9721459019,2010-09-04 06:36:04,90.0453427554058,3,27,0.0,4.102845668792725,28.48929092275208,27.562249773090333,113.31116954987596,100.91377338477388,-0.0001295089750783,0.0867155864834785,0,0,0
9521,320775.9403899269,2010-09-04 06:36:34,120.01358673038958,3,27,0.0,4.099122047424316,28.48929092275208,27.562249773090333,113.31116954987596,100.91377338477388,-6.47544875391759e-05,0.0867155864834785,0,0,0
9522,320775.9434436117,2010-09-04 06:36:34,0.015620997331812,4,27,1.0043489933013916,4.199653148651123,28.489295280788824,27.562249773090333,113.31118785211872,100.91377338477388,0.0,0.0867155864834785,0,0,0
9523,320776.8185588481,2010-09-04 06:36:35,0.890736233767235,4,27,0.9537783265113832,4.199653148651123,28.48953162246934,27.562249773090333,113.31218041685356,100.91377338477388,0.0,0.0867155864834785,0,0,0
9524,320778.89649456827,2010-09-04 06:36:37,2.968671948934267,4,27,0.9035689830780028,4.199653148651123,28.4900665740098,27.562249773090333,113.31442705567032,100.91377338477388,0.0,0.0867155864834785,0,0,0
9525,320782.0058285052,2010-09-04 06:36:40,6.078005880810636,4,27,0.8535401821136475,4.199653148651123,28.49082433657954,27.562249773090333,113.3176094453106,100.91377338477388,3.24249267578125e-05,0.0867155864834785,0,0,0
9526,320786.19326657936,2010-09-04 06:36:45,10.26544396495882,4,27,0.8033308386802673,4.199814796447754,28.49178678552117,27.562249773090333,113.32165147525062,100.91377338477388,0.0,0.0867155864834785,0,0,0
9527,320791.5682137715,2010-09-04 06:36:50,15.640391147166785,4,27,0.7531214356422424,4.199814796447754,28.492947353374667,27.562249773090333,113.32652553514438,100.91377338477388,3.23295607813634e-05,0.0867155864834785,0,0,0
9528,320798.4274662693,2010-09-04 06:36:57,22.499643654955428,4,27,0.7030926942825317,4.199653148651123,28.49433292030691,27.562249773090333,113.3323445704852,100.91377338477388,-3.23295607813634e-05,0.0867155864834785,0,0,0
9529,320807.4741991663,2010-09-04 06:37:06,31.54637655194485,4,27,0.6528832912445068,4.199653148651123,28.49603391603013,27.562249773090333,113.33948830680744,100.91377338477388,-3.23295607813634e-05,0.0867155864834785,0,0,0
9530,320819.80217510054,2010-09-04 06:37:18,43.87435248118387,4,27,0.6026738882064819,4.199491024017334,28.498179353428338,27.562249773090333,113.34849860346954,100.91377338477388,-3.24249267578125e-05,0.0867155864834785,0,0,0
9531,320837.7862343648,2010-09-04 06:37:36,61.858411740414574,4,27,0.5526451468467712,4.199653148651123,28.50105730450452,27.562249773090333,113.36058528665724,100.91377338477388,0.0,0.0867155864834785,0,0,0
9532,320866.6764299465,2010-09-04 06:38:05,90.74860732710756,4,27,0.5026163458824158,4.199653148651123,28.50527598514233,27.562249773090333,113.37830269136892,100.91377338477388,0.0,0.0867155864834785,0,0,0
9533,320917.332152323,2010-09-04 06:38:56,141.40432968860853,4,27,0.4525876045227051,4.199653148651123,28.511966343626025,27.562249773090333,113.40640055030228,100.91377338477388,-3.23295607813634e-05,0.0867155864834785,0,0,0
9534,320998.76829801034,2010-09-04 06:40:17,222.84047538596195,4,27,0.402558833360672,4.199653148651123,28.5216075417118,27.562249773090333,113.44689120841912,100.91377338477388,-3.23295607813634e-05,0.0867155864834785,0,0,0
9535,321106.9229061271,2010-09-04 06:42:05,330.9950835277924,4,27,0.3525300621986389,4.199653148651123,28.532933267006737,27.562249773090333,113.49445647793164,100.91377338477388,-3.23295607813634e-05,0.0867155864834785,0,0,0
9536,321239.1551262064,2010-09-04 06:44:18,463.2273035920294,4,27,0.3025012910366058,4.199653148651123,28.544947514906205,27.562249773090333,113.54491328255962,100.91377338477388,-3.23295607813634e-05,0.0867155864834785,0,0,0
9537,321397.3089817672,2010-09-04 06:46:56,621.3811591477992,4,27,0.2524725198745727,4.199653148651123,28.55711329593104,27.562249773090333,113.59600655928304,100.91377338477388,0.0,0.0867155864834785,0,0,0
9538,321591.6966663036,2010-09-04 06:50:10,815.7688436792467,4,27,0.2024437636137008,4.199814796447754,28.56936466990979,27.562249773090333,113.64745930387204,100.91377338477388,0.0,0.0867155864834785,0,0,0
9539,321849.1458944854,2010-09-04 06:54:28,1073.2180718660354,4,27,0.1524149924516677,4.199653148651123,28.5819934343357,27.562249773090333,113.70049695164714,100.91377338477388,0.0,0.0867155864834785,0,0,0
9540,322222.45274878497,2010-09-04 07:00:41,1446.524926160585,4,27,0.1023862138390541,4.199491024017334,28.59504379608213,27.562249773090333,113.75530524006304,100.91377338477388,-3.24249267578125e-05,0.0867155864834785,0,0,0
9541,322896.78632389643,2010-09-04 07:11:55,2120.858501292066,4,27,0.0523574464023113,4.199814796447754,28.60900632623263,27.562249773090333,113.8139444897229,100.91377338477388,0.0,0.0867155864834785,0,0,0
9542,322951.6448869601,2010-09-04 07:12:50,2175.717064335729,4,27,0.0498289167881011,4.199491024017334,28.60979049635329,27.562249773090333,113.81723780545178,100.91377338477388,-6.47544875391759e-05,0.0867155864834785,0,0,0
9543,322981.6644563246,2010-09-04 07:13:20,30.014842126916317,5,27,0.0,4.192206382751465,28.60979049635329,27.562249773090333,113.81723780545178,100.91377338477388,0.0,0.0867155864834785,0,0,0
9544,323011.6641362426,2010-09-04 07:13:50,60.01452201988032,5,27,0.0,4.190911293029785,28.60979049635329,27.562249773090333,113.81723780545178,100.91377338477388,-6.47544875391759e-05,0.0867155864834785,0,0,0
9545,323011.8414707727,2010-09-04 07:13:51,0.187397833060859,6,27,-1.9243103452026844e-05,4.191073417663574,28.60979049635329,27.56224977409203,113.81723780545178,100.91377338897207,0.0,0.0914954170584678,0,0,0
9546,323016.66950556595,2010-09-04 07:13:55,5.015432631327307,6,27,0.0007031940040178,4.191073417663574,28.60979142230288,27.56224977425897,113.81724168614838,100.91377338967172,0.0,0.0914954170584678,0,0,0
9547,323046.6749053318,2010-09-04 07:14:25,30.015261416916005,7,27,-1.099568486213684,4.021093368530273,28.60979142230288,27.57141743119078,113.81724168614838,100.95083153530383,-0.0008741378551349,0.0914954170584678,0,0,0
9548,323076.6929796593,2010-09-04 07:14:55,60.03333575950831,7,27,-1.099568486213684,3.994381904602051,28.60979142230288,27.580585907234376,113.81724168614838,100.98756724014028,-0.0006151676061563,0.0914954170584678,0,0,0
9549,323106.70512504014,2010-09-04 07:15:26,90.04548113027853,7,27,-1.0993878841400146,3.976412773132324,28.60979142230288,27.589752516661857,113.81724168614838,101.0240952385152,-0.0002913951757363,0.0914954170584678,0,0,0
9550,323136.7205747062,2010-09-04 07:15:56,120.06093079636942,7,27,-1.0993878841400146,3.9623286724090576,28.60979142230288,27.59892006626123,113.81724168614838,101.06048148178678,-0.0003237724304199,0.0914954170584678,0,0,0
9551,323166.73567840003,2010-09-04 07:16:26,150.07603460547827,7,27,-1.099568486213684,3.9505109786987305,28.60979142230288,27.60808750427729,113.81724168614838,101.09675073752886,-0.0003561496851034,0.0914954170584678,0,0,0
9552,323196.7506534282,2010-09-04 07:16:56,180.091009518338,7,27,-1.099568486213684,3.940312147140503,28.60979142230288,27.6172549487172,113.81724168614838,101.13291965450404,-0.0002913951757363,0.0914954170584678,0,0,0
9553,323226.76582372293,2010-09-04 07:17:26,210.10617982818715,7,27,-1.099568486213684,3.930922746658325,28.60979142230288,27.626422428305258,113.81724168614838,101.16899801375344,-0.0002266406954731,0.0914954170584678,0,0,0
9554,323256.78096546663,2010-09-04 07:17:56,240.1213215517906,7,27,-1.099568486213684,3.921695232391357,28.60979142230288,27.63558990139672,113.81724168614838,101.20499169400512,-0.0002913951757363,0.0914954170584678,0,0,0
9555,323286.79638717306,2010-09-04 07:18:26,270.13674326320984,7,27,-1.099568486213684,3.9131155014038086,28.60979142230288,27.644757459962005,113.81724168614838,101.24090530630204,-0.0002265930233988,0.0914954170584678,0,0,0
9556,323316.81148988946,2010-09-04 07:18:56,300.1518459795953,7,27,-1.0993878841400146,3.905021190643311,28.60979142230288,27.653924897802284,113.81724168614838,101.27674106860395,-0.0001942634553415,0.0914954170584678,0,0,0
9557,323346.8264829575,2010-09-04 07:19:26,330.1668390677535,7,27,-1.099568486213684,3.8967649936676025,28.60979142230288,27.663092380513937,113.81724168614838,101.31250203648553,-0.0001942634553415,0.0914954170584678,0,0,0
9558,323376.8418531155,2010-09-04 07:19:56,360.1822092256856,7,27,-1.099568486213684,3.8891563415527344,28.60979142230288,27.67225992345753,113.81724168614838,101.3481905433558,-0.0001618862152099,0.0914954170584678,0,0,0
9559,323406.85694477934,2010-09-04 07:20:26,390.1973008544372,7,27,-1.099568486213684,3.8812239170074463,28.60979142230288,27.681427437999236,113.81724168614838,101.38380753023424,-0.0001942634553415,0.0914954170584678,0,0,0
9560,323436.8720840869,2010-09-04 07:20:56,420.212440262269,7,27,-1.099568486213684,3.873615264892578,28.60979142230288,27.69059475211285,113.81724168614838,101.41935352758266,-0.0001942634553415,0.0914954170584678,0,0,0
9561,323466.88726774504,2010-09-04 07:21:26,450.2276238502113,7,27,-1.0997490882873535,3.86616849899292,28.60979142230288,27.69976202413406,113.81724168614838,101.4548304866212,-0.0001618862152099,0.0914954170584678,0,0,0
9562,323496.9023714489,2010-09-04 07:21:56,480.2427275640828,7,27,-1.0993878841400146,3.858883619308472,28.60979142230288,27.708929252896475,113.81724168614838,101.49023926401364,-0.0001942634553415,0.0914954170584678,0,0,0
9563,323526.91749728785,2010-09-04 07:22:26,510.2578534983342,7,27,-1.099568486213684,3.851598739624024,28.60979142230288,27.71809648348385,113.81724168614838,101.52558111868568,-0.0001942634553415,0.0914954170584678,0,0,0
9564,323556.9326828557,2010-09-04 07:22:56,540.2730389659613,7,27,-1.0997490882873535,3.844313859939575,28.60979142230288,27.727263956673163,113.81724168614838,101.56085794071215,-0.0002266406954731,0.0914954170584678,0,0,0
9565,323586.94836431456,2010-09-04 07:23:26,570.2887204197384,7,27,-1.099568486213684,3.837352752685547,28.60979142230288,27.73643165791934,113.81724168614838,101.59607083770032,-0.0001942634553415,0.0914954170584678,0,0,0
9566,323616.96310394094,2010-09-04 07:23:56,600.3034601464419,7,27,-1.099568486213684,3.8303918838500977,28.60979142230288,27.74559907502785,113.81724168614838,101.63121877117328,-0.0001942634553415,0.0914954170584678,0,0,0
9567,323646.97831537336,2010-09-04 07:24:26,630.3186714584812,7,27,-1.099568486213684,3.823754549026489,28.60979142230288,27.75476670990134,113.81724168614838,101.66630459990658,-0.0001942634553415,0.0914954170584678,0,0,0
9568,323676.99335396994,2010-09-04 07:24:56,660.3337100851353,7,27,-1.0993878841400146,3.817117214202881,28.60979142230288,27.763934237198256,113.81724168614838,101.70132841038316,-0.0001618862152099,0.0914954170584678,0,0,0
9569,323707.00850327243,2010-09-04 07:25:26,690.348859382615,7,27,-1.0993878841400146,3.8106417655944815,28.60979142230288,27.773101782866377,113.81724168614838,101.736291521229,-0.0001295089750783,0.0914954170584678,0,0,0
9570,323737.0236884142,2010-09-04 07:25:56,720.3640444993678,7,27,-1.0993878841400146,3.804004430770874,28.60979142230288,27.782269311264702,113.81724168614838,101.77119415823248,-0.0001618862152099,0.0914954170584678,0,0,0
9571,323767.0388629095,2010-09-04 07:26:26,750.3792190247232,7,27,-1.0997490882873535,3.7976908683776855,28.60979142230288,27.79143680766594,113.81724168614838,101.80603819327764,-0.0001295089750783,0.0914954170584678,0,0,0
9572,323797.05403638224,2010-09-04 07:26:56,780.3943924974552,7,27,-1.0997490882873535,3.791215419769287,28.60979142230288,27.800604363263645,113.81724168614838,101.84082489760402,-0.0002266406954731,0.0914954170584678,0,0,0
9573,323827.0691799053,2010-09-04 07:27:26,810.4095359954811,7,27,-1.099568486213684,3.785225629806519,28.60979142230288,27.80977194622693,113.81724168614838,101.87555516678854,-0.0001942634553415,0.0914954170584678,0,0,0
9574,323857.0843736536,2010-09-04 07:27:56,840.424729763796,7,27,-1.099568486213684,3.77923583984375,28.60979142230288,27.81893959274878,113.81724168614838,101.91023004509172,-0.0001942634553415,0.0914954170584678,0,0,0
9575,323887.0995268157,2010-09-04 07:28:26,870.4398829259076,7,27,-1.099568486213684,3.773407936096192,28.60979142230288,27.828107153474548,113.81724168614838,101.94485020016208,-0.0001618862152099,0.0914954170584678,0,0,0
9576,323917.11472306016,2010-09-04 07:28:56,900.4550791503439,7,27,-1.099568486213684,3.7677419185638423,28.60979142230288,27.83727471352917,113.81724168614838,101.9794169901222,-0.0001618862152099,0.0914954170584678,0,0,0
9577,323947.1299950284,2010-09-04 07:29:26,930.4703511335946,7,27,-1.099568486213684,3.762075901031494,28.60979142230288,27.846442409543087,113.81724168614838,102.01393188138636,-0.0001618862152099,0.0914954170584678,0,0,0
9578,323977.1450307528,2010-09-04 07:29:56,960.4853868680405,7,27,-1.0997490882873535,3.756247997283936,28.60979142230288,27.855609981670376,113.81724168614838,102.04839504516656,-0.0001942634553415,0.0914954170584678,0,0,0
9579,324007.16021185456,2010-09-04 07:30:26,990.5005679447238,7,27,-1.099568486213684,3.751067876815796,28.60979142230288,27.86477758307028,113.81724168614838,102.08280782656983,-0.0001618862152099,0.0914954170584678,0,0,0
9580,324037.17540365295,2010-09-04 07:30:56,1020.5157597681916,7,27,-1.0997490882873535,3.745563745498657,28.60979142230288,27.873945188483813,113.81724168614838,102.11717098889312,-0.0001618862152099,0.0914954170584678,0,0,0
9581,324067.19056097546,2010-09-04 07:31:26,1050.530917090672,7,27,-1.099568486213684,3.7403833866119385,28.60979142230288,27.883112827501257,113.81724168614838,102.15148567310872,-0.0001942634553415,0.0914954170584678,0,0,0
9582,324097.20588868763,2010-09-04 07:31:56,1080.5462447927914,7,27,-1.099568486213684,3.73520302772522,28.60979142230288,27.89228050564195,113.81724168614838,102.18575282320973,-0.0001295089750783,0.0914954170584678,0,0,0
9583,324127.2209303719,2010-09-04 07:32:26,1110.5612865672908,7,27,-1.099568486213684,3.730184555053711,28.60979142230288,27.901448113275737,113.81724168614838,102.2199729139086,-0.0001618862152099,0.0914954170584678,0,0,0
9584,324157.23606577475,2010-09-04 07:32:56,1140.5764218598663,7,27,-1.099568486213684,3.725327968597412,28.60979142230288,27.910615681920916,113.81724168614838,102.25414746093756,-0.0001295089750783,0.0914954170584678,0,0,0
9585,324187.2513530712,2010-09-04 07:33:26,1170.5917091562817,7,27,-1.099568486213684,3.7206332683563232,28.60979142230288,27.91978331418153,113.81724168614838,102.28827737949776,-0.0001295089750783,0.0914954170584678,0,0,0
9586,324217.26639878546,2010-09-04 07:33:56,1200.606754865588,7,27,-1.099568486213684,3.715776681900024,28.60979142230288,27.928950875105784,113.81724168614838,102.32236260370988,-9.713172767078504e-05,0.0914954170584678,0,0,0
9587,324247.2815807543,2010-09-04 07:34:26,1230.6219368395075,7,27,-1.0997490882873535,3.710758209228516,28.60979142230288,27.93811855672842,113.81724168614838,102.35640457476428,-0.0001618862152099,0.0914954170584678,0,0,0
9588,324277.29678567545,2010-09-04 07:34:56,1260.6371417906937,7,27,-1.099568486213684,3.7062253952026367,28.60979142230288,27.947286191439986,113.81724168614838,102.39040354961584,-9.713172767078504e-05,0.0914954170584678,0,0,0
9589,324307.3119669677,2010-09-04 07:35:26,1290.6523230528394,7,27,-1.099568486213684,3.701692581176758,28.60979142230288,27.956453834709567,113.81724168614838,102.4243605120508,-0.0001295089750783,0.0914954170584678,0,0,0
9590,324337.3270842153,2010-09-04 07:35:56,1320.667440330516,7,27,-1.0997490882873535,3.697159767150879,28.60979142230288,27.9656214651662,113.81724168614838,102.4582759433164,-0.0001618862152099,0.0914954170584678,0,0,0
9591,324367.34237987257,2010-09-04 07:36:26,1350.682735982757,7,27,-1.0997490882873535,3.69278883934021,28.60979142230288,27.974789158831165,113.81724168614838,102.49215089052376,-0.0001295089750783,0.0914954170584678,0,0,0
9592,324397.35764209647,2010-09-04 07:36:56,1380.6979982116968,7,27,-1.099568486213684,3.688579797744751,28.60979142230288,27.98395681581066,113.81724168614838,102.52598559390243,-9.713172767078504e-05,0.0914954170584678,0,0,0
9593,324427.372600413,2010-09-04 07:37:26,1410.7129564981185,7,27,-1.0997490882873535,3.684208869934082,28.60979142230288,27.99312437962949,113.81724168614838,102.55978047482984,-0.0001295089750783,0.0914954170584678,0,0,0
9594,324457.3726198873,2010-09-04 07:37:56,1440.7129760676607,7,27,-1.0993878841400146,3.680161714553833,28.60979142230288,28.002287441198003,113.81724168614838,102.5935201545265,-9.713172767078504e-05,0.0914954170584678,0,0,0
9595,324487.38731160434,2010-09-04 07:38:26,1470.7276677195473,7,27,-1.099568486213684,3.675790786743164,28.60979142230288,28.01145496021477,113.81724168614838,102.6272381335924,-0.0001295089750783,0.0914954170584678,0,0,0
9596,324517.4024849016,2010-09-04 07:38:56,1500.7428409917795,7,27,-1.0992072820663452,3.671905755996704,28.60979142230288,28.020622679508463,113.81724168614838,102.660919171215,-9.713172767078504e-05,0.0914954170584678,0,0,0
9597,324547.4176707502,2010-09-04 07:39:26,1530.758026840356,7,27,-1.099568486213684,3.667696714401245,28.60979142230288,28.029790381355927,113.81724168614838,102.69456339907832,-0.0001295089750783,0.0914954170584678,0,0,0
9598,324577.4329736856,2010-09-04 07:39:56,1560.7733297707364,7,27,-1.099568486213684,3.663811445236206,28.60979142230288,28.03895804848194,113.81724168614838,102.72817100626112,-0.0001295089750783,0.0914954170584678,0,0,0
9599,324607.4479968337,2010-09-04 07:40:26,1590.7883529438757,7,27,-1.099568486213684,3.659926176071167,28.60979142230288,28.04812570510683,113.81724168614838,102.76174267322602,-9.713172767078504e-05,0.0914954170584678,0,0,0
9600,324637.46319375985,2010-09-04 07:40:56,1620.8035498700608,7,27,-1.099568486213684,3.656364679336548,28.60979142230288,28.057293401511785,113.81724168614838,102.79527913553544,-9.713172767078504e-05,0.0914954170584678,0,0,0
9601,324667.47835420514,2010-09-04 07:41:26,1650.8187102952745,7,27,-1.0997490882873535,3.652479410171509,28.60979142230288,28.06646111447195,113.81724168614838,102.82878125159635,-9.713172767078504e-05,0.0914954170584678,0,0,0
9602,324697.49365112546,2010-09-04 07:41:56,1680.834007235726,7,27,-1.099568486213684,3.64875602722168,28.60979142230288,28.07562875521449,113.81724168614838,102.86224914934178,-9.713172767078504e-05,0.0914954170584678,0,0,0
9603,324727.50867947657,2010-09-04 07:42:26,1710.8490355617075,7,27,-1.0993878841400146,3.6453564167022714,28.60979142230288,28.084796346339797,113.81724168614838,102.89568327011096,-9.713172767078504e-05,0.0914954170584678,0,0,0
9604,324757.5238715106,2010-09-04 07:42:56,1740.8642275957,7,27,-1.099568486213684,3.6417949199676514,28.60979142230288,28.09396390189231,113.81724168614838,102.9290847688494,-6.47544875391759e-05,0.0914954170584678,0,0,0
9605,324787.53904994065,2010-09-04 07:43:26,1770.8794060558623,7,27,-1.099568486213684,3.638233423233032,28.60979142230288,28.10313150843971,113.81724168614838,102.96245455348814,-9.713172767078504e-05,0.0914954170584678,0,0,0
9606,324817.55420980946,2010-09-04 07:43:56,1800.8945659196768,7,27,-1.099568486213684,3.634995698928833,28.60979142230288,28.112299087876583,113.81724168614838,102.99579314879462,-6.47544875391759e-05,0.0914954170584678,0,0,0
9607,324847.56939987856,2010-09-04 07:44:26,1830.909755988772,7,27,-1.099568486213684,3.631596088409424,28.60979142230288,28.12146673771401,113.81724168614838,103.02910156643232,-6.47544875391759e-05,0.0914954170584678,0,0,0
9608,324877.58455933136,2010-09-04 07:44:56,1860.9249154315369,7,27,-1.0993878841400146,3.6285202503204346,28.60979142230288,28.130634385350422,113.81724168614838,103.06238031862,-9.713172767078504e-05,0.0914954170584678,0,0,0
9609,324907.5997289194,2010-09-04 07:45:26,1890.9400850346249,7,27,-1.099568486213684,3.6252825260162354,28.60979142230288,28.139802019743183,113.81724168614838,103.09562993779294,-6.47544875391759e-05,0.0914954170584678,0,0,0
9610,324937.6150054239,2010-09-04 07:45:56,1920.9553615391435,7,27,-1.0992072820663452,3.622368574142456,28.60979142230288,28.148969638418137,113.81724168614838,103.12885122713806,-3.237724376958795e-05,0.0914954170584678,0,0,0
9611,324967.6300434591,2010-09-04 07:46:26,1950.9703995492607,7,27,-1.099568486213684,3.619130849838257,28.60979142230288,28.15813719909757,113.81724168614838,103.16204422946892,-9.713172767078504e-05,0.0914954170584678,0,0,0
9612,324997.64521750325,2010-09-04 07:46:56,1980.98557361848,7,27,-1.099568486213684,3.6162168979644775,28.60979142230288,28.16730484407597,113.81724168614838,103.19520999736294,-6.47544875391759e-05,0.0914954170584678,0,0,0
9613,325027.6633967172,2010-09-04 07:47:26,2011.0037528174064,7,27,-1.099568486213684,3.613141059875488,28.60979142230288,28.176473332485727,113.81724168614838,103.2283518025276,-0.0001295089750783,0.0914954170584678,0,0,0
9614,325057.6755959322,2010-09-04 07:47:57,2041.0159520173352,7,27,-1.099568486213684,3.610227108001709,28.60979142230288,28.185639992399373,113.81724168614838,103.26146043443592,-0.0001295089750783,0.0914954170584678,0,0,0
9615,325087.69101235043,2010-09-04 07:48:27,2071.0313684355624,7,27,-1.099568486213684,3.6076369285583496,28.60979142230288,28.19480774821826,113.81724168614838,103.29454685755064,-6.47544875391759e-05,0.0914954170584678,0,0,0
9616,325117.70603009505,2010-09-04 07:48:57,2101.0463861851845,7,27,-1.099568486213684,3.6047229766845694,28.60979142230288,28.203975340127126,113.81724168614838,103.3276065962666,-9.713172767078504e-05,0.0914954170584678,0,0,0
9617,325147.7210898444,2010-09-04 07:49:27,2131.061445934483,7,27,-1.099568486213684,3.601809024810791,28.60979142230288,28.21314287475172,113.81724168614838,103.3606405534257,-0.0001295089750783,0.0914954170584678,0,0,0
9618,325177.7362399137,2010-09-04 07:49:57,2161.076595998874,7,27,-1.099568486213684,3.5990569591522217,28.60979142230288,28.22231045612098,113.81724168614838,103.3936490455458,-6.47544875391759e-05,0.0914954170584678,0,0,0
9619,325207.75160249777,2010-09-04 07:50:27,2191.091958698217,7,27,-1.0997490882873535,3.5963048934936523,28.60979142230288,28.231478119175776,113.81724168614838,103.42663226847648,-6.47544875391759e-05,0.0914954170584678,0,0,0
9620,325237.7665583331,2010-09-04 07:50:57,2221.1069144232547,7,27,-1.0993878841400146,3.593876600265503,28.60979142230288,28.240644959691284,113.81724168614838,103.4595870518808,0.0,0.0914954170584678,0,0,0
9621,325267.78175704373,2010-09-04 07:51:27,2251.12211315895,7,27,-1.0993878841400146,3.5908010005950928,28.60979142230288,28.249811762752035,113.81724168614838,103.49251621931468,-6.47544875391759e-05,0.0914954170584678,0,0,0
9622,325297.7969349726,2010-09-04 07:51:57,2281.137291057713,7,27,-1.099568486213684,3.587887048721313,28.60979142230288,28.258979248160426,113.81724168614838,103.5254216288228,-6.47544875391759e-05,0.0914954170584678,0,0,0
9623,325327.8121333824,2010-09-04 07:52:27,2311.1524894675963,7,27,-1.0993878841400146,3.585134983062744,28.60979142230288,28.268147024232384,113.81724168614838,103.55830191570008,-6.47544875391759e-05,0.0914954170584678,0,0,0
9624,325357.8275520964,2010-09-04 07:52:57,2341.167908191569,7,27,-1.0997490882873535,3.582059144973755,28.60979142230288,28.277314811630337,113.81724168614838,103.59115582376327,-9.713172767078504e-05,0.0914954170584678,0,0,0
9625,325387.8426875544,2010-09-04 07:53:27,2371.183043639532,7,27,-1.099568486213684,3.579307079315185,28.60979142230288,28.286482608262933,113.81724168614838,103.6239830290269,-6.47544875391759e-05,0.0914954170584678,0,0,0
9626,325417.8576571039,2010-09-04 07:53:57,2401.198013189025,7,27,-1.0993878841400146,3.5762312412261963,28.60979142230288,28.29565036227061,113.81724168614838,103.6567829267878,-9.713172767078504e-05,0.0914954170584678,0,0,0
9627,325447.8728152233,2010-09-04 07:54:27,2431.213171308492,7,27,-1.099568486213684,3.573155403137207,28.60979142230288,28.30481811214287,113.81724168614838,103.689555165278,-9.713172767078504e-05,0.0914954170584678,0,0,0
9628,325477.8880136032,2010-09-04 07:54:57,2461.22836970835,7,27,-1.099568486213684,3.5700795650482178,28.60979142230288,28.313985920857203,113.81724168614838,103.7222995445059,-9.713172767078504e-05,0.0914954170584678,0,0,0
9629,325507.9032021184,2010-09-04 07:55:27,2491.2435582035228,7,27,-1.099568486213684,3.5670037269592285,28.60979142230288,28.323153709496783,113.81724168614838,103.75501505626204,-9.713172767078504e-05,0.0914954170584678,0,0,0
9630,325537.91837341065,2010-09-04 07:55:57,2521.258729500833,7,27,-1.0993878841400146,3.5637660026550293,28.60979142230288,28.33232143013605,113.81724168614838,103.78770098230255,-9.713172767078504e-05,0.0914954170584678,0,0,0
9631,325567.9335799809,2010-09-04 07:56:27,2551.2739360660416,7,27,-1.099568486213684,3.56036639213562,28.60979142230288,28.34148921044003,113.81724168614838,103.82035770009335,-9.713172767078504e-05,0.0914954170584678,0,0,0
9632,325597.9486698553,2010-09-04 07:56:57,2581.2890259504456,7,27,-1.0993878841400146,3.557290554046631,28.60979142230288,28.350656888337863,113.81724168614838,103.85298333375414,-3.237724376958795e-05,0.0914954170584678,0,0,0
9633,325627.96385369886,2010-09-04 07:57:27,2611.304209784,7,27,-1.0997490882873535,3.5535671710968018,28.60979142230288,28.35982464254337,113.81724168614838,103.88557771811377,-9.713172767078504e-05,0.0914954170584678,0,0,0
9634,325657.9790046555,2010-09-04 07:57:57,2641.319360740615,7,27,-1.0993878841400146,3.5501675605773926,28.60979142230288,28.36899246096845,113.81724168614838,103.91814024738925,-3.237724376958795e-05,0.0914954170584678,0,0,0
9635,325687.9942274311,2010-09-04 07:58:27,2671.3345835162254,7,27,-1.0997490882873535,3.546282291412353,28.60979142230288,28.378160316672336,113.81724168614838,103.95066970854768,-9.713172767078504e-05,0.0914954170584678,0,0,0
9636,325718.0093442025,2010-09-04 07:58:57,2701.34970028764,7,27,-1.099568486213684,3.5425589084625244,28.60979142230288,28.387328148456508,113.81724168614838,103.98316483179264,-0.0001295089750783,0.0914954170584678,0,0,0
9637,325748.02457752434,2010-09-04 07:59:27,2731.3649336095345,7,27,-1.099568486213684,3.5385117530822754,28.60979142230288,28.396496040103163,113.81724168614838,104.015625098012,-0.0001295089750783,0.0914954170584678,0,0,0
9638,325778.03968766425,2010-09-04 07:59:57,2761.3800437544346,7,27,-1.099568486213684,3.5346264839172363,28.60979142230288,28.405663881779457,113.81724168614838,104.04804848270358,-9.713172767078504e-05,0.0914954170584678,0,0,0
9639,325808.0548900992,2010-09-04 08:00:27,2791.3952461843364,7,27,-1.0997490882873535,3.5302555561065674,28.60979142230288,28.41483173971451,113.81724168614838,104.08043389113983,-0.0001295089750783,0.0914954170584678,0,0,0
9640,325838.07005093043,2010-09-04 08:00:57,2821.410407010549,7,27,-1.099568486213684,3.5260465145111084,28.60979142230288,28.42399957388684,113.81724168614838,104.1127797797221,-9.713172767078504e-05,0.0914954170584678,0,0,0
9641,325868.08524103963,2010-09-04 08:01:27,2851.425597124757,7,27,-1.099568486213684,3.5213518142700195,28.60979142230288,28.433167412236227,113.81724168614838,104.14508438293409,-0.0001295089750783,0.0914954170584678,0,0,0
9642,325898.1004426976,2010-09-04 08:01:57,2881.44079879276,7,27,-1.099568486213684,3.5166571140289307,28.60979142230288,28.4423352573316,113.81724168614838,104.17734631426094,-0.0001618862152099,0.0914954170584678,0,0,0
9643,325928.11553476244,2010-09-04 08:02:27,2911.455890847574,7,27,-1.0993878841400146,3.511638879776001,28.60979142230288,28.451503107548493,113.81724168614838,104.2095635666855,-0.0001618385285837,0.0914954170584678,0,0,0
9644,325958.1307052527,2010-09-04 08:02:57,2941.471061337873,7,27,-1.099568486213684,3.5062966346740723,28.60979142230288,28.460671004732408,113.81724168614838,104.24173379605422,-0.0001618862152099,0.0914954170584678,0,0,0
9645,325988.14590302604,2010-09-04 08:03:27,2971.486259116182,7,27,-1.0997490882873535,3.500630617141724,28.60979142230288,28.469838876357404,113.81724168614838,104.27385350051644,-0.0001618862152099,0.0914954170584678,0,0,0
9646,326018.1611737862,2010-09-04 08:03:57,3001.5015298663598,7,27,-1.099568486213684,3.494640827178955,28.60979142230288,28.47900672043809,113.81724168614838,104.30591916994628,-0.0001618862152099,0.0914954170584678,0,0,0
9647,326048.1762201121,2010-09-04 08:04:27,3031.5165761972144,7,27,-1.099568486213684,3.4876797199249268,28.60979142230288,28.48817448984575,113.81724168614838,104.33792571765488,-0.0002266406954731,0.0914954170584678,0,0,0
9648,326078.1913861262,2010-09-04 08:04:57,3061.531742206345,7,27,-1.099568486213684,3.480232954025269,28.60979142230288,28.49734239196709,113.81724168614838,104.36986734956513,-0.0001942634553415,0.0914954170584678,0,0,0
9649,326108.2065843807,2010-09-04 08:05:27,3091.546940465854,7,27,-1.099568486213684,3.4716529846191406,28.60979142230288,28.50651021272042,113.81724168614838,104.40173472315792,-0.0002590179501567,0.0914954170584678,0,0,0
9650,326138.22172354296,2010-09-04 08:05:57,3121.562079648123,7,27,-1.099568486213684,3.461616039276123,28.60979142230288,28.515677985350138,113.81724168614838,104.4335168103526,-0.0002590179501567,0.0914954170584678,0,0,0
9651,326168.23689228884,2010-09-04 08:06:27,3151.577248369012,7,27,-1.099568486213684,3.449474573135376,28.60979142230288,28.524845814244035,113.81724168614838,104.46519794303492,-0.0003561496851034,0.0914954170584678,0,0,0
9652,326198.2520681826,2010-09-04 08:06:57,3181.59242426779,7,27,-1.0993878841400146,3.4344191551208496,28.60979142230288,28.534013653738427,113.81724168614838,104.49675522495836,-0.0004209041653666,0.0914954170584678,0,0,0
9653,326228.2672458458,2010-09-04 08:07:27,3211.6076019610414,7,27,-1.099568486213684,3.4148311614990234,28.60979142230288,28.543181544656782,113.81724168614838,104.52815481519958,-0.0005827903514727,0.0914954170584678,0,0,0
9654,326258.2824069828,2010-09-04 08:07:57,3241.622763072967,7,27,-1.0993878841400146,3.3886055946350098,28.60979142230288,28.552349439347356,113.81724168614838,104.55934641910802,-0.0007770538213662,0.0914954170584678,0,0,0
9655,326288.2977004145,2010-09-04 08:08:27,3271.6380564996607,7,27,-1.0997490882873535,3.3518574237823486,28.60979142230288,28.56151732122921,113.81724168614838,104.59025311440598,-0.0011008263099938,0.0914954170584678,0,0,0
9656,326318.3130048587,2010-09-04 08:08:57,3301.6533609738885,7,27,-1.0997490882873535,3.2992446422576904,28.60979142230288,28.570685247408584,113.81724168614838,104.6207565663004,-0.0015864849556237,0.0914954170584678,0,0,0
9657,326348.3281237303,2010-09-04 08:09:27,3331.668479815463,7,27,-1.099568486213684,3.222996473312378,28.60979142230288,28.579853081947498,113.81724168614838,104.6506771504292,-0.0023635388351976,0.0914954170584678,0,0,0
9658,326378.34309581615,2010-09-04 08:09:57,3361.683451901277,7,27,-1.0993878841400146,3.1059532165527344,28.60979142230288,28.589020916611677,113.81724168614838,104.67973001418486,-0.003755712416023,0.0914954170584678,0,0,0
9659,326405.79579045816,2010-09-04 08:10:25,3389.136146573383,7,27,-1.0997490882873535,2.905538558959961,28.60979142230288,28.59740611032056,113.81724168614838,104.70505094326174,-0.0084180831909179,0.0914954170584678,0,0,0
9660,326420.1236999973,2010-09-04 08:10:39,3403.464056082467,7,27,-1.099568486213684,2.7054479122161865,28.60979142230288,28.6017824560587,113.81724168614838,104.71735584937431,-0.0124975685030221,0.0914954170584678,0,0,0
9661,326420.48320119496,2010-09-04 08:10:39,3403.8235572800672,7,27,-1.0993878841400146,2.699943780899048,28.60979142230288,28.60189225780291,113.81724168614838,104.7176526202128,-0.0125299450010061,0.0914954170584678,0,0,0
9662,326480.49257081747,2010-09-04 08:11:39,60.01468423416824,8,27,0.0,3.420173406600952,28.60979142230288,28.60189225780291,113.81724168614838,104.7176526202128,0.0012303352123126,0.0914954170584678,0,0,0
9663,326480.6757304208,2010-09-04 08:11:40,0.187433747570869,9,27,-1.9243103452026844e-05,3.420173406600952,28.60979142230288,28.6018922588048,113.81724168614838,104.71765262363942,0.0,0.0859051570296287,0,0,0
9664,326485.5039991621,2010-09-04 08:11:45,5.01570250393288,9,27,0.0007031940040178,3.4272964000701904,28.60979222529076,28.60189225897174,113.81724443588185,104.7176526242104,0.0010360718006268,0.0859051570296287,0,0,0
