Data_Point,Test_Time(s),Date_Time,Step_Time(s),Step_Index,Cycle_Index,Current(A),Voltage(V),Charge_Capacity(Ah),Discharge_Capacity(Ah),Charge_Energy(Wh),Discharge_Energy(Wh),dV/dt(V/s),Internal_Resistance(Ohm),Is_FC_Data,AC_Impedance(Ohm),ACI_Phase_Angle(Deg)
12020,442536.1830282231,2010-12-18 15:32:52,30.015079395649945,1,42,0.0,3.4548168182373047,36.126031027448,36.10074011938965,145.12087671789567,130.52064960011273,0.0008094310760498,0.0953715816140174,0,0,0
12021,442566.1981336485,2010-12-18 15:33:22,60.03018482107398,1,42,0.0,3.4799091815948486,36.126031027448,36.10074011938965,145.12087671789567,130.52064960011273,0.0005827903514727,0.0953715816140174,0,0,0
12022,442596.21325712383,2010-12-18 15:33:52,90.04530829641455,1,42,0.0,3.498687982559204,36.126031027448,36.10074011938965,145.12087671789567,130.52064960011273,0.0004532813909463,0.0953715816140174,0,0,0
12023,442626.18159583205,2010-12-18 15:34:22,120.01364700967407,1,42,0.0,3.5135812759399414,36.126031027448,36.10074011938965,145.12087671789567,130.52064960011273,0.0003884792386088,0.0953715816140174,0,0,0
12024,442656.19737998105,2010-12-18 15:34:52,30.01703487678955,2,42,0.550297200679779,3.659926176071167,36.13061873766587,36.10074011938965,145.13752879380513,130.52064960011273,0.0013274669181555,0.0953715816140174,0,0,0
12025,442686.21056640113,2010-12-18 15:35:22,60.03022120661801,2,42,0.5501165986061096,3.6982929706573486,36.13520575340512,36.10074011938965,145.1544109156153,130.52064960011273,0.0008741855854168,0.0953715816140174,0,0,0
12026,442716.2256642426,2010-12-18 15:35:52,90.04531904816987,2,42,0.550297200679779,3.725651741027832,36.13979311444523,36.10074011938965,145.1714420848137,130.52064960011273,0.0007122993702068,0.0953715816140174,0,0,0
12027,442746.2407738385,2010-12-18 15:36:22,120.06042864397172,2,42,0.5499359965324402,3.746049404144287,36.1443803870403,36.10074011938965,145.18858135936028,130.52064960011273,0.0004532813909463,0.0953715816140174,0,0,0
12028,442776.2559140955,2010-12-18 15:36:52,150.07556900132252,2,42,0.550297200679779,3.761266469955444,36.148967610994646,36.10074011938965,145.20580200432715,130.52064960011273,0.0003561496851034,0.0953715816140174,0,0,0
12029,442806.2709826893,2010-12-18 15:37:22,180.09063749484292,2,42,0.550297200679779,3.771303415298462,36.15355489382456,36.10074011938965,145.22308026954522,130.52064960011273,0.0002266406954731,0.0953715816140174,0,0,0
12030,442836.2862088502,2010-12-18 15:37:52,210.10586365571248,2,42,0.5501165986061096,3.77810263633728,36.15814214517948,36.10074011938965,145.24039687562544,130.52064960011273,0.0001618862152099,0.0953715816140174,0,0,0
12031,442866.3012185875,2010-12-18 15:38:22,240.1208733779829,2,42,0.5501165986061096,3.783768653869629,36.16272941492488,36.10074011938965,145.25774199084168,130.52064960011273,0.0001295089750783,0.0953715816140174,0,0,0
12032,442896.3163649548,2010-12-18 15:38:52,270.13601985556363,2,42,0.550297200679779,3.7891108989715576,36.167316758793326,36.10074011938965,145.27511198313218,130.52064960011273,0.0001295089750783,0.0953715816140174,0,0,0
12033,442926.3316662426,2010-12-18 15:39:22,300.15132113837126,2,42,0.550297200679779,3.7938055992126474,36.17190405860888,36.10074011938965,145.29250439035158,130.52064960011273,0.0001295089750783,0.0953715816140174,0,0,0
12034,442956.34655244247,2010-12-18 15:39:52,330.16620723299906,2,42,0.5501165986061096,3.798176527023315,36.17649132321744,36.10074011938965,145.3099179213751,130.52064960011273,9.713172767078504e-05,0.0953715816140174,0,0,0
12035,442986.3616143296,2010-12-18 15:40:22,360.1812691200796,2,42,0.5501165986061096,3.8027093410491934,36.18107860310461,36.10074011938965,145.32735179264603,130.52064960011273,0.0001295089750783,0.0953715816140174,0,0,0
12036,443016.3767345669,2010-12-18 15:40:52,390.1963893723998,2,42,0.5501165986061096,3.8067564964294434,36.18566594333104,36.10074011938965,145.34480534843408,130.52064960011273,9.713172767078504e-05,0.0953715816140174,0,0,0
12037,443046.39204464655,2010-12-18 15:41:22,420.2116995322977,2,42,0.550297200679779,3.810803651809693,36.19025331879229,36.10074011938965,145.36227787097823,130.52064960011273,0.0001295089750783,0.0953715816140174,0,0,0
12038,443076.4069635128,2010-12-18 15:41:52,450.2266183182766,2,42,0.550297200679779,3.815012693405152,36.19484066341453,36.10074011938965,145.37976870245822,130.52064960011273,0.0001618862152099,0.0953715816140174,0,0,0
12039,443106.42203618167,2010-12-18 15:42:22,480.2416909871874,2,42,0.5501165986061096,3.8185741901397705,36.1994279423629,36.10074011938965,145.39727739711756,130.52064960011273,6.47544875391759e-05,0.0953715816140174,0,0,0
12040,443136.43723611225,2010-12-18 15:42:52,510.2568910080084,2,42,0.550297200679779,3.8227832317352295,36.20401522325847,36.10074011938965,145.41480376886997,130.52064960011273,0.0001295089750783,0.0953715816140174,0,0,0
12041,443166.45224559394,2010-12-18 15:43:22,540.2719003994556,2,42,0.550297200679779,3.8263447284698486,36.20860248528683,36.10074011938965,145.43234759756325,130.52064960011273,9.713172767078504e-05,0.0953715816140174,0,0,0
12042,443196.46734322497,2010-12-18 15:43:52,570.2869980154461,2,42,0.5501165986061096,3.8300681114196777,36.21318979924991,36.10074011938965,145.4499091734742,130.52064960011273,6.47544875391759e-05,0.0953715816140174,0,0,0
12043,443226.4824520137,2010-12-18 15:44:22,600.3021068192771,2,42,0.550297200679779,3.834115028381348,36.21777712295554,36.10074011938965,145.46748830417647,130.52064960011273,0.0001618862152099,0.0953715816140174,0,0,0
12044,443256.49944084097,2010-12-18 15:44:52,630.3190957417111,2,42,0.5501165986061096,3.837676525115967,36.22236470893021,36.10074011938965,145.48508607340335,130.52064960011273,6.47544875391759e-05,0.0953715816140174,0,0,0
12045,443286.512922215,2010-12-18 15:45:22,660.3325771007082,2,42,0.550297200679779,3.841885566711426,36.22695171782186,36.10074011938965,145.50269928377685,130.52064960011273,0.0001295089750783,0.0953715816140174,0,0,0
12046,443316.5279020479,2010-12-18 15:45:52,690.3475568534005,2,42,0.5501165986061096,3.845447063446045,36.23153900070062,36.10074011938965,145.52033113081876,130.52064960011273,9.713172767078504e-05,0.0953715816140174,0,0,0
12047,443346.542878342,2010-12-18 15:46:22,720.3625331374612,2,42,0.5501165986061096,3.849170446395874,36.23612626349942,36.10074011938965,145.53798040773398,130.52064960011273,3.237724376958795e-05,0.0953715816140174,0,0,0
12048,443376.55799103546,2010-12-18 15:46:52,750.3776458460092,2,42,0.550297200679779,3.853217601776123,36.24071355377727,36.10074011938965,145.55564714582886,130.52064960011273,6.47544875391759e-05,0.0953715816140174,0,0,0
12049,443406.57297889335,2010-12-18 15:47:22,780.3926336988583,2,42,0.550297200679779,3.856940984725952,36.24530087243132,36.10074011938965,145.57333100924544,130.52064960011273,0.0001295089750783,0.0953715816140174,0,0,0
12050,443436.58816484414,2010-12-18 15:47:52,810.4078196496665,2,42,0.550297200679779,3.860340595245361,36.249888165324975,36.10074011938965,145.59103149640376,130.52064960011273,9.713172767078504e-05,0.0953715816140174,0,0,0
12051,443466.6032782995,2010-12-18 15:48:22,840.4229331050731,2,42,0.550297200679779,3.863902091979981,36.25447536651282,36.10074011938965,145.60874784123416,130.52064960011273,9.713172767078504e-05,0.0953715816140174,0,0,0
12052,443496.6184151984,2010-12-18 15:48:52,870.4380699887797,2,42,0.5501165986061096,3.8673017024993896,36.259062582038766,36.10074011938965,145.62647991503286,130.52064960011273,9.713172767078504e-05,0.0953715816140174,0,0,0
12053,443526.6334084195,2010-12-18 15:49:22,900.4530632250253,2,42,0.550297200679779,3.870539426803589,36.2636498595769,36.10074011938965,145.64422743516798,130.52064960011273,9.713172767078504e-05,0.0953715816140174,0,0,0
12054,443556.64859563846,2010-12-18 15:49:52,930.4682504439894,2,42,0.5501165986061096,3.873615264892578,36.268237205722606,36.10074011938965,145.66198983588893,130.52064960011273,9.713172767078504e-05,0.0953715816140174,0,0,0
12055,443586.6637160612,2010-12-18 15:50:22,960.4833708667336,2,42,0.550297200679779,3.876691102981568,36.27282449564045,36.10074011938965,145.67976586869784,130.52064960011273,0.0001295089750783,0.0953715816140174,0,0,0
12056,443616.6788146196,2010-12-18 15:50:52,990.4984694250692,2,42,0.550297200679779,3.879281282424927,36.27741182953099,36.10074011938965,145.69755536664587,130.52064960011273,3.237724376958795e-05,0.0953715816140174,0,0,0
12057,443646.6939116992,2010-12-18 15:51:22,1020.5135665047252,2,42,0.550297200679779,3.881871461868286,36.28199916415257,36.10074011938965,145.71535742968692,130.52064960011273,6.47544875391759e-05,0.0953715816140174,0,0,0
12058,443676.7090080872,2010-12-18 15:51:52,1050.5286628976723,2,42,0.5501165986061096,3.8844616413116455,36.28658645211589,36.10074011938965,145.73317125437904,130.52064960011273,3.237724376958795e-05,0.0953715816140174,0,0,0
12059,443706.7241609707,2010-12-18 15:52:22,1080.5438158463562,2,42,0.550297200679779,3.887051820755005,36.29117377271245,36.10074011938965,145.7509964438226,130.52064960011273,6.47544875391759e-05,0.0953715816140174,0,0,0
12060,443736.73937087104,2010-12-18 15:52:52,1110.5590256765877,2,42,0.550297200679779,3.8891563415527344,36.2957610671961,36.10074011938965,145.76883216642236,130.52064960011273,6.47544875391759e-05,0.0953715816140174,0,0,0
12061,443766.7544762514,2010-12-18 15:53:22,1140.5741311521365,2,42,0.5501165986061096,3.891422748565674,36.3003484057183,36.10074011938965,145.7866782241626,130.52064960011273,6.47544875391759e-05,0.0953715816140174,0,0,0
12062,443796.7694364404,2010-12-18 15:53:52,1170.5890912308707,2,42,0.5501165986061096,3.893365383148194,36.30493579232281,36.10074011938965,145.8045342325936,130.52064960011273,3.237724376958795e-05,0.0953715816140174,0,0,0
12063,443826.7846911874,2010-12-18 15:54:22,1200.6043460630876,2,42,0.550297200679779,3.895146131515503,36.30952322861531,36.10074011938965,145.82239953493118,130.52064960011273,0.0,0.0953715816140174,0,0,0
12064,443856.80154838704,2010-12-18 15:54:53,1230.621203267747,2,42,0.550297200679779,3.897250652313232,36.3141108266861,36.10074011938965,145.8402742223707,130.52064960011273,3.237724376958795e-05,0.0953715816140174,0,0,0
12065,443886.8149008052,2010-12-18 15:55:23,1260.6345556758547,2,42,0.5501165986061096,3.899031400680542,36.31869784826223,36.10074011938965,145.8581554440676,130.52064960011273,6.47544875391759e-05,0.0953715816140174,0,0,0
12066,443916.8298913447,2010-12-18 15:55:53,1290.64954613519,2,42,0.5501165986061096,3.9009740352630615,36.32328510044984,36.10074011938965,145.87604605731158,130.52064960011273,3.237724376958795e-05,0.0953715816140174,0,0,0
12067,443946.8450755311,2010-12-18 15:56:23,1320.6647304118324,2,42,0.5501165986061096,3.902916669845581,36.32787246664889,36.10074011938965,145.893945483791,130.52064960011273,6.47544875391759e-05,0.0953715816140174,0,0,0
12068,443976.86022249993,2010-12-18 15:56:53,1350.6798773104613,2,42,0.5501165986061096,3.9045355319976807,36.33245975392166,36.10074011938965,145.91185277961296,130.52064960011273,3.237724376958795e-05,0.0953715816140174,0,0,0
12069,444006.8751799771,2010-12-18 15:57:23,1380.6948347827094,2,42,0.5501165986061096,3.9063162803649902,36.33704709961045,36.10074011938965,145.92976832696203,130.52064960011273,3.237724376958795e-05,0.0953715816140174,0,0,0
12070,444036.8902818086,2010-12-18 15:57:53,1410.7099366192024,2,42,0.550297200679779,3.9080970287323,36.34163436578456,36.10074011938965,145.94769159566383,130.52064960011273,6.47544875391759e-05,0.0953715816140174,0,0,0
12071,444066.90539924894,2010-12-18 15:58:23,1440.7250540595253,2,42,0.550297200679779,3.9097158908844,36.34622163052204,36.10074011938965,145.96562288291736,130.52064960011273,3.237724376958795e-05,0.0953715816140174,0,0,0
12072,444096.9205103586,2010-12-18 15:58:53,1470.7401651640814,2,42,0.550297200679779,3.911496639251709,36.3508089510665,36.10074011938965,145.98356231583537,130.52064960011273,3.237724376958795e-05,0.0953715816140174,0,0,0
12073,444126.9356227814,2010-12-18 15:59:23,1500.7552775869185,2,42,0.550297200679779,3.9132773876190186,36.35539622561409,36.10074011938965,146.00150948477113,130.52064960011273,3.237724376958795e-05,0.0953715816140174,0,0,0
12074,444156.9507044778,2010-12-18 15:59:53,1530.7703592832934,2,42,0.5501165986061096,3.914896011352539,36.35998348961262,36.10074011938965,146.01946448360553,130.52064960011273,0.0,0.0953715816140174,0,0,0
12075,444186.965819452,2010-12-18 16:00:23,1560.785474257479,2,42,0.550297200679779,3.9166767597198486,36.36457079938716,36.10074011938965,146.03742745203618,130.52064960011273,3.237724376958795e-05,0.0953715816140174,0,0,0
12076,444216.9809281455,2010-12-18 16:00:53,1590.8005829560484,2,42,0.550297200679779,3.918295621871948,36.36915810450023,36.10074011938965,146.05539832124833,130.52064960011273,3.237724376958795e-05,0.0953715816140174,0,0,0
12077,444246.99602709984,2010-12-18 16:01:23,1620.8156818903194,2,42,0.550297200679779,3.920076370239258,36.37374538555459,36.10074011938965,146.07337694531017,130.52064960011273,3.237724376958795e-05,0.0953715816140174,0,0,0
12078,444277.01112886606,2010-12-18 16:01:53,1650.8307836716754,2,42,0.550297200679779,3.921857118606568,36.3783327081861,36.10074011938965,146.09136356000045,130.52064960011273,3.237724376958795e-05,0.0953715816140174,0,0,0
12079,444307.0263580596,2010-12-18 16:02:23,1680.846012865091,2,42,0.5501165986061096,3.923475980758667,36.38292000008226,36.10074011938965,146.10935787401752,130.52064960011273,3.237724376958795e-05,0.0953715816140174,0,0,0
12080,444337.0413817817,2010-12-18 16:02:53,1710.8610365922125,2,42,0.5501165986061096,3.925256729125977,36.38750732814021,36.10074011938965,146.12736019164237,130.52064960011273,3.237724376958795e-05,0.0953715816140174,0,0,0
12081,444367.0564494732,2010-12-18 16:03:23,1740.8761042787244,2,42,0.5501165986061096,3.926875591278076,36.39209462951306,36.10074011938965,146.14537015924185,130.52064960011273,6.47544875391759e-05,0.0953715816140174,0,0,0
12082,444397.0715443874,2010-12-18 16:03:53,1770.8911991829673,2,42,0.550297200679779,3.9286563396453857,36.39668190532471,36.10074011938965,146.16338785168546,130.52064960011273,6.47544875391759e-05,0.0953715816140174,0,0,0
12083,444427.08686740434,2010-12-18 16:04:23,1800.906522209884,2,42,0.550297200679779,3.930275201797485,36.40126922627676,36.10074011938965,146.18141357789293,130.52064960011273,3.237724376958795e-05,0.0953715816140174,0,0,0
12084,444457.0889686444,2010-12-18 16:04:53,1830.908623540117,2,42,0.550297200679779,3.932055950164795,36.40585458458746,36.10074011938965,146.19943943671083,130.52064960011273,3.237724376958795e-05,0.0953715816140174,0,0,0
12085,444487.1030266583,2010-12-18 16:05:23,1860.922681554098,2,42,0.550297200679779,3.9336748123168954,36.4104416923464,36.10074011938965,146.2174800184108,130.52064960011273,3.237724376958795e-05,0.0953715816140174,0,0,0
12086,444517.1163808008,2010-12-18 16:05:53,1890.9360356113093,2,42,0.550297200679779,3.935617446899414,36.41502880294401,36.10074011938965,146.23552849948146,130.52064960011273,6.47544875391759e-05,0.0953715816140174,0,0,0
12087,444547.1314643568,2010-12-18 16:06:23,1920.9511191472625,2,42,0.550297200679779,3.9372363090515137,36.419616259415214,36.10074011938965,146.2535861414435,130.52064960011273,3.237724376958795e-05,0.0953715816140174,0,0,0
12088,444577.1465570154,2010-12-18 16:06:53,1950.9662118209544,2,42,0.5501165986061096,3.938855171203613,36.424203595992935,36.10074011938965,146.2716512750396,130.52064960011273,3.237724376958795e-05,0.0953715816140174,0,0,0
12089,444607.1619328136,2010-12-18 16:07:23,1980.9815876191908,2,42,0.5501165986061096,3.940635919570923,36.42879100006256,36.10074011938965,146.28972462492666,130.52064960011273,6.47544875391759e-05,0.0953715816140174,0,0,0
12090,444637.1767738863,2010-12-18 16:07:53,2010.996428691783,2,42,0.550297200679779,3.942416667938232,36.43337834188078,36.10074011938965,146.30780568848573,130.52064960011273,6.47544875391759e-05,0.0953715816140174,0,0,0
12091,444667.1918791664,2010-12-18 16:08:23,2041.0115339718457,2,42,0.550297200679779,3.944197416305542,36.437965661217135,36.10074011938965,146.3258946382991,130.52064960011273,3.237724376958795e-05,0.0953715816140174,0,0,0
12092,444697.2070088722,2010-12-18 16:08:53,2071.0266636827027,2,42,0.5501165986061096,3.9458162784576416,36.442552986227305,36.10074011938965,146.34399157853645,130.52064960011273,3.237724376958795e-05,0.0953715816140174,0,0,0
12093,444727.2220701077,2010-12-18 16:09:23,2101.041724913149,2,42,0.5499359965324402,3.947435140609741,36.44713971254292,36.10074011938965,146.362094019049,130.52064960011273,3.237724376958795e-05,0.0953715816140174,0,0,0
12094,444757.2371567864,2010-12-18 16:09:53,2131.0568115919227,2,42,0.550297200679779,3.949539661407471,36.45172627211426,36.10074011938965,146.38020382414243,130.52064960011273,6.47544875391759e-05,0.0953715816140174,0,0,0
12095,444787.25228280807,2010-12-18 16:10:23,2161.0719376136,2,42,0.550297200679779,3.9511585235595694,36.45631293551996,36.10074011938965,146.39832221270183,130.52064960011273,6.47544875391759e-05,0.0953715816140174,0,0,0
12096,444817.2673823889,2010-12-18 16:10:53,2191.08703719448,2,42,0.5501165986061096,3.95293927192688,36.46089948662808,36.10074011938965,146.41644827559696,130.52064960011273,3.237724376958795e-05,0.0953715816140174,0,0,0
12097,444847.2825100547,2010-12-18 16:11:23,2221.1021648602486,2,42,0.5497553944587708,3.95455813407898,36.46548604308434,36.10074011938965,146.43458256794477,130.52064960011273,3.237724376958795e-05,0.0953715816140174,0,0,0
12098,444877.2981444415,2010-12-18 16:11:53,2251.1177993221595,2,42,0.5504778623580933,3.956662654876709,36.47007271989962,36.10074011938965,146.45272553797102,130.52064960011273,6.47544875391759e-05,0.0953715816140174,0,0,0
12099,444907.3127505895,2010-12-18 16:12:23,2281.132405394964,2,42,0.5501165986061096,3.958119630813599,36.47465981126559,36.10074011938965,146.47087837630212,130.52064960011273,-3.237724376958795e-05,0.0953715816140174,0,0,0
12100,444937.3278202709,2010-12-18 16:12:53,2311.147475166665,2,42,0.550297200679779,3.960224151611328,36.47924721361969,36.10074011938965,146.48904084209474,130.52064960011273,6.47544875391759e-05,0.0953715816140174,0,0,0
12101,444967.34305809584,2010-12-18 16:13:23,2341.162712901335,2,42,0.550297200679779,3.9620048999786377,36.48383460082193,36.10074011938965,146.5072116591503,130.52064960011273,6.47544875391759e-05,0.0953715816140174,0,0,0
12102,444997.3582505929,2010-12-18 16:13:53,2371.1779053833966,2,42,0.5501165986061096,3.9637856483459473,36.488421996537646,36.10074011938965,146.52539082361534,130.52064960011273,6.47544875391759e-05,0.0953715816140174,0,0,0
12103,445027.3731420108,2010-12-18 16:14:23,2401.192796886483,2,42,0.5501165986061096,3.965728282928467,36.49300932503139,36.10074011938965,146.54357821166357,130.52064960011273,6.47544875391759e-05,0.0953715816140174,0,0,0
12104,445057.3882523334,2010-12-18 16:14:53,2431.207907143931,2,42,0.550297200679779,3.9673471450805664,36.49759672495881,36.10074011938965,146.56177442129632,130.52064960011273,0.0,0.0953715816140174,0,0,0
12105,445087.4052502382,2010-12-18 16:15:23,2461.224905123904,2,42,0.5501165986061096,3.969451665878296,36.50218445432064,36.10074011938965,146.57998046683937,130.52064960011273,6.47544875391759e-05,0.0953715816140174,0,0,0
12106,445117.4185024269,2010-12-18 16:15:53,2491.2381572324207,2,42,0.550297200679779,3.9712324142456055,36.50677154831224,36.10074011938965,146.5981927071939,130.52064960011273,6.47544875391759e-05,0.0953715816140174,0,0,0
12107,445147.4335689004,2010-12-18 16:16:23,2521.2532237059145,2,42,0.5499359965324402,3.973175048828125,36.51135896312564,36.10074011938965,146.61641503884957,130.52064960011273,0.0,0.0953715816140174,0,0,0
12108,445177.4486654036,2010-12-18 16:16:53,2551.268320194098,2,42,0.550297200679779,3.975117683410645,36.51594633520924,36.10074011938965,146.63464603776907,130.52064960011273,3.237724376958795e-05,0.0953715816140174,0,0,0
12109,445207.4637902874,2010-12-18 16:17:23,2581.2834450929813,2,42,0.550297200679779,3.977060317993164,36.52053379140008,36.10074011938965,146.65288630795004,130.52064960011273,3.237724376958795e-05,0.0953715816140174,0,0,0
12110,445237.4791882258,2010-12-18 16:17:53,2611.2988431065,2,42,0.5501165986061096,3.9791648387908936,36.52512128027948,36.10074011938965,146.67113534213945,130.52064960011273,9.713172767078504e-05,0.0953715816140174,0,0,0
12111,445267.4939923464,2010-12-18 16:18:23,2641.313647151951,2,42,0.5499359965324402,3.981107473373413,36.52970855617637,36.10074011938965,146.68939307908994,130.52064960011273,6.47544875391759e-05,0.0953715816140174,0,0,0
12112,445297.50909800245,2010-12-18 16:18:53,2671.328752797924,2,42,0.550297200679779,3.9830501079559326,36.534295898066354,36.10074011938965,146.7076603212822,130.52064960011273,3.237724376958795e-05,0.0953715816140174,0,0,0
12113,445327.5242365202,2010-12-18 16:19:23,2701.3438913307346,2,42,0.5501165986061096,3.985154628753662,36.53888324460808,36.10074011938965,146.72593689354832,130.52064960011273,6.47544875391759e-05,0.0953715816140174,0,0,0
12114,445357.539284222,2010-12-18 16:19:53,2731.3589390325155,2,42,0.550297200679779,3.987259149551392,36.54347061559418,36.10074011938965,146.74422298850683,130.52064960011273,6.47544875391759e-05,0.0953715816140174,0,0,0
12115,445387.5543940634,2010-12-18 16:20:23,2761.3740488739286,2,42,0.550297200679779,3.989363670349121,36.54805797213456,36.10074011938965,146.76251849754405,130.52064960011273,6.47544875391759e-05,0.0953715816140174,0,0,0
12116,445417.5697005742,2010-12-18 16:20:53,2791.3893554549204,2,42,0.5501165986061096,3.9914681911468506,36.55264532543436,36.10074011938965,146.78082368273073,130.52064960011273,9.713172767078504e-05,0.0953715816140174,0,0,0
12117,445447.5847614137,2010-12-18 16:21:23,2821.4044162242194,2,42,0.5501165986061096,3.99324893951416,36.55723267177302,36.10074011938965,146.7991386577003,130.52064960011273,0.0,0.0953715816140174,0,0,0
12118,445477.59972777305,2010-12-18 16:21:53,2851.4193825635334,2,42,0.5501165986061096,3.9956769943237305,36.56181995981688,36.10074011938965,146.81746323536385,130.52064960011273,3.237724376958795e-05,0.0953715816140174,0,0,0
12119,445507.6148517647,2010-12-18 16:22:23,2881.434506570196,2,42,0.5501165986061096,3.99778151512146,36.56640739632701,36.10074011938965,146.83579837869084,130.52064960011273,3.237724376958795e-05,0.0953715816140174,0,0,0
12120,445537.6300299863,2010-12-18 16:22:53,2911.449684887007,2,42,0.5501165986061096,3.9998860359191895,36.57099482016915,36.10074011938965,146.85414345619475,130.52064960011273,0.0,0.0953715816140174,0,0,0
12121,445567.64505887614,2010-12-18 16:23:23,2941.4647137519137,2,42,0.5501165986061096,4.002314567565918,36.57558219658374,36.10074011938965,146.87249860885004,130.52064960011273,3.24249267578125e-05,0.0953715816140174,0,0,0
12122,445597.6602702704,2010-12-18 16:23:53,2971.479925075861,2,42,0.550297200679779,4.004742622375488,36.58016966822109,36.10074011938965,146.89086448220013,130.52064960011273,6.47544875391759e-05,0.0953715816140174,0,0,0
12123,445627.6753705932,2010-12-18 16:24:23,3001.4950254036007,2,42,0.550297200679779,4.007009029388428,36.58475715309621,36.10074011938965,146.90924083293007,130.52064960011273,6.47544875391759e-05,0.0953715816140174,0,0,0
12124,445657.6903615086,2010-12-18 16:24:53,3031.5100163140587,2,42,0.5501165986061096,4.009275436401367,36.58934456919412,36.10074011938965,146.92762744115922,130.52064960011273,6.47544875391759e-05,0.0953715816140174,0,0,0
12125,445687.7073533733,2010-12-18 16:25:23,3061.5270082590137,2,42,0.550297200679779,4.011541843414307,36.59393228361762,36.10074011938965,146.9460258313381,130.52064960011273,9.70840483205393e-05,0.0953715816140174,0,0,0
12126,445717.7205840484,2010-12-18 16:25:53,3091.5402389492315,2,42,0.5501165986061096,4.013808250427246,36.59851945985903,36.10074011938965,146.96443280059808,130.52064960011273,0.0,0.0953715816140174,0,0,0
12127,445747.7357105714,2010-12-18 16:26:23,3121.5553653769184,2,42,0.5501165986061096,4.016236782073975,36.60310689908808,36.10074011938965,146.9828516286206,130.52064960011273,6.47544875391759e-05,0.0953715816140174,0,0,0
12128,445777.7507850348,2010-12-18 16:26:53,3151.5704398252574,2,42,0.5501165986061096,4.018664836883545,36.60769434499203,36.10074011938965,147.00128149930686,130.52064960011273,3.23295607813634e-05,0.0953715816140174,0,0,0
12129,445807.7659006606,2010-12-18 16:27:24,3181.585555456077,2,42,0.550297200679779,4.021093368530273,36.61228181514738,36.10074011938965,147.019722478267,130.52064960011273,6.47544875391759e-05,0.0953715816140174,0,0,0
12130,445837.78120150726,2010-12-18 16:27:54,3211.6008563880114,2,42,0.5501165986061096,4.023521423339844,36.61686933389051,36.10074011938965,147.03817500668865,130.52064960011273,3.23295607813634e-05,0.0953715816140174,0,0,0
12131,445867.7960997872,2010-12-18 16:28:24,3241.615754592775,2,42,0.5501165986061096,4.025949954986572,36.621456804227336,36.10074011938965,147.05663859117905,130.52064960011273,3.24249267578125e-05,0.0953715816140174,0,0,0
12132,445897.81119188445,2010-12-18 16:28:54,3271.6308466800074,2,42,0.5501165986061096,4.028540134429932,36.62604417495628,36.10074011938965,147.0751132195379,130.52064960011273,6.47544875391759e-05,0.0953715816140174,0,0,0
12133,445927.82630049286,2010-12-18 16:29:24,3301.6459553033897,2,42,0.550297200679779,4.030968189239502,36.630631603833045,36.10074011938965,147.09359959595164,130.52064960011273,3.23295607813634e-05,0.0953715816140174,0,0,0
12134,445957.84141909104,2010-12-18 16:29:54,3331.661073896581,2,42,0.5501165986061096,4.033558368682861,36.63521897817211,36.10074011938965,147.1120973529307,130.52064960011273,6.47544875391759e-05,0.0953715816140174,0,0,0
12135,445987.8565513633,2010-12-18 16:30:24,3361.6762061688123,2,42,0.5499359965324402,4.035986423492432,36.639806339912205,36.10074011938965,147.13060678746592,130.52064960011273,6.47544875391759e-05,0.0953715816140174,0,0,0
12136,446017.8717941957,2010-12-18 16:30:54,3391.691449001168,2,42,0.5501165986061096,4.038576602935791,36.64439378988887,36.10074011938965,147.14912849833092,130.52064960011273,3.23295607813634e-05,0.0953715816140174,0,0,0
12137,446047.88679304585,2010-12-18 16:31:24,3421.706447851384,2,42,0.5501165986061096,4.04132890701294,36.6489811613611,36.10074011938965,147.16766181417557,130.52064960011273,3.24249267578125e-05,0.0953715816140174,0,0,0
12138,446077.9020015428,2010-12-18 16:31:54,3451.7216563332604,2,42,0.5501165986061096,4.043919086456299,36.65356860091218,36.10074011938965,147.1862074878822,130.52064960011273,6.47544875391759e-05,0.0953715816140174,0,0,0
12139,446107.91700805706,2010-12-18 16:32:24,3481.736662862585,2,42,0.550297200679779,4.046833038330078,36.658156034825694,36.10074011938965,147.20476533680454,130.52064960011273,9.71794142969884e-05,0.0953715816140174,0,0,0
12140,446137.9322475712,2010-12-18 16:32:54,3511.7519023666587,2,42,0.550297200679779,4.0494232177734375,36.66274359372853,36.10074011938965,147.22333603530683,130.52064960011273,9.71794142969884e-05,0.0953715816140174,0,0,0
12141,446167.94722173497,2010-12-18 16:33:24,3541.7668765404683,2,42,0.550297200679779,4.052013397216797,36.66733102918651,36.10074011938965,147.24191857836928,130.52064960011273,3.24249267578125e-05,0.0953715816140174,0,0,0
12142,446197.96230650897,2010-12-18 16:33:54,3571.7819613145016,2,42,0.550297200679779,4.054927349090576,36.6719184410068,36.10074011938965,147.2605135602958,130.52064960011273,9.71794142969884e-05,0.0953715816140174,0,0,0
12143,446227.9774103405,2010-12-18 16:34:24,3601.797065150972,2,42,0.550297200679779,4.057679176330566,36.6765059187246,36.10074011938965,147.27912142943532,130.52064960011273,6.47544875391759e-05,0.0953715816140174,0,0,0
12144,446257.9925222621,2010-12-18 16:34:54,3631.812177067549,2,42,0.550297200679779,4.060431480407715,36.68109339419606,36.10074011938965,147.29774207760732,130.52064960011273,6.47544875391759e-05,0.0953715816140174,0,0,0
12145,446288.0095036056,2010-12-18 16:35:24,3661.829158501347,2,42,0.550297200679779,4.063183307647705,36.68568111417845,36.10074011938965,147.31637613684617,130.52064960011273,6.47544875391759e-05,0.0953715816140174,0,0,0
12146,446318.02277875145,2010-12-18 16:35:54,3691.8424336772655,2,42,0.5501165986061096,4.0657734870910645,36.69026832455828,36.10074011938965,147.33502118567216,130.52064960011273,3.23295607813634e-05,0.0953715816140174,0,0,0
12147,446348.0378423027,2010-12-18 16:36:24,3721.857497098163,2,42,0.550297200679779,4.068849563598633,36.6948557805249,36.10074011938965,147.35368027719,130.52064960011273,9.71794142969884e-05,0.0953715816140174,0,0,0
12148,446378.0559164657,2010-12-18 16:36:54,3751.8755713614255,2,42,0.550297200679779,4.071763515472412,36.69944369992836,36.10074011938965,147.37235442949466,130.52064960011273,9.71794142969884e-05,0.0953715816140174,0,0,0
12149,446408.0681136892,2010-12-18 16:37:24,3781.8877685849016,2,42,0.550297200679779,4.074677467346191,36.70403068470571,36.10074011938965,147.39103799923527,130.52064960011273,6.47544875391759e-05,0.0953715816140174,0,0,0
12150,446438.0831694861,2010-12-18 16:37:54,3811.9028242765658,2,42,0.5501165986061096,4.077591419219971,36.70861811329607,36.10074011938965,147.40973680488665,130.52064960011273,6.47544875391759e-05,0.0953715816140174,0,0,0
12151,446468.09828053054,2010-12-18 16:38:24,3841.917935320972,2,42,0.550297200679779,4.08050537109375,36.71320558402807,36.10074011938965,147.42844933358788,130.52064960011273,6.47544875391759e-05,0.0953715816140174,0,0,0
12152,446498.1135385957,2010-12-18 16:38:54,3871.933193406284,2,42,0.5501165986061096,4.08358097076416,36.71779309965195,36.10074011938965,147.44717563542662,130.52064960011273,9.70840483205393e-05,0.0953715816140174,0,0,0
12153,446528.12861606665,2010-12-18 16:39:24,3901.9482708570954,2,42,0.550297200679779,4.08649492263794,36.72238050904578,36.10074011938965,147.46591528908803,130.52064960011273,9.70840483205393e-05,0.0953715816140174,0,0,0
12154,446558.1437228504,2010-12-18 16:39:54,3931.963377660949,2,42,0.550297200679779,4.089570999145508,36.726967893520936,36.10074011938965,147.48466865585382,130.52064960011273,6.47544875391759e-05,0.0953715816140174,0,0,0
12155,446588.1587239061,2010-12-18 16:40:24,3961.97837871164,2,42,0.5501165986061096,4.092484951019287,36.73155530562198,36.10074011938965,147.50343616718447,130.52064960011273,3.24249267578125e-05,0.0953715816140174,0,0,0
12156,446618.1738024748,2010-12-18 16:40:54,3991.993457280232,2,42,0.550297200679779,4.095722675323486,36.73614269140767,36.10074011938965,147.5222176410625,130.52064960011273,6.47544875391759e-05,0.0953715816140174,0,0,0
12157,446648.1890642542,2010-12-18 16:41:24,4022.008719059737,2,42,0.550297200679779,4.0987982749938965,36.740730149646765,36.10074011938965,147.5410135994049,130.52064960011273,9.70840483205393e-05,0.0953715816140174,0,0,0
12158,446678.2040260271,2010-12-18 16:41:54,4052.023680832687,2,42,0.550297200679779,4.102035999298096,36.74531758806352,36.10074011938965,147.55982383119365,130.52064960011273,9.70840483205393e-05,0.0953715816140174,0,0,0
12159,446708.2191295679,2010-12-18 16:42:24,4082.0387843734215,2,42,0.5499359965324402,4.104949951171875,36.74990502638326,36.10074011938965,147.5786483868278,130.52064960011273,6.47544875391759e-05,0.0953715816140174,0,0,0
12160,446738.23423464247,2010-12-18 16:42:54,4112.053889447972,2,42,0.550297200679779,4.108187675476074,36.75449248109656,36.10074011938965,147.597487652691,130.52064960011273,6.47544875391759e-05,0.0953715816140174,0,0,0
12161,446768.2493534211,2010-12-18 16:43:24,4142.069008226626,2,42,0.550297200679779,4.111587524414063,36.75907994049079,36.10074011938965,147.6163416009364,130.52064960011273,9.71794142969884e-05,0.0953715816140174,0,0,0
12162,446798.2645981532,2010-12-18 16:43:54,4172.084252958709,2,42,0.550297200679779,4.114824771881104,36.763667421830434,36.10074011938965,147.6352103868564,130.52064960011273,6.46591215627268e-05,0.0953715816140174,0,0,0
12163,446828.27955356525,2010-12-18 16:44:24,4202.099208370831,2,42,0.5501165986061096,4.118062496185303,36.76825480674195,36.10074011938965,147.6540936661486,130.52064960011273,9.70840483205393e-05,0.0953715816140174,0,0,0
12164,446858.2946669355,2010-12-18 16:44:54,4232.114321741025,2,42,0.5501165986061096,4.121300220489502,36.77284223623149,36.10074011938965,147.67299212385225,130.52064960011273,9.70840483205393e-05,0.0953715816140174,0,0,0
12165,446888.3116006555,2010-12-18 16:45:24,4262.1312555362765,2,42,0.5499359965324402,4.124537944793701,36.77742998300904,36.10074011938965,147.69190688922646,130.52064960011273,9.70840483205393e-05,0.0953715816140174,0,0,0
12166,446918.3250499799,2010-12-18 16:45:54,4292.144704770332,2,42,0.550297200679779,4.12809944152832,36.78201711936158,36.10074011938965,147.71083436164,130.52064960011273,0.0001295089750783,0.0953715816140174,0,0,0
12167,446948.3399846604,2010-12-18 16:46:24,4322.159639556126,2,42,0.550297200679779,4.131175518035889,36.78660453530068,36.10074011938965,147.72977835380942,130.52064960011273,6.47544875391759e-05,0.0953715816140174,0,0,0
12168,446978.35508603073,2010-12-18 16:46:54,4352.174740836234,2,42,0.5501165986061096,4.134574890136719,36.79119199759157,36.10074011938965,147.74873805391232,130.52064960011273,6.47544875391759e-05,0.0953715816140174,0,0,0
12169,447008.37022538047,2010-12-18 16:47:24,4382.18988019109,2,42,0.550297200679779,4.137974739074707,36.79577940854043,36.10074011938965,147.7677131321012,130.52064960011273,9.71794142969884e-05,0.0953715816140174,0,0,0
12170,447038.3853181546,2010-12-18 16:47:54,4412.204972960019,2,42,0.550297200679779,4.141536235809326,36.80036688692,36.10074011938965,147.78670421123118,130.52064960011273,9.71794142969884e-05,0.0953715816140174,0,0,0
12171,447068.4005318443,2010-12-18 16:48:24,4442.2201866548685,2,42,0.550297200679779,4.145259380340576,36.804954409080445,36.10074011938965,147.80571133260588,130.52064960011273,0.0001295089750783,0.0953715816140174,0,0,0
12172,447098.4155130957,2010-12-18 16:48:54,4472.235167901277,2,42,0.550297200679779,4.148497104644775,36.80954184408456,36.10074011938965,147.82473428982485,130.52064960011273,6.47544875391759e-05,0.0953715816140174,0,0,0
12173,447128.4307544996,2010-12-18 16:49:24,4502.250409305078,2,42,0.5501165986061096,4.151896953582764,36.814129352659535,36.10074011938965,147.84377350203616,130.52064960011273,6.47544875391759e-05,0.0953715816140174,0,0,0
12174,447158.445757064,2010-12-18 16:49:54,4532.265411859512,2,42,0.550297200679779,4.155458450317383,36.81871674459883,36.10074011938965,147.8628283300574,130.52064960011273,9.71794142969884e-05,0.0953715816140174,0,0,0
12175,447188.46083311137,2010-12-18 16:50:24,4562.280487916854,2,42,0.550297200679779,4.159181594848633,36.82330417077527,36.10074011938965,147.88189953228957,130.52064960011273,0.0001295089750783,0.0953715816140174,0,0,0
12176,447218.47596193,2010-12-18 16:50:54,4592.295616735492,2,42,0.5501165986061096,4.162743091583252,36.82789159035469,36.10074011938965,147.90098700487698,130.52064960011273,0.0001295089750783,0.0953715816140174,0,0,0
12177,447248.4910583279,2010-12-18 16:51:24,4622.310713133452,2,42,0.5501165986061096,4.166304588317871,36.832478983500216,36.10074011938965,147.92009083572904,130.52064960011273,9.70840483205393e-05,0.0953715816140174,0,0,0
12178,447278.5062136374,2010-12-18 16:51:54,4652.325868563309,2,42,0.5501165986061096,4.16986608505249,36.83706641642788,36.10074011938965,147.9392113899383,130.52064960011273,9.70840483205393e-05,0.0953715816140174,0,0,0
12179,447308.5212558907,2010-12-18 16:52:24,4682.340910696233,2,42,0.5501165986061096,4.173589706420898,36.84165384081965,36.10074011938965,147.95834857275213,130.52064960011273,0.0001295089750783,0.0953715816140174,0,0,0
12180,447338.5365909526,2010-12-18 16:52:54,4712.356245763111,2,42,0.550297200679779,4.177151203155518,36.84624128686508,36.10074011938965,147.97750263558143,130.52064960011273,9.71794142969884e-05,0.0953715816140174,0,0,0
12181,447368.5514855735,2010-12-18 16:53:24,4742.371140378943,2,42,0.550297200679779,4.180874347686768,36.85082864080569,36.10074011938965,147.996673186151,130.52064960011273,9.70840483205393e-05,0.0953715816140174,0,0,0
12182,447398.5665969586,2010-12-18 16:53:54,4772.386251764198,2,42,0.5501165986061096,4.184597969055176,36.85541609931235,36.10074011938965,148.01586118880755,130.52064960011273,0.0001295089750783,0.0953715816140174,0,0,0
12183,447428.58183989633,2010-12-18 16:54:24,4802.401494686778,2,42,0.550297200679779,4.188321113586426,36.86000360858315,36.10074011938965,148.03506643180327,130.52064960011273,6.47544875391759e-05,0.0953715816140174,0,0,0
12184,447458.5969278683,2010-12-18 16:54:54,4832.416582663783,2,42,0.550297200679779,4.192044734954834,36.86459100793976,36.10074011938965,148.05428846563376,130.52064960011273,9.71794142969884e-05,0.0953715816140174,0,0,0
12185,447488.6138209322,2010-12-18 16:55:24,4862.433475812888,2,42,0.550297200679779,4.195929527282715,36.86917871163194,36.10074011938965,148.07352908338137,130.52064960011273,0.0001295089750783,0.0953715816140174,0,0,0
12186,447518.62714366143,2010-12-18 16:55:54,4892.446798451917,2,42,0.5504778623580933,4.199653148651123,36.87376574857978,36.10074011938965,148.0927843058565,130.52064960011273,0.0001295089750783,0.0953715816140174,0,0,0
12187,447519.6271202747,2010-12-18 16:55:55,4893.446775080296,2,42,0.550297200679779,4.200138568878174,36.87391859242291,36.10074011938965,148.0934262145995,130.52064960011273,0.0001618385285837,0.0953715816140174,0,0,0
12188,447549.64756959525,2010-12-18 16:56:26,30.01522199049172,3,42,0.0,4.112235069274902,36.87391859242291,36.10074011938965,148.0934262145995,130.52064960011273,-0.0004208564641885,0.0953715816140174,0,0,0
12189,447579.66255310737,2010-12-18 16:56:56,60.03020543236438,3,42,0.0,4.101226806640625,36.87391859242291,36.10074011938965,148.0934262145995,130.52064960011273,-0.0001942634553415,0.0953715816140174,0,0,0
12190,447609.67767755006,2010-12-18 16:57:26,90.04532987511229,3,42,0.0,4.094913005828857,36.87391859242291,36.10074011938965,148.0934262145995,130.52064960011273,-0.0001295089750783,0.0953715816140174,0,0,0
12191,447639.6460144589,2010-12-18 16:57:56,120.01366678388143,3,42,0.0,4.0903801918029785,36.87391859242291,36.10074011938965,148.0934262145995,130.52064960011273,-0.0001619339018361,0.0953715816140174,0,0,0
12192,447639.65331814863,2010-12-18 16:57:56,2.731797974e-06,4,42,1.0265638828277588,4.199814796447754,36.8739185932019,36.10074011938965,148.09342621787113,130.52064960011273,0.0,0.0953715816140174,0,0,0
12193,447640.1066541979,2010-12-18 16:57:56,0.453338896407599,4,42,0.9754514694213868,4.199814796447754,36.87404335327104,36.10074011938965,148.09395017858617,130.52064960011273,0.0,0.0953715816140174,0,0,0
12194,447641.6845495147,2010-12-18 16:57:58,2.031234138028093,4,42,0.9252420663833618,4.199814796447754,36.87445887395749,36.10074011938965,148.0956952491497,130.52064960011273,0.0,0.0953715816140174,0,0,0
12195,447644.20030057954,2010-12-18 16:58:00,4.546985187755684,4,42,0.8750327229499817,4.199814796447754,36.875086793949656,36.10074011938965,148.09833234741072,130.52064960011273,3.23295607813634e-05,0.0953715816140174,0,0,0
12196,447647.7626995924,2010-12-18 16:58:04,8.10938420068401,4,42,0.8250039219856262,4.199814796447754,36.875926752165846,36.10074011938965,148.10185995736623,130.52064960011273,0.0,0.0953715816140174,0,0,0
12197,447652.5282141872,2010-12-18 16:58:09,12.87489880047657,4,42,0.7746139168739319,4.199814796447754,36.87698418190874,36.10074011938965,148.10630090765343,130.52064960011273,3.23295607813634e-05,0.0953715816140174,0,0,0
12198,447658.7311033182,2010-12-18 16:58:15,19.0777879465439,4,42,0.7244045734405518,4.199653148651123,36.878274019968046,36.10074011938965,148.11171791731508,130.52064960011273,3.24249267578125e-05,0.0953715816140174,0,0,0
12199,447666.8872459154,2010-12-18 16:58:23,27.233930538686653,4,42,0.6740145683288574,4.199653148651123,36.8798558668271,36.10074011938965,148.1183612983945,130.52064960011273,-3.23295607813634e-05,0.0953715816140174,0,0,0
12200,447677.8715487706,2010-12-18 16:58:34,38.218233464043216,4,42,0.6239858269691467,4.199814796447754,36.88183272674669,36.10074011938965,148.12666364059876,130.52064960011273,0.0,0.0953715816140174,0,0,0
12201,447693.9962501147,2010-12-18 16:58:50,54.34293472294517,4,42,0.5739570260047913,4.199653148651123,36.88450910915158,36.10074011938965,148.1379038066696,130.52064960011273,-3.23295607813634e-05,0.0953715816140174,0,0,0
12202,447719.9488179967,2010-12-18 16:59:16,80.29550261998125,4,42,0.5239282846450806,4.199653148651123,36.888451368762894,36.10074011938965,148.1544603623004,130.52064960011273,0.0,0.0953715816140174,0,0,0
12203,447766.8542425516,2010-12-18 17:00:03,127.20092717493146,4,42,0.4737188816070556,4.199653148651123,36.8949219087802,36.10074011938965,148.18163511484832,130.52064960011273,-3.23295607813634e-05,0.0953715816140174,0,0,0
12204,447848.0109349994,2010-12-18 17:01:24,208.357619702876,4,42,0.4236901104450226,4.199653148651123,36.90500905677992,36.10074011938965,148.2239988189728,130.52064960011273,0.0,0.0953715816140174,0,0,0
12205,447958.8198589849,2010-12-18 17:03:15,319.1665436632697,4,42,0.3736613392829895,4.199814796447754,36.91726693517953,36.10074011938965,148.27547905784962,130.52064960011273,0.0,0.0953715816140174,0,0,0
12206,448091.3643144594,2010-12-18 17:05:27,451.7109990827174,4,42,0.3236325681209564,4.199814796447754,36.9300942084474,36.10074011938965,148.3293507352347,130.52064960011273,0.0,0.0953715816140174,0,0,0
12207,448251.2368578647,2010-12-18 17:08:07,611.5835425582122,4,42,0.2736037969589233,4.199653148651123,36.94334057103142,36.10074011938965,148.38498245604657,130.52064960011273,-6.47544875391759e-05,0.0953715816140174,0,0,0
12208,448444.7175351135,2010-12-18 17:11:21,805.0642197267816,4,42,0.223394438624382,4.199814796447754,36.95667070040872,36.10074011938965,148.44096596075076,130.52064960011273,-3.24249267578125e-05,0.0953715816140174,0,0,0
12209,448697.885051145,2010-12-18 17:15:34,1058.2317357682389,4,42,0.1733656674623489,4.199814796447754,36.97056820269624,36.10074011938965,148.49933227989413,130.52064960011273,0.0,0.0953715816140174,0,0,0
12210,449061.2850372184,2010-12-18 17:21:37,1421.6317218466722,4,42,0.1233368963003158,4.199653148651123,36.985407182517335,36.10074011938965,148.5616526332348,130.52064960011273,0.0,0.0953715816140174,0,0,0
12211,449693.96168368944,2010-12-18 17:32:10,2054.3083683126856,4,42,0.0733081251382827,4.199653148651123,37.00229804303211,36.10074011938965,148.63259036947255,130.52064960011273,-3.23295607813634e-05,0.0953715816140174,0,0,0
12212,450234.4054983108,2010-12-18 17:41:11,2594.7521829340703,4,42,0.0498289167881011,4.199653148651123,37.01148553720196,36.10074011938965,148.67117572533493,130.52064960011273,-3.23295607813634e-05,0.0953715816140174,0,0,0
12213,450264.42583229154,2010-12-18 17:41:41,30.015088799049945,5,42,0.0,4.191720962524414,37.01148553720196,36.10074011938965,148.67117572533493,130.52064960011273,-3.23295607813634e-05,0.0953715816140174,0,0,0
12214,450294.42531627865,2010-12-18 17:42:11,60.01457276106311,5,42,0.0,4.190425872802734,37.01148553720196,36.10074011938965,148.67117572533493,130.52064960011273,-3.23295607813634e-05,0.0953715816140174,0,0,0
12215,450294.6034916877,2010-12-18 17:42:11,0.187505881173536,6,42,-1.9243103452026844e-05,4.190425872802734,37.01148553720196,36.100740120391926,148.67117572533493,130.52064960431267,0.0,0.0970755815505981,0,0,0
12216,450299.43164289126,2010-12-18 17:42:16,5.015657074720554,6,42,0.0010644125286489,4.190263748168945,37.01148655226398,36.10074012048701,148.67117997890878,130.52064960471114,-6.47544875391759e-05,0.0970755815505981,0,0,0
12217,450329.4530228232,2010-12-18 17:42:46,30.015136322309747,7,42,-1.0997490882873535,4.009275436401367,37.01148655226398,36.109908970388375,148.67117997890878,130.5576195561695,-0.0010037422180175,0.0970755815505981,0,0,0
12218,450359.46820809727,2010-12-18 17:43:16,60.03032160645915,7,42,-1.0997490882873535,3.980783700942993,37.01148655226398,36.11907784184396,148.67117997890878,130.59423971284448,-0.0006151676061563,0.0970755815505981,0,0,0
12219,450389.48340388254,2010-12-18 17:43:46,90.04551738171526,7,42,-1.099568486213684,3.960871696472168,37.01148655226398,36.1282465178856,148.67117997890878,130.63064215625397,-0.0004856586456298,0.0970755815505981,0,0,0
12220,450419.4983025936,2010-12-18 17:44:16,120.06041601755136,7,42,-1.0997490882873535,3.945330619812012,37.01148655226398,36.13741513688926,148.67117997890878,130.66688444930531,-0.0003561496851034,0.0970755815505981,0,0,0
12221,450449.5134161844,2010-12-18 17:44:46,150.0755296082945,7,42,-1.0997490882873535,3.931894063949585,37.01148655226398,36.14658379192655,148.67117997890878,130.70299540147082,-0.0003561496851034,0.0970755815505981,0,0,0
12222,450479.5285276648,2010-12-18 17:45:16,180.0906410937988,7,42,-1.099929690361023,3.919752597808838,37.01148655226398,36.155752440955965,148.67117997890878,130.738989859505,-0.0003561496851034,0.0970755815505981,0,0,0
12223,450509.5455876391,2010-12-18 17:45:46,210.10770113821704,7,42,-1.0997490882873535,3.90842080116272,37.01148655226398,36.16492169241763,148.67117997890878,130.7748792754678,-0.0003237724304199,0.0970755815505981,0,0,0
12224,450539.5587771668,2010-12-18 17:46:16,240.1208905908164,7,42,-1.0997490882873535,3.897574424743652,37.01148655226398,36.17408982221939,148.67117997890878,130.81066290774243,-0.0003237724304199,0.0970755815505981,0,0,0
12225,450569.573847104,2010-12-18 17:46:46,270.1359605329416,7,42,-1.099568486213684,3.887375593185425,37.01148655226398,36.18325845895755,148.67117997890878,130.84635140546575,-0.0002590179501567,0.0970755815505981,0,0,0
12226,450599.58895458456,2010-12-18 17:47:16,300.1510680134797,7,42,-1.099568486213684,3.8773386478424072,37.01148655226398,36.1924271438849,148.67117997890878,130.88194639971968,-0.0002266406954731,0.0970755815505981,0,0,0
12227,450629.60407496215,2010-12-18 17:47:46,330.16618839111175,7,42,-1.0997490882873535,3.8674635887146,37.01148655226398,36.201595841745856,148.67117997890878,130.91745038832804,-0.0002913951757363,0.0970755815505981,0,0,0
12228,450659.6193019601,2010-12-18 17:48:16,360.1814154592389,7,42,-1.099568486213684,3.857912302017212,37.01148655226398,36.210764556747534,148.67117997890878,130.95286541498632,-0.0002590179501567,0.0970755815505981,0,0,0
12229,450689.6342849208,2010-12-18 17:48:46,390.1963983497395,7,42,-1.099568486213684,3.848522901535034,37.01148655226398,36.21993320497037,148.67117997890878,130.9881934080962,-0.0002266406954731,0.0970755815505981,0,0,0
12230,450719.6494115289,2010-12-18 17:49:16,420.21152502303806,7,42,-1.0997490882873535,3.8392953872680655,37.01148655226398,36.22910193909425,148.67117997890878,131.02343652466564,-0.0001942634553415,0.0970755815505981,0,0,0
12231,450749.6645571845,2010-12-18 17:49:46,450.2266707036356,7,42,-1.099929690361023,3.830229997634888,37.01148655226398,36.238270674704125,148.67117997890878,131.0585963906989,-0.0002590179501567,0.0970755815505981,0,0,0
12232,450779.68004284106,2010-12-18 17:50:16,480.24215637027527,7,42,-1.0997490882873535,3.82165002822876,37.01148655226398,36.24743955950097,148.67117997890878,131.0936756373018,-0.0001618862152099,0.0970755815505981,0,0,0
12233,450809.6947173442,2010-12-18 17:50:46,510.2568308382784,7,42,-1.0997490882873535,3.813070058822632,37.01148655226398,36.256608183928456,148.67117997890878,131.12867463553837,-0.0002266406954731,0.0970755815505981,0,0,0
12234,450839.7098259474,2010-12-18 17:51:16,540.2719393764482,7,42,-1.0997490882873535,3.804328203201294,37.01148655226398,36.265776890037976,148.67117997890878,131.16359531564996,-0.0002590179501567,0.0970755815505981,0,0,0
12235,450869.72494626,2010-12-18 17:51:46,570.2870596889181,7,42,-1.0997490882873535,3.796395778656006,37.01148655226398,36.27494560250587,148.67117997890878,131.1984397744129,-0.0001618862152099,0.0970755815505981,0,0,0
12236,450899.7400532292,2010-12-18 17:52:16,600.302166658184,7,42,-1.0997490882873535,3.788301467895508,37.01148655226398,36.284114327449736,148.67117997890878,131.23320972594672,-0.0001942634553415,0.0970755815505981,0,0,0
12237,450929.7552742373,2010-12-18 17:52:46,630.317387836655,7,42,-1.0997490882873535,3.78036904335022,37.01148655226398,36.29328305467074,148.67117997890878,131.2679070000006,-0.0002266406954731,0.0970755815505981,0,0,0
12238,450959.7704072213,2010-12-18 17:53:16,660.3325206301836,7,42,-1.0997490882873535,3.772760391235352,37.01148655226398,36.30245175895839,148.67117997890878,131.30253372418437,-0.0002266406954731,0.0970755815505981,0,0,0
12239,450989.7853770844,2010-12-18 17:53:46,690.3474905133157,7,42,-1.0997490882873535,3.765313625335693,37.01148655226398,36.311620455244245,148.67117997890878,131.33709100787107,-0.0001942634553415,0.0970755815505981,0,0,0
12240,451019.80049600336,2010-12-18 17:54:16,720.3626094323181,7,42,-1.0997490882873535,3.758190631866455,37.01148655226398,36.32078921084218,148.67117997890878,131.37158131435334,-0.0001618862152099,0.0970755815505981,0,0,0
12241,451049.8155933036,2010-12-18 17:54:46,750.3777067325228,7,42,-1.0997490882873535,3.750905990600586,37.01148655226398,36.32995801891101,148.67117997890878,131.406006093403,-0.0002266406954731,0.0970755815505981,0,0,0
12242,451079.830694323,2010-12-18 17:55:16,780.3928077519827,7,42,-1.0997490882873535,3.744106769561768,37.01148655226398,36.33912675655698,148.67117997890878,131.44036654431747,-0.0001942634553415,0.0970755815505981,0,0,0
12243,451109.84769799217,2010-12-18 17:55:46,810.4098115063252,7,42,-1.0997490882873535,3.737307548522949,37.01148655226398,36.34829607284163,148.67117997890878,131.47466641786522,-0.0001942634553415,0.0970755815505981,0,0,0
12244,451139.8609194344,2010-12-18 17:56:16,840.4230328633176,7,42,-1.099568486213684,3.730832099914551,37.01148655226398,36.3574642557073,148.67117997890878,131.50890058757747,-0.0001618862152099,0.0970755815505981,0,0,0
12245,451169.8760465487,2010-12-18 17:56:46,870.4381599777136,7,42,-1.0997490882873535,3.7241947650909424,37.01148655226398,36.36663299137487,148.67117997890878,131.54307731506478,-0.0001942634553415,0.0970755815505981,0,0,0
12246,451199.8911421798,2010-12-18 17:57:16,900.453255608765,7,42,-1.099568486213684,3.718204975128174,37.01148655226398,36.3758017619595,148.67117997890878,131.57719560537856,-0.0001295089750783,0.0970755815505981,0,0,0
12247,451229.90625890833,2010-12-18 17:57:46,930.4683723373164,7,42,-1.0997490882873535,3.711567640304565,37.01148655226398,36.384970471443225,148.67117997890878,131.61125589534177,-0.0001618862152099,0.0970755815505981,0,0,0
12248,451259.92135152686,2010-12-18 17:58:16,960.483464955871,7,42,-1.099929690361023,3.705415964126587,37.01148655226398,36.394139216462,148.67117997890878,131.64525928319847,-0.0001942634553415,0.0970755815505981,0,0,0
12249,451289.9364730974,2010-12-18 17:58:46,990.4985865214592,7,42,-1.099568486213684,3.6994261741638175,37.01148655226398,36.40330804191426,148.67117997890878,131.67920681909678,-0.0001295089750783,0.0970755815505981,0,0,0
12250,451319.9515694804,2010-12-18 17:59:16,1020.5136829093938,7,42,-1.0997490882873535,3.69343638420105,37.01148655226398,36.41247675700114,148.67117997890878,131.71309875169294,-0.0001942634553415,0.0970755815505981,0,0,0
12251,451349.9666817478,2010-12-18 17:59:46,1050.5287951718317,7,42,-1.0997490882873535,3.687608480453491,37.01148655226398,36.42164555193984,148.67117997890878,131.7469371246804,-0.0001618862152099,0.0970755815505981,0,0,0
12252,451379.981815564,2010-12-18 18:00:16,1080.5439289778794,7,42,-1.099568486213684,3.682104349136353,37.01148655226398,36.43081431321842,148.67117997890878,131.78072259028556,-0.0001295089750783,0.0970755815505981,0,0,0
12253,451409.99689106486,2010-12-18 18:00:46,1110.5590044938751,7,42,-1.099929690361023,3.676276445388794,37.01148655226398,36.43998306556746,148.67117997890878,131.81445565261168,-0.0001295089750783,0.0970755815505981,0,0,0
12254,451440.01199597406,2010-12-18 18:01:16,1140.5741094030143,7,42,-1.099929690361023,3.670610666275024,37.01148655226398,36.44915185687084,148.67117997890878,131.84813749804576,-0.0001295089750783,0.0970755815505981,0,0,0
12255,451470.027122497,2010-12-18 18:01:46,1170.5892359209265,7,42,-1.099568486213684,3.665268421173096,37.01148655226398,36.45832070544765,148.67117997890878,131.88176920998097,-0.0001618862152099,0.0970755815505981,0,0,0
12256,451500.0422752151,2010-12-18 18:02:16,1200.6043886691114,7,42,-1.0997490882873535,3.659926176071167,37.01148655226398,36.46748959851989,148.67117997890878,131.9153518647143,-0.0001618862152099,0.0970755815505981,0,0,0
12257,451530.05734987895,2010-12-18 18:02:46,1230.619463307924,7,42,-1.0997490882873535,3.654745817184448,37.01148655226398,36.47665833553639,148.67117997890878,131.9488856414339,-0.0001618862152099,0.0970755815505981,0,0,0
12258,451560.0724263273,2010-12-18 18:03:16,1260.6345397562395,7,42,-1.0997490882873535,3.6495654582977295,37.01148655226398,36.48582712148698,148.67117997890878,131.98237200059685,-0.0001618862152099,0.0970755815505981,0,0,0
12259,451590.08769999136,2010-12-18 18:03:47,1290.6498134002693,7,42,-1.099568486213684,3.6443850994110103,37.01148655226398,36.49499589399897,148.67117997890878,132.0158113677289,-0.0001618862152099,0.0970755815505981,0,0,0
12260,451620.1027734372,2010-12-18 18:04:17,1320.664886931325,7,42,-1.0997490882873535,3.639690399169922,37.01148655226398,36.50416460971827,148.67117997890878,132.04920444839544,-9.713172767078504e-05,0.0970755815505981,0,0,0
12261,451650.1177900365,2010-12-18 18:04:47,1350.6799034605344,7,42,-1.0993878841400146,3.634995698928833,37.01148655226398,36.51333336356177,148.67117997890878,132.08255245939674,-6.47544875391759e-05,0.0970755815505981,0,0,0
12262,451680.1328612819,2010-12-18 18:05:17,1380.6949747109152,7,42,-1.099568486213684,3.630139112472534,37.01148655226398,36.52250204002203,148.67117997890878,132.11585618092923,-6.47544875391759e-05,0.0970755815505981,0,0,0
12263,451710.1499788445,2010-12-18 18:05:47,1410.7120923235898,7,42,-1.0997490882873535,3.6252825260162354,37.01148655226398,36.53167141644718,148.67117997890878,132.14911872705315,-9.713172767078504e-05,0.0970755815505981,0,0,0
12264,451740.1630777016,2010-12-18 18:06:17,1440.7251911105714,7,42,-1.0997490882873535,3.620749711990357,37.01148655226398,36.540839583773234,148.67117997890878,132.1823347798657,-0.0001295089750783,0.0970755815505981,0,0,0
12265,451770.17818147794,2010-12-18 18:06:47,1470.7402949069417,7,42,-1.0997490882873535,3.6162168979644775,37.01148655226398,36.55000835864356,148.67117997890878,132.21551183057974,-0.0001295089750783,0.0970755815505981,0,0,0
12266,451800.1934541245,2010-12-18 18:07:17,1500.7555675384515,7,42,-1.0997490882873535,3.6118459701538086,37.01148655226398,36.559177206943644,148.67117997890878,132.24864877486226,-0.0001618862152099,0.0970755815505981,0,0,0
12267,451830.20841491,2010-12-18 18:07:47,1530.7705283339697,7,42,-1.0997490882873535,3.60779881477356,37.01148655226398,36.56834595153699,148.67117997890878,132.28174605575214,-0.0001295089750783,0.0970755815505981,0,0,0
12268,451860.22351438063,2010-12-18 18:08:17,1560.7856278045751,7,42,-1.099568486213684,3.6035897731781006,37.01148655226398,36.57751468203093,148.67117997890878,132.3148048992091,-0.0001295089750783,0.0970755815505981,0,0,0
12269,451890.2386319763,2010-12-18 18:08:47,1590.800745405297,7,42,-1.0997490882873535,3.599542617797852,37.01148655226398,36.58668343136583,148.67117997890878,132.34782642613868,-9.713172767078504e-05,0.0970755815505981,0,0,0
12270,451920.253731081,2010-12-18 18:09:17,1620.8158444949547,7,42,-1.0997490882873535,3.5956573486328125,37.01148655226398,36.595852187179965,148.67117997890878,132.3808115478925,-9.713172767078504e-05,0.0970755815505981,0,0,0
12271,451950.2689735876,2010-12-18 18:09:47,1650.8310870015,7,42,-1.0997490882873535,3.5917723178863525,37.01148655226398,36.6050210360037,148.67117997890878,132.41376156756914,-9.70840483205393e-05,0.0970755815505981,0,0,0
12272,451980.28392396215,2010-12-18 18:10:17,1680.8460373911234,7,42,-1.099568486213684,3.5882108211517334,37.01148655226398,36.61418976745071,148.67117997890878,132.44667672057113,-9.713172767078504e-05,0.0970755815505981,0,0,0
12273,452010.2990544048,2010-12-18 18:10:47,1710.8611678137518,7,42,-1.0997490882873535,3.5844874382019043,37.01148655226398,36.62335864067519,148.67117997890878,132.47955868452354,-6.47544875391759e-05,0.0970755815505981,0,0,0
12274,452040.31420177466,2010-12-18 18:11:17,1740.8763152036029,7,42,-1.099929690361023,3.580764055252075,37.01148655226398,36.63252745510132,148.67117997890878,132.51240786802043,-0.0001295089750783,0.0970755815505981,0,0,0
12275,452070.3293062427,2010-12-18 18:11:47,1770.8914196716444,7,42,-1.0997490882873535,3.577526330947876,37.01148655226398,36.64169630162096,148.67117997890878,132.54522511209092,-9.713172767078504e-05,0.0970755815505981,0,0,0
12276,452100.3444207557,2010-12-18 18:12:17,1800.906534274907,7,42,-1.0997490882873535,3.574126720428467,37.01148655226398,36.65086503091826,148.67117997890878,132.57801033959242,-9.713172767078504e-05,0.0970755815505981,0,0,0
12277,452130.3595098455,2010-12-18 18:12:47,1830.921623274456,7,42,-1.0997490882873535,3.570565223693848,37.01148655226398,36.66003380889694,148.67117997890878,132.6107646171966,-0.0001295089750783,0.0970755815505981,0,0,0
12278,452160.37748147326,2010-12-18 18:13:17,1860.9395949875268,7,42,-1.0997490882873535,3.5673274993896484,37.01148655226398,36.66920345494548,148.67117997890878,132.64349125719838,-9.713172767078504e-05,0.0970755815505981,0,0,0
12279,452190.3897518839,2010-12-18 18:13:47,1890.951865297876,7,42,-1.099568486213684,3.564089775085449,37.01148655226398,36.678371393488845,148.67117997890878,132.6761812867758,-6.47544875391759e-05,0.0970755815505981,0,0,0
12280,452220.40490409074,2010-12-18 18:14:17,1920.9670175849133,7,42,-1.0997490882873535,3.56085205078125,37.01148655226398,36.68754016919433,148.67117997890878,132.7088443176023,-9.713172767078504e-05,0.0970755815505981,0,0,0
12281,452250.419945963,2010-12-18 18:14:47,1950.982059376988,7,42,-1.0997490882873535,3.557452440261841,37.01148655226398,36.69670887803221,148.67117997890878,132.741477006283,-9.713172767078504e-05,0.0970755815505981,0,0,0
12282,452280.43514168815,2010-12-18 18:15:17,1980.997255232444,7,42,-1.0997490882873535,3.5542147159576416,37.01148655226398,36.705877707859045,148.67117997890878,132.77407952772697,-9.713172767078504e-05,0.0970755815505981,0,0,0
12283,452310.452113448,2010-12-18 18:15:47,2011.0142269270068,7,42,-1.099568486213684,3.5508151054382324,37.01148655226398,36.71504712977833,148.67117997890878,132.80665317849576,-6.47544875391759e-05,0.0970755815505981,0,0,0
12284,452340.46525189857,2010-12-18 18:16:17,2041.027365327565,7,42,-1.099568486213684,3.5474154949188232,37.01148655226398,36.724215284422186,148.67117997890878,132.83919146548143,-6.47544875391759e-05,0.0970755815505981,0,0,0
12285,452370.4803571685,2010-12-18 18:16:47,2071.042470582565,7,42,-1.099568486213684,3.544015884399414,37.01148655226398,36.73338396911805,148.67117997890878,132.87170028601645,-6.47544875391759e-05,0.0970755815505981,0,0,0
12286,452400.49547104514,2010-12-18 18:17:17,2101.0575844690443,7,42,-1.0997490882873535,3.540292501449585,37.01148655226398,36.74255256965333,148.67117997890878,132.904176986585,-9.713172767078504e-05,0.0970755815505981,0,0,0
12287,452430.5107006194,2010-12-18 18:17:47,2131.072814043408,7,42,-1.0997490882873535,3.536731004714966,37.01148655226398,36.75172134323796,148.67117997890878,132.93662158227602,-9.713172767078504e-05,0.0970755815505981,0,0,0
12288,452460.5256883119,2010-12-18 18:18:17,2161.087801735858,7,42,-1.099568486213684,3.5333313941955566,37.01148655226398,36.76089086603105,148.67117997890878,132.96903552552126,-6.47544875391759e-05,0.0970755815505981,0,0,0
12289,452490.5407907599,2010-12-18 18:18:47,2191.1029041688357,7,42,-1.0997490882873535,3.529284238815308,37.01148655226398,36.77006036165312,148.67117997890878,133.001415328416,-0.0001295089750783,0.0970755815505981,0,0,0
12290,452520.55596491136,2010-12-18 18:19:17,2221.1180784105063,7,42,-1.0997490882873535,3.5255608558654785,37.01148655226398,36.77922917681242,148.67117997890878,133.03375827919183,-0.0001295089750783,0.0970755815505981,0,0,0
12291,452550.5710375352,2010-12-18 18:19:47,2251.13315096413,7,42,-1.0997490882873535,3.5216755867004395,37.01148655226398,36.788398021527954,148.67117997890878,133.0660649067299,-6.47544875391759e-05,0.0970755815505981,0,0,0
12292,452580.5863833338,2010-12-18 18:20:17,2281.1484967326387,7,42,-1.0997490882873535,3.5173046588897705,37.01148655226398,36.79756688873342,148.67117997890878,133.09833431806803,-0.0001295089750783,0.0970755815505981,0,0,0
12293,452610.6012477244,2010-12-18 18:20:47,2311.163361153332,7,42,-1.0997490882873535,3.5129337310791016,37.01148655226398,36.80673570017803,148.67117997890878,133.13056454799425,-0.0001295089750783,0.0970755815505981,0,0,0
12294,452640.6163814503,2010-12-18 18:21:17,2341.178494844093,7,42,-1.0997490882873535,3.508563041687012,37.01148655226398,36.81590458308706,148.67117997890878,133.16275471630073,-9.713172767078504e-05,0.0970755815505981,0,0,0
12295,452670.6314751013,2010-12-18 18:21:47,2371.193588530304,7,42,-1.099568486213684,3.503706455230713,37.01148655226398,36.82507350663644,148.67117997890878,133.19490267948484,-0.0001618862152099,0.0970755815505981,0,0,0
12296,452700.6468004991,2010-12-18 18:22:17,2401.208914003309,7,42,-1.0997490882873535,3.498687982559204,37.01148655226398,36.834242433651205,148.67117997890878,133.22700558351178,-0.0001295089750783,0.0970755815505981,0,0,0
12297,452730.6616871301,2010-12-18 18:22:47,2431.22380073452,7,42,-1.0997490882873535,3.493183851242065,37.01148655226398,36.84341129125398,148.67117997890878,133.25905974618723,-0.0001295089750783,0.0970755815505981,0,0,0
12298,452760.6767991419,2010-12-18 18:23:17,2461.238912570898,7,42,-1.0997490882873535,3.487032175064087,37.01148655226398,36.85258021146477,148.67117997890878,133.29106128945605,-0.0001618862152099,0.0970755815505981,0,0,0
12299,452790.69193794543,2010-12-18 18:23:47,2491.254051344307,7,42,-1.0997490882873535,3.4803948402404785,37.01148655226398,36.86174914586417,148.67117997890878,133.32300463910914,-0.0002266406954731,0.0970755815505981,0,0,0
12300,452820.7070258071,2010-12-18 18:24:17,2521.269139216049,7,42,-1.0997490882873535,3.4727861881256104,37.01148655226398,36.87091802451264,148.67117997890878,133.35488191785657,-0.0001942634553415,0.0970755815505981,0,0,0
12301,452850.7222782283,2010-12-18 18:24:47,2551.2843916523043,7,42,-1.0997490882873535,3.4640443325042725,37.01148655226398,36.88008697531046,148.67117997890878,133.38668486035732,-0.0002590179501567,0.0970755815505981,0,0,0
12302,452880.73724257766,2010-12-18 18:25:17,2581.2993560016657,7,42,-1.0997490882873535,3.453845500946045,37.01148655226398,36.88925582146673,148.67117997890878,133.418400796159,-0.0003237724304199,0.0970755815505981,0,0,0
12303,452910.7541944579,2010-12-18 18:25:47,2611.3163079571086,7,42,-1.099929690361023,3.441542148590088,37.01148655226398,36.89842522336512,148.67117997890878,133.45001604984026,-0.0003561496851034,0.0970755815505981,0,0,0
12304,452940.7675728608,2010-12-18 18:26:17,2641.329686269679,7,42,-1.0997490882873535,3.4264869689941406,37.01148655226398,36.90759363111787,148.67117997890878,133.48150431603736,-0.0004532813909463,0.0970755815505981,0,0,0
12305,452970.7825610093,2010-12-18 18:26:47,2671.3446744383136,7,42,-1.099568486213684,3.408031940460205,37.01148655226398,36.916762546460056,148.67117997890878,133.5128416860939,-0.0005827903514727,0.0970755815505981,0,0,0
12306,453000.7976736277,2010-12-18 18:27:17,2701.3597870416,7,42,-1.0997490882873535,3.384234666824341,37.01148655226398,36.92593141864837,148.67117997890878,133.5439856362674,-0.0007122993702068,0.0970755815505981,0,0,0
12307,453030.8128060853,2010-12-18 18:27:47,2731.374919509318,7,42,-1.099568486213684,3.3526668548583984,37.01148655226398,36.93510027126951,148.67117997890878,133.57487706521962,-0.0009389400365762,0.0970755815505981,0,0,0
12308,453060.8279134456,2010-12-18 18:28:17,2761.390026854519,7,42,-1.0997490882873535,3.310252904891968,37.01148655226398,36.94426920289305,148.67117997890878,133.60543226218732,-0.0012627125252038,0.0970755815505981,0,0,0
12309,453090.8430086908,2010-12-18 18:28:47,2791.405122119659,7,42,-1.0997490882873535,3.252297878265381,37.01148655226398,36.95343810502932,148.67117997890878,133.63553191218395,-0.0017807483673095,0.0970755815505981,0,0,0
12310,453120.858468513,2010-12-18 18:29:17,2821.4205819921112,7,42,-1.0997490882873535,3.1713550090789795,37.01148655226398,36.96260705261524,148.67117997890878,133.6650031852997,-0.0024930476211011,0.0970755815505981,0,0,0
12311,453150.8732607943,2010-12-18 18:29:47,2851.435374203113,7,42,-1.0997490882873535,3.0523688793182373,37.01148655226398,36.97177587572774,148.67117997890878,133.69357330044048,-0.0037881373427808,0.0970755815505981,0,0,0
12312,453180.4196005994,2010-12-18 18:30:17,2880.9817140784958,7,42,-1.0997490882873535,2.852278232574463,37.01148655226398,36.9808014977108,148.67117997890878,133.7203096210759,-0.0068639279343187,0.0970755815505981,0,0,0
12313,453196.57568325975,2010-12-18 18:30:33,2897.1377967588573,7,42,-1.099929690361023,2.699458122253418,37.01148655226398,36.98573677613594,148.67117997890878,133.7340144739996,-0.0077057359740138,0.0970755815505981,0,0,0
12314,453256.59756053553,2010-12-18 18:31:33,60.01268109873416,8,42,0.0,3.4099745750427246,37.01148655226398,36.98573677613594,148.67117997890878,133.7340144739996,0.0013922214275225,0.0970755815505981,0,0,0
12315,453256.79534594814,2010-12-18 18:31:33,0.187431125146036,9,42,-1.9243103452026844e-05,3.4101364612579346,37.01148655226398,36.98573677713782,148.67117997890878,133.73401447741614,0.0,0.0931148082017898,0,0,0
12316,453261.6237217406,2010-12-18 18:31:38,5.015806932636214,9,42,0.0008838032954372,3.4183926582336426,37.01148749501392,36.98573677738036,148.67118319842578,133.7340144782445,0.0011332035064697,0.0931148082017898,0,0,0
