Data_Point,Test_Time(s),Date_Time,Step_Time(s),Step_Index,Cycle_Index,Current(A),Voltage(V),Charge_Capacity(Ah),Discharge_Capacity(Ah),Charge_Energy(Wh),Discharge_Energy(Wh),dV/dt(V/s),Internal_Resistance(Ohm),Is_FC_Data,AC_Impedance(Ohm),ACI_Phase_Angle(Deg)
12911,474769.3987935343,2010-12-19 00:30:09,30.015111395279792,1,45,0.0,3.454169273376465,38.78166781347301,38.75527468329904,155.76843185037288,140.1599349362472,0.0007770538213662,0.0946486890316009,0,0,0
12912,474799.4158418596,2010-12-19 00:30:39,60.03215979572244,1,45,0.0,3.4794235229492188,38.78166781347301,38.75527468329904,155.76843185037288,140.1599349362472,0.0006151676061563,0.0946486890316009,0,0,0
12913,474829.4290373322,2010-12-19 00:31:09,90.04535517807776,1,45,0.0,3.498202323913574,38.78166781347301,38.75527468329904,155.76843185037288,140.1599349362472,0.0004532813909463,0.0946486890316009,0,0,0
12914,474859.3972672647,2010-12-19 00:31:39,120.01358512567812,1,45,0.0,3.5130956172943115,38.78166781347301,38.75527468329904,155.76843185037288,140.1599349362472,0.0003237247583456,0.0946486890316009,0,0,0
12915,474889.41656674456,2010-12-19 00:32:09,30.01498448446712,2,45,0.550297200679779,3.659116744995117,38.78625527449531,38.75527468329904,155.78507985469255,140.1599349362472,0.0012627125252038,0.0946486890316009,0,0,0
12916,474919.4317548608,2010-12-19 00:32:39,60.03017260066396,2,45,0.550297200679779,3.697645425796509,38.79084268880063,38.75527468329904,155.80196041512377,140.1599349362472,0.0008418083307333,0.0946486890316009,0,0,0
12917,474949.4467410194,2010-12-19 00:33:09,90.04515874927225,2,45,0.550297200679779,3.725004196166992,38.795430144096784,38.75527468329904,155.81898901880797,140.1599349362472,0.0006475448608398,0.0946486890316009,0,0,0
12918,474979.4620192248,2010-12-19 00:33:39,120.06043694964006,2,45,0.5501165986061096,3.745239973068237,38.80001760231456,38.75527468329904,155.8361260923189,140.1599349362472,0.0004209041653666,0.0946486890316009,0,0,0
12919,475009.4770025714,2010-12-19 00:34:09,150.07542029627572,2,45,0.5501165986061096,3.760618925094605,38.80460490860846,38.75527468329904,155.85334410610275,140.1599349362472,0.0003885269106831,0.0946486890316009,0,0,0
12920,475039.4921167235,2010-12-19 00:34:39,180.09053444841587,2,45,0.550297200679779,3.770817756652832,38.80919230983855,38.75527468329904,155.87061993345324,140.1599349362472,0.0002590179501567,0.0946486890316009,0,0,0
12921,475069.5072431412,2010-12-19 00:35:09,210.10566086607827,2,45,0.5501165986061096,3.7776169776916495,38.81377970157228,38.75527468329904,155.8879341565512,140.1599349362472,0.0001618862152099,0.0946486890316009,0,0,0
12922,475099.522317379,2010-12-19 00:35:39,240.1207351038931,2,45,0.550297200679779,3.783282995223999,38.818367093907376,38.75527468329904,155.90527687258538,140.1599349362472,0.0001618862152099,0.0946486890316009,0,0,0
12923,475129.53754739946,2010-12-19 00:36:09,270.13596520957924,2,45,0.5501165986061096,3.788301467895508,38.82295450376152,38.75527468329904,155.92264414614118,140.1599349362472,0.0001618862152099,0.0946486890316009,0,0,0
12924,475159.5525413375,2010-12-19 00:36:39,300.150959062359,2,45,0.550297200679779,3.793158054351807,38.82754196682426,38.75527468329904,155.9400341346516,140.1599349362472,9.713172767078504e-05,0.0946486890316009,0,0,0
12925,475189.5676541362,2010-12-19 00:37:09,330.16607188118127,2,45,0.5501165986061096,3.797528982162476,38.832129379466345,38.75527468329904,155.95744514103197,140.1599349362472,9.713172767078504e-05,0.0946486890316009,0,0,0
12926,475219.5848301944,2010-12-19 00:37:39,360.1832479944323,2,45,0.5501165986061096,3.801899909973145,38.83671714805794,38.75527468329904,155.97487775968506,140.1599349362472,9.713172767078504e-05,0.0946486890316009,0,0,0
12927,475249.5981275555,2010-12-19 00:38:09,390.19654535054536,2,45,0.550297200679779,3.8062708377838135,38.84130428912727,38.75527468329904,155.9923274860426,140.1599349362472,0.0001295089750783,0.0946486890316009,0,0,0
12928,475279.6130363968,2010-12-19 00:38:39,420.211454126615,2,45,0.550297200679779,3.8103179931640634,38.84589177480617,38.75527468329904,156.00979735824464,140.1599349362472,0.0001295089750783,0.0946486890316009,0,0,0
12929,475309.62812266446,2010-12-19 00:39:09,450.22654040439096,2,45,0.5501165986061096,3.8142032623291016,38.85047924466368,38.75527468329904,156.02728555685115,140.1599349362472,9.713172767078504e-05,0.0946486890316009,0,0,0
12930,475339.6433834465,2010-12-19 00:39:39,480.2418011864139,2,45,0.550297200679779,3.8180885314941406,38.85506674887876,38.75527468329904,156.0447920439697,140.1599349362472,9.713172767078504e-05,0.0946486890316009,0,0,0
12931,475369.6583559261,2010-12-19 00:40:09,510.25677366600735,2,45,0.550297200679779,3.82197380065918,38.85965419432809,38.75527468329904,156.06231600667792,140.1599349362472,0.0001295089750783,0.0946486890316009,0,0,0
12932,475399.6734841232,2010-12-19 00:40:39,540.2719018630978,2,45,0.550297200679779,3.825697183609009,38.86424156296484,38.75527468329904,156.07985710862968,140.1599349362472,9.713172767078504e-05,0.0946486890316009,0,0,0
12933,475429.6885839296,2010-12-19 00:41:09,570.2870016695392,2,45,0.550297200679779,3.829582452774048,38.86882892400748,38.75527468329904,156.097415719883,140.1599349362472,0.0001295089750783,0.0946486890316009,0,0,0
12934,475459.70373133954,2010-12-19 00:41:39,600.3021490644026,2,45,0.5504778623580933,3.833305597305298,38.8734163471695,38.75527468329904,156.11499214791525,140.1599349362472,9.70840483205393e-05,0.0946486890316009,0,0,0
12935,475489.71886769193,2010-12-19 00:42:09,630.3172854318246,2,45,0.550297200679779,3.837190866470337,38.878003772949455,38.75527468329904,156.13258617284896,140.1599349362472,6.47544875391759e-05,0.0946486890316009,0,0,0
12936,475519.7339361053,2010-12-19 00:42:39,660.3323538451455,2,45,0.550297200679779,3.841238021850586,38.88259118177202,38.75527468329904,156.1501977804601,140.1599349362472,0.0001295089750783,0.0946486890316009,0,0,0
12937,475549.74906822713,2010-12-19 00:43:09,690.347485972015,2,45,0.5499359965324402,3.844799518585205,38.88717859032708,38.75527468329904,156.1678270230898,140.1599349362472,9.713172767078504e-05,0.0946486890316009,0,0,0
12938,475579.7646053969,2010-12-19 00:43:39,720.3630231217684,2,45,0.550297200679779,3.848684787750244,38.89176609978469,38.75527468329904,156.1854742264876,140.1599349362472,9.713172767078504e-05,0.0946486890316009,0,0,0
12939,475609.7793051528,2010-12-19 00:44:09,750.3777228776995,2,45,0.550297200679779,3.852408170700073,38.89635349320153,38.75527468329904,156.20313837897817,140.1599349362472,9.713172767078504e-05,0.0946486890316009,0,0,0
12940,475639.79441236274,2010-12-19 00:44:39,780.3928301577387,2,45,0.5501165986061096,3.8561315536499023,38.90094094580057,38.75527468329904,156.2208198061614,140.1599349362472,6.47544875391759e-05,0.0946486890316009,0,0,0
12941,475669.8097173848,2010-12-19 00:45:09,810.4081351247142,2,45,0.5501165986061096,3.8596930503845215,38.905528387249866,38.75527468329904,156.23851797491116,140.1599349362472,9.713172767078504e-05,0.0946486890316009,0,0,0
12942,475699.82467155386,2010-12-19 00:45:39,840.4230892787051,2,45,0.550297200679779,3.863416433334351,38.91011590736978,38.75527468329904,156.25623274213797,140.1599349362472,6.47544875391759e-05,0.0946486890316009,0,0,0
12943,475729.839751185,2010-12-19 00:46:09,870.4381689099413,2,45,0.5499359965324402,3.86649227142334,38.91470333028101,38.75527468329904,156.27396281043653,140.1599349362472,6.47544875391759e-05,0.0946486890316009,0,0,0
12944,475759.8548677332,2010-12-19 00:46:39,900.4532854780936,2,45,0.550297200679779,3.869891881942749,38.91929082167148,38.75527468329904,156.2917083772069,140.1599349362472,9.713172767078504e-05,0.0946486890316009,0,0,0
12945,475789.8699933338,2010-12-19 00:47:09,930.4684110737104,2,45,0.550297200679779,3.872805833816528,38.9238782948168,38.75527468329904,156.30946845895156,140.1599349362472,3.237724376958795e-05,0.0946486890316009,0,0,0
12946,475819.88700480736,2010-12-19 00:47:39,960.4854226274614,2,45,0.5501165986061096,3.8758816719055176,38.92846602196418,38.75527468329904,156.327243433088,140.1599349362472,6.47544875391759e-05,0.0946486890316009,0,0,0
12947,475849.9003519975,2010-12-19 00:48:09,990.4987697925222,2,45,0.5501165986061096,3.878633737564087,38.9330532037008,38.75527468329904,156.34502960098968,140.1599349362472,3.237724376958795e-05,0.0946486890316009,0,0,0
12948,475879.9153339407,2010-12-19 00:48:39,1020.5137516855406,2,45,0.550297200679779,3.881547689437866,38.93764068070231,38.75527468329904,156.36282943645617,140.1599349362472,9.713172767078504e-05,0.0946486890316009,0,0,0
12949,475909.9304758618,2010-12-19 00:49:09,1050.5288936017705,2,45,0.5501165986061096,3.883975982666016,38.9422281852756,38.75527468329904,156.38064126450178,140.1599349362472,6.47544875391759e-05,0.0946486890316009,0,0,0
12950,475939.9455917834,2010-12-19 00:49:39,1080.5440095283263,2,45,0.5499359965324402,3.886242389678955,38.94681560881311,38.75527468329904,156.39846392423507,140.1599349362472,6.47544875391759e-05,0.0946486890316009,0,0,0
12951,475969.9608095634,2010-12-19 00:50:09,1110.5592272882905,2,45,0.5499359965324402,3.8885087966918954,38.95140311485363,38.75527468329904,156.4162976134957,140.1599349362472,3.237724376958795e-05,0.0946486890316009,0,0,0
12952,475999.9760623305,2010-12-19 00:50:39,1140.5744802358176,2,45,0.5501165986061096,3.890613317489624,38.95599065983007,38.75527468329904,156.43414162236658,140.1599349362472,3.237724376958795e-05,0.0946486890316009,0,0,0
12953,476029.9909175583,2010-12-19 00:51:09,1170.589335298223,2,45,0.5501165986061096,3.8927178382873535,38.96057810624758,38.75527468329904,156.45199490976145,140.1599349362472,3.237724376958795e-05,0.0946486890316009,0,0,0
12954,476060.0060729631,2010-12-19 00:51:40,1200.6044907832184,2,45,0.550297200679779,3.894822359085083,38.96516561612967,38.75527468329904,156.46985777507092,140.1599349362472,6.47544875391759e-05,0.0946486890316009,0,0,0
12955,476090.0212819462,2010-12-19 00:52:10,1230.6196997563163,2,45,0.550297200679779,3.8966031074523926,38.96975309248349,38.75527468329904,156.48772898486,140.1599349362472,6.47544875391759e-05,0.0946486890316009,0,0,0
12956,476120.03629357327,2010-12-19 00:52:40,1260.6347112981148,2,45,0.550297200679779,3.898545742034912,38.97434052460862,38.75527468329904,156.50560888270277,140.1599349362472,3.237724376958795e-05,0.0946486890316009,0,0,0
12957,476150.0513781066,2010-12-19 00:53:10,1290.6497958465875,2,45,0.5501165986061096,3.9003264904022217,38.97892798084416,38.75527468329904,156.5234973421462,140.1599349362472,3.237724376958795e-05,0.0946486890316009,0,0,0
12958,476180.06651471474,2010-12-19 00:53:40,1320.6649324395707,2,45,0.5499359965324402,3.9021072387695312,38.98351540056986,38.75527468329904,156.5413939927376,140.1599349362472,3.237724376958795e-05,0.0946486890316009,0,0,0
12959,476210.0817365648,2010-12-19 00:54:10,1350.6801543047509,2,45,0.550297200679779,3.904049873352051,38.98810283357991,38.75527468329904,156.5592988424686,140.1599349362472,6.47544875391759e-05,0.0946486890316009,0,0,0
12960,476240.0967242823,2010-12-19 00:54:40,1380.695142022263,2,45,0.550297200679779,3.9056687355041504,38.9926902434695,38.75527468329904,156.57721161488067,140.1599349362472,6.47544875391759e-05,0.0946486890316009,0,0,0
12961,476270.1118494469,2010-12-19 00:55:10,1410.7102671868072,2,45,0.5501165986061096,3.90728759765625,38.99727768277379,38.75527468329904,156.59513249375723,140.1599349362472,3.237724376958795e-05,0.0946486890316009,0,0,0
12962,476300.1269695138,2010-12-19 00:55:40,1440.7253872536658,2,45,0.5501165986061096,3.9092302322387695,39.00186506623,38.75527468329904,156.61306106593358,140.1599349362472,3.237724376958795e-05,0.0946486890316009,0,0,0
12963,476330.1420970191,2010-12-19 00:56:10,1470.7405147439974,2,45,0.550297200679779,3.910849094390869,39.006452529755975,38.75527468329904,156.6309979143939,140.1599349362472,6.47544875391759e-05,0.0946486890316009,0,0,0
12964,476360.1571894572,2010-12-19 00:56:40,1500.7556071971403,2,45,0.550297200679779,3.9126298427581783,39.01103997124882,38.75527468329904,156.64894259280612,140.1599349362472,3.237724376958795e-05,0.0946486890316009,0,0,0
12965,476390.1723550323,2010-12-19 00:57:10,1530.770772772245,2,45,0.5501165986061096,3.914248466491699,39.01562743926457,38.75527468329904,156.66689527226296,140.1599349362472,3.237724376958795e-05,0.0946486890316009,0,0,0
12966,476420.1893092184,2010-12-19 00:57:40,1560.787727038438,2,45,0.550297200679779,3.916029214859009,39.02021522154392,38.75527468329904,156.6848570572652,140.1599349362472,9.713172767078504e-05,0.0946486890316009,0,0,0
12967,476450.2025574722,2010-12-19 00:58:10,1590.8009752121625,2,45,0.5501165986061096,3.917648077011109,39.024802390475536,38.75527468329904,156.70282430094952,140.1599349362472,3.237724376958795e-05,0.0946486890316009,0,0,0
12968,476480.2176663263,2010-12-19 00:58:40,1620.8160840661185,2,45,0.5499359965324402,3.919266939163208,39.0293897943064,38.75527468329904,156.72080034238792,140.1599349362472,3.237724376958795e-05,0.0946486890316009,0,0,0
12969,476510.2327656364,2010-12-19 00:59:10,1650.8311833763248,2,45,0.5501165986061096,3.9210476875305176,39.03397688969097,38.75527468329904,156.73878298971454,140.1599349362472,3.237724376958795e-05,0.0946486890316009,0,0,0
12970,476540.2480528994,2010-12-19 00:59:40,1680.846470639245,2,45,0.550297200679779,3.922828435897827,39.038563538989216,38.75527468329904,156.75677166261863,140.1599349362472,6.47544875391759e-05,0.0946486890316009,0,0,0
12971,476570.2631228515,2010-12-19 01:00:10,1710.8615405913947,2,45,0.5501165986061096,3.9246091842651367,39.04315011603324,38.75527468329904,156.77476792234592,140.1599349362472,3.237724376958795e-05,0.0946486890316009,0,0,0
12972,476600.2782403319,2010-12-19 01:00:40,1740.876658071817,2,45,0.5501165986061096,3.926228046417236,39.04773673069273,38.75527468329904,156.79277214963872,140.1599349362472,3.237724376958795e-05,0.0946486890316009,0,0,0
12973,476630.29602773633,2010-12-19 01:01:10,1770.8944455664673,2,45,0.550297200679779,3.928008794784546,39.05232420461347,38.75527468329904,156.81078768716392,140.1599349362472,6.47544875391759e-05,0.0946486890316009,0,0,0
12974,476660.30852002406,2010-12-19 01:01:40,1800.9069377539493,2,45,0.5501165986061096,3.929789543151856,39.05691120068195,38.75527468329904,156.82880927088436,140.1599349362472,6.47544875391759e-05,0.0946486890316009,0,0,0
12975,476690.323476985,2010-12-19 01:02:10,1830.9218947099127,2,45,0.550297200679779,3.931570291519165,39.06149863491765,38.75527468329904,156.8468404664583,140.1599349362472,6.47544875391759e-05,0.0946486890316009,0,0,0
12976,476720.33857247565,2010-12-19 01:02:40,1860.936990215652,2,45,0.5501165986061096,3.9331891536712646,39.06608605628244,38.75527468329904,156.86487949622884,140.1599349362472,6.47544875391759e-05,0.0946486890316009,0,0,0
12977,476750.3538412727,2010-12-19 01:03:10,1890.9522589975825,2,45,0.5501165986061096,3.9346461296081534,39.07067354707138,38.75527468329904,156.8829266822656,140.1599349362472,0.0,0.0946486890316009,0,0,0
12978,476780.3689447232,2010-12-19 01:03:40,1920.967362463129,2,45,0.5501165986061096,3.936426877975464,39.07526105194186,38.75527468329904,156.9009818053493,140.1599349362472,3.237724376958795e-05,0.0946486890316009,0,0,0
12979,476810.3840475923,2010-12-19 01:04:10,1950.982465332192,2,45,0.550297200679779,3.938369512557984,39.07984854603612,38.75527468329904,156.91904482865365,140.1599349362472,9.713172767078504e-05,0.0946486890316009,0,0,0
12980,476840.3990339213,2010-12-19 01:04:40,1980.9974516612497,2,45,0.550297200679779,3.940150260925293,39.08443595902964,38.75527468329904,156.93711550885294,140.1599349362472,9.713172767078504e-05,0.0946486890316009,0,0,0
12981,476870.414157943,2010-12-19 01:05:10,2011.012575687962,2,45,0.5501165986061096,3.9417691230773926,39.08902339796134,38.75527468329904,156.9551942502362,140.1599349362472,6.47544875391759e-05,0.0946486890316009,0,0,0
12982,476900.4292845812,2010-12-19 01:05:40,2041.0277023061235,2,45,0.550297200679779,3.943711757659912,39.093610787096885,38.75527468329904,156.9732807650716,140.1599349362472,6.47544875391759e-05,0.0946486890316009,0,0,0
12983,476930.4443898263,2010-12-19 01:06:10,2071.042807566136,2,45,0.550297200679779,3.945330619812012,39.09819814720394,38.75527468329904,156.99137515698968,140.1599349362472,6.47544875391759e-05,0.0946486890316009,0,0,0
12984,476960.4595245445,2010-12-19 01:06:40,2101.057942284454,2,45,0.550297200679779,3.9469494819641113,39.10278566590944,38.75527468329904,157.00947824462514,140.1599349362472,3.237724376958795e-05,0.0946486890316009,0,0,0
12985,476990.4746445913,2010-12-19 01:07:10,2131.0730624265,2,45,0.5501165986061096,3.948730230331421,39.10737307011477,38.75527468329904,157.02758885577114,140.1599349362472,3.237724376958795e-05,0.0946486890316009,0,0,0
12986,477020.4916805709,2010-12-19 01:07:40,2161.090098401022,2,45,0.550297200679779,3.950672864913941,39.11196074682971,38.75527468329904,157.04570864850962,140.1599349362472,6.47544875391759e-05,0.0946486890316009,0,0,0
12987,477050.50498742063,2010-12-19 01:08:10,2191.103405200633,2,45,0.5501165986061096,3.95229172706604,39.116547931136616,38.75527468329904,157.06383464913006,140.1599349362472,6.47544875391759e-05,0.0946486890316009,0,0,0
12988,477080.5202652,2010-12-19 01:08:40,2221.1186830300785,2,45,0.550297200679779,3.9540724754333496,39.12113534726821,38.75527468329904,157.0819697664457,140.1599349362472,3.237724376958795e-05,0.0946486890316009,0,0,0
12989,477110.5350828242,2010-12-19 01:09:10,2251.133500564096,2,45,0.5501165986061096,3.955853223800659,39.1257227136036,38.75527468329904,157.10011283681408,140.1599349362472,0.0,0.0946486890316009,0,0,0
12990,477140.5501957633,2010-12-19 01:09:40,2281.1486134931924,2,45,0.5501165986061096,3.9576339721679688,39.13031013862281,38.75527468329904,157.11826441473008,140.1599349362472,3.237724376958795e-05,0.0946486890316009,0,0,0
12991,477170.56553751184,2010-12-19 01:10:10,2311.1639553469595,2,45,0.550297200679779,3.959576606750488,39.13489752567551,38.75527468329904,157.1364241447001,140.1599349362472,6.47544875391759e-05,0.0946486890316009,0,0,0
12992,477200.5804444584,2010-12-19 01:10:40,2341.178862188214,2,45,0.5504778623580933,3.961357355117798,39.13948486663252,38.75527468329904,157.15459198585148,140.1599349362472,3.237724376958795e-05,0.0946486890316009,0,0,0
12993,477230.5955649663,2010-12-19 01:11:10,2371.193982706196,2,45,0.5501165986061096,3.9631381034851074,39.14407232636152,38.75527468329904,157.17276876317356,140.1599349362472,3.237724376958795e-05,0.0946486890316009,0,0,0
12994,477260.61068951926,2010-12-19 01:11:40,2401.209107259218,2,45,0.5501165986061096,3.965080738067627,39.14865975363229,38.75527468329904,157.19095390904937,140.1599349362472,6.47544875391759e-05,0.0946486890316009,0,0,0
12995,477290.6257968996,2010-12-19 01:12:10,2431.224214639507,2,45,0.5504778623580933,3.9670233726501465,39.15324718478863,38.75527468329904,157.2091477338696,140.1599349362472,6.47544875391759e-05,0.0946486890316009,0,0,0
12996,477320.6409122897,2010-12-19 01:12:40,2461.239330029728,2,45,0.5501165986061096,3.968804121017456,39.15783466122371,38.75527468329904,157.22735031605532,140.1599349362472,6.47544875391759e-05,0.0946486890316009,0,0,0
12997,477350.6560285773,2010-12-19 01:13:10,2491.2544463171816,2,45,0.5501165986061096,3.970746755599976,39.16242218902436,38.75527468329904,157.24556189113304,140.1599349362472,6.47544875391759e-05,0.0946486890316009,0,0,0
12998,477380.6711744584,2010-12-19 01:13:40,2521.2695921982777,2,45,0.5501165986061096,3.972527503967285,39.16700971714391,38.75527468329904,157.26378225818056,140.1599349362472,0.0,0.0946486890316009,0,0,0
12999,477410.6863839378,2010-12-19 01:14:10,2551.284801747811,2,45,0.550297200679779,3.974632024765015,39.171597264232176,38.75527468329904,157.28201154909397,140.1599349362472,6.47544875391759e-05,0.0946486890316009,0,0,0
13000,477440.7013692793,2010-12-19 01:14:40,2581.299787024249,2,45,0.550297200679779,3.976574659347534,39.17618477577123,38.75527468329904,157.30024968482866,140.1599349362472,6.47544875391759e-05,0.0946486890316009,0,0,0
13001,477470.71649511554,2010-12-19 01:15:10,2611.314912855452,2,45,0.550297200679779,3.978355407714844,39.180772288172776,38.75527468329904,157.31849651006314,140.1599349362472,9.713172767078504e-05,0.0946486890316009,0,0,0
13002,477500.7316484552,2010-12-19 01:15:40,2641.3300661951084,2,45,0.550297200679779,3.980621814727783,39.18535967237002,38.75527468329904,157.3367523933634,140.1599349362472,6.47544875391759e-05,0.0946486890316009,0,0,0
13003,477530.7467414948,2010-12-19 01:16:10,2671.345159234711,2,45,0.550297200679779,3.9827263355255127,39.18994707177107,38.75527468329904,157.35501759726083,140.1599349362472,9.713172767078504e-05,0.0946486890316009,0,0,0
13004,477560.7618390406,2010-12-19 01:16:40,2701.360256780527,2,45,0.550297200679779,3.984668970108032,39.1945344492982,38.75527468329904,157.3732920376285,140.1599349362472,6.47544875391759e-05,0.0946486890316009,0,0,0
13005,477590.77718069387,2010-12-19 01:17:10,2731.3755985039697,2,45,0.550297200679779,3.9867734909057617,39.19912189991532,38.75527468329904,157.39157623430836,140.1599349362472,6.47544875391759e-05,0.0946486890316009,0,0,0
13006,477620.7939917938,2010-12-19 01:17:40,2761.3924096089117,2,45,0.5504778623580933,3.988878011703491,39.20370957092264,38.75527468329904,157.4098708224445,140.1599349362472,9.713172767078504e-05,0.0946486890316009,0,0,0
13007,477650.80720878486,2010-12-19 01:18:10,2791.4056265298645,2,45,0.5501165986061096,3.9908206462860103,39.20829661381581,38.75527468329904,157.4281725681835,140.1599349362472,3.237724376958795e-05,0.0946486890316009,0,0,0
13008,477680.82230466657,2010-12-19 01:18:40,2821.420722406527,2,45,0.550297200679779,3.99308705329895,39.21288401589306,38.75527468329904,157.44648554253496,140.1599349362472,6.47544875391759e-05,0.0946486890316009,0,0,0
13009,477710.8374198714,2010-12-19 01:19:10,2851.4358376112864,2,45,0.550297200679779,3.995353221893311,39.2174713665538,38.75527468329904,157.46480817149282,140.1599349362472,9.713172767078504e-05,0.0946486890316009,0,0,0
13010,477740.85254651454,2010-12-19 01:19:40,2881.450964259523,2,45,0.550297200679779,3.99761962890625,39.2220587090858,38.75527468329904,157.48314079367103,140.1599349362472,9.713172767078504e-05,0.0946486890316009,0,0,0
13011,477770.8676666717,2010-12-19 01:20:10,2911.466084411594,2,45,0.550297200679779,3.9995622634887695,39.22664607523473,38.75527468329904,157.50148351611864,140.1599349362472,6.47544875391759e-05,0.0946486890316009,0,0,0
13012,477800.8827952497,2010-12-19 01:20:40,2941.481212989632,2,45,0.550297200679779,4.001990795135498,39.23123345554605,38.75527468329904,157.5198364952652,140.1599349362472,9.71794142969884e-05,0.0946486890316009,0,0,0
13013,477830.89788661007,2010-12-19 01:21:10,2971.4963043550683,2,45,0.550297200679779,4.004095077514648,39.235820818702265,38.75527468329904,157.5381996924962,140.1599349362472,3.23295607813634e-05,0.0946486890316009,0,0,0
13014,477860.9130237846,2010-12-19 01:21:40,3001.5114415294984,2,45,0.550297200679779,4.006523609161377,39.2404081490673,38.75527468329904,157.55657324023554,140.1599349362472,9.71794142969884e-05,0.0946486890316009,0,0,0
13015,477890.92811700463,2010-12-19 01:22:10,3031.5265347495497,2,45,0.550297200679779,4.008790016174316,39.2449955517378,38.75527468329904,157.5749576996457,140.1599349362472,3.24249267578125e-05,0.0946486890316009,0,0,0
13016,477920.9432297783,2010-12-19 01:22:40,3061.5416475182474,2,45,0.5501165986061096,4.011056423187256,39.24958293463102,38.75527468329904,157.59335268512496,140.1599349362472,3.24249267578125e-05,0.0946486890316009,0,0,0
13017,477950.9583545319,2010-12-19 01:23:10,3091.556772276781,2,45,0.5501165986061096,4.013484477996826,39.25417033515292,38.75527468329904,157.61175851886003,140.1599349362472,6.47544875391759e-05,0.0946486890316009,0,0,0
13018,477980.97349599696,2010-12-19 01:23:41,3121.571913736876,2,45,0.550297200679779,4.015913009643555,39.25875775307886,38.75527468329904,157.63017525697973,140.1599349362472,0.0001295089750783,0.0946486890316009,0,0,0
13019,478010.98884513887,2010-12-19 01:24:11,3151.5872628787797,2,45,0.550297200679779,4.018341064453125,39.26334517929125,38.75527468329904,157.64860304240207,140.1599349362472,9.70840483205393e-05,0.0946486890316009,0,0,0
13020,478041.00373022095,2010-12-19 01:24:41,3181.602148051112,2,45,0.550297200679779,4.0206074714660645,39.26793248755437,38.75527468329904,157.66704133228868,140.1599349362472,6.47544875391759e-05,0.0946486890316009,0,0,0
13021,478071.0188368846,2010-12-19 01:25:11,3211.617254609355,2,45,0.5501165986061096,4.023036003112793,39.27251978415372,38.75527468329904,157.68549087768156,140.1599349362472,6.47544875391759e-05,0.0946486890316009,0,0,0
13022,478101.03395637486,2010-12-19 01:25:41,3241.632374119829,2,45,0.550297200679779,4.025464057922363,39.27710718665936,38.75527468329904,157.70395220594887,140.1599349362472,6.47544875391759e-05,0.0946486890316009,0,0,0
13023,478131.049048026,2010-12-19 01:26:11,3271.647465765964,2,45,0.550297200679779,4.028054237365723,39.28169446062052,38.75527468329904,157.72242437985307,140.1599349362472,6.47544875391759e-05,0.0946486890316009,0,0,0
13024,478161.06415631867,2010-12-19 01:26:41,3301.6625740484974,2,45,0.550297200679779,4.030806541442871,39.2862818077867,38.75527468329904,157.74090843485453,140.1599349362472,9.71794142969884e-05,0.0946486890316009,0,0,0
13025,478191.079600888,2010-12-19 01:27:11,3331.678018733155,2,45,0.550297200679779,4.033396720886231,39.29086922519801,38.75527468329904,157.75940444159014,140.1599349362472,9.71794142969884e-05,0.0946486890316009,0,0,0
13026,478221.0962398846,2010-12-19 01:27:41,3361.694657729812,2,45,0.5501165986061096,4.035824775695801,39.29545687384677,38.75527468329904,157.77791322397863,140.1599349362472,6.47544875391759e-05,0.0946486890316009,0,0,0
13027,478251.1095182585,2010-12-19 01:28:11,3391.707935998427,2,45,0.5501165986061096,4.038252830505371,39.30004390976633,38.75527468329904,157.7964314331204,140.1599349362472,3.23295607813634e-05,0.0946486890316009,0,0,0
13028,478281.12462870136,2010-12-19 01:28:41,3421.7230464413365,2,45,0.5501165986061096,4.04116678237915,39.30463127501918,38.75527468329904,157.81496290922834,140.1599349362472,6.47544875391759e-05,0.0946486890316009,0,0,0
13029,478311.13974532974,2010-12-19 01:29:11,3451.738163069639,2,45,0.5501165986061096,4.04375696182251,39.3092186585042,38.75527468329904,157.8335065736458,140.1599349362472,0.0001295089750783,0.0946486890316009,0,0,0
13030,478341.15487465967,2010-12-19 01:29:41,3481.753292399548,2,45,0.5501165986061096,4.046185493469238,39.313806066995554,38.75527468329904,157.85206253167513,140.1599349362472,3.24249267578125e-05,0.0946486890316009,0,0,0
13031,478371.1699801853,2010-12-19 01:30:11,3511.768397925222,2,45,0.5501165986061096,4.0489373207092285,39.31839335799564,38.75527468329904,157.87063029233616,140.1599349362472,6.47544875391759e-05,0.0946486890316009,0,0,0
13032,478401.1850879716,2010-12-19 01:30:41,3541.783505711521,2,45,0.550297200679779,4.051689624786377,39.32298077012391,38.75527468329904,157.88921097153747,140.1599349362472,9.71794142969884e-05,0.0946486890316009,0,0,0
13033,478431.2002284944,2010-12-19 01:31:11,3571.7986462342838,2,45,0.5501165986061096,4.054279804229736,39.32756817433141,38.75527468329904,157.9078041527839,140.1599349362472,3.24249267578125e-05,0.0946486890316009,0,0,0
13034,478461.2153374786,2010-12-19 01:31:41,3601.813755218563,2,45,0.550297200679779,4.057193756103516,39.33215557629281,38.75527468329904,157.9264099651502,140.1599349362472,3.24249267578125e-05,0.0946486890316009,0,0,0
13035,478491.2304394404,2010-12-19 01:32:11,3631.828857180368,2,45,0.5501165986061096,4.059945583343506,39.3367430374432,38.75527468329904,157.9450287496669,140.1599349362472,6.47544875391759e-05,0.0946486890316009,0,0,0
13036,478521.2455721938,2010-12-19 01:32:41,3661.843989933797,2,45,0.550297200679779,4.062859535217285,39.34133043567735,38.75527468329904,157.96365973781565,140.1599349362472,6.47544875391759e-05,0.0946486890316009,0,0,0
13037,478551.26345272514,2010-12-19 01:33:11,3691.861870555189,2,45,0.550297200679779,4.065611839294434,39.34591824728808,38.75527468329904,157.982305436231,140.1599349362472,6.47544875391759e-05,0.0946486890316009,0,0,0
13038,478581.2758234302,2010-12-19 01:33:41,3721.874241160117,2,45,0.550297200679779,4.068363666534424,39.35050518023223,38.75527468329904,158.00096060425523,140.1599349362472,6.47544875391759e-05,0.0946486890316009,0,0,0
13039,478611.2909064348,2010-12-19 01:34:11,3751.8893241747737,2,45,0.550297200679779,4.071277618408203,39.355092602710606,38.75527468329904,158.0196310066218,140.1599349362472,9.70840483205393e-05,0.0946486890316009,0,0,0
13040,478641.306042682,2010-12-19 01:34:41,3781.9044604068586,2,45,0.5501165986061096,4.074353694915772,39.35968002749638,38.75527468329904,158.03831471458727,140.1599349362472,9.71794142969884e-05,0.0946486890316009,0,0,0
13041,478671.32113724033,2010-12-19 01:35:11,3811.919554980278,2,45,0.550297200679779,4.077105522155762,39.36426743726516,38.75527468329904,158.05701173753098,140.1599349362472,3.23295607813634e-05,0.0946486890316009,0,0,0
13042,478701.3364095511,2010-12-19 01:35:41,3841.934827290989,2,45,0.550297200679779,4.08018159866333,39.36885484521242,38.75527468329904,158.07572224524523,140.1599349362472,6.47544875391759e-05,0.0946486890316009,0,0,0
13043,478731.3513747325,2010-12-19 01:36:11,3871.949792472421,2,45,0.5501165986061096,4.083095550537109,39.3734422419242,38.75527468329904,158.09444632277138,140.1599349362472,9.71794142969884e-05,0.0946486890316009,0,0,0
13044,478761.3664972706,2010-12-19 01:36:41,3901.964915010431,2,45,0.550297200679779,4.08617115020752,39.37802961324604,38.75527468329904,158.1131840680942,140.1599349362472,6.47544875391759e-05,0.0946486890316009,0,0,0
13045,478791.3815984954,2010-12-19 01:37:11,3931.9800162354018,2,45,0.5501165986061096,4.089085102081299,39.38261694581236,38.75527468329904,158.1319355075887,140.1599349362472,3.23295607813634e-05,0.0946486890316009,0,0,0
13046,478821.39857645566,2010-12-19 01:37:41,3961.996994270743,2,45,0.5501165986061096,4.092322826385498,39.38720465423989,38.75527468329904,158.15070246874816,140.1599349362472,9.70840483205393e-05,0.0946486890316009,0,0,0
13047,478851.4119155456,2010-12-19 01:38:11,3992.010333270485,2,45,0.5504778623580933,4.095236778259277,39.39179178322692,38.75527468329904,158.16948118517757,140.1599349362472,9.70840483205393e-05,0.0946486890316009,0,0,0
13048,478881.4269567111,2010-12-19 01:38:41,4022.025374451038,2,45,0.5501165986061096,4.098312854766846,39.39637913075536,38.75527468329904,158.1882749949606,140.1599349362472,6.47544875391759e-05,0.0946486890316009,0,0,0
13049,478911.4420651842,2010-12-19 01:39:11,4052.0404829240456,2,45,0.550297200679779,4.101550579071045,39.400966558229705,38.75527468329904,158.20708347472905,140.1599349362472,6.47544875391759e-05,0.0946486890316009,0,0,0
13050,478941.4571897773,2010-12-19 01:39:41,4082.055607517168,2,45,0.5499359965324402,4.104464530944824,39.4055539537145,38.75527468329904,158.22590611761356,140.1599349362472,0.0,0.0946486890316009,0,0,0
13051,478971.4724549202,2010-12-19 01:40:11,4112.070872730217,2,45,0.550297200679779,4.107863903045654,39.41014134787056,38.75527468329904,158.2447433439764,140.1599349362472,9.70840483205393e-05,0.0946486890316009,0,0,0
13052,479001.4875346917,2010-12-19 01:40:41,4142.085952436641,2,45,0.550297200679779,4.111263751983643,39.41472874032398,38.75527468329904,158.26359518424903,140.1599349362472,0.0001295089750783,0.0946486890316009,0,0,0
13053,479031.5025256122,2010-12-19 01:41:11,4172.100943342086,2,45,0.5501165986061096,4.114339351654053,39.41931609592909,38.75527468329904,158.2824616258084,140.1599349362472,9.70840483205393e-05,0.0946486890316009,0,0,0
13054,479061.51772686106,2010-12-19 01:41:41,4202.116144691212,2,45,0.5501165986061096,4.117414951324463,39.4239034853446,38.75527468329904,158.3013431003549,140.1599349362472,6.47544875391759e-05,0.0946486890316009,0,0,0
13055,479091.5329879389,2010-12-19 01:42:11,4232.131405753934,2,45,0.5501165986061096,4.120814800262451,39.42849093489063,38.75527468329904,158.32023979234464,140.1599349362472,6.47544875391759e-05,0.0946486890316009,0,0,0
13056,479121.5478773016,2010-12-19 01:42:41,4262.146295041507,2,45,0.5501165986061096,4.12405252456665,39.433078304240574,38.75527468329904,158.33915128121194,140.1599349362472,6.47544875391759e-05,0.0946486890316009,0,0,0
13057,479151.56299135846,2010-12-19 01:43:11,4292.16140909841,2,45,0.5499359965324402,4.1274518966674805,39.43766561113462,38.75527468329904,158.35807770549252,140.1599349362472,9.70840483205393e-05,0.0946486890316009,0,0,0
13058,479181.5781234052,2010-12-19 01:43:41,4322.176541145081,2,45,0.550297200679779,4.130851745605469,39.44225298545702,38.75527468329904,158.37701976606044,140.1599349362472,9.71794142969884e-05,0.0946486890316009,0,0,0
13059,479211.59322562267,2010-12-19 01:44:11,4352.191643362521,2,45,0.550297200679779,4.134251117706299,39.446840359412846,38.75527468329904,158.3959773288966,140.1599349362472,6.47544875391759e-05,0.0946486890316009,0,0,0
13060,479241.6084639788,2010-12-19 01:44:41,4382.206881723751,2,45,0.5501165986061096,4.137812614440918,39.45142772418576,38.75527468329904,158.41495044740614,140.1599349362472,0.0001295089750783,0.0946486890316009,0,0,0
13061,479271.6234775657,2010-12-19 01:45:11,4412.221895295601,2,45,0.550297200679779,4.141050338745117,39.456015145452405,38.75527468329904,158.43393948147198,140.1599349362472,9.70840483205393e-05,0.0946486890316009,0,0,0
13062,479301.6386428751,2010-12-19 01:45:41,4442.237060690256,2,45,0.550297200679779,4.144773960113525,39.46060261521816,38.75527468329904,158.45294449881845,140.1599349362472,9.71794142969884e-05,0.0946486890316009,0,0,0
13063,479331.6537221405,2010-12-19 01:46:11,4472.252139880395,2,45,0.5501165986061096,4.148011684417725,39.465189754235176,38.75527468329904,158.47196441816436,140.1599349362472,9.71794142969884e-05,0.0946486890316009,0,0,0
13064,479361.66880764125,2010-12-19 01:46:41,4502.267225381237,2,45,0.5499359965324402,4.151573181152344,39.469776364336994,38.75527468329904,158.49099809615325,140.1599349362472,9.71794142969884e-05,0.0946486890316009,0,0,0
13065,479391.6839416078,2010-12-19 01:47:11,4532.282359352696,2,45,0.550297200679779,4.155296325683594,39.4743631051987,38.75527468329904,158.51004840411687,140.1599349362472,0.0001618385285837,0.0946486890316009,0,0,0
13066,479421.7009229263,2010-12-19 01:47:41,4562.299340746396,2,45,0.5501165986061096,4.158696174621582,39.47895077101788,38.75527468329904,158.52911895869568,140.1599349362472,9.71794142969884e-05,0.0946486890316009,0,0,0
13067,479451.7143139405,2010-12-19 01:48:11,4592.312731680374,2,45,0.550297200679779,4.162419319152832,39.48353788348627,38.75527468329904,158.54820353456986,140.1599349362472,0.0001295089750783,0.0946486890316009,0,0,0
13068,479481.7293172568,2010-12-19 01:48:41,4622.327734981666,2,45,0.5501165986061096,4.16581916809082,39.48812518706024,38.75527468329904,158.56730530017555,140.1599349362472,0.0001295089750783,0.0946486890316009,0,0,0
13069,479511.7447525531,2010-12-19 01:49:11,4652.343170292998,2,45,0.550297200679779,4.16954231262207,39.49271258053295,38.75527468329904,158.58642400693597,140.1599349362472,9.70840483205393e-05,0.0946486890316009,0,0,0
13070,479541.7595401827,2010-12-19 01:49:41,4682.357957922599,2,45,0.550297200679779,4.1731038093566895,39.49729990954238,38.75527468329904,158.60555909374557,140.1599349362472,6.47544875391759e-05,0.0946486890316009,0,0,0
13071,479571.7746582645,2010-12-19 01:50:11,4712.373076004519,2,45,0.550297200679779,4.176827430725098,39.50188731467279,38.75527468329904,158.62471124068813,140.1599349362472,0.0001295089750783,0.0946486890316009,0,0,0
13072,479601.7897611587,2010-12-19 01:50:41,4742.388178903656,2,45,0.5499359965324402,4.180388927459717,39.50647471487675,38.75527468329904,158.643880255228,140.1599349362472,6.47544875391759e-05,0.0946486890316009,0,0,0
13073,479631.8048760627,2010-12-19 01:51:11,4772.403293802656,2,45,0.5501165986061096,4.184112071990967,39.51106211264258,38.75527468329904,158.66306627421204,140.1599349362472,6.47544875391759e-05,0.0946486890316009,0,0,0
13074,479661.8200037085,2010-12-19 01:51:41,4802.418421448373,2,45,0.550297200679779,4.187997341156006,39.51564944352765,38.75527468329904,158.6822690692782,140.1599349362472,9.70840483205393e-05,0.0946486890316009,0,0,0
13075,479691.8351488928,2010-12-19 01:52:11,4832.433566632736,2,45,0.550297200679779,4.191882610321045,39.5202368205957,38.75527468329904,158.70148930629074,140.1599349362472,0.0001295089750783,0.0946486890316009,0,0,0
13076,479721.85022567696,2010-12-19 01:52:41,4862.448643416888,2,45,0.550297200679779,4.195444107055664,39.52482420131554,38.75527468329904,158.72072680839744,140.1599349362472,9.71794142969884e-05,0.0946486890316009,0,0,0
13077,479751.8653488715,2010-12-19 01:53:11,4892.4637666115295,2,45,0.550297200679779,4.199329376220703,39.52941158686845,38.75527468329904,158.73998167956012,140.1599349362472,9.71794142969884e-05,0.0946486890316009,0,0,0
13078,479757.05276348337,2010-12-19 01:53:17,4897.651181223275,2,45,0.550297200679779,4.200138568878174,39.53020441699496,38.75527468329904,158.74331126841213,140.1599349362472,0.0001618385285837,0.0946486890316009,0,0,0
13079,479787.0615037922,2010-12-19 01:53:47,30.015140437550365,3,45,0.0,4.112558841705322,39.53020441699496,38.75527468329904,158.74331126841213,140.1599349362472,-0.0004856109735555,0.0946486890316009,0,0,0
13080,479817.0766032878,2010-12-19 01:54:17,60.030239933218425,3,45,0.0,4.101712226867676,39.53020441699496,38.75527468329904,158.74331126841213,140.1599349362472,-0.0001942634553415,0.0946486890316009,0,0,0
13081,479847.09178184014,2010-12-19 01:54:47,90.04541857584066,3,45,0.0,4.095398902893066,39.53020441699496,38.75527468329904,158.74331126841213,140.1599349362472,-9.70840483205393e-05,0.0946486890316009,0,0,0
13082,479877.0600759474,2010-12-19 01:55:17,120.01371264801256,3,45,0.0,4.090866088867188,39.53020441699496,38.75527468329904,158.74331126841213,140.1599349362472,-0.0001295089750783,0.0946486890316009,0,0,0
13083,479877.0713443539,2010-12-19 01:55:17,0.015750048389647,4,45,1.0065162181854248,4.199814796447754,39.530208841855305,38.75527468329904,158.7433298520061,140.1599349362472,0.0,0.0946486890316009,0,0,0
13084,479877.9776443266,2010-12-19 01:55:18,0.922050106225877,4,45,0.9557650685310364,4.199814796447754,39.53045449076488,38.75527468329904,158.744361513448,140.1599349362472,0.0,0.0946486890316009,0,0,0
13085,479879.8838215002,2010-12-19 01:55:20,2.828227259757936,4,45,0.9051944613456726,4.199653148651123,39.53094616527244,38.75527468329904,158.74642642244902,140.1599349362472,-3.23295607813634e-05,0.0946486890316009,0,0,0
13086,479882.7742567521,2010-12-19 01:55:23,5.71866244153721,4,45,0.8549850583076477,4.199653148651123,39.53165189349813,38.75527468329904,158.74939030368074,140.1599349362472,-3.23295607813634e-05,0.0946486890316009,0,0,0
13087,479886.774208408,2010-12-19 01:55:27,9.718614112425922,4,45,0.804956316947937,4.199653148651123,39.532573009753776,38.75527468329904,158.75325875992348,140.1599349362472,0.0,0.0946486890316009,0,0,0
13088,479892.03984790936,2010-12-19 01:55:32,14.984253603775548,4,45,0.7549275159835815,4.199653148651123,39.53371233446314,38.75527468329904,158.75804364115243,140.1599349362472,-3.23295607813634e-05,0.0946486890316009,0,0,0
13089,479898.8677208285,2010-12-19 01:55:39,21.8121265329493,4,45,0.7047181725502014,4.199814796447754,39.53509460399376,38.75527468329904,158.76384884528923,140.1599349362472,-3.24249267578125e-05,0.0946486890316009,0,0,0
13090,479907.9472362986,2010-12-19 01:55:48,30.891642073158977,4,45,0.654689371585846,4.199814796447754,39.536806076524286,38.75527468329904,158.7710366451986,140.1599349362472,3.23295607813634e-05,0.0946486890316009,0,0,0
13091,479920.5548588674,2010-12-19 01:56:00,43.49926457183838,4,45,0.6046606302261353,4.199653148651123,39.53900637119269,38.75527468329904,158.78027736608885,140.1599349362472,0.0,0.0946486890316009,0,0,0
13092,479939.35152760457,2010-12-19 01:56:19,62.29593337921675,4,45,0.5546318292617798,4.199653148651123,39.54202418715918,38.75527468329904,158.79295150893208,140.1599349362472,-3.23295607813634e-05,0.0946486890316009,0,0,0
13093,479971.5071126413,2010-12-19 01:56:51,94.45151835066493,4,45,0.5046030879020691,4.199653148651123,39.54673514312952,38.75527468329904,158.81273643474916,140.1599349362472,-3.23295607813634e-05,0.0946486890316009,0,0,0
13094,480030.3811479687,2010-12-19 01:57:50,153.32555367317903,4,45,0.454574316740036,4.199653148651123,39.55454167703039,38.75527468329904,158.8455221130321,140.1599349362472,-3.23295607813634e-05,0.0946486890316009,0,0,0
13095,480123.03582723945,2010-12-19 01:59:23,245.9802329288653,4,45,0.4045455455780029,4.199653148651123,39.56557030414606,38.75527468329904,158.8918398834084,140.1599349362472,-3.23295607813634e-05,0.0946486890316009,0,0,0
13096,480242.04944487446,2010-12-19 02:01:22,364.99385058395313,4,45,0.3545167744159698,4.199814796447754,39.57810004988751,38.75527468329904,158.94446198044182,140.1599349362472,0.0,0.0946486890316009,0,0,0
13097,480383.2345738778,2010-12-19 02:03:43,506.1789796624678,4,45,0.3044880032539367,4.199814796447754,39.59100426077293,38.75527468329904,158.99865681672114,140.1599349362472,0.0,0.0946486890316009,0,0,0
13098,480552.12230833934,2010-12-19 02:06:32,675.0667140488061,4,45,0.2542786300182342,4.199653148651123,39.60409465434045,38.75527468329904,159.05363364729183,140.1599349362472,-3.23295607813634e-05,0.0946486890316009,0,0,0
13099,480764.3687202019,2010-12-19 02:10:04,887.3131259114026,4,45,0.2042498439550399,4.199653148651123,39.617579182080405,38.75527468329904,159.11026566530907,140.1599349362472,-3.23295607813634e-05,0.0946486890316009,0,0,0
13100,481048.0828099021,2010-12-19 02:14:48,1171.027215606529,4,45,0.1542210727930069,4.199653148651123,39.631620167038754,38.75527468329904,159.16923461255945,140.1599349362472,0.0,0.0946486890316009,0,0,0
13101,481480.27846715227,2010-12-19 02:22:00,1603.2228728416485,4,45,0.1041923090815544,4.199653148651123,39.64693622695572,38.75527468329904,159.23355860714918,140.1599349362472,0.0,0.0946486890316009,0,0,0
13102,482331.9847533224,2010-12-19 02:36:12,2454.9291591371607,4,45,0.0541635416448116,4.199653148651123,39.66497664084176,38.75527468329904,159.3093242825903,140.1599349362472,-3.23295607813634e-05,0.0946486890316009,0,0,0
13103,482451.76203745714,2010-12-19 02:38:12,2574.7064431616373,4,45,0.0498289167881011,4.199814796447754,39.66671968582569,38.75527468329904,159.31664465888596,140.1599349362472,0.0,0.0946486890316009,0,0,0
13104,482481.7694499566,2010-12-19 02:38:42,30.015088678750583,5,45,0.0,4.191720962524414,39.66671968582569,38.75527468329904,159.31664465888596,140.1599349362472,-6.47544875391759e-05,0.0946486890316009,0,0,0
13105,482511.76891572325,2010-12-19 02:39:12,60.01455444548549,5,45,0.0,4.190425872802734,39.66671968582569,38.75527468329904,159.31664465888596,140.1599349362472,-6.47544875391759e-05,0.0946486890316009,0,0,0
13106,482511.9497141061,2010-12-19 02:39:12,0.187430669010962,6,45,-1.9243103452026844e-05,4.190263748168945,39.66671968952551,38.75527468329904,159.3166446743901,140.1599349362472,-9.71794142969884e-05,0.0956302732229232,0,0,0
13107,482516.7778700615,2010-12-19 02:39:17,5.015586539195614,6,45,0.0007031940040178,4.190263748168945,39.66672066534379,38.75527468346614,159.31664876352653,140.1599349369474,-6.47544875391759e-05,0.0956302732229232,0,0,0
13108,482546.8020560656,2010-12-19 02:39:47,30.01523384499119,7,45,-1.099568486213684,4.009922981262207,39.66672066534379,38.76444367301384,159.31664876352653,140.19691136455904,-0.0009713172912597,0.0956302732229232,0,0,0
13109,482576.817076645,2010-12-19 02:40:17,60.03025434909178,7,45,-1.0997490882873535,3.981431245803833,39.66672066534379,38.77361252381325,159.31664876352653,140.23353813842238,-0.0006475448608398,0.0956302732229232,0,0,0
13110,482606.8321611583,2010-12-19 02:40:47,90.0453388825269,7,45,-1.0997490882873535,3.9616811275482178,39.66672066534379,38.78278124809104,159.31664876352653,140.26994801701682,-0.0004856586456298,0.0956302732229232,0,0,0
13111,482636.8472891498,2010-12-19 02:41:17,120.06046686909347,7,45,-1.0997490882873535,3.9461400508880615,39.66672066534379,38.79195003359258,159.31664876352653,140.30619842939694,-0.0003561496851034,0.0956302732229232,0,0,0
13112,482666.86262171547,2010-12-19 02:41:47,150.07579951494682,7,45,-1.099568486213684,3.9328653812408447,39.66672066534379,38.80111895103903,159.31664876352653,140.34231818339154,-0.0003237724304199,0.0956302732229232,0,0,0
13113,482696.87751778495,2010-12-19 02:42:17,180.0906955593342,7,45,-1.099929690361023,3.9207239151000977,39.66672066534379,38.810287783758994,159.31664876352653,140.37832161848,-0.0003237724304199,0.0956302732229232,0,0,0
13114,482726.8926311,2010-12-19 02:42:47,210.10580882426652,7,45,-1.0997490882873535,3.90939211845398,39.66672066534379,38.81945665447765,159.31664876352653,140.41421852489017,-0.0003237724304199,0.0956302732229232,0,0,0
13115,482756.9085121906,2010-12-19 02:43:17,240.12168998507823,7,45,-1.099929690361023,3.898545742034912,39.66672066534379,38.828625777215656,159.31664876352653,140.45001567554493,-0.0002913951757363,0.0956302732229232,0,0,0
13116,482786.92291857646,2010-12-19 02:43:47,270.1360963007947,7,45,-1.099568486213684,3.8885087966918954,39.66672066534379,38.83779443724319,159.31664876352653,140.4857147814174,-0.0002590179501567,0.0956302732229232,0,0,0
13117,482816.9379803784,2010-12-19 02:44:17,300.15115808762573,7,45,-1.0997490882873535,3.878309965133667,39.66672066534379,38.84696330626879,159.31664876352653,140.5213212731397,-0.0002913951757363,0.0956302732229232,0,0,0
13118,482846.9530965205,2010-12-19 02:44:47,330.16627424475524,7,45,-1.0997490882873535,3.868596792221069,39.66672066534379,38.85613220941711,159.31664876352653,140.55683678275156,-0.0002590179501567,0.0956302732229232,0,0,0
13119,482876.9700724355,2010-12-19 02:45:17,360.18325026508273,7,45,-1.099568486213684,3.858883619308472,39.66672066534379,38.86530171047563,159.31664876352653,140.59226554320597,-0.0002590179501567,0.0956302732229232,0,0,0
13120,482906.98337584175,2010-12-19 02:45:47,390.1965535659892,7,45,-1.099568486213684,3.849817991256714,39.66672066534379,38.87447003471832,159.31664876352653,140.6276032839595,-0.0001942634553415,0.0956302732229232,0,0,0
13121,482936.99845246045,2010-12-19 02:46:17,420.21163018472896,7,45,-1.0997490882873535,3.840428590774536,39.66672066534379,38.88363890380754,159.31664876352653,140.66285809366778,-0.0002590179501567,0.0956302732229232,0,0,0
13122,482967.013578412,2010-12-19 02:46:47,450.22675611618143,7,45,-1.099568486213684,3.831525087356568,39.66672066534379,38.892807765016855,159.31664876352653,140.6980293598886,-0.0001942634553415,0.0956302732229232,0,0,0
13123,482997.0287186339,2010-12-19 02:47:17,480.2418963532329,7,45,-1.0997490882873535,3.82262134552002,39.66672066534379,38.90197661155424,159.31664876352653,140.73311932975813,-0.0002590179501567,0.0956302732229232,0,0,0
13124,483027.0438059343,2010-12-19 02:47:47,510.2569836435283,7,45,-1.0997490882873535,3.8142032623291016,39.66672066534379,38.911145495103376,159.31664876352653,140.76813010017798,-0.0002266406954731,0.0956302732229232,0,0,0
13125,483057.0588908136,2010-12-19 02:48:17,540.272068522824,7,45,-1.0997490882873535,3.805785179138184,39.66672066534379,38.92031430130843,159.31664876352653,140.80306195295472,-0.0001942634553415,0.0956302732229232,0,0,0
13126,483087.0742292638,2010-12-19 02:48:47,570.2874070533211,7,45,-1.099568486213684,3.7973670959472656,39.66672066534379,38.92948326230125,159.31664876352653,140.83791822937752,-0.0002266406954731,0.0956302732229232,0,0,0
13127,483117.0891470224,2010-12-19 02:49:17,600.3023247465809,7,45,-1.0997490882873535,3.7894346714019775,39.66672066534379,38.93865206274079,159.31664876352653,140.872699703725,-0.0002590179501567,0.0956302732229232,0,0,0
13128,483147.1042915752,2010-12-19 02:49:47,630.3174692793219,7,45,-1.0997490882873535,3.7816641330718994,39.66672066534379,38.94782095301094,159.31664876352653,140.90740864763526,-0.0001942634553415,0.0956302732229232,0,0,0
13129,483177.1193714469,2010-12-19 02:50:17,660.3325491561694,7,45,-1.099568486213684,3.7740554809570312,39.66672066534379,38.95698971782393,159.31664876352653,140.94204606365292,-0.0001618862152099,0.0956302732229232,0,0,0
13130,483207.134640269,2010-12-19 02:50:47,690.3478179781996,7,45,-1.099929690361023,3.766284942626953,39.66672066534379,38.96615860583979,159.31664876352653,140.97661443013502,-0.0002266406954731,0.0956302732229232,0,0,0
13131,483237.14961487387,2010-12-19 02:51:17,720.3627925880943,7,45,-1.0997490882873535,3.759161949157715,39.66672066534379,38.97532741175844,159.31664876352653,141.01111463301262,-0.0001618862152099,0.0956302732229232,0,0,0
13132,483267.1647215123,2010-12-19 02:51:47,750.3778992365618,7,45,-1.099568486213684,3.7522010803222656,39.66672066534379,38.98449625536325,159.31664876352653,141.04554903170649,-0.0001618385285837,0.0956302732229232,0,0,0
13133,483297.1798381907,2010-12-19 02:52:17,780.393015909976,7,45,-1.0997490882873535,3.7450780868530273,39.66672066534379,38.99366513105375,159.31664876352653,141.0799189847036,-0.0001618862152099,0.0956302732229232,0,0,0
13134,483327.1949528391,2010-12-19 02:52:47,810.4081305633636,7,45,-1.099929690361023,3.738116979598999,39.66672066534379,39.0028339918552,159.31664876352653,141.11422604701568,-0.0002266406954731,0.0956302732229232,0,0,0
13135,483357.2101170307,2010-12-19 02:53:17,840.423294734975,7,45,-1.0997490882873535,3.7318034172058105,39.66672066534379,39.01200283914459,159.31664876352653,141.14847169591647,-0.0001618862152099,0.0956302732229232,0,0,0
13136,483387.225192652,2010-12-19 02:53:47,870.4383704614945,7,45,-1.0993878841400146,3.725166082382202,39.66672066534379,39.02117163562588,159.31664876352653,141.182656813121,-0.0001618862152099,0.0956302732229232,0,0,0
13137,483417.2404529979,2010-12-19 02:54:17,900.4536307071829,7,45,-1.0997490882873535,3.718690633773804,39.66672066534379,39.03034057090707,159.31664876352653,141.2167829316432,-0.0001942634553415,0.0956302732229232,0,0,0
13138,483447.25542588846,2010-12-19 02:54:47,930.4686035977992,7,45,-1.099568486213684,3.712538957595825,39.66672066534379,39.0395094118177,159.31664876352653,141.25085082223117,-0.0001618862152099,0.0956302732229232,0,0,0
13139,483477.270527304,2010-12-19 02:55:18,960.4837050132444,7,45,-1.0997490882873535,3.7062253952026367,39.66672066534379,39.048678273713165,159.31664876352653,141.28486173393347,-0.0001618862152099,0.0956302732229232,0,0,0
13140,483507.2718392449,2010-12-19 02:55:48,990.4850170393248,7,45,-1.0997490882873535,3.700397491455078,39.66672066534379,39.05784294303303,159.31664876352653,141.3188013307555,-0.0001618862152099,0.0956302732229232,0,0,0
13141,483537.2854406878,2010-12-19 02:56:18,1020.498618482146,7,45,-1.0993878841400146,3.6944077014923096,39.66672066534379,39.067011389681895,159.31664876352653,141.35270004222727,-0.0001618862152099,0.0956302732229232,0,0,0
13142,483567.3004449213,2010-12-19 02:56:48,1050.513622695708,7,45,-1.0997490882873535,3.688579797744751,39.66672066534379,39.07618023412908,159.31664876352653,141.3865463652744,-0.0001618862152099,0.0956302732229232,0,0,0
13143,483597.3154096717,2010-12-19 02:57:18,1080.5285873809055,7,45,-1.0997490882873535,3.682751893997192,39.66672066534379,39.08534906341768,159.31664876352653,141.42033945312352,-0.0001618862152099,0.0956302732229232,0,0,0
13144,483627.3306783233,2010-12-19 02:57:48,1110.5438560274993,7,45,-1.0997490882873535,3.677085876464844,39.66672066534379,39.09451800008048,159.31664876352653,141.4540803124737,-0.0001295089750783,0.0956302732229232,0,0,0
13145,483657.3456472992,2010-12-19 02:58:18,1140.5588250234237,7,45,-1.099568486213684,3.671581983566284,39.66672066534379,39.10368685918307,159.31664876352653,141.4877695286694,-0.0001618862152099,0.0956302732229232,0,0,0
13146,483687.3607586544,2010-12-19 02:58:48,1170.573936373591,7,45,-1.0997490882873535,3.6660778522491455,39.66672066534379,39.1128558108699,159.31664876352653,141.5214086759201,-0.0001618862152099,0.0956302732229232,0,0,0
13147,483717.37588995416,2010-12-19 02:59:18,1200.5890676734025,7,45,-1.0997490882873535,3.6608974933624263,39.66672066534379,39.122024724028016,159.31664876352653,141.55499836519266,-9.713172767078504e-05,0.0956302732229232,0,0,0
13148,483747.3910052642,2010-12-19 02:59:48,1230.6041829834242,7,45,-1.099568486213684,3.655555248260498,39.66672066534379,39.1311936428841,159.31664876352653,141.58853943156387,-0.0001295089750783,0.0956302732229232,0,0,0
13149,483777.4061368296,2010-12-19 03:00:18,1260.619314533859,7,45,-1.0997490882873535,3.6503748893737793,39.66672066534379,39.14036254550128,159.31664876352653,141.62203279700336,-9.713172767078504e-05,0.0956302732229232,0,0,0
13150,483807.4212393228,2010-12-19 03:00:48,1290.6344170420236,7,45,-1.099568486213684,3.645518302917481,39.66672066534379,39.14953150684685,159.31664876352653,141.65547899350642,-6.47544875391759e-05,0.0956302732229232,0,0,0
13151,483837.4365905197,2010-12-19 03:01:18,1320.6497683192406,7,45,-1.099568486213684,3.640499830245972,39.66672066534379,39.15870048172216,159.31664876352653,141.6888792802123,-6.47544875391759e-05,0.0956302732229232,0,0,0
13152,483867.4515292403,2010-12-19 03:01:48,1350.6647069496014,7,45,-1.0997490882873535,3.635319471359253,39.66672066534379,39.16786936366872,159.31664876352653,141.7222341593597,-0.0001618862152099,0.0956302732229232,0,0,0
13153,483897.4666502696,2010-12-19 03:02:18,1380.67982798888,7,45,-1.099929690361023,3.630462884902954,39.66672066534379,39.17703826954181,159.31664876352653,141.75554504063658,-0.0001618862152099,0.0956302732229232,0,0,0
13154,483927.4817322317,2010-12-19 03:02:48,1410.6949099358787,7,45,-1.099929690361023,3.625768184661865,39.66672066534379,39.1862071800631,159.31664876352653,141.78881260438305,-0.0001618862152099,0.0956302732229232,0,0,0
13155,483957.49682843406,2010-12-19 03:03:18,1440.7100061533893,7,45,-1.0997490882873535,3.6212353706359854,39.66672066534379,39.19537612719353,159.31664876352653,141.82203790424532,-0.0001942634553415,0.0956302732229232,0,0,0
13156,483987.51197947306,2010-12-19 03:03:48,1470.725157177283,7,45,-1.0997490882873535,3.616864442825317,39.66672066534379,39.20454511233374,159.31664876352653,141.8552219001852,-0.0001295089750783,0.0956302732229232,0,0,0
13157,484017.52705967566,2010-12-19 03:04:18,1500.7402373999917,7,45,-1.0997490882873535,3.612493515014648,39.66672066534379,39.21371402663594,159.31664876352653,141.8883651274419,-0.0001295089750783,0.0956302732229232,0,0,0
13158,484047.5422991046,2010-12-19 03:04:48,1530.755476828878,7,45,-1.0997490882873535,3.6082844734191895,39.66672066534379,39.22288309323523,159.31664876352653,141.92146931218096,-9.713172767078504e-05,0.0956302732229232,0,0,0
13159,484077.55749158666,2010-12-19 03:05:18,1560.7706693059267,7,45,-1.0997490882873535,3.6040754318237305,39.66672066534379,39.23205201540154,159.31664876352653,141.95453455254568,-9.713172767078504e-05,0.0956302732229232,0,0,0
13160,484107.5581754045,2010-12-19 03:05:48,1590.7713531939094,7,45,-1.0997490882873535,3.600028276443481,39.66672066534379,39.24121659565604,159.31664876352653,141.9875467964204,-0.0001295089750783,0.0956302732229232,0,0,0
13161,484137.5738401918,2010-12-19 03:06:18,1620.7870179862966,7,45,-1.0993878841400146,3.5963048934936523,39.66672066534379,39.25038569649628,159.31664876352653,142.02053887895025,-9.713172767078504e-05,0.0956302732229232,0,0,0
13162,484167.5870400202,2010-12-19 03:06:48,1650.8002177244914,7,45,-1.0997490882873535,3.5924196243286133,39.66672066534379,39.25955403222978,159.31664876352653,142.05349292192724,-9.713172767078504e-05,0.0956302732229232,0,0,0
13163,484197.6021505233,2010-12-19 03:07:18,1680.8153282425883,7,45,-1.099568486213684,3.5886964797973637,39.66672066534379,39.268722995044165,159.31664876352653,142.08641465792232,-9.713172767078504e-05,0.0956302732229232,0,0,0
13164,484227.61725839984,2010-12-19 03:07:48,1710.8304361040744,7,45,-1.099568486213684,3.585296869277954,39.66672066534379,39.27789194138754,159.31664876352653,142.1193027336346,-6.47544875391759e-05,0.0956302732229232,0,0,0
13165,484257.63253852,2010-12-19 03:08:18,1740.845716324469,7,45,-1.0997490882873535,3.581735372543335,39.66672066534379,39.28706094383277,159.31664876352653,142.15215835491665,-3.237724376958795e-05,0.0956302732229232,0,0,0
13166,484287.64750485925,2010-12-19 03:08:48,1770.8606825685456,7,45,-1.0997490882873535,3.578335762023926,39.66672066534379,39.29622991516004,159.31664876352653,142.18498184762495,-6.47544875391759e-05,0.0956302732229232,0,0,0
13167,484317.66261885606,2010-12-19 03:09:18,1800.875796575324,7,45,-1.099568486213684,3.574774265289306,39.66672066534379,39.30539889910293,159.31664876352653,142.217773856126,-6.47544875391759e-05,0.0956302732229232,0,0,0
13168,484347.6777528676,2010-12-19 03:09:48,1830.8909305718464,7,45,-1.099568486213684,3.571374654769897,39.66672066534379,39.31456779991501,159.31664876352653,142.25053457548316,-9.713172767078504e-05,0.0956302732229232,0,0,0
13169,484377.69300292793,2010-12-19 03:10:18,1860.9061806522384,7,45,-1.0997490882873535,3.5681369304656982,39.66672066534379,39.323736795159945,159.31664876352653,142.2832647915718,-6.47544875391759e-05,0.0956302732229232,0,0,0
13170,484407.70797117206,2010-12-19 03:10:48,1890.92114889128,7,45,-1.099568486213684,3.564737319946289,39.66672066534379,39.33290573405099,159.31664876352653,142.31596428900278,-9.713172767078504e-05,0.0956302732229232,0,0,0
13171,484437.7230810936,2010-12-19 03:11:18,1920.936258802867,7,45,-1.0997490882873535,3.56149959564209,39.66672066534379,39.3420746413676,159.31664876352653,142.34863336089347,-6.47544875391759e-05,0.0956302732229232,0,0,0
13172,484467.73820038856,2010-12-19 03:11:48,1950.9513780927923,7,45,-1.099568486213684,3.5580999851226807,39.66672066534379,39.35124352708313,159.31664876352653,142.38127226759318,-9.713172767078504e-05,0.0956302732229232,0,0,0
13173,484497.7533541342,2010-12-19 03:12:18,1980.9665318534967,7,45,-1.099568486213684,3.5547003746032715,39.66672066534379,39.36041247809374,159.31664876352653,142.41388062350978,-6.47544875391759e-05,0.0956302732229232,0,0,0
13174,484527.7685616989,2010-12-19 03:12:48,2010.981739473228,7,45,-1.0997490882873535,3.5513007640838623,39.66672066534379,39.36958137146086,159.31664876352653,142.44645826987318,-0.0001295089750783,0.0956302732229232,0,0,0
13175,484557.7835808395,2010-12-19 03:13:18,2040.9967585437607,7,45,-1.099929690361023,3.547901153564453,39.66672066534379,39.3787502795747,159.31664876352653,142.47900517851855,-9.713172767078504e-05,0.0956302732229232,0,0,0
13176,484587.7987349562,2010-12-19 03:13:48,2071.011912765613,7,45,-1.099929690361023,3.544663429260254,39.66672066534379,39.38791929562534,159.31664876352653,142.51152106208804,-6.47544875391759e-05,0.0956302732229232,0,0,0
13177,484617.8137998357,2010-12-19 03:14:18,2101.026977554915,7,45,-1.0997490882873535,3.5411019325256348,39.66672066534379,39.397088211435445,159.31664876352653,142.54400470119148,-9.713172767078504e-05,0.0956302732229232,0,0,0
13178,484647.8291330278,2010-12-19 03:14:48,2131.042310822316,7,45,-1.0997490882873535,3.537540435791016,39.66672066534379,39.40625725834592,159.31664876352653,142.57645630341088,-3.237724376958795e-05,0.0956302732229232,0,0,0
13179,484677.8440318593,2010-12-19 03:15:18,2161.0572095634134,7,45,-1.099568486213684,3.5338170528411865,39.66672066534379,39.41542617077895,159.31664876352653,142.60887417248523,-9.713172767078504e-05,0.0956302732229232,0,0,0
13180,484707.8592708068,2010-12-19 03:15:48,2191.072448581277,7,45,-1.0997490882873535,3.5300936698913574,39.66672066534379,39.42459514565965,159.31664876352653,142.64125814392227,-6.47544875391759e-05,0.0956302732229232,0,0,0
13181,484737.8761261319,2010-12-19 03:16:18,2221.089303906259,7,45,-1.0997490882873535,3.5260465145111084,39.66672066534379,39.43376461029394,159.31664876352653,142.67360852124207,-9.713172767078504e-05,0.0956302732229232,0,0,0
13182,484767.8894206559,2010-12-19 03:16:48,2251.1025983751874,7,45,-1.099929690361023,3.5218374729156494,39.66672066534379,39.4429330280915,159.31664876352653,142.70591895416044,-0.0001618862152099,0.0956302732229232,0,0,0
13183,484797.9045245976,2010-12-19 03:17:18,2281.117702301882,7,45,-1.099929690361023,3.5177903175354004,39.66672066534379,39.45210199685523,159.31664876352653,142.73819385625205,-0.0001295089750783,0.0956302732229232,0,0,0
13184,484827.9197428388,2010-12-19 03:17:48,2311.132920563093,7,45,-1.0997490882873535,3.5135812759399414,39.66672066534379,39.46127096227428,159.31664876352653,142.77042989982098,-0.0001295089750783,0.0956302732229232,0,0,0
13185,484857.9347508318,2010-12-19 03:18:18,2341.147928536011,7,45,-1.0997490882873535,3.5090487003326416,39.66672066534379,39.470439885128826,159.31664876352653,142.80262526852945,-0.0001618862152099,0.0956302732229232,0,0,0
13186,484887.9499048782,2010-12-19 03:18:48,2371.1630825824263,7,45,-1.0997490882873535,3.5041921138763428,39.66672066534379,39.47960886437408,159.31664876352653,142.83477825297263,-0.0001295089750783,0.0956302732229232,0,0,0
13187,484917.95079303446,2010-12-19 03:19:18,2401.16397083396,7,45,-1.0997490882873535,3.499173641204834,39.66672066534379,39.48877350475964,159.31664876352653,142.86687080706722,-0.0001295089750783,0.0956302732229232,0,0,0
13188,484947.9644903158,2010-12-19 03:19:48,2431.177668025047,7,45,-1.0997490882873535,3.4936695098876958,39.66672066534379,39.497942036738536,159.31664876352653,142.89892857226866,-0.0001295089750783,0.0956302732229232,0,0,0
13189,484977.97961300414,2010-12-19 03:20:18,2461.192790713429,7,45,-1.0997490882873535,3.4876797199249268,39.66672066534379,39.50711107864746,159.31664876352653,142.930935405071,-0.0001942634553415,0.0956302732229232,0,0,0
13190,485007.9947276325,2010-12-19 03:20:48,2491.2079054069163,7,45,-1.0997490882873535,3.4807186126708984,39.66672066534379,39.51628006421943,159.31664876352653,142.96288377108505,-0.0002590179501567,0.0956302732229232,0,0,0
13191,485038.0098355992,2010-12-19 03:21:18,2521.2230133085022,7,45,-1.0997490882873535,3.4731099605560303,39.66672066534379,39.52544905108677,159.31664876352653,142.99476591211945,-0.0002266406954731,0.0956302732229232,0,0,0
13192,485068.0249201778,2010-12-19 03:21:48,2551.2380979020872,7,45,-1.1001102924346924,3.4645299911499023,39.66672066534379,39.534618826986005,159.31664876352653,143.02657570090176,-0.0002266406954731,0.0956302732229232,0,0,0
13193,485098.0406339672,2010-12-19 03:22:18,2581.253811776613,7,45,-1.099929690361023,3.454331159591675,39.66672066534379,39.54378883149748,159.31664876352653,143.05829925489047,-0.0002266406954731,0.0956302732229232,0,0,0
13194,485128.05519298784,2010-12-19 03:22:48,2611.2683707772803,7,45,-1.099929690361023,3.441865921020508,39.66672066534379,39.55295840456836,159.31664876352653,143.08991813848405,-0.0003885269106831,0.0956302732229232,0,0,0
13195,485158.0702778972,2010-12-19 03:23:18,2641.2834556164767,7,45,-1.0997490882873535,3.4268107414245605,39.66672066534379,39.56212822516086,159.31664876352653,143.12141294788427,-0.0004209041653666,0.0956302732229232,0,0,0
13196,485188.0854008964,2010-12-19 03:23:48,2671.298578615632,7,45,-1.0997490882873535,3.407708168029785,39.66672066534379,39.57129802678262,159.31664876352653,143.15275285254907,-0.0005827903514727,0.0956302732229232,0,0,0
13197,485218.10063245066,2010-12-19 03:24:18,2701.313810169923,7,45,-1.0997490882873535,3.383587121963501,39.66672066534379,39.58046778094384,159.31664876352653,143.18389552657518,-0.0007122993702068,0.0956302732229232,0,0,0
13198,485248.115662293,2010-12-19 03:24:48,2731.3288400924607,7,45,-1.0997490882873535,3.3515336513519287,39.66672066534379,39.58963688912919,159.31664876352653,143.21477926386876,-0.0009065627818927,0.0956302732229232,0,0,0
13199,485278.1307523702,2010-12-19 03:25:18,2761.343930089492,7,45,-1.0997490882873535,3.3079864978790283,39.66672066534379,39.59880579845162,159.31664876352653,143.2453185795622,-0.0012627125252038,0.0956302732229232,0,0,0
13200,485308.145872397,2010-12-19 03:25:48,2791.359050121263,7,45,-1.0997490882873535,3.248574495315552,39.66672066534379,39.60797468588124,159.31664876352653,143.27539155414323,-0.0018455028766766,0.0956302732229232,0,0,0
13201,485338.1610054613,2010-12-19 03:26:18,2821.374183165416,7,45,-1.099929690361023,3.165850877761841,39.66672066534379,39.61714365266005,159.31664876352653,143.30482053895673,-0.0025578022468835,0.0956302732229232,0,0,0
13202,485368.1780135513,2010-12-19 03:26:48,2851.391191375847,7,45,-1.0997490882873535,3.0437889099121094,39.66672066534379,39.62631310359693,159.31664876352653,143.33332858085217,-0.003885269165039,0.0956302732229232,0,0,0
13203,485397.08186489873,2010-12-19 03:27:17,2880.2950426179764,7,45,-1.0997490882873535,2.843536376953125,39.66672066534379,39.63514252790596,159.31664876352653,143.35940419875655,-0.006961059756577,0.0956302732229232,0,0,0
13204,485412.40986231575,2010-12-19 03:27:33,2895.623040024985,7,45,-1.0997490882873535,2.699620008468628,39.66672066534379,39.639824880050654,159.31664876352653,143.37238617491033,-0.007640981581062,0.0956302732229232,0,0,0
13205,485472.4225828062,2010-12-19 03:28:33,60.017323110201154,8,45,0.0,3.409165143966675,39.66672066534379,39.639824880050654,159.31664876352653,143.37238617491033,0.0013922214275225,0.0956302732229232,0,0,0
13206,485472.60593483096,2010-12-19 03:28:33,0.189557306065478,9,45,-1.9243103452026844e-05,3.409165143966675,39.66672066534379,39.639824881063895,159.31664876352653,143.37238617836465,0.0,0.0939245000481605,0,0,0
13207,485477.4318428525,2010-12-19 03:28:38,5.01546523232814,9,45,0.0008838032954372,3.4177451133728027,39.66672163249714,39.63982488113645,159.3166520655992,143.372386178612,0.0011979580158367,0.0939245000481605,0,0,0
