Data_Point,Test_Time(s),Date_Time,Step_Time(s),Step_Index,Cycle_Index,Current(A),Voltage(V),Charge_Capacity(Ah),Discharge_Capacity(Ah),Charge_Energy(Wh),Discharge_Energy(Wh),dV/dt(V/s),Internal_Resistance(Ohm),Is_FC_Data,AC_Impedance(Ohm),ACI_Phase_Angle(Deg)
6785,251362.76961126787,2010-12-16 10:26:15,30.015005692241846,1,24,0.0,3.4978785514831543,20.44905049659647,20.419573418739557,82.18136328345443,73.78890768575341,0.0007446765666827,0.0958035141229629,0,0,0
6786,251392.7845883489,2010-12-16 10:26:45,60.029982778298304,1,24,0.0,3.5210280418396,20.44905049659647,20.419573418739557,82.18136328345443,73.78890768575341,0.0005504131549969,0.0958035141229629,0,0,0
6787,251422.79962028144,2010-12-16 10:27:15,90.04501469580072,1,24,0.0,3.5381879806518555,20.44905049659647,20.419573418739557,82.18136328345443,73.78890768575341,0.0004209041653666,0.0958035141229629,0,0,0
6788,251452.76773808492,2010-12-16 10:27:45,120.0131325143723,1,24,0.0,3.5513007640838623,20.44905049659647,20.419573418739557,82.18136328345443,73.78890768575341,0.0002913951757363,0.0958035141229629,0,0,0
6789,251482.7889423484,2010-12-16 10:28:15,30.01497798830166,2,24,0.550297200679779,3.6942458152771,20.45363768491847,20.419573418739557,82.19818673476759,73.78890768575341,0.0011332035064697,0.0958035141229629,0,0,0
6790,251512.80407523212,2010-12-16 10:28:45,60.03011088207963,2,24,0.550297200679779,3.728080034255981,20.458224906442148,20.419573418739557,82.21521550296676,73.78890768575341,0.0007770538213662,0.0958035141229629,0,0,0
6791,251542.8191066334,2010-12-16 10:29:15,90.04514227327233,2,24,0.5501165986061096,3.751391649246216,20.46281208074977,20.419573418739557,82.23237314091823,73.78890768575341,0.0005180359003134,0.0958035141229629,0,0,0
6792,251572.8340201212,2010-12-16 10:29:45,120.0600558312416,2,24,0.550297200679779,3.768713235855103,20.467399217710163,20.419573418739557,82.24962330835126,73.78890768575341,0.0004209041653666,0.0958035141229629,0,0,0
6793,251602.8489795834,2010-12-16 10:30:15,150.0750152082297,2,24,0.5501165986061096,3.78036904335022,20.471986336858212,20.419573418739557,82.2669390480882,73.78890768575341,0.0002913951757363,0.0958035141229629,0,0,0
6794,251632.86409884825,2010-12-16 10:30:45,180.09013456331718,2,24,0.550297200679779,3.7884633541107178,20.47657350340383,20.419573418739557,82.28429950667889,73.78890768575341,0.0001942634553415,0.0958035141229629,0,0,0
6795,251662.8790044414,2010-12-16 10:31:15,210.1050400812792,2,24,0.550297200679779,3.794776916503906,20.48116062624329,20.419573418739557,82.30169189899595,73.78890768575341,0.0001618862152099,0.0958035141229629,0,0,0
6796,251692.8958617513,2010-12-16 10:31:46,240.1218974864374,2,24,0.5501165986061096,3.800119161605835,20.48574807555439,20.419573418739557,82.31911248350389,73.78890768575341,9.713172767078504e-05,0.0958035141229629,0,0,0
6797,251722.90917468612,2010-12-16 10:32:16,270.13521041630514,2,24,0.550297200679779,3.8052995204925537,20.490334994050787,20.419573418739557,82.3365556331862,73.78890768575341,0.0001295089750783,0.0958035141229629,0,0,0
6798,251752.9240155232,2010-12-16 10:32:46,300.15005116308663,2,24,0.550297200679779,3.8103179931640634,20.494922190333465,20.419573418739557,82.35402302252623,73.78890768575341,9.713172767078504e-05,0.0958035141229629,0,0,0
6799,251782.93902238336,2010-12-16 10:33:16,330.16505802323474,2,24,0.5501165986061096,3.815012693405152,20.499509352172584,20.419573418739557,82.37151259248327,73.78890768575341,9.713172767078504e-05,0.0958035141229629,0,0,0
6800,251812.95404762923,2010-12-16 10:33:46,360.1800832691351,2,24,0.5501165986061096,3.8195455074310303,20.50409651925389,20.419573418739557,82.38902354344131,73.78890768575341,9.713172767078504e-05,0.0958035141229629,0,0,0
6801,251842.96905663476,2010-12-16 10:34:16,390.1950922746218,2,24,0.5501165986061096,3.823916435241699,20.50868365303068,20.419573418739557,82.40655479812379,73.78890768575341,9.713172767078504e-05,0.0958035141229629,0,0,0
6802,251872.984075189,2010-12-16 10:34:46,420.2101108288703,2,24,0.5501165986061096,3.828287363052368,20.51327077253183,20.419573418739557,82.42410588940741,73.78890768575341,0.0001295089750783,0.0958035141229629,0,0,0
6803,251902.99916334145,2010-12-16 10:35:16,450.2251989813112,2,24,0.550297200679779,3.832496404647827,20.51785790079448,20.419573418739557,82.4416764273748,73.78890768575341,0.0001295089750783,0.0958035141229629,0,0,0
6804,251933.01410095423,2010-12-16 10:35:46,480.24013663423983,2,24,0.5501165986061096,3.836705207824707,20.52244500492816,20.419573418739557,82.45926570682386,73.78890768575341,0.0001295089750783,0.0958035141229629,0,0,0
6805,251963.02905223108,2010-12-16 10:36:16,510.2550878709712,2,24,0.5501165986061096,3.840752363204956,20.52703212283662,20.419573418739557,82.47687378700596,73.78890768575341,0.0001295089750783,0.0958035141229629,0,0,0
6806,251993.04410390777,2010-12-16 10:36:46,540.270139637868,2,24,0.5501165986061096,3.844475746154785,20.531619279405536,20.419573418739557,82.49450036936307,73.78890768575341,9.713172767078504e-05,0.0958035141229629,0,0,0
6807,252023.05908883337,2010-12-16 10:37:16,570.2851244581709,2,24,0.5501165986061096,3.848522901535034,20.53620639455492,20.419573418739557,82.512144926945,73.78890768575341,9.713172767078504e-05,0.0958035141229629,0,0,0
6808,252053.074094295,2010-12-16 10:37:46,600.3001299348765,2,24,0.550297200679779,3.852570056915283,20.540793528929385,20.419573418739557,82.52980762726244,73.78890768575341,0.0001295089750783,0.0958035141229629,0,0,0
6809,252083.08911799203,2010-12-16 10:38:16,630.3151536319226,2,24,0.5501165986061096,3.8561315536499023,20.54538065762205,20.419573418739557,82.54748821971867,73.78890768575341,6.47544875391759e-05,0.0958035141229629,0,0,0
6810,252113.1040986921,2010-12-16 10:38:46,660.3301343169348,2,24,0.550297200679779,3.860340595245361,20.549967803230185,20.419573418739557,82.56518668336072,73.78890768575341,0.0001618862152099,0.0958035141229629,0,0,0
6811,252143.11913139652,2010-12-16 10:39:16,690.345167036433,2,24,0.5501165986061096,3.863902091979981,20.5545549458068,20.419573418739557,82.58290269757548,73.78890768575341,9.713172767078504e-05,0.0958035141229629,0,0,0
6812,252173.13425770396,2010-12-16 10:39:46,720.360293343821,2,24,0.5499359965324402,3.8676254749298096,20.559142082963064,20.419573418739557,82.60063590272584,73.78890768575341,9.713172767078504e-05,0.0958035141229629,0,0,0
6813,252203.1491272073,2010-12-16 10:40:16,750.3751628321245,2,24,0.5499359965324402,3.8711869716644287,20.5637292022996,20.419573418739557,82.61838602331073,73.78890768575341,6.47544875391759e-05,0.0958035141229629,0,0,0
6814,252233.1642577151,2010-12-16 10:40:46,780.3902933550028,2,24,0.550297200679779,3.874910354614258,20.568316387406423,20.419573418739557,82.63615297126829,73.78890768575341,0.0001295089750783,0.0958035141229629,0,0,0
6815,252263.1819540379,2010-12-16 10:41:16,810.4079897679997,2,24,0.5501165986061096,3.878471851348877,20.5729039141036,20.419573418739557,82.6539373881264,73.78890768575341,9.713172767078504e-05,0.0958035141229629,0,0,0
6816,252293.19608983543,2010-12-16 10:41:46,840.4221255354671,2,24,0.5501165986061096,3.881871461868286,20.577490864118257,20.419573418739557,82.67173522664763,73.78890768575341,9.713172767078504e-05,0.0958035141229629,0,0,0
6817,252323.2091791689,2010-12-16 10:42:16,870.4352148137866,2,24,0.550297200679779,3.8849472999572754,20.58207768995075,20.419573418739557,82.68954760975048,73.78890768575341,9.713172767078504e-05,0.0958035141229629,0,0,0
6818,252353.2241748312,2010-12-16 10:42:46,900.4502104710568,2,24,0.550297200679779,3.8880231380462646,20.58666484029968,20.419573418739557,82.70737569867674,73.78890768575341,9.713172767078504e-05,0.0958035141229629,0,0,0
6819,252383.23918206224,2010-12-16 10:43:16,930.4652176870906,2,24,0.550297200679779,3.891098976135254,20.591251992649585,20.419573418739557,82.72521767243366,73.78890768575341,9.713172767078504e-05,0.0958035141229629,0,0,0
6820,252413.25432773784,2010-12-16 10:43:46,960.4803633777132,2,24,0.550297200679779,3.8938510417938232,20.59583919857989,20.419573418739557,82.7430730204952,73.78890768575341,9.713172767078504e-05,0.0958035141229629,0,0,0
6821,252443.26920676487,2010-12-16 10:44:16,990.4952424047532,2,24,0.550297200679779,3.896441221237183,20.60042633166201,20.419573418739557,82.7609401875652,73.78890768575341,6.47544875391759e-05,0.0958035141229629,0,0,0
6822,252473.2841791041,2010-12-16 10:44:46,1020.5102147439976,2,24,0.5501165986061096,3.898869514465332,20.605013008713133,20.419573418739557,82.77881725483562,73.78890768575341,6.47544875391759e-05,0.0958035141229629,0,0,0
6823,252503.29920813444,2010-12-16 10:45:16,1050.5252437743154,2,24,0.5501165986061096,3.9012978076934814,20.609599440104308,20.419573418739557,82.79670448542521,73.78890768575341,6.47544875391759e-05,0.0958035141229629,0,0,0
6824,252533.31410314623,2010-12-16 10:45:46,1080.540138776108,2,24,0.5501165986061096,3.903402328491211,20.614186006405284,20.419573418739557,82.81460293034553,73.78890768575341,3.237724376958795e-05,0.0958035141229629,0,0,0
6825,252563.32927032036,2010-12-16 10:46:16,1110.5553060253787,2,24,0.550297200679779,3.9056687355041504,20.618772460855944,20.419573418739557,82.83251096418758,73.78890768575341,6.47544875391759e-05,0.0958035141229629,0,0,0
6826,252593.34411306208,2010-12-16 10:46:46,1140.570148742062,2,24,0.5499359965324402,3.90744948387146,20.62335881777472,20.419573418739557,82.8504282501147,73.78890768575341,0.0,0.0958035141229629,0,0,0
6827,252623.3590935115,2010-12-16 10:47:16,1170.5851291463755,2,24,0.5501165986061096,3.9097158908844,20.62794517422062,20.419573418739557,82.86835479499163,73.78890768575341,6.47544875391759e-05,0.0958035141229629,0,0,0
6828,252653.37412091275,2010-12-16 10:47:46,1200.6001565526522,2,24,0.5501165986061096,3.911658525466919,20.632531559265075,20.419573418739557,82.88629043738939,73.78890768575341,6.47544875391759e-05,0.0958035141229629,0,0,0
6829,252683.389248358,2010-12-16 10:48:16,1230.6152840479965,2,24,0.5499359965324402,3.9132773876190186,20.637117943400693,20.419573418739557,82.90423474218714,73.78890768575341,3.237724376958795e-05,0.0958035141229629,0,0,0
6830,252713.40415171057,2010-12-16 10:48:46,1260.630187350445,2,24,0.5501165986061096,3.915381669998169,20.64170438374857,20.419573418739557,82.92218778723672,73.78890768575341,6.47544875391759e-05,0.0958035141229629,0,0,0
6831,252743.41914497688,2010-12-16 10:49:16,1290.645180621778,2,24,0.5501165986061096,3.9171624183654794,20.646290675864105,20.419573418739557,82.94014850356983,73.78890768575341,6.47544875391759e-05,0.0958035141229629,0,0,0
6832,252773.4341597417,2010-12-16 10:49:46,1320.660195381584,2,24,0.550297200679779,3.918943166732788,20.65087699161216,20.419573418739557,82.95811766942224,73.78890768575341,6.47544875391759e-05,0.0958035141229629,0,0,0
6833,252803.4493812961,2010-12-16 10:50:16,1350.6754169109283,2,24,0.5501165986061096,3.9207239151000977,20.65546335604675,20.419573418739557,82.97609515513979,73.78890768575341,6.47544875391759e-05,0.0958035141229629,0,0,0
6834,252833.4641715823,2010-12-16 10:50:46,1380.6902072873652,2,24,0.550297200679779,3.9225046634674072,20.660049613443075,20.419573418739557,82.99408020252812,73.78890768575341,3.237724376958795e-05,0.0958035141229629,0,0,0
6835,252863.47918004144,2010-12-16 10:51:16,1410.7052156662926,2,24,0.5501165986061096,3.924123525619507,20.66463596281544,20.419573418739557,83.0120735208295,73.78890768575341,3.237724376958795e-05,0.0958035141229629,0,0,0
6836,252893.49617630715,2010-12-16 10:51:46,1440.7222120121996,2,24,0.5499359965324402,3.9257423877716064,20.669222647011647,20.419573418739557,83.03007603447797,73.78890768575341,3.237724376958795e-05,0.0958035141229629,0,0,0
6837,252923.50927888852,2010-12-16 10:52:16,1470.735314578586,2,24,0.550297200679779,3.927685022354126,20.67380873229113,20.419573418739557,83.04808400863539,73.78890768575341,9.713172767078504e-05,0.0958035141229629,0,0,0
6838,252953.5243460588,2010-12-16 10:52:46,1500.7503816786389,2,24,0.550297200679779,3.9293038845062256,20.6783951228892,20.419573418739557,83.06610117367536,73.78890768575341,3.237724376958795e-05,0.0958035141229629,0,0,0
6839,252983.53922247936,2010-12-16 10:53:16,1530.765258099193,2,24,0.5499359965324402,3.930922746658325,20.682981509172272,20.419573418739557,83.08412625634232,73.78890768575341,0.0,0.0958035141229629,0,0,0
6840,253013.55426869245,2010-12-16 10:53:46,1560.7803043072568,2,24,0.5501165986061096,3.9328653812408447,20.68756795336017,20.419573418739557,83.10215942253126,73.78890768575341,9.713172767078504e-05,0.0958035141229629,0,0,0
6841,253043.56925814928,2010-12-16 10:54:16,1590.79529376911,2,24,0.5497553944587708,3.9343223571777344,20.692154459367096,20.419573418739557,83.12020082014558,73.78890768575341,3.237724376958795e-05,0.0958035141229629,0,0,0
6842,253073.58427483888,2010-12-16 10:54:46,1620.810310453706,2,24,0.5499359965324402,3.936103105545044,20.696740879329464,20.419573418739557,83.1382498478206,73.78890768575341,6.47544875391759e-05,0.0958035141229629,0,0,0
6843,253103.5994220182,2010-12-16 10:55:16,1650.825457643058,2,24,0.5499359965324402,3.937721967697144,20.701327352088285,20.419573418739557,83.15630682789349,73.78890768575341,0.0,0.0958035141229629,0,0,0
6844,253133.6143304434,2010-12-16 10:55:46,1680.8403661484542,2,24,0.5501165986061096,3.939664602279663,20.705913850909752,20.419573418739557,83.17437194968686,73.78890768575341,6.47544875391759e-05,0.0958035141229629,0,0,0
6845,253163.62929056725,2010-12-16 10:56:16,1710.8553261820762,2,24,0.5501165986061096,3.9412834644317623,20.710500275043003,20.419573418739557,83.19244464380226,73.78890768575341,3.237724376958795e-05,0.0958035141229629,0,0,0
6846,253193.6443023697,2010-12-16 10:56:46,1740.8703380196105,2,24,0.5501165986061096,3.943064212799072,20.71508667719939,20.419573418739557,83.21052509228521,73.78890768575341,3.237724376958795e-05,0.0958035141229629,0,0,0
6847,253223.65952213967,2010-12-16 10:57:16,1770.8855577544891,2,24,0.5501165986061096,3.944683074951172,20.719673194316584,20.419573418739557,83.22861394952271,73.78890768575341,0.0,0.0958035141229629,0,0,0
6848,253253.6743424957,2010-12-16 10:57:46,1800.900378110529,2,24,0.550297200679779,3.9466257095336914,20.72425968059602,20.419573418739557,83.24671066135167,73.78890768575341,6.47544875391759e-05,0.0958035141229629,0,0,0
6849,253283.6893398372,2010-12-16 10:58:16,1830.9153754519905,2,24,0.550297200679779,3.948406457901001,20.72884604505148,20.419573418739557,83.26481466565609,73.78890768575341,9.713172767078504e-05,0.0958035141229629,0,0,0
6850,253313.70434680252,2010-12-16 10:58:46,1860.9303824424624,2,24,0.5499359965324402,3.9500253200531006,20.73343245701816,20.419573418739557,83.28292691244545,73.78890768575341,6.47544875391759e-05,0.0958035141229629,0,0,0
6851,253343.719368635,2010-12-16 10:59:16,1890.945404269856,2,24,0.5501165986061096,3.95180606842041,20.73801887201327,20.419573418739557,83.30104719397724,73.78890768575341,6.47544875391759e-05,0.0958035141229629,0,0,0
6852,253373.73449532333,2010-12-16 10:59:46,1920.9605309481672,2,24,0.5499359965324402,3.95358681678772,20.74260524511873,20.419573418739557,83.31917525274707,73.78890768575341,6.47544875391759e-05,0.0958035141229629,0,0,0
6853,253403.74937485665,2010-12-16 11:00:16,1950.9754105065297,2,24,0.5497553944587708,3.95504379272461,20.74719168360489,20.419573418739557,83.33731155931783,73.78890768575341,3.237724376958795e-05,0.0958035141229629,0,0,0
6854,253433.76438300492,2010-12-16 11:00:46,1980.990418619796,2,24,0.5501165986061096,3.956986427307129,20.75177811602831,20.419573418739557,83.35545582932679,73.78890768575341,6.47544875391759e-05,0.0958035141229629,0,0,0
6855,253463.77939091777,2010-12-16 11:01:16,2011.005426532564,2,24,0.5501165986061096,3.958929061889648,20.756364567459343,20.419573418739557,83.37360805299856,73.78890768575341,9.713172767078504e-05,0.0958035141229629,0,0,0
6856,253493.7962120276,2010-12-16 11:01:46,2041.0222477376392,2,24,0.550297200679779,3.960547924041748,20.760951292268945,20.419573418739557,83.39176949397061,73.78890768575341,6.47544875391759e-05,0.0958035141229629,0,0,0
6857,253523.80945518383,2010-12-16 11:02:16,2071.0354908638037,2,24,0.5499359965324402,3.962166786193848,20.76553744167667,20.419573418739557,83.40993679586256,73.78890768575341,6.47544875391759e-05,0.0958035141229629,0,0,0
6858,253553.82455140635,2010-12-16 11:02:46,2101.050587051239,2,24,0.5499359965324402,3.964109420776367,20.77012387870417,20.419573418739557,83.42811329518277,73.78890768575341,6.47544875391759e-05,0.0958035141229629,0,0,0
6859,253583.8394285487,2010-12-16 11:03:16,2131.0654641935894,2,24,0.550297200679779,3.9658901691436768,20.774710318666912,20.419573418739557,83.44629804291597,73.78890768575341,3.237724376958795e-05,0.0958035141229629,0,0,0
6860,253613.8544469225,2010-12-16 11:03:47,2161.080482537314,2,24,0.5501165986061096,3.967509031295776,20.779296721991106,20.419573418739557,83.464490793852,73.78890768575341,6.47544875391759e-05,0.0958035141229629,0,0,0
6861,253643.86968870225,2010-12-16 11:04:17,2191.0957243922376,2,24,0.5501165986061096,3.969289779663086,20.783883266504372,20.419573418739557,83.48269221824523,73.78890768575341,3.237724376958795e-05,0.0958035141229629,0,0,0
6862,253673.88445191103,2010-12-16 11:04:47,2221.1104875258816,2,24,0.5501165986061096,3.971070528030396,20.78846966244611,20.419573418739557,83.50090126652572,73.78890768575341,3.237724376958795e-05,0.0958035141229629,0,0,0
6863,253703.8995845292,2010-12-16 11:05:17,2251.1256201539986,2,24,0.5501165986061096,3.972851276397705,20.793056176671698,20.419573418739557,83.51911909830737,73.78890768575341,6.47544875391759e-05,0.0958035141229629,0,0,0
6864,253733.91448293944,2010-12-16 11:05:47,2281.1405185542485,2,24,0.550297200679779,3.9747939109802246,20.79764259390993,20.419573418739557,83.53734490373867,73.78890768575341,3.237724376958795e-05,0.0958035141229629,0,0,0
6865,253763.9295006165,2010-12-16 11:06:17,2311.155536251364,2,24,0.5501165986061096,3.976412773132324,20.802229085306188,20.419573418739557,83.55557936410877,73.78890768575341,3.237724376958795e-05,0.0958035141229629,0,0,0
6866,253793.9444878578,2010-12-16 11:06:47,2341.170523472641,2,24,0.5501165986061096,3.978355407714844,20.806815551858463,20.419573418739557,83.57382176156686,73.78890768575341,9.713172767078504e-05,0.0958035141229629,0,0,0
6867,253823.959498738,2010-12-16 11:07:17,2371.185534352793,2,24,0.550297200679779,3.9802980422973633,20.81140191817858,20.419573418739557,83.59207259689906,73.78890768575341,6.47544875391759e-05,0.0958035141229629,0,0,0
6868,253853.97452436984,2010-12-16 11:07:47,2401.2005599846543,2,24,0.5501165986061096,3.982240676879883,20.81598830801151,20.419573418739557,83.61033208247898,73.78890768575341,6.47544875391759e-05,0.0958035141229629,0,0,0
6869,253883.98952028772,2010-12-16 11:08:17,2431.2155559025728,2,24,0.5501165986061096,3.9841833114624015,20.82057468739952,20.419573418739557,83.62860008880281,73.78890768575341,6.47544875391759e-05,0.0958035141229629,0,0,0
6870,253914.00474534085,2010-12-16 11:08:47,2461.230781055935,2,24,0.5501165986061096,3.985964059829712,20.825161086865315,20.419573418739557,83.64687685926523,73.78890768575341,6.47544875391759e-05,0.0958035141229629,0,0,0
6871,253944.0195419428,2010-12-16 11:09:17,2491.245577602727,2,24,0.5501165986061096,3.9877448081970215,20.829747506964253,20.419573418739557,83.66516253577427,73.78890768575341,3.237724376958795e-05,0.0958035141229629,0,0,0
6872,253974.0346910619,2010-12-16 11:09:47,2521.2607266767686,2,24,0.5497553944587708,3.989687442779541,20.83433388953127,20.419573418739557,83.68345674970037,73.78890768575341,0.0,0.0958035141229629,0,0,0
6873,254004.0496080384,2010-12-16 11:10:17,2551.275643748482,2,24,0.5499359965324402,3.991630077362061,20.83892023631681,20.419573418739557,83.70175983120741,73.78890768575341,3.237724376958795e-05,0.0958035141229629,0,0,0
6874,254034.06456451825,2010-12-16 11:10:47,2581.2906001330234,2,24,0.5501165986061096,3.99373459815979,20.843506635111424,20.419573418739557,83.72007215859264,73.78890768575341,6.47544875391759e-05,0.0958035141229629,0,0,0
6875,254064.0795782755,2010-12-16 11:11:17,2611.3056139153973,2,24,0.5499359965324402,3.9956769943237305,20.84809300672529,20.419573418739557,83.73839347690276,73.78890768575341,3.237724376958795e-05,0.0958035141229629,0,0,0
6876,254094.09637969133,2010-12-16 11:11:47,2641.3224153963906,2,24,0.5501165986061096,3.99778151512146,20.852679707738908,20.419573418739557,83.75672535929006,73.78890768575341,6.47544875391759e-05,0.0958035141229629,0,0,0
6877,254124.10962124864,2010-12-16 11:12:17,2671.335656958662,2,24,0.5501165986061096,3.9998860359191895,20.857265792210136,20.419573418739557,83.77506399434054,73.78890768575341,9.713172767078504e-05,0.0958035141229629,0,0,0
6878,254154.1246047005,2010-12-16 11:12:47,2701.3506403153237,2,24,0.550297200679779,4.001990795135498,20.86185216632595,20.419573418739557,83.7934132432776,73.78890768575341,6.47544875391759e-05,0.0958035141229629,0,0,0
6879,254184.1398169568,2010-12-16 11:13:17,2731.365852571592,2,24,0.5499359965324402,4.0037713050842285,20.86643847759609,20.419573418739557,83.81177178833654,73.78890768575341,3.23295607813634e-05,0.0958035141229629,0,0,0
6880,254214.1415254745,2010-12-16 11:13:47,2761.36756117955,2,24,0.5501165986061096,4.006037712097168,20.871022765969247,20.419573418739557,83.8301319438645,73.78890768575341,6.47544875391759e-05,0.0958035141229629,0,0,0
6881,254244.15401337636,2010-12-16 11:14:17,2791.380048991143,2,24,0.5499359965324402,4.008304119110107,20.87560879012513,20.419573418739557,83.84850887784694,73.78890768575341,6.47544875391759e-05,0.0958035141229629,0,0,0
6882,254274.16901483803,2010-12-16 11:14:47,2821.39505045787,2,24,0.5499359965324402,4.010408878326416,20.88019520321366,20.419573418739557,83.8668971897945,73.78890768575341,6.47544875391759e-05,0.0958035141229629,0,0,0
6883,254304.1840192872,2010-12-16 11:15:17,2851.4100549370937,2,24,0.5499359965324402,4.012513160705566,20.884781546837186,20.419573418739557,83.88529528277671,73.78890768575341,3.23295607813634e-05,0.0958035141229629,0,0,0
6884,254334.19921977416,2010-12-16 11:15:47,2881.4252554641744,2,24,0.5497553944587708,4.014617919921875,20.88936784500348,20.419573418739557,83.90370333900874,73.78890768575341,3.24249267578125e-05,0.0958035141229629,0,0,0
6885,254364.2141618581,2010-12-16 11:16:17,2911.440197472942,2,24,0.5499359965324402,4.017045974731445,20.89395422216223,20.419573418739557,83.92212198646726,73.78890768575341,9.70840483205393e-05,0.0958035141229629,0,0,0
6886,254394.22903578743,2010-12-16 11:16:47,2941.45507142736,2,24,0.5501165986061096,4.019150733947754,20.898540532014717,20.419573418739557,83.94055072140348,73.78890768575341,3.24249267578125e-05,0.0958035141229629,0,0,0
6887,254424.24403493849,2010-12-16 11:17:17,2971.470070578324,2,24,0.5501165986061096,4.021740913391113,20.90312685040712,20.419573418739557,83.95898987060929,73.78890768575341,9.71794142969884e-05,0.0958035141229629,0,0,0
6888,254454.2591720828,2010-12-16 11:17:47,3001.4852077076416,2,24,0.5499359965324402,4.023845195770264,20.907713215141616,20.419573418739557,83.97743990655961,73.78890768575341,6.47544875391759e-05,0.0958035141229629,0,0,0
6889,254484.274074082,2010-12-16 11:18:17,3031.500109721885,2,24,0.5501165986061096,4.026435375213623,20.91229947384672,20.419573418739557,83.99590019234628,73.78890768575341,0.0001295089750783,0.0958035141229629,0,0,0
6890,254514.2891478687,2010-12-16 11:18:47,3061.515183518602,2,24,0.5501165986061096,4.028540134429932,20.91688581555859,20.419573418739557,84.01437163519881,73.78890768575341,3.24249267578125e-05,0.0958035141229629,0,0,0
6891,254544.30410459908,2010-12-16 11:19:17,3091.530140233967,2,24,0.5501165986061096,4.030968189239502,20.921472128082456,20.419573418739557,84.03285376446718,73.78890768575341,6.47544875391759e-05,0.0958035141229629,0,0,0
6892,254574.3190785173,2010-12-16 11:19:47,3121.5451141320905,2,24,0.5499359965324402,4.033396720886231,20.926058475408443,20.419573418739557,84.05134711821796,73.78890768575341,0.0,0.0958035141229629,0,0,0
6893,254604.33422265903,2010-12-16 11:20:17,3151.5602582838837,2,24,0.5499359965324402,4.035986423492432,20.93064482812659,20.419573418739557,84.06985165253836,73.78890768575341,6.47544875391759e-05,0.0958035141229629,0,0,0
6894,254634.3492488924,2010-12-16 11:20:47,3181.575284572378,2,24,0.5497553944587708,4.038252830505371,20.935231206491427,20.419573418739557,84.08836761969326,73.78890768575341,6.47544875391759e-05,0.0958035141229629,0,0,0
6895,254664.3642248256,2010-12-16 11:21:17,3211.5902605155907,2,24,0.5501165986061096,4.04100513458252,20.93981756038511,20.419573418739557,84.10689487751408,73.78890768575341,9.71794142969884e-05,0.0958035141229629,0,0,0
6896,254694.3792481918,2010-12-16 11:21:47,3241.605283811639,2,24,0.5501165986061096,4.043271541595459,20.944403921914883,20.419573418739557,84.12543364140119,73.78890768575341,6.47544875391759e-05,0.0958035141229629,0,0,0
6897,254724.3959024063,2010-12-16 11:22:17,3271.6219381965893,2,24,0.5497553944587708,4.045861721038818,20.948990572430805,20.419573418739557,84.14398516187283,73.78890768575341,3.24249267578125e-05,0.0958035141229629,0,0,0
6898,254754.40950484163,2010-12-16 11:22:47,3301.635540456444,2,24,0.5501165986061096,4.048613548278809,20.953576690625187,20.419573418739557,84.16254626835052,73.78890768575341,9.70840483205393e-05,0.0958035141229629,0,0,0
6899,254784.4241336059,2010-12-16 11:23:17,3331.6501692558018,2,24,0.5501165986061096,4.051042079925537,20.958163008024503,20.419573418739557,84.18112003306219,73.78890768575341,6.47544875391759e-05,0.0958035141229629,0,0,0
6900,254814.4395691929,2010-12-16 11:23:47,3361.6656048979576,2,24,0.5501165986061096,4.053793907165527,20.962749401297856,20.419573418739557,84.19970603274807,73.78890768575341,6.47544875391759e-05,0.0958035141229629,0,0,0
6901,254844.45416909532,2010-12-16 11:24:17,3391.6802047753445,2,24,0.5501165986061096,4.056384086608887,20.96733569521129,20.419573418739557,84.21830372391777,73.78890768575341,6.47544875391759e-05,0.0958035141229629,0,0,0
6902,254874.46917066732,2010-12-16 11:24:47,3421.695206307234,2,24,0.5501165986061096,4.058974266052246,20.97192202750371,20.419573418739557,84.236913805525,73.78890768575341,3.23295607813634e-05,0.0958035141229629,0,0,0
6903,254904.484163252,2010-12-16 11:25:17,3451.710198871808,2,24,0.550297200679779,4.0617265701293945,20.976508442459348,20.419573418739557,84.25553631734996,73.78890768575341,9.71794142969884e-05,0.0958035141229629,0,0,0
6904,254934.4991776609,2010-12-16 11:25:47,3481.7252132757285,2,24,0.5499359965324402,4.064316749572754,20.981094733942967,20.419573418739557,84.27417064794957,73.78890768575341,3.24249267578125e-05,0.0958035141229629,0,0,0
6905,254964.5142106561,2010-12-16 11:26:17,3511.7402462909627,2,24,0.5501165986061096,4.067230701446533,20.98568107047436,20.419573418739557,84.2928177720042,73.78890768575341,9.71794142969884e-05,0.0958035141229629,0,0,0
6906,254994.5291907045,2010-12-16 11:26:47,3541.755226344403,2,24,0.5501165986061096,4.069982528686523,20.9902673908896,20.419573418739557,84.31147752549718,73.78890768575341,9.70840483205393e-05,0.0958035141229629,0,0,0
6907,255024.54420643675,2010-12-16 11:27:17,3571.770242051567,2,24,0.5501165986061096,4.072896480560303,20.99485375973031,20.419573418739557,84.33015026196647,73.78890768575341,9.70840483205393e-05,0.0958035141229629,0,0,0
6908,255054.55932817777,2010-12-16 11:27:47,3601.785363792592,2,24,0.5501165986061096,4.075648784637451,20.99944005766526,20.419573418739557,84.3488355876887,73.78890768575341,6.47544875391759e-05,0.0958035141229629,0,0,0
6909,255084.57438575407,2010-12-16 11:28:17,3631.8004213689446,2,24,0.5497553944587708,4.078400611877441,21.0040264310119,20.419573418739557,84.36753428786365,73.78890768575341,6.47544875391759e-05,0.0958035141229629,0,0,0
6910,255114.5892239596,2010-12-16 11:28:47,3661.8152595994648,2,24,0.5501165986061096,4.08147668838501,21.00861278236369,20.419573418739557,84.38624612473225,73.78890768575341,9.71794142969884e-05,0.0958035141229629,0,0,0
6911,255144.6042367044,2010-12-16 11:29:17,3691.8302723191946,2,24,0.5501165986061096,4.084066867828369,21.013199122156667,20.419573418739557,84.40497104996534,73.78890768575341,3.24249267578125e-05,0.0958035141229629,0,0,0
6912,255174.6194497225,2010-12-16 11:29:47,3721.8454853373582,2,24,0.5499359965324402,4.087304592132568,21.017785495294827,20.419573418739557,84.42370957391913,73.78890768575341,0.0001295089750783,0.0958035141229629,0,0,0
6913,255204.6342644796,2010-12-16 11:30:17,3751.8603000944654,2,24,0.5501165986061096,4.090056419372559,21.02237182454972,20.419573418739557,84.44246147997261,73.78890768575341,3.23295607813634e-05,0.0958035141229629,0,0,0
6914,255234.64928250256,2010-12-16 11:30:47,3781.8753182126297,2,24,0.5501165986061096,4.093132495880127,21.026958199040877,20.419573418739557,84.46122707325176,73.78890768575341,0.0001295089750783,0.0958035141229629,0,0,0
6915,255264.6642872124,2010-12-16 11:31:17,3811.8903228322015,2,24,0.5499359965324402,4.095884323120117,21.031544562592316,20.419573418739557,84.48000631607324,73.78890768575341,6.47544875391759e-05,0.0958035141229629,0,0,0
6916,255294.6792776015,2010-12-16 11:31:47,3841.905313216349,2,24,0.5501165986061096,4.099122047424316,21.03613096649181,20.419573418739557,84.49879956925655,73.78890768575341,6.47544875391759e-05,0.0958035141229629,0,0,0
6917,255324.69611249067,2010-12-16 11:32:17,3871.922148200715,2,24,0.5499359965324402,4.102035999298096,21.04071771085192,20.419573418739557,84.51760826471337,73.78890768575341,3.23295607813634e-05,0.0958035141229629,0,0,0
6918,255354.70930016885,2010-12-16 11:32:47,3901.9353357886735,2,24,0.5499359965324402,4.105273723602295,21.04530383949985,20.419573418739557,84.53642855566316,73.78890768575341,6.47544875391759e-05,0.0958035141229629,0,0,0
6919,255384.7243216554,2010-12-16 11:33:17,3931.9503573052943,2,24,0.5501165986061096,4.108511447906494,21.049890130047388,20.419573418739557,84.55526382707282,73.78890768575341,9.70840483205393e-05,0.0958035141229629,0,0,0
6920,255414.73934237505,2010-12-16 11:33:47,3961.965378055007,2,24,0.5501165986061096,4.111587524414063,21.054476477360367,20.419573418739557,84.57411375320966,73.78890768575341,9.71794142969884e-05,0.0958035141229629,0,0,0
6921,255444.754480983,2010-12-16 11:34:17,3991.980516723153,2,24,0.550297200679779,4.114824771881104,21.05906284118035,20.419573418739557,84.59297818461698,73.78890768575341,9.70840483205393e-05,0.0958035141229629,0,0,0
6922,255474.76933139385,2010-12-16 11:34:47,4021.995367038746,2,24,0.5501165986061096,4.117900848388672,21.063649215449253,20.419573418739557,84.61185729955876,73.78890768575341,6.47544875391759e-05,0.0958035141229629,0,0,0
6923,255504.78435925627,2010-12-16 11:35:17,4052.0103949863706,2,24,0.550297200679779,4.121138572692871,21.06823568258913,20.419573418739557,84.63075145167912,73.78890768575341,9.71794142969884e-05,0.0958035141229629,0,0,0
6924,255534.7993444124,2010-12-16 11:35:47,4082.0253800272217,2,24,0.5501165986061096,4.12437629699707,21.07282214081019,20.419573418739557,84.64966035329545,73.78890768575341,6.47544875391759e-05,0.0958035141229629,0,0,0
6925,255564.8144866143,2010-12-16 11:36:18,4112.040522239187,2,24,0.5501165986061096,4.1277756690979,21.07740861112328,20.419573418739557,84.66858430733322,73.78890768575341,9.70840483205393e-05,0.0958035141229629,0,0,0
6926,255594.82950777007,2010-12-16 11:36:48,4142.055543384885,2,24,0.5501165986061096,4.1310133934021,21.081995073706917,20.419573418739557,84.68752332493533,73.78890768575341,0.0001295089750783,0.0958035141229629,0,0,0
6927,255624.8443793385,2010-12-16 11:37:18,4172.070414978427,2,24,0.5499359965324402,4.134251117706299,21.086581483149228,20.419573418739557,84.70647736042008,73.78890768575341,6.47544875391759e-05,0.0958035141229629,0,0,0
6928,255654.85938687035,2010-12-16 11:37:48,4202.085422510247,2,24,0.550297200679779,4.137812614440918,21.09116786633112,20.419573418739557,84.72544653681811,73.78890768575341,0.0001295089750783,0.0958035141229629,0,0,0
6929,255684.8743942368,2010-12-16 11:38:18,4232.100429856605,2,24,0.5501165986061096,4.141050338745117,21.095754355543097,20.419573418739557,84.74443162256765,73.78890768575341,0.0001295089750783,0.0958035141229629,0,0,0
6930,255714.88939850547,2010-12-16 11:38:48,4262.115434145354,2,24,0.5501165986061096,4.1444501876831055,21.100340827188926,20.419573418739557,84.76343216858416,73.78890768575341,6.47544875391759e-05,0.0958035141229629,0,0,0
6931,255744.90440577164,2010-12-16 11:39:18,4292.130441416525,2,24,0.5501165986061096,4.148011684417725,21.10492720049907,20.419573418739557,84.78244835846337,73.78890768575341,9.71794142969884e-05,0.0958035141229629,0,0,0
6932,255774.9196995909,2010-12-16 11:39:48,4322.14573527586,2,24,0.5495747923851013,4.151087284088135,21.10951366003168,20.419573418739557,84.80148069718217,73.78890768575341,3.23295607813634e-05,0.0958035141229629,0,0,0
6933,255804.93444108067,2010-12-16 11:40:18,4352.160476730556,2,24,0.5501165986061096,4.154972553253174,21.11410004508913,20.419573418739557,84.82052863663253,73.78890768575341,0.0001295089750783,0.0958035141229629,0,0,0
6934,255834.94955272647,2010-12-16 11:40:48,4382.175588346386,2,24,0.5499359965324402,4.158372402191162,21.11868643865601,20.419573418739557,84.8395927186597,73.78890768575341,9.71794142969884e-05,0.0958035141229629,0,0,0
6935,255864.96456884476,2010-12-16 11:41:18,4412.190604489634,2,24,0.5501165986061096,4.161933898925781,21.12327282845494,20.419573418739557,84.85867291676283,73.78890768575341,6.47544875391759e-05,0.0958035141229629,0,0,0
6936,255894.97948663324,2010-12-16 11:41:48,4442.205522313217,2,24,0.550297200679779,4.1654953956604,21.12785922305597,20.419573418739557,84.87776938731899,73.78890768575341,9.71794142969884e-05,0.0958035141229629,0,0,0
6937,255924.99642832312,2010-12-16 11:42:18,4472.222464018153,2,24,0.5501165986061096,4.16921854019165,21.13244590635785,20.419573418739557,84.8968834459995,73.78890768575341,0.0001295089750783,0.0958035141229629,0,0,0
6938,255955.00947432377,2010-12-16 11:42:48,4502.235509938578,2,24,0.5499359965324402,4.172618389129639,21.13703201983296,20.419573418739557,84.9160115920612,73.78890768575341,6.47544875391759e-05,0.0958035141229629,0,0,0
6939,255985.024604566,2010-12-16 11:43:18,4532.25064020582,2,24,0.5499359965324402,4.176179885864258,21.141618428032785,20.419573418739557,84.93515748362887,73.78890768575341,6.47544875391759e-05,0.0958035141229629,0,0,0
6940,256015.0395064699,2010-12-16 11:43:48,4562.265542114801,2,24,0.5501165986061096,4.180065155029297,21.146204837263856,20.419573418739557,84.95432010288943,73.78890768575341,9.71794142969884e-05,0.0958035141229629,0,0,0
6941,256045.0546295693,2010-12-16 11:44:18,4592.280665199169,2,24,0.550297200679779,4.183788299560547,21.15079129519829,20.419573418739557,84.9734998153654,73.78890768575341,9.70840483205393e-05,0.0958035141229629,0,0,0
6942,256075.06952542323,2010-12-16 11:44:48,4622.295561038044,2,24,0.5499359965324402,4.187188148498535,21.15537772627304,20.419573418739557,84.99269630721835,73.78890768575341,3.24249267578125e-05,0.0958035141229629,0,0,0
6943,256105.0845123638,2010-12-16 11:45:18,4652.310548003686,2,24,0.5501165986061096,4.191073417663574,21.15996415040385,20.419573418739557,85.01190989467209,73.78890768575341,9.71794142969884e-05,0.0958035141229629,0,0,0
6944,256135.102083866,2010-12-16 11:45:48,4682.32811957101,2,24,0.5499359965324402,4.194958209991455,21.16455100188504,20.419573418739557,85.03114248763542,73.78890768575341,9.70840483205393e-05,0.0958035141229629,0,0,0
6945,256165.11454688085,2010-12-16 11:46:18,4712.340582495672,2,24,0.5501165986061096,4.198519706726074,21.169137058267467,20.419573418739557,85.0503889293307,73.78890768575341,9.70840483205393e-05,0.0958035141229629,0,0,0
6946,256175.55182230927,2010-12-16 11:46:28,4722.777857924142,2,24,0.5501165986061096,4.200138568878174,21.170731926038915,20.419573418739557,85.0570862381908,73.78890768575341,0.0001618385285837,0.0958035141229629,0,0,0
6947,256205.560781188,2010-12-16 11:46:58,30.014968384402724,3,24,0.0,4.106083393096924,21.170731926038915,20.419573418739557,85.0570862381908,73.78890768575341,-0.0004208564641885,0.0958035141229629,0,0,0
6948,256235.57591261817,2010-12-16 11:47:28,60.03009982456344,3,24,0.0,4.093941688537598,21.170731926038915,20.419573418739557,85.0570862381908,73.78890768575341,-0.0002590179501567,0.0958035141229629,0,0,0
6949,256265.59082364483,2010-12-16 11:47:58,90.04501086627107,3,24,0.0,4.0866570472717285,21.170731926038915,20.419573418739557,85.0570862381908,73.78890768575341,-0.0001618385285837,0.0958035141229629,0,0,0
6950,256295.55897475625,2010-12-16 11:48:28,120.01316198270312,3,24,0.0,4.08212423324585,21.170731926038915,20.419573418739557,85.0570862381908,73.78890768575341,-9.70840483205393e-05,0.0958035141229629,0,0,0
6951,256295.571131106,2010-12-16 11:48:29,0.015737487131439,4,24,1.0048907995224,4.199814796447754,21.17073634460737,20.419573418739557,85.05710479571822,73.78890768575341,-3.24249267578125e-05,0.0958035141229629,0,0,0
6952,256296.508636858,2010-12-16 11:48:30,0.953243239137392,4,24,0.954320192337036,4.199814796447754,21.17099003077496,20.419573418739557,85.05817021770044,73.78890768575341,-3.24249267578125e-05,0.0958035141229629,0,0,0
6953,256298.5553234388,2010-12-16 11:48:32,2.999929759825412,4,24,0.9037495851516724,4.199814796447754,21.171517195432905,20.419573418739557,85.06038419403245,73.78890768575341,-3.24249267578125e-05,0.0958035141229629,0,0,0
6954,256301.6647798064,2010-12-16 11:48:35,6.10938614243907,4,24,0.8535401821136475,4.199653148651123,21.172275033185898,20.419573418739557,85.06356694996116,73.78890768575341,-3.23295607813634e-05,0.0958035141229629,0,0,0
6955,256305.88342216564,2010-12-16 11:48:39,10.328028471619762,4,24,0.8031502366065979,4.199814796447754,21.17324450811106,20.419573418739557,85.06763852694932,73.78890768575341,0.0,0.0958035141229629,0,0,0
6956,256311.44600306425,2010-12-16 11:48:44,15.8906094003154,4,24,0.752940833568573,4.199653148651123,21.174445402055323,20.419573418739557,85.07268202507107,73.78890768575341,-6.47544875391759e-05,0.0958035141229629,0,0,0
6957,256318.7111645141,2010-12-16 11:48:52,23.1557708200792,4,24,0.7027314305305481,4.199814796447754,21.175912308086225,20.419573418739557,85.07884270905106,73.78890768575341,0.0,0.0958035141229629,0,0,0
6958,256328.3203399526,2010-12-16 11:49:01,32.76494632874885,4,24,0.6527026891708374,4.199814796447754,21.177718166292586,20.419573418739557,85.08642694681234,73.78890768575341,0.0,0.0958035141229629,0,0,0
6959,256341.72631960732,2010-12-16 11:49:15,46.17092591333048,4,24,0.6026738882064819,4.199653148651123,21.18005061245491,20.419573418739557,85.09622277339274,73.78890768575341,-3.23295607813634e-05,0.0958035141229629,0,0,0
6960,256362.3666582312,2010-12-16 11:49:35,66.81126454716158,4,24,0.5526451468467712,4.199814796447754,21.183352084767805,20.419573418739557,85.11008828625103,73.78890768575341,-3.24249267578125e-05,0.0958035141229629,0,0,0
6961,256398.1938809469,2010-12-16 11:50:11,102.6384872579072,4,24,0.5026163458824158,4.199814796447754,21.188578288714147,20.419573418739557,85.13203727264383,73.78890768575341,-3.24249267578125e-05,0.0958035141229629,0,0,0
6962,256466.53811002235,2010-12-16 11:51:20,170.98271641854924,4,24,0.4525876045227051,4.199653148651123,21.197599753776565,20.419573418739557,85.16992557153802,73.78890768575341,0.0,0.0958035141229629,0,0,0
6963,256573.00297694388,2010-12-16 11:53:06,277.44758326990626,4,24,0.402558833360672,4.199653148651123,21.21021449065266,20.419573418739557,85.2229048780331,73.78890768575341,0.0,0.0958035141229629,0,0,0
6964,256707.1251259331,2010-12-16 11:55:20,411.5697322691467,4,24,0.3525300621986389,4.199814796447754,21.22425846318037,20.419573418739557,85.28188666406233,73.78890768575341,0.0,0.0958035141229629,0,0,0
6965,256867.82498036505,2010-12-16 11:58:01,572.2695866911122,4,24,0.3023206889629364,4.199814796447754,21.238859276662183,20.419573418739557,85.34320709588069,73.78890768575341,0.0,0.0958035141229629,0,0,0
6966,257062.4773686016,2010-12-16 12:01:16,766.9219749827455,4,24,0.2522919178009033,4.199814796447754,21.253833720920703,20.419573418739557,85.40609672428151,73.78890768575341,3.23295607813634e-05,0.0958035141229629,0,0,0
6967,257304.3941375416,2010-12-16 12:05:17,1008.8387438475746,4,24,0.2022631466388702,4.199814796447754,21.26905910030293,20.419573418739557,85.47004028581496,73.78890768575341,-3.24249267578125e-05,0.0958035141229629,0,0,0
6968,257625.23127572009,2010-12-16 12:10:38,1329.6758820561165,4,24,0.1522343754768371,4.199814796447754,21.284763297613218,20.419573418739557,85.53599489362173,73.78890768575341,3.23295607813634e-05,0.0958035141229629,0,0,0
6969,258113.03377330868,2010-12-16 12:18:46,1817.4783797299435,4,24,0.102205604314804,4.199653148651123,21.30175505555658,20.419573418739557,85.60735689810666,73.78890768575341,-3.23295607813634e-05,0.0958035141229629,0,0,0
6970,259089.73251480152,2010-12-16 12:35:03,2794.177121127575,4,24,0.0518156178295612,4.199653148651123,21.321786096288857,20.419573418739557,85.69148341990751,73.78890768575341,-3.23295607813634e-05,0.0958035141229629,0,0,0
6971,259159.2466813915,2010-12-16 12:36:12,2863.6912876974625,4,24,0.0498289167881011,4.199653148651123,21.322779679057177,20.419573418739557,85.69565627427811,73.78890768575341,0.0,0.0958035141229629,0,0,0
6972,259189.2545172372,2010-12-16 12:36:42,30.015165444779893,5,24,0.0,4.191073417663574,21.322779679057177,20.419573418739557,85.69565627427811,73.78890768575341,-3.23295607813634e-05,0.0958035141229629,0,0,0
6973,259219.25420893112,2010-12-16 12:37:12,60.01485713371351,5,24,0.0,4.189778327941895,21.322779679057177,20.419573418739557,85.69565627427811,73.78890768575341,0.0,0.0958035141229629,0,0,0
6974,259219.43457953577,2010-12-16 12:37:13,0.186929907886163,6,24,-1.9243103452026844e-05,4.189454555511475,21.322779679057177,20.419573418739567,85.69565627427811,73.78890768575346,0.0,0.0995923578739166,0,0,0
6975,259224.26305989345,2010-12-16 12:37:18,5.015410200383261,6,24,0.0005225847125984,4.189454555511475,21.322780519539656,20.419573419910925,85.6956597956434,73.7889076906608,-6.47544875391759e-05,0.0995923578739166,0,0,0
6976,259254.28773220812,2010-12-16 12:37:48,30.01504564666689,7,24,-1.099568486213684,3.993896484375,21.322780519539656,20.42874146705653,85.6956597956434,73.82574898310764,-0.0010360240703448,0.0995923578739166,0,0,0
6977,259284.30229715368,2010-12-16 12:38:18,60.02961019614194,7,24,-1.0997490882873535,3.962166786193848,21.322780519539656,20.43790936598444,85.6956597956434,73.86220920571492,-0.0007122993702068,0.0995923578739166,0,0,0
6978,259314.3024109981,2010-12-16 12:38:48,90.02972436640408,7,24,-1.0997490882873535,3.940150260925293,21.322780519539656,20.447072764849448,85.6956597956434,73.89840991827947,-0.0005180359003134,0.0995923578739166,0,0,0
6979,259344.31659559705,2010-12-16 12:39:18,120.04390864458864,7,24,-1.099568486213684,3.922828435897827,21.322780519539656,20.45624045245413,85.6956597956434,73.9344496787524,-0.0004209041653666,0.0995923578739166,0,0,0
6980,259374.33208915332,2010-12-16 12:39:48,150.05940252165968,7,24,-1.099568486213684,3.9082589149475098,21.322780519539656,20.46540850805929,85.6956597956434,73.97034650263573,-0.0003885269106831,0.0995923578739166,0,0,0
6981,259404.3470979533,2010-12-16 12:40:18,180.07441133165997,7,24,-1.099568486213684,3.895308017730713,21.322780519539656,20.4745764601912,85.6956597956434,74.0061178637036,-0.0003561496851034,0.0995923578739166,0,0,0
6982,259434.36170661257,2010-12-16 12:40:48,210.0890196550647,7,24,-1.0997490882873535,3.883652210235596,21.322780519539656,20.483744209735004,85.6956597956434,74.0417760892444,-0.0003237724304199,0.0995923578739166,0,0,0
6983,259464.3771119092,2010-12-16 12:41:18,240.10442528253,7,24,-1.099568486213684,3.872482061386109,21.322780519539656,20.49291229415652,85.6956597956434,74.07733057095044,-0.0002913951757363,0.0995923578739166,0,0,0
6984,259494.39224681296,2010-12-16 12:41:48,270.1195601863098,7,24,-1.099568486213684,3.861959457397461,21.322780519539656,20.50208031094823,85.6956597956434,74.11278507153833,-0.0002913951757363,0.0995923578739166,0,0,0
6985,259524.40761441583,2010-12-16 12:42:18,300.13492782925204,7,24,-1.099568486213684,3.8517606258392334,21.322780519539656,20.511233961241928,85.6956597956434,74.1480887124906,-0.0002266406954731,0.0995923578739166,0,0,0
6986,259554.4087628949,2010-12-16 12:42:48,330.1360763634892,7,24,-1.099568486213684,3.841723680496216,21.322780519539656,20.520412184166435,85.6956597956434,74.18339458483575,-0.0002913951757363,0.0995923578739166,0,0,0
6987,259584.4234043307,2010-12-16 12:43:18,360.15071782435524,7,24,-1.0997490882873535,3.832010746002197,21.322780519539656,20.52958015932819,85.6956597956434,74.21857125098641,-0.0002589702489785,0.0995923578739166,0,0,0
6988,259614.43665258464,2010-12-16 12:43:48,390.16396595798005,7,24,-1.099568486213684,3.8227832317352295,21.322780519539656,20.538747026141937,85.6956597956434,74.25365635446533,-0.0002266406954731,0.0995923578739166,0,0,0
6989,259644.4516937552,2010-12-16 12:44:18,420.1790071335207,7,24,-1.099568486213684,3.8135557174682617,21.322780519539656,20.547914264185778,85.6956597956434,74.28865757124635,-0.0002590179501567,0.0995923578739166,0,0,0
6990,259674.466710931,2010-12-16 12:44:48,450.1940243043265,7,24,-1.099568486213684,3.804328203201294,21.322780519539656,20.557081365368315,85.6956597956434,74.32357462042711,-0.0002590179501567,0.0995923578739166,0,0,0
6991,259704.4818217398,2010-12-16 12:45:18,480.2091351181594,7,24,-1.099568486213684,3.795748233795166,21.322780519539656,20.566248480438187,85.6956597956434,74.35841116462366,-0.0002266406954731,0.0995923578739166,0,0,0
6992,259734.4966964862,2010-12-16 12:45:48,510.2240098495101,7,24,-1.0997490882873535,3.787330150604248,21.322780519539656,20.57541546115258,85.6956597956434,74.39316876428794,-0.0002266406954731,0.0995923578739166,0,0,0
6993,259764.5117457168,2010-12-16 12:46:18,540.2390591452576,7,24,-1.099568486213684,3.77907395362854,21.322780519539656,20.584582603539907,85.6956597956434,74.42785020140968,-0.0001942634553415,0.0995923578739166,0,0,0
6994,259794.52672114872,2010-12-16 12:46:48,570.2540345070233,7,24,-1.0993878841400146,3.771141529083252,21.322780519539656,20.59374971919791,85.6956597956434,74.46245636829224,-0.0001942634553415,0.0995923578739166,0,0,0
6995,259824.5417572065,2010-12-16 12:47:18,600.269070579866,7,24,-1.099568486213684,3.763047218322754,21.322780519539656,20.60291688089887,85.6956597956434,74.49698969842338,-0.0002590179501567,0.0995923578739166,0,0,0
6996,259854.55677157536,2010-12-16 12:47:48,630.2840849436868,7,24,-1.099568486213684,3.755600452423096,21.322780519539656,20.6120840450584,85.6956597956434,74.53145263058695,-0.0002266406954731,0.0995923578739166,0,0,0
6997,259884.5718845245,2010-12-16 12:48:18,660.2991978978457,7,24,-1.099568486213684,3.7483158111572266,21.322780519539656,20.621251240968228,85.6956597956434,74.56584750695215,-0.0001942634553415,0.0995923578739166,0,0,0
6998,259914.5867796466,2010-12-16 12:48:48,690.3140930199381,7,24,-1.099568486213684,3.740869045257568,21.322780519539656,20.63041833157635,85.6956597956434,74.60017483659738,-0.0002266406954731,0.0995923578739166,0,0,0
6999,259944.6018058549,2010-12-16 12:49:18,720.3291192282334,7,24,-1.0993878841400146,3.73390793800354,21.322780519539656,20.639585509025995,85.6956597956434,74.6344362344674,-0.0001295089750783,0.0995923578739166,0,0,0
7000,259974.61693583144,2010-12-16 12:49:48,750.3442491897144,7,24,-1.099568486213684,3.7267849445343018,21.322780519539656,20.64875268503135,85.6956597956434,74.66863268676089,-0.0001942634553415,0.0995923578739166,0,0,0
7001,260004.6318170389,2010-12-16 12:50:18,780.3591303971806,7,24,-1.099568486213684,3.7199857234954834,21.322780519539656,20.657919752836253,85.6956597956434,74.70276607371122,-0.0001942634553415,0.0995923578739166,0,0,0
7002,260034.6469632909,2010-12-16 12:50:48,810.3742766492002,7,24,-1.0997490882873535,3.713348388671875,21.322780519539656,20.66708688502017,85.6956597956434,74.73683773576136,-0.0001618862152099,0.0995923578739166,0,0,0
7003,260064.66188422224,2010-12-16 12:51:18,840.3891975955551,7,24,-1.0993878841400146,3.706872940063477,21.322780519539656,20.676253966819477,85.6956597956434,74.7708482141918,-0.0001618862152099,0.0995923578739166,0,0,0
7004,260094.67708381696,2010-12-16 12:51:48,870.4043972554781,7,24,-1.099568486213684,3.700235605239868,21.322780519539656,20.68542111857,85.6956597956434,74.80479888170704,-0.0001942634553415,0.0995923578739166,0,0,0
7005,260124.6918808049,2010-12-16 12:52:18,900.419194178205,7,24,-1.099568486213684,3.6937601566314697,21.322780519539656,20.694588266071065,85.6956597956434,74.8386907280732,-0.0002266406954731,0.0995923578739166,0,0,0
7006,260154.7069227273,2010-12-16 12:52:48,930.4342361006042,7,24,-1.099568486213684,3.687608480453491,21.322780519539656,20.7037554170466,85.6956597956434,74.87252476022391,-0.0001942634553415,0.0995923578739166,0,0,0
7007,260184.7238303574,2010-12-16 12:53:18,960.4511438209696,7,24,-1.099568486213684,3.681618690490722,21.322780519539656,20.71292310604318,85.6956597956434,74.90630419599293,-0.0001295089750783,0.0995923578739166,0,0,0
7008,260214.7369718607,2010-12-16 12:53:48,990.4642852340246,7,24,-1.0993878841400146,3.675628900527954,21.322780519539656,20.722089686111083,85.6956597956434,74.94002322492948,-0.0001295089750783,0.0995923578739166,0,0,0
7009,260244.75192461623,2010-12-16 12:54:18,1020.4792379895356,7,24,-1.0993878841400146,3.6694774627685542,21.322780519539656,20.731256864410938,85.6956597956434,74.97368941393016,-0.0001618862152099,0.0995923578739166,0,0,0
7010,260274.7669817565,2010-12-16 12:54:48,1050.494295194966,7,24,-1.0993878841400146,3.663811445236206,21.322780519539656,20.74042401535891,85.6956597956434,75.00730144454398,-9.713172767078504e-05,0.0995923578739166,0,0,0
7011,260304.78197097272,2010-12-16 12:55:18,1080.5092843510583,7,24,-1.099568486213684,3.657983541488648,21.322780519539656,20.7495911858097,85.6956597956434,75.04086069180251,-0.0001942634553415,0.0995923578739166,0,0,0
7012,260334.79697263995,2010-12-16 12:55:48,1110.524286018284,7,24,-1.099568486213684,3.652155637741089,21.322780519539656,20.758758306785865,85.6956597956434,75.07436742706885,-0.0001942634553415,0.0995923578739166,0,0,0
7013,260364.81195618707,2010-12-16 12:56:18,1140.539269560406,7,24,-1.099568486213684,3.64648962020874,21.322780519539656,20.767925427886528,85.6956597956434,75.10782285180406,-0.0001942634553415,0.0995923578739166,0,0,0
7014,260394.8269801047,2010-12-16 12:56:48,1170.5542934780012,7,24,-1.0993878841400146,3.641147375106812,21.322780519539656,20.777092371410543,85.6956597956434,75.14122665701046,-0.0001295089750783,0.0995923578739166,0,0,0
7015,260424.8420234406,2010-12-16 12:57:18,1200.5693368189302,7,24,-1.099568486213684,3.635805130004883,21.322780519539656,20.786259430584256,85.6956597956434,75.17458080922526,-0.0001295089750783,0.0995923578739166,0,0,0
7016,260454.85717498572,2010-12-16 12:57:48,1230.5844884142462,7,24,-1.0993878841400146,3.630624771118164,21.322780519539656,20.79542655776877,85.6956597956434,75.2078862458692,-0.0001295089750783,0.0995923578739166,0,0,0
7017,260484.87207285973,2010-12-16 12:58:18,1260.5993862330492,7,24,-1.099568486213684,3.6252825260162354,21.322780519539656,20.804593673797665,85.6956597956434,75.24114323777474,-0.0001295089750783,0.0995923578739166,0,0,0
7018,260514.8874193701,2010-12-16 12:58:48,1290.614732808566,7,24,-1.099568486213684,3.620264053344727,21.322780519539656,20.81376091831003,85.6956597956434,75.2743537630768,-0.0001295089750783,0.0995923578739166,0,0,0
7019,260544.9022605981,2010-12-16 12:59:18,1320.62957402652,7,24,-1.099568486213684,3.615083694458008,21.322780519539656,20.8229280436288,85.6956597956434,75.30751783967868,-0.0001618862152099,0.0995923578739166,0,0,0
7020,260574.9172291128,2010-12-16 12:59:48,1350.644542541247,7,24,-1.0993878841400146,3.610550880432129,21.322780519539656,20.832095173754613,85.6956597956434,75.34063721426045,-0.0001295089750783,0.0995923578739166,0,0,0
7021,260604.9322295319,2010-12-16 13:00:18,1380.6595428801672,7,24,-1.099568486213684,3.60585618019104,21.322780519539656,20.841262324963964,85.6956597956434,75.37371291214701,-9.713172767078504e-05,0.0995923578739166,0,0,0
7022,260634.9472453744,2010-12-16 13:00:48,1410.6745587326927,7,24,-1.099568486213684,3.601161479949951,21.322780519539656,20.85042952869547,85.6956597956434,75.40674654628336,-9.713172767078504e-05,0.0995923578739166,0,0,0
7023,260664.96229491572,2010-12-16 13:01:18,1440.6896082890885,7,24,-1.099568486213684,3.5967905521392822,21.322780519539656,20.859596752965,85.6956597956434,75.43973897462736,-9.713172767078504e-05,0.0995923578739166,0,0,0
7024,260694.9771705644,2010-12-16 13:01:48,1470.7044839427342,7,24,-1.099568486213684,3.5924196243286133,21.322780519539656,20.86876391671514,85.6956597956434,75.4726912411958,-9.713172767078504e-05,0.0995923578739166,0,0,0
7025,260724.9921606228,2010-12-16 13:02:18,1500.7194739960596,7,24,-1.099568486213684,3.5880489349365234,21.322780519539656,20.877931076260168,85.6956597956434,75.50560380832809,-0.0001618862152099,0.0995923578739166,0,0,0
7026,260755.00717557804,2010-12-16 13:02:48,1530.734488951352,7,24,-1.0997490882873535,3.5838398933410645,21.322780519539656,20.88709828615295,85.6956597956434,75.5384771258943,-9.713172767078504e-05,0.0995923578739166,0,0,0
7027,260785.02232763948,2010-12-16 13:03:18,1560.7496410178403,7,24,-1.099568486213684,3.5799546241760254,21.322780519539656,20.896265584448173,85.6956597956434,75.5713130036587,-0.0001295089750783,0.0995923578739166,0,0,0
7028,260815.02347013872,2010-12-16 13:03:48,1590.7507835671845,7,24,-1.0993878841400146,3.5757455825805664,21.322780519539656,20.905428544763808,85.6956597956434,75.60409621937194,-0.0001295089750783,0.0995923578739166,0,0,0
7029,260845.03663667428,2010-12-16 13:04:18,1620.7639500426062,7,24,-1.0993878841400146,3.571860313415528,21.322780519539656,20.91459516948726,85.6956597956434,75.63685593617231,-9.713172767078504e-05,0.0995923578739166,0,0,0
7030,260875.0516008833,2010-12-16 13:04:48,1650.7789143468551,7,24,-1.099568486213684,3.5679750442504883,21.322780519539656,20.923762342752397,85.6956597956434,75.66958175368379,-9.713172767078504e-05,0.0995923578739166,0,0,0
7031,260905.06662610915,2010-12-16 13:05:18,1680.7939395526562,7,24,-1.0993878841400146,3.564089775085449,21.322780519539656,20.9329295829066,85.6956597956434,75.70227243861164,-0.0001295089750783,0.0995923578739166,0,0,0
7032,260935.08164181636,2010-12-16 13:05:49,1710.8089551896453,7,24,-1.0993878841400146,3.56036639213562,21.322780519539656,20.94209667012948,85.6956597956434,75.73492816798988,-9.713172767078504e-05,0.0995923578739166,0,0,0
7033,260965.09677306097,2010-12-16 13:06:19,1740.824086434319,7,24,-1.099568486213684,3.556643009185791,21.322780519539656,20.95126393839416,85.6956597956434,75.76755062864137,-0.0001295089750783,0.0995923578739166,0,0,0
7034,260995.11165742128,2010-12-16 13:06:49,1770.8389707846063,7,24,-1.099568486213684,3.553081512451172,21.322780519539656,20.960431119252945,85.6956597956434,75.8001395101041,-0.0001295089750783,0.0995923578739166,0,0,0
7035,261025.1266711686,2010-12-16 13:07:19,1800.8539845268804,7,24,-1.099568486213684,3.5496819019317627,21.322780519539656,20.969598282895653,85.6956597956434,75.83269564787712,-9.713172767078504e-05,0.0995923578739166,0,0,0
7036,261055.14183761587,2010-12-16 13:07:49,1830.8691509891923,7,24,-1.0993878841400146,3.546120405197144,21.322780519539656,20.978765529444395,85.6956597956434,75.8652197153164,-9.713172767078504e-05,0.0995923578739166,0,0,0
7037,261085.1566958562,2010-12-16 13:08:19,1860.8840092295056,7,24,-1.0997490882873535,3.5425589084625244,21.322780519539656,20.987932630678188,85.6956597956434,75.89771129300075,-6.47544875391759e-05,0.0995923578739166,0,0,0
7038,261115.1717095734,2010-12-16 13:08:49,1890.89902295173,7,24,-1.099568486213684,3.5391592979431152,21.322780519539656,20.997099766702096,85.6956597956434,75.93017105953116,-6.47544875391759e-05,0.0995923578739166,0,0,0
7039,261145.18672478927,2010-12-16 13:09:19,1920.9140381626587,7,24,-1.0993878841400146,3.535435914993286,21.322780519539656,21.00626692798214,85.6956597956434,75.96259795995921,-0.0001295089750783,0.0995923578739166,0,0,0
7040,261175.20174623572,2010-12-16 13:09:49,1950.9290596141168,7,24,-1.0993878841400146,3.532036304473877,21.322780519539656,21.01543408326931,85.6956597956434,75.9949919048554,-9.713172767078504e-05,0.0995923578739166,0,0,0
7041,261205.2167598628,2010-12-16 13:10:19,1980.9440732360915,7,24,-1.099568486213684,3.528312921524048,21.322780519539656,21.02460127996116,85.6956597956434,76.02735332329335,-9.713172767078504e-05,0.0995923578739166,0,0,0
7042,261235.2317862014,2010-12-16 13:10:49,2010.9590995797232,7,24,-1.099568486213684,3.5247514247894287,21.322780519539656,21.033768443378843,85.6956597956434,76.05968205936445,-9.713172767078504e-05,0.0995923578739166,0,0,0
7043,261265.24682402852,2010-12-16 13:11:19,2040.974137406932,7,24,-1.099568486213684,3.5211899280548096,21.322780519539656,21.04293559335727,85.6956597956434,76.0919779263341,-9.713172767078504e-05,0.0995923578739166,0,0,0
7044,261295.261857114,2010-12-16 13:11:49,2070.9891704722904,7,24,-1.0997490882873535,3.5174665451049805,21.322780519539656,21.05210274739448,85.6956597956434,76.12424062305932,-9.713172767078504e-05,0.0995923578739166,0,0,0
7045,261325.27680881688,2010-12-16 13:12:19,2101.0041221801944,7,24,-1.099568486213684,3.5139050483703613,21.322780519539656,21.061269963699647,85.6956597956434,76.15646962925291,-9.713172767078504e-05,0.0995923578739166,0,0,0
7046,261355.29181202795,2010-12-16 13:12:49,2131.01912538625,7,24,-1.099568486213684,3.5101819038391118,21.322780519539656,21.07043726589012,85.6956597956434,76.188664647072,-6.47544875391759e-05,0.0995923578739166,0,0,0
7047,261385.3069818085,2010-12-16 13:13:19,2161.034295171831,7,24,-1.099568486213684,3.5061347484588623,21.322780519539656,21.07960455196097,85.6956597956434,76.22082499931983,-9.713172767078504e-05,0.0995923578739166,0,0,0
7048,261415.32374783128,2010-12-16 13:13:49,2191.051061314887,7,24,-1.099568486213684,3.5020875930786133,21.322780519539656,21.088772384805008,85.6956597956434,76.25295136276371,-0.0001618862152099,0.0995923578739166,0,0,0
7049,261445.3368774951,2010-12-16 13:14:19,2221.0641908684306,7,24,-1.099568486213684,3.498202323913574,21.322780519539656,21.097939009672107,85.6956597956434,76.28503638162297,-9.713172767078504e-05,0.0995923578739166,0,0,0
7050,261475.3518949215,2010-12-16 13:14:49,2251.0792082948724,7,24,-1.0993878841400146,3.4939932823181152,21.322780519539656,21.107106220891843,85.6956597956434,76.31708492515598,-9.713172767078504e-05,0.0995923578739166,0,0,0
7051,261505.36967552407,2010-12-16 13:15:19,2281.096988972559,7,24,-1.0992072820663452,3.4896223545074463,21.322780519539656,21.11627423971747,85.6956597956434,76.34909634305887,-9.713172767078504e-05,0.0995923578739166,0,0,0
7052,261535.3819124213,2010-12-16 13:15:49,2311.1092257995856,7,24,-1.099568486213684,3.484603881835937,21.322780519539656,21.12544062953745,85.6956597956434,76.38106027960376,-0.0001295089750783,0.0995923578739166,0,0,0
7053,261565.39691104088,2010-12-16 13:16:19,2341.124224399178,7,24,-1.099568486213684,3.4797472953796387,21.322780519539656,21.13460785582715,85.6956597956434,76.41298269797542,-9.713172767078504e-05,0.0995923578739166,0,0,0
7054,261595.4120585661,2010-12-16 13:16:49,2371.139371939403,7,24,-1.099568486213684,3.4742431640625,21.322780519539656,21.143775045802983,85.6956597956434,76.44485699387064,-0.0001618862152099,0.0995923578739166,0,0,0
7055,261625.4269497484,2010-12-16 13:17:19,2401.154263161791,7,24,-1.0993878841400146,3.4682533740997314,21.322780519539656,21.152942158629752,85.6956597956434,76.47667882233962,-0.0001942634553415,0.0995923578739166,0,0,0
7056,261655.44222445003,2010-12-16 13:17:49,2431.1695378083155,7,24,-1.0993878841400146,3.461292266845703,21.322780519539656,21.162109425825484,85.6956597956434,76.50844263070951,-0.0001942634553415,0.0995923578739166,0,0,0
7057,261685.45711403337,2010-12-16 13:18:19,2461.1844273916245,7,24,-1.0993878841400146,3.453845500946045,21.322780519539656,21.17127657663645,85.6956597956434,76.54014045392712,-0.0002266406954731,0.0995923578739166,0,0,0
7058,261715.4719720581,2010-12-16 13:18:49,2491.199285431439,7,24,-1.0993878841400146,3.445265531539917,21.322780519539656,21.18044373449712,85.6956597956434,76.5717638024402,-0.0002266406954731,0.0995923578739166,0,0,0
7059,261745.48698525905,2010-12-16 13:19:19,2521.2142986223407,7,24,-1.099568486213684,3.4352285861968994,21.322780519539656,21.18961091819869,85.6956597956434,76.6033017010919,-0.0002590179501567,0.0995923578739166,0,0,0
7060,261775.50202874537,2010-12-16 13:19:49,2551.229342123669,7,24,-1.099568486213684,3.4232492446899414,21.322780519539656,21.19877817593469,85.6956597956434,76.63474023964089,-0.0003561496851034,0.0995923578739166,0,0,0
7061,261805.5170141771,2010-12-16 13:20:19,2581.2443275504816,7,24,-1.099568486213684,3.409165143966675,21.322780519539656,21.207945410191293,85.6956597956434,76.66605970220327,-0.0004532813909463,0.0995923578739166,0,0,0
7062,261835.5320329971,2010-12-16 13:20:49,2611.2593463754038,7,24,-1.0993878841400146,3.392328977584839,21.322780519539656,21.217112694186937,85.6956597956434,76.69723715775446,-0.0004856586456298,0.0995923578739166,0,0,0
7063,261865.54704234345,2010-12-16 13:21:19,2641.274355716726,7,24,-1.099568486213684,3.371121883392334,21.322780519539656,21.22627994671116,85.6956597956434,76.72824052703207,-0.0005504131549969,0.0995923578739166,0,0,0
7064,261895.56208232092,2010-12-16 13:21:49,2671.2893956942853,7,24,-1.0997490882873535,3.34424901008606,21.322780519539656,21.23544724455755,85.6956597956434,76.75902614868906,-0.0008094310760498,0.0995923578739166,0,0,0
7065,261925.5772462269,2010-12-16 13:22:19,2701.3045596754228,7,24,-1.099568486213684,3.309929132461548,21.322780519539656,21.2446145299692,85.6956597956434,76.78953333604936,-0.0009713172912597,0.0995923578739166,0,0,0
7066,261955.5920791492,2010-12-16 13:22:49,2731.319392507509,7,24,-1.0993878841400146,3.264763116836548,21.322780519539656,21.253781680877623,85.6956597956434,76.8196778337951,-0.0012950419913977,0.0995923578739166,0,0,0
7067,261985.6071036783,2010-12-16 13:23:19,2761.3344170366254,7,24,-1.099568486213684,3.2030844688415527,21.322780519539656,21.26294899588659,85.6956597956434,76.84933832355306,-0.0018455028766766,0.0995923578739166,0,0,0
7068,262015.62398473732,2010-12-16 13:23:49,2791.3512982309826,7,24,-1.0993878841400146,3.1176087856292725,21.322780519539656,21.27211685265054,85.6956597956434,76.87833521116103,-0.0025901794433593,0.0995923578739166,0,0,0
7069,262045.6373548796,2010-12-16 13:24:19,2821.364668353171,7,24,-1.099568486213684,2.9890716075897217,21.322780519539656,21.281283564852604,85.6956597956434,76.90636955573146,-0.0042090415954589,0.0995923578739166,0,0,0
7070,262074.1521674991,2010-12-16 13:24:48,2849.879480872401,7,24,-1.0997490882873535,2.788980722427368,21.322780519539656,21.2899925922185,85.6956597956434,76.93159853038982,-0.0067344666458666,0.0995923578739166,0,0,0
7071,262084.2614509672,2010-12-16 13:24:58,2859.9887643104184,7,24,-1.099568486213684,2.699943780899048,21.322780519539656,21.29308018151009,85.6956597956434,76.94007395845809,-0.0071553229354321,0.0995923578739166,0,0,0
7072,262144.28105784825,2010-12-16 13:25:58,60.01436914938327,8,24,0.0,3.453197956085205,21.322780519539656,21.29308018151009,85.6956597956434,76.94007395845809,0.0013274669181555,0.0995923578739166,0,0,0
7073,262144.47513965087,2010-12-16 13:25:58,0.187507304715966,9,24,-0.001102898735553,3.454169273376465,21.322780519539656,21.293080238954968,85.6956597956434,76.94007415688242,0.0,0.0970755815505981,0,0,0
7074,262149.30328406254,2010-12-16 13:26:03,5.015651716386547,9,24,0.0008838032954372,3.461454153060913,21.322781622691323,21.293080238954968,85.69566361057521,76.94007415688242,0.0011008263099938,0.0970755815505981,0,0,0
