Data_Point,Test_Time(s),Date_Time,Step_Time(s),Step_Index,Cycle_Index,Current(A),Voltage(V),Charge_Capacity(Ah),Discharge_Capacity(Ah),Charge_Energy(Wh),Discharge_Energy(Wh),dV/dt(V/s),Internal_Resistance(Ohm),Is_FC_Data,AC_Impedance(Ohm),ACI_Phase_Angle(Deg)
5907,218760.80186260983,2010-12-16 01:22:50,30.01682450829564,1,21,0.0,3.466148853302002,17.801475706662245,17.782845884253113,71.54384286333718,64.26600762581064,0.0008418083307333,0.0947341993451118,0,0,0
5908,218790.81513364048,2010-12-16 01:23:20,60.03009541859936,1,21,0.0,3.489946126937866,17.801475706662245,17.782845884253113,71.54384286333718,64.26600762581064,0.0005504131549969,0.0947341993451118,0,0,0
5909,218820.8301941892,2010-12-16 01:23:50,90.04515604253662,1,21,0.0,3.508239269256592,17.801475706662245,17.782845884253113,71.54384286333718,64.26600762581064,0.0004532813909463,0.0947341993451118,0,0,0
5910,218850.80019277305,2010-12-16 01:24:20,120.01515464637,1,21,0.0,3.5223231315612797,17.801475706662245,17.782845884253113,71.54384286333718,64.26600762581064,0.0003237724304199,0.0947341993451118,0,0,0
5911,218880.8195814726,2010-12-16 01:24:50,30.01504860402617,2,21,0.5501165986061096,3.669801235198975,17.80606308836431,17.782845884253113,71.5605430318312,64.26600762581064,0.0012627125252038,0.0947341993451118,0,0,0
5912,218910.83464951,2010-12-16 01:25:20,60.030116621361614,2,21,0.5499359965324402,3.7070348262786874,17.81065044960783,17.782845884253113,71.57746929722265,64.26600762581064,0.0008094310760498,0.0947341993451118,0,0,0
5913,218940.8497010463,2010-12-16 01:25:50,90.04516815267222,2,21,0.5501165986061096,3.73358416557312,17.815237755409218,17.782845884253113,71.59453898915048,64.26600762581064,0.0006475448608398,0.0947341993451118,0,0,0
5914,218970.86477364003,2010-12-16 01:26:20,120.06024074639583,2,21,0.550297200679779,3.753495931625366,17.819825048399238,17.782845884253113,71.61171385423096,64.26600762581064,0.000453233718872,0.0947341993451118,0,0,0
5915,219000.87983985787,2010-12-16 01:26:50,150.07530698430327,2,21,0.5501165986061096,3.7679038047790527,17.824412356492612,17.782845884253113,71.62896729534833,64.26600762581064,0.0003237724304199,0.0947341993451118,0,0,0
5916,219030.89487364507,2010-12-16 01:27:20,180.09034075140832,2,21,0.550297200679779,3.77745509147644,17.828999655579818,17.782845884253113,71.64627527303224,64.26600762581064,0.0001942634553415,0.0947341993451118,0,0,0
5917,219060.91047976143,2010-12-16 01:27:50,210.10594693294468,2,21,0.5501165986061096,3.784254312515259,17.833587036853427,17.782845884253113,71.66362046042236,64.26600762581064,0.0001618862152099,0.0947341993451118,0,0,0
5918,219090.91197601092,2010-12-16 01:28:20,240.10744321253276,2,21,0.5499359965324402,3.7897584438323975,17.838172313665744,17.782845884253113,71.68098573107835,64.26600762581064,9.713172767078504e-05,0.0947341993451118,0,0,0
5919,219120.92460129963,2010-12-16 01:28:50,270.1200684861945,2,21,0.550297200679779,3.795100688934326,17.84275930147994,17.782845884253113,71.69838194049645,64.26600762581064,0.0001295089750783,0.0947341993451118,0,0,0
5920,219150.93951623104,2010-12-16 01:29:20,300.1349833624442,2,21,0.550297200679779,3.799795389175415,17.847346607384182,17.782845884253113,71.7158020796827,64.26600762581064,9.713172767078504e-05,0.0947341993451118,0,0,0
5921,219180.954555166,2010-12-16 01:29:50,330.1500223024218,2,21,0.550297200679779,3.804328203201294,17.85193392185027,17.782845884253113,71.73324375247074,64.26600762581064,9.713172767078504e-05,0.0947341993451118,0,0,0
5922,219210.9696272685,2010-12-16 01:30:20,360.1650944700852,2,21,0.5501165986061096,3.808699131011963,17.856521262292752,17.782845884253113,71.75070611402863,64.26600762581064,9.713172767078504e-05,0.0947341993451118,0,0,0
5923,219240.98657598087,2010-12-16 01:30:50,390.1820430872209,2,21,0.5501165986061096,3.813070058822632,17.861108903744643,17.782845884253113,71.76818946050147,64.26600762581064,9.713172767078504e-05,0.0947341993451118,0,0,0
5924,219270.99973232107,2010-12-16 01:31:20,420.1951994625086,2,21,0.5501165986061096,3.817117214202881,17.86569596066419,17.782845884253113,71.78569003000743,64.26600762581064,9.713172767078504e-05,0.0947341993451118,0,0,0
5925,219301.0149192944,2010-12-16 01:31:50,450.2103864107992,2,21,0.5501165986061096,3.82116436958313,17.870283249364768,17.782845884253113,71.80321002169147,64.26600762581064,0.0001295089750783,0.0947341993451118,0,0,0
5926,219331.02998289576,2010-12-16 01:32:20,480.2254500121456,2,21,0.550297200679779,3.825211524963379,17.874870525427323,17.782845884253113,71.82074814084686,64.26600762581064,0.0001618862152099,0.0947341993451118,0,0,0
5927,219361.04527334665,2010-12-16 01:32:50,510.24074054319794,2,21,0.550297200679779,3.829258680343628,17.879457864885477,17.782845884253113,71.8383044550598,64.26600762581064,0.0001618862152099,0.0947341993451118,0,0,0
5928,219391.06011225385,2010-12-16 01:33:20,540.255579370202,2,21,0.550297200679779,3.832820177078247,17.884045108089808,17.782845884253113,71.85587810486749,64.26600762581064,6.47544875391759e-05,0.0947341993451118,0,0,0
5929,219421.07502543583,2010-12-16 01:33:50,570.2704925572482,2,21,0.5501165986061096,3.836867094039917,17.888632358617777,17.782845884253113,71.87346944802958,64.26600762581064,0.0001295089750783,0.0947341993451118,0,0,0
5930,219451.09008260616,2010-12-16 01:34:20,600.2855497376163,2,21,0.5501165986061096,3.840428590774536,17.89321961123447,17.782845884253113,71.8910784074243,64.26600762581064,9.713172767078504e-05,0.0947341993451118,0,0,0
5931,219481.10529705792,2010-12-16 01:34:50,630.3007641893481,2,21,0.5501165986061096,3.844475746154785,17.89780695380698,17.782845884253113,71.90870538211841,64.26600762581064,0.0001295089750783,0.0947341993451118,0,0,0
5932,219511.1205185472,2010-12-16 01:35:20,660.3159857337297,2,21,0.550297200679779,3.848361015319824,17.902394269284933,17.782845884253113,71.92634983535399,64.26600762581064,0.0001295089750783,0.0947341993451118,0,0,0
5933,219541.1352714955,2010-12-16 01:35:50,690.3307386268908,2,21,0.5501165986061096,3.852084398269653,17.90698143076168,17.782845884253113,71.94401124746071,64.26600762581064,9.713172767078504e-05,0.0947341993451118,0,0,0
5934,219571.1503522996,2010-12-16 01:36:20,720.3458194310457,2,21,0.550297200679779,3.8558077812194815,17.911568697785853,17.782845884253113,71.96169049248203,64.26600762581064,9.713172767078504e-05,0.0947341993451118,0,0,0
5935,219601.1653923975,2010-12-16 01:36:50,750.3608595389295,2,21,0.5501165986061096,3.8596930503845215,17.916155936195132,17.782845884253113,71.97938697722373,64.26600762581064,9.713172767078504e-05,0.0947341993451118,0,0,0
5936,219631.1806747632,2010-12-16 01:37:20,780.3761419848624,2,21,0.5501165986061096,3.8632545471191406,17.92074323804606,17.782845884253113,71.99710072960457,64.26600762581064,6.47544875391759e-05,0.0947341993451118,0,0,0
5937,219661.19594322937,2010-12-16 01:37:50,810.3914104359694,2,21,0.5501165986061096,3.86681604385376,17.92533050089865,17.782845884253113,72.01483093527399,64.26600762581064,9.713172767078504e-05,0.0947341993451118,0,0,0
5938,219691.21059305605,2010-12-16 01:38:20,840.4060602576411,2,21,0.5501165986061096,3.870377540588379,17.929917729633562,17.782845884253113,72.03257736729472,64.26600762581064,9.713172767078504e-05,0.0947341993451118,0,0,0
5939,219721.22563027177,2010-12-16 01:38:50,870.4210973780908,2,21,0.5501165986061096,3.873777151107788,17.934505085710214,17.782845884253113,72.05034013260226,64.26600762581064,9.713172767078504e-05,0.0947341993451118,0,0,0
5940,219751.2406798432,2010-12-16 01:39:20,900.4361469745867,2,21,0.550297200679779,3.8770148754119873,17.939091982480978,17.782845884253113,72.06811616618388,64.26600762581064,6.47544875391759e-05,0.0947341993451118,0,0,0
5941,219781.2558791071,2010-12-16 01:39:50,930.4513462385244,2,21,0.5499359965324402,3.880090713500977,17.94367858972168,17.782845884253113,72.08590576462534,64.26600762581064,9.713172767078504e-05,0.0947341993451118,0,0,0
5942,219811.27081932643,2010-12-16 01:40:20,960.466286442802,2,21,0.550297200679779,3.883328437805176,17.948265534482054,17.782845884253113,72.10371070584483,64.26600762581064,9.713172767078504e-05,0.0947341993451118,0,0,0
5943,219841.28764680715,2010-12-16 01:40:50,990.4831140989309,2,21,0.5501165986061096,3.885918617248535,17.952853171781243,17.782845884253113,72.12153168882239,64.26600762581064,6.47544875391759e-05,0.0947341993451118,0,0,0
5944,219871.30094730103,2010-12-16 01:41:20,1020.4964144073908,2,21,0.550297200679779,3.8888325691223145,17.95744021969844,17.782845884253113,72.13936305224077,64.26600762581064,9.713172767078504e-05,0.0947341993451118,0,0,0
5945,219901.3159981707,2010-12-16 01:41:50,1050.5114653021171,2,21,0.5501165986061096,3.891098976135254,17.96202748788461,17.782845884253113,72.15720723246807,64.26600762581064,3.237724376958795e-05,0.0947341993451118,0,0,0
5946,219931.33103159696,2010-12-16 01:42:20,1080.526498728374,2,21,0.5501165986061096,3.8935272693634033,17.966614765669675,17.782845884253113,72.17506288247566,64.26600762581064,3.237724376958795e-05,0.0947341993451118,0,0,0
5947,219961.34612317293,2010-12-16 01:42:50,1110.5415903043342,2,21,0.550297200679779,3.895793676376343,17.971202065373074,17.782845884253113,72.19292910633413,64.26600762581064,6.47544875391759e-05,0.0947341993451118,0,0,0
5948,219991.3612163328,2010-12-16 01:43:20,1140.556683464236,2,21,0.550297200679779,3.897898197174072,17.975789328711343,17.782845884253113,72.21080526344154,64.26600762581064,0.0,0.0947341993451118,0,0,0
5949,220021.3762512628,2010-12-16 01:43:50,1170.5717183942347,2,21,0.550297200679779,3.900164604187012,17.98037660778049,17.782845884253113,72.22869122462548,64.26600762581064,6.47544875391759e-05,0.0947341993451118,0,0,0
5950,220051.39155666085,2010-12-16 01:44:20,1200.5870238624575,2,21,0.5501165986061096,3.901945352554321,17.984963890280916,17.782845884253113,72.24658643699169,64.26600762581064,0.0,0.0947341993451118,0,0,0
5951,220081.40639499665,2010-12-16 01:44:50,1230.6018621280648,2,21,0.550297200679779,3.903887987136841,17.989551156271187,17.782845884253113,72.26449065058983,64.26600762581064,3.237724376958795e-05,0.0947341993451118,0,0,0
5952,220111.42156631104,2010-12-16 01:45:20,1260.6170334274136,2,21,0.5504778623580933,3.90583062171936,17.994138487311492,17.782845884253113,72.28240378760793,64.26600762581064,3.237724376958795e-05,0.0947341993451118,0,0,0
5953,220141.43653112155,2010-12-16 01:45:50,1290.6319983431847,2,21,0.550297200679779,3.90761137008667,17.998725746989805,17.782845884253113,72.30032514098193,64.26600762581064,3.237724376958795e-05,0.0947341993451118,0,0,0
5954,220171.45155191136,2010-12-16 01:46:20,1320.6470190477844,2,21,0.550297200679779,3.9095540046691895,18.003312992314918,17.782845884253113,72.31825473160649,64.26600762581064,6.47544875391759e-05,0.0947341993451118,0,0,0
5955,220201.4666360739,2010-12-16 01:46:50,1350.6621032002715,2,21,0.550297200679779,3.911172866821289,18.00790033564421,17.782845884253113,72.33619293871963,64.26600762581064,6.47544875391759e-05,0.0947341993451118,0,0,0
5956,220231.48169739955,2010-12-16 01:47:20,1380.6771645961296,2,21,0.550297200679779,3.9131155014038086,18.012487656219598,17.782845884253113,72.35413917292125,64.26600762581064,6.47544875391759e-05,0.0947341993451118,0,0,0
5957,220261.49672934716,2010-12-16 01:47:50,1410.6921964635071,2,21,0.5501165986061096,3.914734125137329,18.017074955763466,17.782845884253113,72.37209332325916,64.26600762581064,3.237724376958795e-05,0.0947341993451118,0,0,0
5958,220291.51179978548,2010-12-16 01:48:20,1440.7072669169047,2,21,0.5501165986061096,3.916514873504639,18.021662323643437,17.782845884253113,72.39005562100165,64.26600762581064,6.47544875391759e-05,0.0947341993451118,0,0,0
5959,220321.52689191283,2010-12-16 01:48:50,1470.7223591144116,2,21,0.550297200679779,3.9181337356567374,18.02624960077713,17.782845884253113,72.40802549733336,64.26600762581064,3.237724376958795e-05,0.0947341993451118,0,0,0
5960,220351.54191306356,2010-12-16 01:49:20,1500.7373801949466,2,21,0.550297200679779,3.919914484024048,18.030836954939875,17.782845884253113,72.42600359867821,64.26600762581064,3.237724376958795e-05,0.0947341993451118,0,0,0
5961,220381.5569986697,2010-12-16 01:49:50,1530.7524658010511,2,21,0.5501165986061096,3.921533346176148,18.03542427299732,17.782845884253113,72.44398943678785,64.26600762581064,3.237724376958795e-05,0.0947341993451118,0,0,0
5962,220411.5720509478,2010-12-16 01:50:20,1560.7675180742076,2,21,0.5501165986061096,3.923475980758667,18.04001157977039,17.782845884253113,72.46198312658711,64.26600762581064,3.237724376958795e-05,0.0947341993451118,0,0,0
5963,220441.5889303477,2010-12-16 01:50:51,1590.784397569336,2,21,0.5501165986061096,3.925094842910767,18.04459919345321,17.782845884253113,72.47998585693524,64.26600762581064,3.237724376958795e-05,0.0947341993451118,0,0,0
5964,220471.60229672052,2010-12-16 01:51:21,1620.797763922145,2,21,0.5501165986061096,3.926875591278076,18.04918627487762,17.782845884253113,72.49799432272994,64.26600762581064,3.237724376958795e-05,0.0947341993451118,0,0,0
5965,220501.6172111106,2010-12-16 01:51:51,1650.8126782420095,2,21,0.5501165986061096,3.928494453430176,18.05377355772505,17.782845884253113,72.5160114385936,64.26600762581064,6.47544875391759e-05,0.0947341993451118,0,0,0
5966,220531.63227403024,2010-12-16 01:52:21,1680.82774116166,2,21,0.5501165986061096,3.9301133155822754,18.058360856123173,17.782845884253113,72.53403646034565,64.26600762581064,3.237724376958795e-05,0.0947341993451118,0,0,0
5967,220561.64734306512,2010-12-16 01:52:51,1710.8428102917646,2,21,0.5501165986061096,3.931732177734375,18.06294829016901,17.782845884253113,72.55206989997484,64.26600762581064,3.237724376958795e-05,0.0947341993451118,0,0,0
5968,220591.6625186652,2010-12-16 01:53:21,1740.8579857815412,2,21,0.550297200679779,3.9336748123168954,18.06753562281774,17.782845884253113,72.57011076677517,64.26600762581064,3.237724376958795e-05,0.0947341993451118,0,0,0
5969,220621.67748861847,2010-12-16 01:53:51,1770.8729557949976,2,21,0.5499359965324402,3.935293674468994,18.072122965344885,17.782845884253113,72.58815951425842,64.26600762581064,6.47544875391759e-05,0.0947341993451118,0,0,0
5970,220651.69250667148,2010-12-16 01:54:21,1800.8879738078988,2,21,0.5501165986061096,3.937074422836304,18.076710281268955,17.782845884253113,72.60621596722191,64.26600762581064,6.47544875391759e-05,0.0947341993451118,0,0,0
5971,220681.7076058614,2010-12-16 01:54:51,1830.903072972744,2,21,0.550297200679779,3.938855171203613,18.081297588118964,17.782845884253113,72.62428029481649,64.26600762581064,6.47544875391759e-05,0.0947341993451118,0,0,0
5972,220711.72262632035,2010-12-16 01:55:21,1860.9180934567944,2,21,0.5501165986061096,3.940474033355713,18.08588487967552,17.782845884253113,72.64235241068526,64.26600762581064,6.47544875391759e-05,0.0947341993451118,0,0,0
5973,220741.73781144916,2010-12-16 01:55:51,1890.9332785655072,2,21,0.550297200679779,3.9422547817230233,18.090472289926897,17.782845884253113,72.660432850364,64.26600762581064,6.47544875391759e-05,0.0947341993451118,0,0,0
5974,220771.7528811657,2010-12-16 01:56:21,1920.9483482770584,2,21,0.550297200679779,3.944035530090332,18.09505961922864,17.782845884253113,72.67852089662046,64.26600762581064,3.237724376958795e-05,0.0947341993451118,0,0,0
5975,220801.7678169289,2010-12-16 01:56:51,1950.963284060335,2,21,0.5501165986061096,3.9458162784576416,18.09964693298224,17.782845884253113,72.69661675551282,64.26600762581064,9.713172767078504e-05,0.0947341993451118,0,0,0
5976,220831.7830123082,2010-12-16 01:57:21,1980.978479424568,2,21,0.550297200679779,3.9472732543945312,18.10423431647003,17.782845884253113,72.71472081018908,64.26600762581064,3.237724376958795e-05,0.0947341993451118,0,0,0
5977,220861.79805239604,2010-12-16 01:57:51,2010.9935195274395,2,21,0.5501165986061096,3.948892116546631,18.10882160702045,17.782845884253113,72.73283239454592,64.26600762581064,3.237724376958795e-05,0.0947341993451118,0,0,0
5978,220891.81298678083,2010-12-16 01:58:21,2041.008453887173,2,21,0.550297200679779,3.95099663734436,18.113408914387744,17.782845884253113,72.75095201085105,64.26600762581064,3.237724376958795e-05,0.0947341993451118,0,0,0
5979,220921.8280610437,2010-12-16 01:58:51,2071.023528180125,2,21,0.5501165986061096,3.95261549949646,18.117996249963856,17.782845884253113,72.76907971385427,64.26600762581064,6.47544875391759e-05,0.0947341993451118,0,0,0
5980,220951.84311270536,2010-12-16 01:59:21,2101.038579836747,2,21,0.5501165986061096,3.9543962478637695,18.122583571689272,17.782845884253113,72.78721537196154,64.26600762581064,6.47544875391759e-05,0.0947341993451118,0,0,0
5981,220981.85818782536,2010-12-16 01:59:51,2131.053654956758,2,21,0.5501165986061096,3.956015110015869,18.12717097023681,17.782845884253113,72.80535933969175,64.26600762581064,0.0,0.0947341993451118,0,0,0
5982,221011.87583685044,2010-12-16 02:00:21,2161.0713040720566,2,21,0.550297200679779,3.9577958583831783,18.13175882568892,17.782845884253113,72.82351310338419,64.26600762581064,6.47544875391759e-05,0.0947341993451118,0,0,0
5983,221041.8900491333,2010-12-16 02:00:51,2191.085516385004,2,21,0.550297200679779,3.959576606750488,18.136346052912607,17.782845884253113,72.84167249362423,64.26600762581064,6.47544875391759e-05,0.0947341993451118,0,0,0
5984,221071.90336409825,2010-12-16 02:01:21,2221.0988312045747,2,21,0.5504778623580933,3.961519241333008,18.140933135851203,17.782845884253113,72.85983941554365,64.26600762581064,9.713172767078504e-05,0.0947341993451118,0,0,0
5985,221101.91840984515,2010-12-16 02:01:51,2251.113876976553,2,21,0.550297200679779,3.963299989700317,18.145520594608016,17.782845884253113,72.87801601935793,64.26600762581064,6.47544875391759e-05,0.0947341993451118,0,0,0
5986,221131.9334661032,2010-12-16 02:02:21,2281.128933234626,2,21,0.5501165986061096,3.964918851852417,18.1501079553476,17.782845884253113,72.89620045116273,64.26600762581064,3.237724376958795e-05,0.0947341993451118,0,0,0
5987,221161.94866613907,2010-12-16 02:02:51,2311.144133270485,2,21,0.5501165986061096,3.966699600219727,18.154695343769216,17.782845884253113,72.91439321827214,64.26600762581064,3.237724376958795e-05,0.0947341993451118,0,0,0
5988,221191.9635891305,2010-12-16 02:03:21,2341.159056332104,2,21,0.5501165986061096,3.968318462371826,18.159282737347112,17.782845884253113,72.93259424055549,64.26600762581064,3.237724376958795e-05,0.0947341993451118,0,0,0
5989,221221.9786410478,2010-12-16 02:03:51,2371.1741081641626,2,21,0.5501165986061096,3.9702610969543457,18.163869989176472,17.782845884253113,72.95080299243403,64.26600762581064,3.237724376958795e-05,0.0947341993451118,0,0,0
5990,221251.9937581924,2010-12-16 02:04:21,2401.189225328799,2,21,0.550297200679779,3.972203731536865,18.168457411020192,17.782845884253113,72.96902089750705,64.26600762581064,9.713172767078504e-05,0.0947341993451118,0,0,0
5991,221282.00881396927,2010-12-16 02:04:51,2431.204281100662,2,21,0.5499359965324402,3.9741463661193848,18.17304480713807,17.782845884253113,72.98724710757763,64.26600762581064,9.713172767078504e-05,0.0947341993451118,0,0,0
5992,221312.02385410212,2010-12-16 02:05:21,2461.2193212336083,2,21,0.550297200679779,3.9759271144866943,18.177632199108828,17.782845884253113,73.00548188213858,64.26600762581064,3.237724376958795e-05,0.0947341993451118,0,0,0
5993,221342.0389177437,2010-12-16 02:05:51,2491.2343848600167,2,21,0.550297200679779,3.977707862854004,18.182219607395098,17.782845884253113,73.02372538305676,64.26600762581064,3.237724376958795e-05,0.0947341993451118,0,0,0
5994,221372.05396833763,2010-12-16 02:06:21,2521.2494354690325,2,21,0.550297200679779,3.979650497436523,18.186806893289145,17.782845884253113,73.0419766912621,64.26600762581064,3.237724376958795e-05,0.0947341993451118,0,0,0
5995,221402.06903808427,2010-12-16 02:06:51,2551.2645052156718,2,21,0.550297200679779,3.981593132019043,18.19139413214361,17.782845884253113,73.06023697451644,64.26600762581064,6.47544875391759e-05,0.0947341993451118,0,0,0
5996,221432.08433626936,2010-12-16 02:07:21,2581.2798034559078,2,21,0.550297200679779,3.9835357666015625,18.19598142435523,17.782845884253113,73.07850630014674,64.26600762581064,3.237724376958795e-05,0.0947341993451118,0,0,0
5997,221462.09918373788,2010-12-16 02:07:51,2611.2946508692785,2,21,0.550297200679779,3.985478401184082,18.200568670598344,17.782845884253113,73.0967843485241,64.26600762581064,3.237724376958795e-05,0.0947341993451118,0,0,0
5998,221492.11421697368,2010-12-16 02:08:21,2641.309684090024,2,21,0.550297200679779,3.987582921981812,18.20515598766438,17.782845884253113,73.11507173210713,64.26600762581064,6.47544875391759e-05,0.0947341993451118,0,0,0
5999,221522.12928433932,2010-12-16 02:08:51,2671.3247514707755,2,21,0.550297200679779,3.989525556564331,18.209743269345115,17.782845884253113,73.13336796826482,64.26600762581064,3.237724376958795e-05,0.0947341993451118,0,0,0
6000,221552.14457982275,2010-12-16 02:09:21,2701.3400584327155,2,21,0.5501165986061096,3.9914681911468506,18.2143306604247,17.782845884253113,73.15167387732883,64.26600762581064,6.47544875391759e-05,0.0947341993451118,0,0,0
6001,221582.1593956776,2010-12-16 02:09:51,2731.35486280899,2,21,0.5501165986061096,3.99341082572937,18.21891793656083,17.782845884253113,73.16998855688333,64.26600762581064,3.237724376958795e-05,0.0947341993451118,0,0,0
6002,221612.17444748452,2010-12-16 02:10:21,2761.3699146009494,2,21,0.550297200679779,3.995515108108521,18.223505211640592,17.782845884253113,73.18831261955238,64.26600762581064,6.47544875391759e-05,0.0947341993451118,0,0,0
6003,221642.19131983697,2010-12-16 02:10:51,2791.386787058565,2,21,0.550297200679779,3.99778151512146,18.228092774758625,17.782845884253113,73.2066472912716,64.26600762581064,9.713172767078504e-05,0.0947341993451118,0,0,0
6004,221672.20462141355,2010-12-16 02:11:21,2821.400088544956,2,21,0.5501165986061096,3.9998860359191895,18.232679771630647,17.782845884253113,73.22498923792257,64.26600762581064,9.713172767078504e-05,0.0947341993451118,0,0,0
6005,221702.2197534953,2010-12-16 02:11:51,2851.415220626713,2,21,0.5501165986061096,4.001990795135498,18.23726699389671,17.782845884253113,73.24334183002071,64.26600762581064,9.71794142969884e-05,0.0947341993451118,0,0,0
6006,221732.23483409896,2010-12-16 02:12:21,2881.4303013155813,2,21,0.5501165986061096,4.004095077514648,18.24185422734661,17.782845884253113,73.26170431581058,64.26600762581064,9.70840483205393e-05,0.0947341993451118,0,0,0
6007,221762.2497570954,2010-12-16 02:12:51,2911.4452242268258,2,21,0.550297200679779,4.006199836730957,18.246441450580008,17.782845884253113,73.28007677033821,64.26600762581064,9.71794142969884e-05,0.0947341993451118,0,0,0
6008,221792.26493932697,2010-12-16 02:13:21,2941.460406443341,2,21,0.5501165986061096,4.0084662437438965,18.25102872968171,17.782845884253113,73.29845953057712,64.26600762581064,6.47544875391759e-05,0.0947341993451118,0,0,0
6009,221822.2799946628,2010-12-16 02:13:51,2971.475461794157,2,21,0.550297200679779,4.010732650756836,18.25561604137729,17.782845884253113,73.31685248802538,64.26600762581064,9.71794142969884e-05,0.0947341993451118,0,0,0
6010,221852.2949337091,2010-12-16 02:14:21,3001.490400845566,2,21,0.5501165986061096,4.012999057769775,18.2602033293016,17.782845884253113,73.33525565278578,64.26600762581064,6.47544875391759e-05,0.0947341993451118,0,0,0
6011,221882.3099894559,2010-12-16 02:14:51,3031.505456582341,2,21,0.550297200679779,4.015265464782715,18.26479060581112,17.782845884253113,73.35366919613513,64.26600762581064,6.47544875391759e-05,0.0947341993451118,0,0,0
6012,221912.32503053124,2010-12-16 02:15:21,3061.5204976576324,2,21,0.5501165986061096,4.017531871795654,18.26937787749297,17.782845884253113,73.37209326791724,64.26600762581064,6.47544875391759e-05,0.0947341993451118,0,0,0
6013,221942.3401493049,2010-12-16 02:15:51,3091.5356164412983,2,21,0.5501165986061096,4.019798278808594,18.273965218568364,17.782845884253113,73.39052809027953,64.26600762581064,9.71794142969884e-05,0.0947341993451118,0,0,0
6014,221972.3554063075,2010-12-16 02:16:21,3121.5508735090784,2,21,0.5501165986061096,4.022064685821533,18.27855245276712,17.782845884253113,73.40897319812812,64.26600762581064,3.24249267578125e-05,0.0947341993451118,0,0,0
6015,222002.37052918127,2010-12-16 02:16:51,3151.565996367885,2,21,0.550297200679779,4.024492740631104,18.28313965851876,17.782845884253113,73.42742913121246,64.26600762581064,6.47544875391759e-05,0.0947341993451118,0,0,0
6016,222032.38532126704,2010-12-16 02:17:21,3181.5807883984376,2,21,0.550297200679779,4.026921272277832,18.287726816574303,17.782845884253113,73.44589584593086,64.26600762581064,6.47544875391759e-05,0.0947341993451118,0,0,0
6017,222062.4004662008,2010-12-16 02:17:51,3211.595933422401,2,21,0.5501165986061096,4.029349327087402,18.29231405458329,17.782845884253113,73.46437401057852,64.26600762581064,6.47544875391759e-05,0.0947341993451118,0,0,0
6018,222092.415455818,2010-12-16 02:18:21,3241.610922944404,2,21,0.550297200679779,4.031777858734131,18.296901250272168,17.782845884253113,73.48286313394732,64.26600762581064,3.24249267578125e-05,0.0947341993451118,0,0,0
6019,222122.43052752453,2010-12-16 02:18:51,3271.6259947110693,2,21,0.5501165986061096,4.034367561340332,18.30148837245192,17.782845884253113,73.50136333341284,64.26600762581064,9.70840483205393e-05,0.0947341993451118,0,0,0
6020,222152.4455599333,2010-12-16 02:19:21,3301.6410270696697,2,21,0.550297200679779,4.036957740783691,18.306075579508967,17.782845884253113,73.51987527876891,64.26600762581064,9.70840483205393e-05,0.0947341993451118,0,0,0
6021,222182.46061749457,2010-12-16 02:19:51,3331.656084625973,2,21,0.5501165986061096,4.03938627243042,18.31066279902001,17.782845884253113,73.53839887596665,64.26600762581064,6.47544875391759e-05,0.0947341993451118,0,0,0
6022,222212.47581369587,2010-12-16 02:20:21,3361.671280812252,2,21,0.5501165986061096,4.04181432723999,18.315250025839003,17.782845884253113,73.55693405697261,64.26600762581064,3.23295607813634e-05,0.0947341993451118,0,0,0
6023,222242.49258254567,2010-12-16 02:20:51,3391.68804979738,2,21,0.550297200679779,4.044566631317139,18.31983744959057,17.782845884253113,73.57548184967098,64.26600762581064,9.71794142969884e-05,0.0947341993451118,0,0,0
6024,222272.50582005788,2010-12-16 02:21:21,3421.701287189275,2,21,0.550297200679779,4.047156810760498,18.324424408106328,17.782845884253113,73.59403961883957,64.26600762581064,3.24249267578125e-05,0.0947341993451118,0,0,0
6025,222302.5210003847,2010-12-16 02:21:51,3451.7164675211006,2,21,0.5501165986061096,4.049746990203857,18.32901166886685,17.782845884253113,73.612610646784,64.26600762581064,6.47544875391759e-05,0.0947341993451118,0,0,0
6026,222332.535923306,2010-12-16 02:22:21,3481.73139044237,2,21,0.5501165986061096,4.052175045013428,18.333598840160946,17.782845884253113,73.63119333644542,64.26600762581064,3.23295607813634e-05,0.0947341993451118,0,0,0
6027,222362.5510030324,2010-12-16 02:22:52,3511.7464701487934,2,21,0.5501165986061096,4.055088996887207,18.338186054504963,17.782845884253113,73.64978840873184,64.26600762581064,6.47544875391759e-05,0.0947341993451118,0,0,0
6028,222392.56617858235,2010-12-16 02:23:22,3541.76164569872,2,21,0.5501165986061096,4.057679176330566,18.342773295996984,17.782845884253113,73.66839586235368,64.26600762581064,6.47544875391759e-05,0.0947341993451118,0,0,0
6029,222422.58110666648,2010-12-16 02:23:52,3571.7765737978743,2,21,0.550297200679779,4.060431480407715,18.347360592537488,17.782845884253113,73.68701599096894,64.26600762581064,9.71794142969884e-05,0.0947341993451118,0,0,0
6030,222452.5961772101,2010-12-16 02:24:22,3601.7916443465083,2,21,0.550297200679779,4.063183307647705,18.351947803676023,17.782845884253113,73.70564783850782,64.26600762581064,6.47544875391759e-05,0.0947341993451118,0,0,0
6031,222482.61135149185,2010-12-16 02:24:52,3631.806818628279,2,21,0.5499359965324402,4.0657734870910645,18.356535030594756,17.782845884253113,73.72429248005645,64.26600762581064,6.47544875391759e-05,0.0947341993451118,0,0,0
6032,222512.6263395452,2010-12-16 02:25:22,3661.8218066766144,2,21,0.5501165986061096,4.068525791168213,18.36112222805983,17.782845884253113,73.74294969589407,64.26600762581064,3.24249267578125e-05,0.0947341993451118,0,0,0
6033,222542.6414646596,2010-12-16 02:25:52,3691.836931791034,2,21,0.5501165986061096,4.071277618408203,18.365709488364143,17.782845884253113,73.76162009594533,64.26600762581064,6.47544875391759e-05,0.0947341993451118,0,0,0
6034,222572.65640059827,2010-12-16 02:26:22,3721.851867734709,2,21,0.5501165986061096,4.074353694915772,18.370296706654145,17.782845884253113,73.78030326969501,64.26600762581064,9.71794142969884e-05,0.0947341993451118,0,0,0
6035,222602.6715588201,2010-12-16 02:26:52,3751.867026041727,2,21,0.550297200679779,4.077267646789551,18.37488393720693,17.782845884253113,73.7989995575157,64.26600762581064,9.71794142969884e-05,0.0947341993451118,0,0,0
6036,222632.68656052745,2010-12-16 02:27:22,3781.882027749052,2,21,0.550297200679779,4.08018159866333,18.37947111605612,17.782845884253113,73.81770888038885,64.26600762581064,9.71794142969884e-05,0.0947341993451118,0,0,0
6037,222662.70160217417,2010-12-16 02:27:52,3811.8970693105534,2,21,0.5501165986061096,4.08293342590332,18.384058278252457,17.782845884253113,73.83643140951874,64.26600762581064,6.47544875391759e-05,0.0947341993451118,0,0,0
6038,222692.71668569004,2010-12-16 02:28:22,3841.912152821444,2,21,0.550297200679779,4.086009502410889,18.38864544822505,17.782845884253113,73.85516746195081,64.26600762581064,6.47544875391759e-05,0.0947341993451118,0,0,0
6039,222722.73174433905,2010-12-16 02:28:52,3871.9272114704672,2,21,0.550297200679779,4.088923454284668,18.39323261522065,17.782845884253113,73.87391709573915,64.26600762581064,9.71794142969884e-05,0.0947341993451118,0,0,0
6040,222752.7467809833,2010-12-16 02:29:22,3901.942248114732,2,21,0.5501165986061096,4.091675281524658,18.397819804230668,17.782845884253113,73.89268049980248,64.26600762581064,3.23295607813634e-05,0.0947341993451118,0,0,0
6041,222782.76183047457,2010-12-16 02:29:52,3931.957297605966,2,21,0.550297200679779,4.094913005828857,18.40240701109195,17.782845884253113,73.9114577091559,64.26600762581064,6.47544875391759e-05,0.0947341993451118,0,0,0
6042,222812.77691468212,2010-12-16 02:30:22,3961.972381813589,2,21,0.5501165986061096,4.097989082336426,18.406994215617317,17.782845884253113,73.93024887049509,64.26600762581064,9.71794142969884e-05,0.0947341993451118,0,0,0
6043,222842.7937977061,2010-12-16 02:30:52,3991.989264927724,2,21,0.550297200679779,4.101064682006836,18.411581681726258,17.782845884253113,73.94905514127663,64.26600762581064,9.70840483205393e-05,0.0947341993451118,0,0,0
6044,222872.8070175844,2010-12-16 02:31:22,4022.002484715812,2,21,0.550297200679779,4.104140758514404,18.41616867942861,17.782845884253113,73.9678735852803,64.26600762581064,6.47544875391759e-05,0.0947341993451118,0,0,0
6045,222902.82207269463,2010-12-16 02:31:52,4052.017539826029,2,21,0.5499359965324402,4.107216358184815,18.420755874423367,17.782845884253113,73.98670716922457,64.26600762581064,9.70840483205393e-05,0.0947341993451118,0,0,0
6046,222932.83967941444,2010-12-16 02:32:22,4082.0351467162513,2,21,0.5499359965324402,4.110130310058594,18.42534350044599,17.782845884253113,74.00555691178526,64.26600762581064,6.47544875391759e-05,0.0947341993451118,0,0,0
6047,222962.85228928976,2010-12-16 02:32:52,4112.047756491346,2,21,0.550297200679779,4.113691806793213,18.429930346542367,17.782845884253113,74.02441795967644,64.26600762581064,9.70840483205393e-05,0.0947341993451118,0,0,0
6048,222992.86725413537,2010-12-16 02:33:22,4142.06272125173,2,21,0.550297200679779,4.116767406463623,18.434517562302062,17.782845884253113,74.04329519524916,64.26600762581064,6.47544875391759e-05,0.0947341993451118,0,0,0
6049,223022.88243384563,2010-12-16 02:33:52,4172.077900977047,2,21,0.5501165986061096,4.120005130767822,18.439104790376177,17.782845884253113,74.06218731289037,64.26600762581064,9.70840483205393e-05,0.0947341993451118,0,0,0
6050,223052.89737464132,2010-12-16 02:34:22,4202.092841772796,2,21,0.550297200679779,4.1232428550720215,18.443692050273764,17.782845884253113,74.08109444909383,64.26600762581064,3.23295607813634e-05,0.0947341993451118,0,0,0
6051,223082.91271790868,2010-12-16 02:34:52,4232.108185040081,2,21,0.5501165986061096,4.12664270401001,18.448279283895307,17.782845884253113,74.1000165057229,64.26600762581064,6.47544875391759e-05,0.0947341993451118,0,0,0
6052,223112.92749425012,2010-12-16 02:35:22,4262.122961381592,2,21,0.5501165986061096,4.13004207611084,18.45286649895069,17.782845884253113,74.11895360528385,64.26600762581064,9.70840483205393e-05,0.0947341993451118,0,0,0
6053,223142.94257369096,2010-12-16 02:35:52,4292.138040822354,2,21,0.550297200679779,4.133279800415039,18.457453771143875,17.782845884253113,74.1379061863977,64.26600762581064,6.47544875391759e-05,0.0947341993451118,0,0,0
6054,223172.9576192023,2010-12-16 02:36:22,4322.153086333685,2,21,0.5501165986061096,4.136355876922607,18.46204103521482,17.782845884253113,74.15687400007072,64.26600762581064,6.47544875391759e-05,0.0947341993451118,0,0,0
6055,223202.9727428831,2010-12-16 02:36:52,4352.168210084711,2,21,0.5504778623580933,4.140079021453857,18.466628306493988,17.782845884253113,74.17585737495554,64.26600762581064,0.0001295089750783,0.0947341993451118,0,0,0
6056,223232.98774668065,2010-12-16 02:37:22,4382.183213812064,2,21,0.5501165986061096,4.143316745758057,18.47121562303911,17.782845884253113,74.19485653591478,64.26600762581064,9.70840483205393e-05,0.0947341993451118,0,0,0
6057,223263.00280235228,2010-12-16 02:37:52,4412.198269483677,2,21,0.5501165986061096,4.146878242492676,18.475802810386025,17.782845884253113,74.213871001667,64.26600762581064,9.70840483205393e-05,0.0947341993451118,0,0,0
6058,223293.01785987348,2010-12-16 02:38:22,4442.213327004893,2,21,0.550297200679779,4.150439739227295,18.480389974449647,17.782845884253113,74.23290140642888,64.26600762581064,0.0001295089750783,0.0947341993451118,0,0,0
6059,223323.03295048705,2010-12-16 02:38:52,4472.228417603421,2,21,0.5501165986061096,4.153839588165283,18.48497712998362,17.782845884253113,74.25194773278729,64.26600762581064,6.47544875391759e-05,0.0947341993451118,0,0,0
6060,223353.04812926505,2010-12-16 02:39:22,4502.243596401429,2,21,0.550297200679779,4.157401084899902,18.489564366968303,17.782845884253113,74.27101033202528,64.26600762581064,9.71794142969884e-05,0.0947341993451118,0,0,0
6061,223383.06304771017,2010-12-16 02:39:52,4532.2585148465605,2,21,0.5501165986061096,4.160800457000732,18.494151514121526,17.782845884253113,74.29008872362829,64.26600762581064,6.47544875391759e-05,0.0947341993451118,0,0,0
6062,223413.07823049303,2010-12-16 02:40:22,4562.273697609436,2,21,0.5501165986061096,4.164361953735352,18.498738743869502,17.782845884253113,74.30918369782167,64.26600762581064,9.70840483205393e-05,0.0947341993451118,0,0,0
6063,223443.09502694657,2010-12-16 02:40:52,4592.29049416818,2,21,0.5501165986061096,4.16808557510376,18.503326189081747,17.782845884253113,74.32829588424713,64.26600762581064,0.0001295089750783,0.0947341993451118,0,0,0
6064,223473.10863181792,2010-12-16 02:41:22,4622.304098939284,2,21,0.550297200679779,4.171647071838379,18.50791313587992,17.782845884253113,74.34742248924067,64.26600762581064,6.47544875391759e-05,0.0947341993451118,0,0,0
6065,223503.12328738385,2010-12-16 02:41:52,4652.318754610512,2,21,0.5501165986061096,4.175046443939209,18.51250025755627,17.782845884253113,74.36656638619868,64.26600762581064,6.47544875391759e-05,0.0947341993451118,0,0,0
6066,223533.1383477772,2010-12-16 02:42:22,4682.333814888588,2,21,0.550297200679779,4.178770065307617,18.517087433978688,17.782845884253113,74.38572722122797,64.26600762581064,6.47544875391759e-05,0.0947341993451118,0,0,0
6067,223563.1534514533,2010-12-16 02:42:52,4712.348918579697,2,21,0.550297200679779,4.182493209838867,18.521674657108445,17.782845884253113,74.40490504211482,64.26600762581064,3.23295607813634e-05,0.0947341993451118,0,0,0
6068,223593.1684744135,2010-12-16 02:43:22,4742.3639415449215,2,21,0.550297200679779,4.186216831207275,18.52626185971849,17.782845884253113,74.42409960687802,64.26600762581064,9.71794142969884e-05,0.0947341993451118,0,0,0
6069,223623.18353438584,2010-12-16 02:43:52,4772.379001587411,2,21,0.550297200679779,4.1901021003723145,18.53084906332647,17.782845884253113,74.44331125832915,64.26600762581064,0.0001295089750783,0.0947341993451118,0,0,0
6070,223653.19861674888,2010-12-16 02:44:22,4802.394083880271,2,21,0.5501165986061096,4.1935014724731445,18.53543628098475,17.782845884253113,74.46254008283957,64.26600762581064,6.47544875391759e-05,0.0947341993451118,0,0,0
6071,223683.213669819,2010-12-16 02:44:52,4832.409136950411,2,21,0.550297200679779,4.197386741638184,18.540023585406587,17.782845884253113,74.4817864300873,64.26600762581064,9.71794142969884e-05,0.0947341993451118,0,0,0
6072,223702.40080082155,2010-12-16 02:45:11,4851.596267957956,2,21,0.5504778623580933,4.200138568878174,18.542955917699743,17.782845884253113,74.4940982647724,64.26600762581064,0.0001942634553415,0.0947341993451118,0,0,0
6073,223732.41836639377,2010-12-16 02:45:41,30.013925860121148,3,21,0.0,4.109158992767334,18.542955917699743,17.782845884253113,74.4940982647724,64.26600762581064,-0.0003885269106831,0.0947341993451118,0,0,0
6074,223762.4336715412,2010-12-16 02:46:12,60.029231077720326,3,21,0.0,4.097503185272217,18.542955917699743,17.782845884253113,74.4940982647724,64.26600762581064,-0.0002266883820993,0.0947341993451118,0,0,0
6075,223792.4486120663,2010-12-16 02:46:42,90.04417158274629,3,21,0.0,4.090703964233398,18.542955917699743,17.782845884253113,74.4940982647724,64.26600762581064,-0.0001295089750783,0.0947341993451118,0,0,0
6076,223822.41678590927,2010-12-16 02:47:11,120.01234537059528,3,21,0.0,4.08617115020752,18.542955917699743,17.782845884253113,74.4940982647724,64.26600762581064,-3.24249267578125e-05,0.0947341993451118,0,0,0
6077,223822.42257001656,2010-12-16 02:47:12,2.666635821e-06,4,21,1.0094059705734253,4.199814796447754,18.542955918447444,17.782845884253113,74.4940982679126,64.26600762581064,0.0,0.0947341993451118,0,0,0
6078,223823.26631913372,2010-12-16 02:47:13,0.843751818949463,4,21,0.9590160250663756,4.199814796447754,18.54318526486573,17.782845884253113,74.49506147665964,64.26600762581064,0.0,0.0947341993451118,0,0,0
6079,223825.1881412292,2010-12-16 02:47:14,2.765573914317552,4,21,0.9089872241020204,4.199814796447754,18.543682776263868,17.782845884253113,74.49715091738743,64.26600762581064,0.0,0.0947341993451118,0,0,0
6080,223828.1256153806,2010-12-16 02:47:17,5.70304806576365,4,21,0.8585972785949707,4.199814796447754,18.54440277023428,17.782845884253113,74.5001747514103,64.26600762581064,0.0,0.0947341993451118,0,0,0
6081,223832.18800917632,2010-12-16 02:47:21,9.765441861478372,4,21,0.8082072734832764,4.199653148651123,18.54534200429268,17.782845884253113,74.50411934624019,64.26600762581064,-3.23295607813634e-05,0.0947341993451118,0,0,0
6082,223837.53170874217,2010-12-16 02:47:27,15.109141422308593,4,21,0.7581784725189209,4.199814796447754,18.546503043623417,17.782845884253113,74.50899547560435,64.26600762581064,3.23295607813634e-05,0.0947341993451118,0,0,0
6083,223844.43782166857,2010-12-16 02:47:34,22.01525435371867,4,21,0.7081497311592102,4.199814796447754,18.547907515410056,17.782845884253113,74.51489399182249,64.26600762581064,3.23295607813634e-05,0.0947341993451118,0,0,0
6084,223853.59386476967,2010-12-16 02:47:43,31.171297454820262,4,21,0.6581209897994995,4.199814796447754,18.54964250168041,17.782845884253113,74.52218061579453,64.26600762581064,0.0,0.0947341993451118,0,0,0
6085,223866.3592471277,2010-12-16 02:47:56,43.93667981284195,4,21,0.608092188835144,4.199653148651123,18.551883083467708,17.782845884253113,74.53159064785306,64.26600762581064,0.0,0.0947341993451118,0,0,0
6086,223885.5633307712,2010-12-16 02:48:15,63.140763516519954,4,21,0.5580634474754333,4.199653148651123,18.554984151902183,17.782845884253113,74.5446145907595,64.26600762581064,-3.23295607813634e-05,0.0947341993451118,0,0,0
6087,223918.0146852888,2010-12-16 02:48:47,95.5921180441329,4,21,0.5080346465110779,4.199814796447754,18.559768635261687,17.782845884253113,74.56470854618476,64.26600762581064,0.0,0.0947341993451118,0,0,0
6088,223979.1698305757,2010-12-16 02:49:48,156.7472633210335,4,21,0.4580058753490448,4.199814796447754,18.567932694576587,17.782845884253113,74.59899610318689,64.26600762581064,3.23295607813634e-05,0.0947341993451118,0,0,0
6089,224077.46464834915,2010-12-16 02:51:27,255.0420810393556,4,21,0.4077965021133423,4.199653148651123,18.579724559651257,17.782845884253113,74.64851981308,64.26600762581064,-6.47544875391759e-05,0.0947341993451118,0,0,0
6090,224204.05621772565,2010-12-16 02:53:33,381.63365041083006,4,21,0.3577677309513092,4.199976921081543,18.59316840353624,17.782845884253113,74.7049815688575,64.26600762581064,6.47544875391759e-05,0.0947341993451118,0,0,0
6091,224353.9908203576,2010-12-16 02:56:03,531.5682530427641,4,21,0.3077389597892761,4.199653148651123,18.60700607571826,17.782845884253113,74.76309730481188,64.26600762581064,0.0,0.0947341993451118,0,0,0
6092,224534.2061759787,2010-12-16 02:59:03,711.7836086688799,4,21,0.257710188627243,4.199653148651123,18.62113204038426,17.782845884253113,74.82242370901436,64.26600762581064,-3.23295607813634e-05,0.0947341993451118,0,0,0
6093,224756.7645061685,2010-12-16 03:02:46,934.341938918771,4,21,0.2076814323663711,4.199653148651123,18.6354754230583,17.782845884253113,74.8826632393169,64.26600762581064,-6.47544875391759e-05,0.0947341993451118,0,0,0
6094,225051.9308304238,2010-12-16 03:07:41,1229.5082630839047,4,21,0.1574720442295074,4.199814796447754,18.6503681988804,17.782845884253113,74.94521011174487,64.26600762581064,0.0,0.0947341993451118,0,0,0
6095,225493.31298598667,2010-12-16 03:15:03,1670.8904186718487,4,21,0.1074432730674743,4.199814796447754,18.666428579376383,17.782845884253113,75.0126606842183,64.26600762581064,3.23295607813634e-05,0.0947341993451118,0,0,0
6096,226349.7657354232,2010-12-16 03:29:19,2527.343168093294,4,21,0.0574145056307315,4.199814796447754,18.685343517991853,17.782845884253113,75.09209983127766,64.26600762581064,0.0,0.0947341993451118,0,0,0
6097,226564.19921741064,2010-12-16 03:32:53,2741.7766501509523,4,21,0.0498289167881011,4.199814796447754,18.688561575945364,17.782845884253113,75.10561510041019,64.26600762581064,0.0,0.0947341993451118,0,0,0
6098,226594.21101321783,2010-12-16 03:33:24,30.016911469695746,5,21,0.0,4.191397190093994,18.688561575945364,17.782845884253113,75.10561510041019,64.26600762581064,-3.23295607813634e-05,0.0947341993451118,0,0,0
6099,226624.21047003235,2010-12-16 03:33:54,60.01636833427799,5,21,0.0,4.189939975738525,18.688561575945364,17.782845884253113,75.10561510041019,64.26600762581064,-3.24249267578125e-05,0.0947341993451118,0,0,0
6100,226624.3939000799,2010-12-16 03:33:54,0.189254582750151,6,21,-1.9243103452026844e-05,4.1901021003723145,18.688561575945364,17.782845885264738,75.10561510041019,64.26600763004944,0.0,0.0995024740695953,0,0,0
6101,226629.2202612992,2010-12-16 03:33:59,5.015615807027488,6,21,0.0008838032954372,4.1901021003723145,18.688562670227824,17.7828458853398,75.10561968557997,64.26600763036396,-3.23295607813634e-05,0.0995024740695953,0,0,0
6102,226659.2313638903,2010-12-16 03:34:29,30.01508027283278,7,21,-1.0993878841400146,4.001181125640869,18.688562670227824,17.792014032458436,75.10561968557997,64.30290906309096,-0.0010360718006268,0.0995024740695953,0,0,0
6103,226689.24653902423,2010-12-16 03:34:59,60.03025541173613,7,21,-1.099568486213684,3.9712324142456055,18.688562670227824,17.80118220448136,75.10561968557997,64.33944624658217,-0.0006799221155233,0.0995024740695953,0,0,0
6104,226719.26161303147,2010-12-16 03:35:29,90.04532948915184,7,21,-1.099568486213684,3.950349092483521,18.688562670227824,17.810350217443794,75.10561968557997,64.37575437830112,-0.0004856586456298,0.0995024740695953,0,0,0
6105,226749.2765284641,2010-12-16 03:35:59,120.06024485161151,7,21,-1.099568486213684,3.9339985847473145,18.688562670227824,17.8195181685693,75.10561968557997,64.41189401528345,-0.0004209041653666,0.0995024740695953,0,0,0
6106,226779.2917389109,2010-12-16 03:36:29,150.0754553033896,7,21,-1.099568486213684,3.9204001426696777,18.688562670227824,17.82868620696595,75.10561968557997,64.44789676249545,-0.0002913951757363,0.0995024740695953,0,0,0
6107,226809.30669740567,2010-12-16 03:36:59,180.0904137981824,7,21,-1.0997490882873535,3.90777325630188,18.688562670227824,17.837854201627223,75.10561968557997,64.48377958410727,-0.0003237724304199,0.0995024740695953,0,0,0
6108,226839.30791868595,2010-12-16 03:37:29,210.0916351636573,7,21,-1.099568486213684,3.8962793350219727,18.688562670227824,17.847017947987705,75.10561968557997,64.51953654058089,-0.0002913951757363,0.0995024740695953,0,0,0
6109,226869.32129416644,2010-12-16 03:37:59,240.1050105439305,7,21,-1.099568486213684,3.885432958602905,18.688562670227824,17.85618541588209,75.10561968557997,64.55520550094897,-0.0002590179501567,0.0995024740695953,0,0,0
6110,226899.33623256625,2010-12-16 03:38:29,270.1199489537425,7,21,-1.099568486213684,3.874910354614258,18.688562670227824,17.86535335493007,75.10561968557997,64.59077801670702,-0.0002590179501567,0.0995024740695953,0,0,0
6111,226929.351278238,2010-12-16 03:38:59,300.1349946204594,7,21,-1.0997490882873535,3.8647115230560303,18.688562670227824,17.874521290970282,75.10561968557997,64.62625619176252,-0.0002590179501567,0.0995024740695953,0,0,0
6112,226959.3663625108,2010-12-16 03:39:29,330.15007888322094,7,21,-1.0997490882873535,3.8549983501434326,18.688562670227824,17.88368932249193,75.10561968557997,64.66164363976108,-0.0002590179501567,0.0995024740695953,0,0,0
6113,226989.3815336798,2010-12-16 03:39:59,360.16525005224537,7,21,-1.0997490882873535,3.845608949661255,18.688562670227824,17.89285739580117,75.10561968557997,64.69694262011984,-0.0001942634553415,0.0995024740695953,0,0,0
6114,227019.396517272,2010-12-16 03:40:29,390.1802337146669,7,21,-1.0993878841400146,3.836219549179077,18.688562670227824,17.902025484621998,75.10561968557997,64.73215536756136,-0.0002590179501567,0.0995024740695953,0,0,0
6115,227049.41152917471,2010-12-16 03:40:59,420.19524554718856,7,21,-1.099568486213684,3.8271541595458975,18.688562670227824,17.911193469645532,75.10561968557997,64.76728354376884,-0.0001942634553415,0.0995024740695953,0,0,0
6116,227079.426782834,2010-12-16 03:41:29,450.21049928668646,7,21,-1.0997490882873535,3.818250417709351,18.688562670227824,17.92036163259228,75.10561968557997,64.80233002963395,-0.0002590179501567,0.0995024740695953,0,0,0
6117,227109.44187768816,2010-12-16 03:41:59,480.22559413077926,7,21,-1.099568486213684,3.809670448303223,18.688562670227824,17.929529677832285,75.10561968557997,64.83729602129439,-0.0001942634553415,0.0995024740695953,0,0,0
6118,227139.4568493056,2010-12-16 03:42:29,510.2405656780528,7,21,-1.0997490882873535,3.8012523651123047,18.688562670227824,17.938697671693742,75.10561968557997,64.87218326837767,-0.0001618862152099,0.0995024740695953,0,0,0
6119,227169.4717723021,2010-12-16 03:42:59,540.2554886745093,7,21,-1.0993878841400146,3.7929961681365967,18.688562670227824,17.947865623191834,75.10561968557997,64.90699367654133,-0.0001942634553415,0.0995024740695953,0,0,0
6120,227199.48685266508,2010-12-16 03:43:29,570.2705690526041,7,21,-1.0997490882873535,3.7847399711608887,18.688562670227824,17.95703373269698,75.10561968557997,64.94173017028903,-0.0002266406954731,0.0995024740695953,0,0,0
6121,227229.501918497,2010-12-16 03:43:59,600.285634884501,7,21,-1.0997490882873535,3.777131319046021,18.688562670227824,17.966201751278902,75.10561968557997,64.97639427420181,-0.0001942634553415,0.0995024740695953,0,0,0
6122,227259.5169629908,2010-12-16 03:44:29,630.3006794685236,7,21,-1.0993878841400146,3.7696845531463614,18.688562670227824,17.975369847519513,75.10561968557997,65.01098804678621,-0.0001618862152099,0.0995024740695953,0,0,0
6123,227289.5320652283,2010-12-16 03:44:59,660.3157816859647,7,21,-1.0993878841400146,3.762237787246704,18.688562670227824,17.984537938348737,75.10561968557997,65.0455131166327,-0.0001942634553415,0.0995024740695953,0,0,0
6124,227319.54709635885,2010-12-16 03:45:29,690.3308127513466,7,21,-1.0997490882873535,3.754952907562256,18.688562670227824,17.993706012049756,75.10561968557997,65.07997082553386,-0.0001618862152099,0.0995024740695953,0,0,0
6125,227349.56229875056,2010-12-16 03:45:59,720.3460151430676,7,21,-1.099568486213684,3.7478301525115967,18.688562670227824,18.002874080402464,75.10561968557997,65.11436293149738,-0.0001618862152099,0.0995024740695953,0,0,0
6126,227379.57720794267,2010-12-16 03:46:29,750.3609243151227,7,21,-1.099568486213684,3.740869045257568,18.688562670227824,18.012042108132974,75.10561968557997,65.14869058026665,-0.0001618862152099,0.0995024740695953,0,0,0
6127,227409.59227566927,2010-12-16 03:46:59,780.3759920617845,7,21,-1.099568486213684,3.73390793800354,18.688562670227824,18.021210215973905,75.10561968557997,65.18295549922998,-0.0001942634553415,0.0995024740695953,0,0,0
6128,227439.6093265609,2010-12-16 03:47:29,810.3930430336259,7,21,-1.099568486213684,3.727594375610352,18.688562670227824,18.030378880370357,75.10561968557997,65.21716077359876,-0.0001295089750783,0.0995024740695953,0,0,0
6129,227469.6224063857,2010-12-16 03:47:59,840.4061227782212,7,21,-1.0993878841400146,3.720795154571533,18.688562670227824,18.03954634589276,75.10561968557997,65.25130157559785,-0.0001618862152099,0.0995024740695953,0,0,0
6130,227499.63745815764,2010-12-16 03:48:29,870.4211745451179,7,21,-1.099568486213684,3.714319705963135,18.688562670227824,18.04871439492561,75.10561968557997,65.28538530334717,-0.0002266406954731,0.0995024740695953,0,0,0
6131,227529.65272605736,2010-12-16 03:48:59,900.4364424448531,7,21,-1.099568486213684,3.708329916000366,18.688562670227824,18.057882505741546,75.10561968557997,65.31941103010953,-0.0001295089750783,0.0995024740695953,0,0,0
6132,227559.66759766097,2010-12-16 03:49:29,930.4513140534332,7,21,-1.099568486213684,3.701854467391968,18.688562670227824,18.06705043433882,75.10561968557997,65.35337921385924,-0.0001942634553415,0.0995024740695953,0,0,0
6133,227589.6826505105,2010-12-16 03:49:59,960.4663668980116,7,21,-1.0997490882873535,3.695864677429199,18.688562670227824,18.076218499414477,75.10561968557997,65.38729172075391,-0.0001942634553415,0.0995024740695953,0,0,0
6134,227619.6977124778,2010-12-16 03:50:29,990.4814288703042,7,21,-1.099568486213684,3.6900367736816406,18.688562670227824,18.08538649192315,75.10561968557997,65.42114893051833,-0.0001295089750783,0.0995024740695953,0,0,0
6135,227649.7127907406,2010-12-16 03:50:59,1020.4965071281227,7,21,-1.099568486213684,3.684208869934082,18.688562670227824,18.094554580316327,75.10561968557997,65.45495199340169,-0.0001618862152099,0.0995024740695953,0,0,0
6136,227679.72784818165,2010-12-16 03:51:29,1050.511564554102,7,21,-1.0993878841400146,3.678542852401733,18.688562670227824,18.10372264644717,75.10561968557997,65.48870176890726,-0.0001295089750783,0.0995024740695953,0,0,0
6137,227709.74301584196,2010-12-16 03:51:59,1080.5267322294326,7,21,-1.099568486213684,3.672714948654175,18.688562670227824,18.112890785867123,75.10561968557997,65.52239967002612,-0.0001618862152099,0.0995024740695953,0,0,0
6138,227739.758082942,2010-12-16 03:52:29,1110.5417993294852,7,21,-1.099568486213684,3.667049169540405,18.688562670227824,18.12205893281148,75.10561968557997,65.55604606451182,-0.0001942634553415,0.0995024740695953,0,0,0
6139,227769.7730187052,2010-12-16 03:52:59,1140.556735097724,7,21,-1.099568486213684,3.6615450382232666,18.688562670227824,18.131226975190945,75.10561968557997,65.58964140445029,-0.0001618862152099,0.0995024740695953,0,0,0
6140,227799.78809250196,2010-12-16 03:53:29,1170.5718088743913,7,21,-1.099568486213684,3.656364679336548,18.688562670227824,18.14039510905591,75.10561968557997,65.62318701685976,-0.0001295089750783,0.0995024740695953,0,0,0
6141,227829.8032891694,2010-12-16 03:53:59,1200.5870056320923,7,21,-1.099568486213684,3.651022434234619,18.688562670227824,18.14956324891546,75.10561968557997,65.65668366132104,-9.713172767078504e-05,0.0995024740695953,0,0,0
6142,227859.81846986213,2010-12-16 03:54:29,1230.6021863398532,7,21,-1.099568486213684,3.6456801891326895,18.688562670227824,18.15873132222166,75.10561968557997,65.69013142263044,-9.713172767078504e-05,0.0995024740695953,0,0,0
6143,227889.8332813862,2010-12-16 03:54:59,1260.6169977787033,7,21,-1.099568486213684,3.6406617164611816,18.688562670227824,18.167899255870587,75.10561968557997,65.72353118513274,-0.0001295089750783,0.0995024740695953,0,0,0
6144,227919.8483387069,2010-12-16 03:55:30,1290.6320550793705,7,21,-1.099568486213684,3.635481357574463,18.688562670227824,18.177067276466847,75.10561968557997,65.75688458930128,-0.0001295089750783,0.0995024740695953,0,0,0
6145,227949.86352159007,2010-12-16 03:56:00,1320.6472380327198,7,21,-1.099568486213684,3.630624771118164,18.688562670227824,18.18623534771643,75.10561968557997,65.79019236041258,-0.0001295089750783,0.0995024740695953,0,0,0
6146,227979.87844780457,2010-12-16 03:56:30,1350.6621641970596,7,21,-1.0993878841400146,3.625768184661865,18.688562670227824,18.19540337576478,75.10561968557997,65.82345525484459,-0.0001295089750783,0.0995024740695953,0,0,0
6147,228009.89363223652,2010-12-16 03:57:00,1380.677348624076,7,21,-1.0997490882873535,3.621073484420776,18.688562670227824,18.204571511492976,75.10561968557997,65.85667478405684,-0.0001295089750783,0.0995024740695953,0,0,0
6148,228039.9104315271,2010-12-16 03:57:30,1410.6941480349176,7,21,-1.0997490882873535,3.616378784179688,18.688562670227824,18.21374014683324,75.10561968557997,65.88985313536803,-0.0001295089750783,0.0995024740695953,0,0,0
6149,228069.9238008924,2010-12-16 03:58:00,1440.707517284936,7,21,-1.099568486213684,3.6118459701538086,18.688562670227824,18.22290773008415,75.10561968557997,65.92298563479324,-9.713172767078504e-05,0.0995024740695953,0,0,0
6150,228099.9386882753,2010-12-16 03:58:30,1470.7224046627568,7,21,-1.0997490882873535,3.60747504234314,18.688562670227824,18.23207572758379,75.10561968557997,65.95607840748927,-9.713172767078504e-05,0.0995024740695953,0,0,0
6151,228129.95388450165,2010-12-16 03:59:00,1500.7376008740982,7,21,-1.099568486213684,3.6029422283172607,18.688562670227824,18.24124382361516,75.10561968557997,65.98913123112037,-0.0001295089750783,0.0995024740695953,0,0,0
6152,228159.9688775324,2010-12-16 03:59:30,1530.7525940151068,7,21,-1.0993878841400146,3.598895072937012,18.688562670227824,18.25041187517312,75.10561968557997,66.02214472091062,-0.0001295089750783,0.0995024740695953,0,0,0
6153,228189.98388661805,2010-12-16 04:00:00,1560.767603005556,7,21,-1.0997490882873535,3.5946860313415527,18.688562670227824,18.259579959589956,75.10561968557997,66.05512032392049,-9.713172767078504e-05,0.0995024740695953,0,0,0
6154,228219.99896348745,2010-12-16 04:00:30,1590.782679945094,7,21,-1.099568486213684,3.590639114379883,18.688562670227824,18.26874808270747,75.10561968557997,66.08805862662393,-9.713172767078504e-05,0.0995024740695953,0,0,0
6155,228250.0140127681,2010-12-16 04:01:00,1620.7977291405923,7,21,-1.099568486213684,3.586753845214844,18.688562670227824,18.27791623314273,75.10561968557997,66.12096076219697,-9.713172767078504e-05,0.0995024740695953,0,0,0
6156,228280.0292252399,2010-12-16 04:01:30,1650.812941612397,7,21,-1.0997490882873535,3.5828685760498047,18.688562670227824,18.2870843706846,75.10561968557997,66.15382749692344,-0.0001618862152099,0.0995024740695953,0,0,0
6157,228310.0441241364,2010-12-16 04:02:00,1680.8278405239191,7,21,-1.0997490882873535,3.579307079315185,18.688562670227824,18.296252431980896,75.10561968557997,66.18665991293304,-0.0001295089750783,0.0995024740695953,0,0,0
6158,228340.05934426727,2010-12-16 04:02:30,1710.843060649771,7,21,-1.0997490882873535,3.5757455825805664,18.688562670227824,18.305420611337617,75.10561968557997,66.21945931761046,-9.713172767078504e-05,0.0995024740695953,0,0,0
6159,228370.07424664745,2010-12-16 04:03:00,1740.857963024912,7,21,-1.099568486213684,3.5721840858459477,18.688562670227824,18.314588705345106,75.10561968557997,66.25222572792111,-9.713172767078504e-05,0.0995024740695953,0,0,0
6160,228400.08945003664,2010-12-16 04:03:30,1770.8731664291524,7,21,-1.099568486213684,3.568622589111328,18.688562670227824,18.323756816614285,75.10561968557997,66.28496011789646,-0.0001295089750783,0.0995024740695953,0,0,0
6161,228430.10437912325,2010-12-16 04:04:00,1800.8880955107518,7,21,-1.099568486213684,3.565384864807129,18.688562670227824,18.33292487418642,75.10561968557997,66.31766277896334,-6.47544875391759e-05,0.0995024740695953,0,0,0
6162,228460.1194405542,2010-12-16 04:04:30,1830.9031569416973,7,21,-1.099568486213684,3.5621471405029297,18.688562670227824,18.34209296243393,75.10561968557997,66.35033468758941,-6.47544875391759e-05,0.0995024740695953,0,0,0
6163,228490.13471522572,2010-12-16 04:05:00,1860.9184316082712,7,21,-1.0997490882873535,3.5587475299835205,18.688562670227824,18.351261094263904,75.10561968557997,66.38297662336679,-9.713172767078504e-05,0.0995024740695953,0,0,0
6164,228520.13635255137,2010-12-16 04:05:30,1890.920069029084,7,21,-1.099568486213684,3.5555098056793213,18.688562670227824,18.36042507141114,75.10561968557997,66.41557339825185,-6.47544875391759e-05,0.0995024740695953,0,0,0
6165,228550.14907464595,2010-12-16 04:06:00,1920.9327911236808,7,21,-1.099568486213684,3.552110195159912,18.688562670227824,18.369592413047588,75.10561968557997,66.44815158386048,-9.713172767078504e-05,0.0995024740695953,0,0,0
6166,228580.1640817216,2010-12-16 04:06:30,1950.9477981091409,7,21,-1.099568486213684,3.548710584640503,18.688562670227824,18.378760524089188,75.10561968557997,66.48070200423936,-9.713172767078504e-05,0.0995024740695953,0,0,0
6167,228610.17953381973,2010-12-16 04:07:00,1980.963250277421,7,21,-1.099568486213684,3.5453109741210938,18.688562670227824,18.3879287580944,75.10561968557997,66.51322218680566,-9.713172767078504e-05,0.0995024740695953,0,0,0
6168,228640.1943549427,2010-12-16 04:07:30,2010.978071385332,7,21,-1.099568486213684,3.5420732498168945,18.688562670227824,18.39709680849982,75.10561968557997,66.54571085189068,-6.47544875391759e-05,0.0995024740695953,0,0,0
6169,228670.2113169231,2010-12-16 04:08:00,2040.9950334158464,7,21,-1.0997490882873535,3.5386736392974854,18.688562670227824,18.40626554451337,75.10561968557997,66.5781712002479,-6.47544875391759e-05,0.0995024740695953,0,0,0
6170,228700.22433054817,2010-12-16 04:08:30,2071.008046935644,7,21,-1.099568486213684,3.535274028778076,18.688562670227824,18.415433107454465,75.10561968557997,66.61059632854659,-6.47544875391759e-05,0.0995024740695953,0,0,0
6171,228730.2395044189,2010-12-16 04:09:00,2101.0232208063912,7,21,-1.0997490882873535,3.531874418258667,18.688562670227824,18.42460133880905,75.10561968557997,66.64299229460752,-9.713172767078504e-05,0.0995024740695953,0,0,0
6172,228760.25443693905,2010-12-16 04:09:30,2131.038153326547,7,21,-1.0997490882873535,3.528151035308838,18.688562670227824,18.43376947429553,75.10561968557997,66.67535623203543,-0.0001295089750783,0.0995024740695953,0,0,0
6173,228790.26965036825,2010-12-16 04:10:00,2161.0533667557347,7,21,-1.0993878841400146,3.5247514247894287,18.688562670227824,18.44293767805289,75.10561968557997,66.70768774661612,-6.47544875391759e-05,0.0995024740695953,0,0,0
6174,228820.2846928971,2010-12-16 04:10:30,2191.068409269605,7,21,-1.099568486213684,3.5210280418396,18.688562670227824,18.452105848259983,75.10561968557997,66.7399857893462,-9.713172767078504e-05,0.0995024740695953,0,0,0
6175,228850.2997734607,2010-12-16 04:11:00,2221.083489833162,7,21,-1.099568486213684,3.5173046588897705,18.688562670227824,18.461273990688547,75.10561968557997,66.77224986047868,-9.713172767078504e-05,0.0995024740695953,0,0,0
6176,228880.31468648737,2010-12-16 04:11:30,2251.0984028748467,7,21,-1.099568486213684,3.5134193897247314,18.688562670227824,18.470442026078818,75.10561968557997,66.80447836787091,-6.47544875391759e-05,0.0995024740695953,0,0,0
6177,228910.32981035867,2010-12-16 04:12:00,2281.113526751185,7,21,-1.099568486213684,3.509210586547852,18.688562670227824,18.479610229121484,75.10561968557997,66.83667108775576,-0.0001295089750783,0.0995024740695953,0,0,0
6178,228940.34497234484,2010-12-16 04:12:30,2311.128688717308,7,21,-1.0997490882873535,3.5051634311676025,18.688562670227824,18.48877840979737,75.10561968557997,66.86882600659422,-9.713172767078504e-05,0.0995024740695953,0,0,0
6179,228970.35989537137,2010-12-16 04:13:00,2341.143611748852,7,21,-1.099568486213684,3.500630617141724,18.688562670227824,18.497946466883715,75.10561968557997,66.90094095099698,-0.0001295089750783,0.0995024740695953,0,0,0
6180,229000.3749470932,2010-12-16 04:13:30,2371.1586634806613,7,21,-1.0997490882873535,3.495774030685425,18.688562670227824,18.507114602749148,75.10561968557997,66.93301447556523,-0.0001618862152099,0.0995024740695953,0,0,0
6181,229030.39008639788,2010-12-16 04:14:00,2401.1738028756176,7,21,-1.099568486213684,3.490917444229126,18.688562670227824,18.51628274763467,75.10561968557997,66.96504353830534,-0.0001295089750783,0.0995024740695953,0,0,0
6182,229060.4053171251,2010-12-16 04:14:30,2431.189033592825,7,21,-1.099568486213684,3.4855751991271973,18.688562670227824,18.52545090048806,75.10561968557997,66.99702477403456,-0.0001618862152099,0.0995024740695953,0,0,0
6183,229090.42013108524,2010-12-16 04:15:00,2461.203847447687,7,21,-1.0997490882873535,3.479261636734009,18.688562670227824,18.5346189783303,75.10561968557997,67.02895328247804,-0.0001618862152099,0.0995024740695953,0,0,0
6184,229120.4352255534,2010-12-16 04:15:30,2491.218941940907,7,21,-1.099568486213684,3.4727861881256104,18.688562670227824,18.543787089156645,75.10561968557997,67.06082379453777,-0.0001942634553415,0.0995024740695953,0,0,0
6185,229150.45024002748,2010-12-16 04:16:00,2521.2339564099893,7,21,-1.0997490882873535,3.465339422225952,18.688562670227824,18.55295518986593,75.10561968557997,67.09262982738525,-0.0002266406954731,0.0995024740695953,0,0,0
6186,229180.46528804005,2010-12-16 04:16:30,2551.2490044325687,7,21,-1.099568486213684,3.4565975666046143,18.688562670227824,18.562123204558823,75.10561968557997,67.12436167273022,-0.0002913951757363,0.0995024740695953,0,0,0
6187,229210.48035544585,2010-12-16 04:17:00,2581.2640718333696,7,21,-1.099568486213684,3.4465606212615967,18.688562670227824,18.57129121523428,75.10561968557997,67.15600775390054,-0.0003237724304199,0.0995024740695953,0,0,0
6188,229240.4953877794,2010-12-16 04:17:30,2611.279104166908,7,21,-1.099568486213684,3.43458104133606,18.688562670227824,18.580459272076183,75.10561968557997,67.18755261284109,-0.0003561496851034,0.0995024740695953,0,0,0
6189,229270.51231466743,2010-12-16 04:18:00,2641.296031145196,7,21,-1.099568486213684,3.419849634170532,18.688562670227824,18.589627863581317,75.10561968557997,67.21897812739664,-0.0004532813909463,0.0995024740695953,0,0,0
6190,229300.52553538285,2010-12-16 04:18:30,2671.3092517653545,7,21,-1.0997490882873535,3.4018802642822266,18.688562670227824,18.598795392994965,75.10561968557997,67.25025146804415,-0.0005827903514727,0.0995024740695953,0,0,0
6191,229330.54058760087,2010-12-16 04:19:00,2701.3243039733493,7,21,-1.0997490882873535,3.379216194152832,18.688562670227824,18.607963423839543,75.10561968557997,67.28134162228017,-0.0006799221155233,0.0995024740695953,0,0,0
6192,229360.555642275,2010-12-16 04:19:30,2731.33935866753,7,21,-1.099568486213684,3.349915027618408,18.688562670227824,18.61713147195525,75.10561968557997,67.31219464179134,-0.0008741378551349,0.0995024740695953,0,0,0
6193,229390.57072553528,2010-12-16 04:20:00,2761.3544419277973,7,21,-1.0997490882873535,3.310576677322388,18.688562670227824,18.626299614497142,75.10561968557997,67.34273578909102,-0.0012303352123126,0.0995024740695953,0,0,0
6194,229420.5857685404,2010-12-16 04:20:30,2791.369484902816,7,21,-1.0993878841400146,3.2573163509368896,18.688562670227824,18.635467645773428,75.10561968557997,67.37285608302301,-0.0016512393485754,0.0995024740695953,0,0,0
6195,229450.6008487931,2010-12-16 04:21:00,2821.384565180661,7,21,-1.099568486213684,3.1841440200805664,18.688562670227824,18.644635734019463,75.10561968557997,67.4024031008775,-0.0022016048897057,0.0995024740695953,0,0,0
6196,229480.6161469632,2010-12-16 04:21:30,2851.399863350723,7,21,-1.099568486213684,3.078108787536621,18.688562670227824,18.65380384037524,75.10561968557997,67.43114097103717,-0.0033348561264574,0.0995024740695953,0,0,0
6197,229510.6309758004,2010-12-16 04:22:00,2881.41469217283,7,21,-1.099568486213684,2.9039196968078613,18.688562670227824,18.662971838256475,75.10561968557997,67.45864156511688,-0.0059250355698168,0.0995024740695953,0,0,0
6198,229532.7086726899,2010-12-16 04:22:22,2903.4923890523723,7,21,-1.099568486213684,2.703829050064087,18.688562670227824,18.669715477144933,75.10561968557997,67.4775759718778,-0.007802867796272,0.0995024740695953,0,0,0
6199,229533.11747093865,2010-12-16 04:22:23,2903.9011874163784,7,21,-1.099568486213684,2.699943780899048,18.688562670227824,18.669840349679937,75.10561968557997,67.47791336818791,-0.0077381134033203,0.0995024740695953,0,0,0
6200,229593.13326991224,2010-12-16 04:23:23,60.014595101656816,8,21,0.0,3.420982837677002,18.688562670227824,18.669840349679937,75.10561968557997,67.47791336818791,0.0013274669181555,0.0995024740695953,0,0,0
6201,229593.3255108968,2010-12-16 04:23:23,0.187469846502643,9,21,-1.9243103452026844e-05,3.420982837677002,18.688562670227824,18.669840350682023,75.10561968557997,67.47791337161603,0.0,0.0947341993451118,0,0,0
6202,229598.15376162305,2010-12-16 04:23:28,5.015720652932489,9,21,0.0010644125286489,3.42923903465271,18.68856371966208,18.66984035076579,75.10562328090283,67.47791337190259,0.0011332035064697,0.0947341993451118,0,0,0
