Data_Point,Test_Time(s),Date_Time,Step_Time(s),Step_Index,Cycle_Index,Current(A),Voltage(V),Charge_Capacity(Ah),Discharge_Capacity(Ah),Charge_Energy(Wh),Discharge_Energy(Wh),dV/dt(V/s),Internal_Resistance(Ohm),Is_FC_Data,AC_Impedance(Ohm),ACI_Phase_Angle(Deg)
3257,120683.72454821756,2010-12-14 22:08:01,30.01501277987916,1,12,0.0,3.462101697921753,9.821783127318112,9.80938502849076,39.48466328965648,35.43717726008695,0.0008094310760498,0.0940944999456405,0,0,0
3258,120713.73964459548,2010-12-14 22:08:31,60.03010915778881,1,12,0.0,3.486060857772827,9.821783127318112,9.80938502849076,39.48466328965648,35.43717726008695,0.0005504131549969,0.0940944999456405,0,0,0
3259,120743.75464717996,2010-12-14 22:09:01,90.04511174229717,1,12,0.0,3.5041921138763428,9.821783127318112,9.80938502849076,39.48466328965648,35.43717726008695,0.0004209041653666,0.0940944999456405,0,0,0
3260,120773.72281663204,2010-12-14 22:09:31,120.01328119435672,1,12,0.0,3.51859974861145,9.821783127318112,9.80938502849076,39.48466328965648,35.43717726008695,0.0003885269106831,0.0940944999456405,0,0,0
3261,120803.73782404028,2010-12-14 22:10:01,30.01504966165805,2,12,0.550297200679779,3.667049169540405,9.826370448874805,9.80938502849076,39.50134981477451,35.43717726008695,0.0012950897216796,0.0940944999456405,0,0,0
3262,120833.75311169418,2010-12-14 22:10:31,60.03033743584998,2,12,0.5499359965324402,3.704930305480957,9.830957816659632,9.80938502849076,39.51826506780744,35.43717726008695,0.0008094310760498,0.0940944999456405,0,0,0
3263,120863.7679156444,2010-12-14 22:11:01,90.04514136100218,2,12,0.5501165986061096,3.7318034172058105,9.835545147780344,9.80938502849076,39.5353257542258,35.43717726008695,0.0005827903514727,0.0940944999456405,0,0,0
3264,120893.78295539138,2010-12-14 22:11:31,120.06018103781332,2,12,0.5501165986061096,3.7522010803222656,9.840132422745008,9.80938502849076,39.55249318570223,35.43717726008695,0.0005180359003134,0.0940944999456405,0,0,0
3265,120923.79814165796,2010-12-14 22:12:01,150.0753673445073,2,12,0.5501165986061096,3.766932487487793,9.844719737884851,9.80938502849076,39.56974132258686,35.43717726008695,0.0003237724304199,0.0940944999456405,0,0,0
3266,120953.8130625492,2010-12-14 22:12:31,180.09028818560031,2,12,0.5501165986061096,3.7768075466156006,9.8493069893037,9.80938502849076,39.58704599344589,35.43717726008695,0.0001942634553415,0.0940944999456405,0,0,0
3267,120983.8282194878,2010-12-14 22:13:01,210.10544511920048,2,12,0.5501165986061096,3.783768653869629,9.853894266327057,9.80938502849076,39.604388877122126,35.43717726008695,0.0001295089750783,0.0940944999456405,0,0,0
3268,121013.84315120096,2010-12-14 22:13:31,240.12037693761013,2,12,0.5501165986061096,3.789596557617188,9.858481522845992,9.80938502849076,39.62176004643924,35.43717726008695,0.0001618862152099,0.0940944999456405,0,0,0
3269,121043.85819211583,2010-12-14 22:14:01,270.1354177372153,2,12,0.550297200679779,3.794615030288696,9.863068838859984,9.80938502849076,39.63915587509744,35.43717726008695,0.0001295089750783,0.0940944999456405,0,0,0
3270,121073.87323351696,2010-12-14 22:14:31,300.1504591683921,2,12,0.550297200679779,3.799471616744995,9.86765617616108,9.80938502849076,39.65657428532272,35.43717726008695,0.0001295089750783,0.0940944999456405,0,0,0
3271,121103.8884008414,2010-12-14 22:15:01,330.1656264627747,2,12,0.5499359965324402,3.804004430770874,9.872243465599333,9.80938502849076,39.67401379462939,35.43717726008695,0.0001295089750783,0.0940944999456405,0,0,0
3272,121133.90345187148,2010-12-14 22:15:31,360.1806775179003,2,12,0.5501165986061096,3.808375358581543,9.87683074577608,9.80938502849076,39.69147360359462,35.43717726008695,0.0001295089750783,0.0940944999456405,0,0,0
3273,121163.91839341908,2010-12-14 22:16:01,390.19561906050825,2,12,0.5501165986061096,3.812422513961792,9.881418012801118,9.80938502849076,39.70895304468945,35.43717726008695,9.713172767078504e-05,0.0940944999456405,0,0,0
3274,121193.93354510462,2010-12-14 22:16:31,420.2107707259989,2,12,0.550297200679779,3.816631555557251,9.886005296456,9.80938502849076,39.726451910376646,35.43717726008695,9.713172767078504e-05,0.0940944999456405,0,0,0
3275,121223.94847191055,2010-12-14 22:17:01,450.2256975569976,2,12,0.550297200679779,3.8206787109375,9.890592599667134,9.80938502849076,39.7439693446157,35.43717726008695,0.0001295089750783,0.0940944999456405,0,0,0
3276,121253.96372589568,2010-12-14 22:17:31,480.2409515471192,2,12,0.550297200679779,3.824725866317749,9.895179889515015,9.80938502849076,39.76150480615799,35.43717726008695,0.0001295089750783,0.0940944999456405,0,0,0
3277,121283.97863763911,2010-12-14 22:18:01,510.25586331563534,2,12,0.5501165986061096,3.828449249267578,9.899767201457232,9.80938502849076,39.77905812796048,35.43717726008695,0.0001295089750783,0.0940944999456405,0,0,0
3278,121313.99361035932,2010-12-14 22:18:31,540.2708360057528,2,12,0.550297200679779,3.832334518432617,9.90435442929661,9.80938502849076,39.79662869753376,35.43717726008695,9.713172767078504e-05,0.0940944999456405,0,0,0
3279,121344.0086594295,2010-12-14 22:19:01,570.285885075939,2,12,0.5501165986061096,3.836057662963867,9.908941659260597,9.80938502849076,39.81421669635768,35.43717726008695,0.0001295089750783,0.0940944999456405,0,0,0
3280,121374.02372611854,2010-12-14 22:19:31,600.3009517649689,2,12,0.5501165986061096,3.840104818344116,9.913528975282548,9.80938502849076,39.8318226258533,35.43717726008695,0.0001295089750783,0.0940944999456405,0,0,0
3281,121404.03876233674,2010-12-14 22:20:01,630.3159879831735,2,12,0.5501165986061096,3.843504428863525,9.918116298272308,9.80938502849076,39.84944602843502,35.43717726008695,9.713172767078504e-05,0.0940944999456405,0,0,0
3282,121434.05380546716,2010-12-14 22:20:31,660.3310311185913,2,12,0.5501165986061096,3.8475515842437744,9.922703595607535,9.80938502849076,39.86708691574018,35.43717726008695,0.0001295089750783,0.0940944999456405,0,0,0
3283,121464.06885742451,2010-12-14 22:21:01,690.3460830709497,2,12,0.550297200679779,3.8514368534088135,9.9272909383878,9.80938502849076,39.88474551038502,35.43717726008695,0.0001295089750783,0.0940944999456405,0,0,0
3284,121494.08392048453,2010-12-14 22:21:31,720.3611462211735,2,12,0.5501165986061096,3.8551602363586426,9.93187827682864,9.80938502849076,39.90242155636215,35.43717726008695,9.713172767078504e-05,0.0940944999456405,0,0,0
3285,121524.09899522358,2010-12-14 22:22:01,750.3762208750235,2,12,0.5501165986061096,3.858883619308472,9.936465539438895,9.80938502849076,39.92011460825551,35.43717726008695,6.47544875391759e-05,0.0940944999456405,0,0,0
3286,121554.11400308624,2010-12-14 22:22:31,780.3912287326539,2,12,0.550297200679779,3.862607002258301,9.941052818639283,9.80938502849076,39.937824762574216,35.43717726008695,9.713172767078504e-05,0.0940944999456405,0,0,0
3287,121584.12906792563,2010-12-14 22:23:01,810.4062935720813,2,12,0.5501165986061096,3.86616849899292,9.945640111002708,9.80938502849076,39.95555167889158,35.43717726008695,9.713172767078504e-05,0.0940944999456405,0,0,0
3288,121614.14408528192,2010-12-14 22:23:31,840.4213109133112,2,12,0.5501165986061096,3.869729995727539,9.950227399030052,9.80938502849076,39.97329499118946,35.43717726008695,0.0001295089750783,0.0940944999456405,0,0,0
3289,121644.15926367891,2010-12-14 22:24:02,870.4364893253597,2,12,0.550297200679779,3.873129606246948,9.954814741144272,9.80938502849076,39.99105451280434,35.43717726008695,9.713172767078504e-05,0.0940944999456405,0,0,0
3290,121674.174350879,2010-12-14 22:24:32,900.4515766156551,2,12,0.550297200679779,3.876529216766357,9.959402115845451,9.80938502849076,40.008829551828384,35.43717726008695,0.0001295089750783,0.0940944999456405,0,0,0
3291,121704.1892209287,2010-12-14 22:25:02,930.4664465751312,2,12,0.5501165986061096,3.8796050548553462,9.963988807809786,9.80938502849076,40.02661671973326,35.43717726008695,9.713172767078504e-05,0.0940944999456405,0,0,0
3292,121734.20427120187,2010-12-14 22:25:32,960.481496848311,2,12,0.5501165986061096,3.882680892944336,9.968575293556873,9.80938502849076,40.04441726468824,35.43717726008695,9.713172767078504e-05,0.0940944999456405,0,0,0
3293,121764.2193296554,2010-12-14 22:26:02,990.4965553018473,2,12,0.550297200679779,3.8855948448181152,9.973161940793478,9.80938502849076,40.06223198446358,35.43717726008695,9.713172767078504e-05,0.0940944999456405,0,0,0
3294,121794.23438855508,2010-12-14 22:26:32,1020.5116141764312,2,12,0.5501165986061096,3.8881850242614746,9.97774850274434,9.80938502849076,40.08005915919532,35.43717726008695,9.713172767078504e-05,0.0940944999456405,0,0,0
3295,121824.24943656762,2010-12-14 22:27:02,1050.526662214048,2,12,0.5501165986061096,3.890775203704834,9.982335666176423,9.80938502849076,40.09790102181852,35.43717726008695,6.47544875391759e-05,0.0940944999456405,0,0,0
3296,121854.26448405389,2010-12-14 22:27:32,1080.5417097704674,2,12,0.550297200679779,3.893203496932984,9.98692304929496,9.80938502849076,40.11575535045269,35.43717726008695,3.237724376958795e-05,0.0940944999456405,0,0,0
3297,121884.27952197129,2010-12-14 22:28:02,1110.5567476177257,2,12,0.5501165986061096,3.895469903945923,9.991510437234249,9.80938502849076,40.133620411485865,35.43717726008695,9.713172767078504e-05,0.0940944999456405,0,0,0
3298,121914.29455524718,2010-12-14 22:28:32,1140.5717808936083,2,12,0.5501165986061096,3.897574424743652,9.996097707968795,9.80938502849076,40.15149516992079,35.43717726008695,3.237724376958795e-05,0.0940944999456405,0,0,0
3299,121944.30972702772,2010-12-14 22:29:02,1170.5869526541046,2,12,0.5501165986061096,3.899840831756592,10.000685031573395,9.80938502849076,40.16938008149623,35.43717726008695,6.47544875391759e-05,0.0940944999456405,0,0,0
3300,121974.324661603,2010-12-14 22:29:32,1200.6018872494246,2,12,0.5501165986061096,3.901945352554321,10.005272285030244,9.80938502849076,40.18727408992602,35.43717726008695,6.47544875391759e-05,0.0940944999456405,0,0,0
3301,122004.33973927436,2010-12-14 22:30:02,1230.6169649959706,2,12,0.5501165986061096,3.903564214706421,10.009859583135803,9.80938502849076,40.20517736194984,35.43717726008695,0.0,0.0940944999456405,0,0,0
3302,122034.35487495504,2010-12-14 22:30:32,1260.6321005864593,2,12,0.550297200679779,3.9056687355041504,10.014446925599694,9.80938502849076,40.22308953331009,35.43717726008695,6.47544875391759e-05,0.0940944999456405,0,0,0
3303,122064.36979735504,2010-12-14 22:31:02,1290.6470230014693,2,12,0.5501165986061096,3.90744948387146,10.019034218032552,9.80938502849076,40.24100997434073,35.43717726008695,6.47544875391759e-05,0.0940944999456405,0,0,0
3304,122094.38486655532,2010-12-14 22:31:32,1320.6620922719228,2,12,0.5499359965324402,3.90906834602356,10.02362147869554,9.80938502849076,40.25893859617068,35.43717726008695,0.0,0.0940944999456405,0,0,0
3305,122124.39990633236,2010-12-14 22:32:02,1350.6771319537463,2,12,0.550297200679779,3.911010980606079,10.028208788351694,9.80938502849076,40.27687562004798,35.43717726008695,6.47544875391759e-05,0.0940944999456405,0,0,0
3306,122154.4149465706,2010-12-14 22:32:32,1380.6921722220295,2,12,0.5501165986061096,3.9127917289733887,10.032796103701076,9.80938502849076,40.29482071540816,35.43717726008695,6.47544875391759e-05,0.0940944999456405,0,0,0
3307,122184.42998948044,2010-12-14 22:33:02,1410.7072151068237,2,12,0.550297200679779,3.914410352706909,10.037383464514903,9.80938502849076,40.31277393378464,35.43717726008695,0.0,0.0940944999456405,0,0,0
3308,122214.4452643074,2010-12-14 22:33:32,1440.7224899488342,2,12,0.5501165986061096,3.916029214859009,10.04197086593047,9.80938502849076,40.330735139218255,35.43717726008695,0.0,0.0940944999456405,0,0,0
3309,122244.46014804118,2010-12-14 22:34:02,1470.737373777824,2,12,0.550297200679779,3.9181337356567374,10.046558151522394,9.80938502849076,40.34870372926576,35.43717726008695,6.47544875391759e-05,0.0940944999456405,0,0,0
3310,122274.4751390268,2010-12-14 22:34:32,1500.7523646732443,2,12,0.5501165986061096,3.919428825378418,10.051145425648988,9.80938502849076,40.36668003092412,35.43717726008695,0.0,0.0940944999456405,0,0,0
3311,122304.49018702934,2010-12-14 22:35:02,1530.7674126807865,2,12,0.550297200679779,3.9213714599609375,10.055732731120449,9.80938502849076,40.38466423226987,35.43717726008695,9.713172767078504e-05,0.0940944999456405,0,0,0
3312,122334.50524608938,2010-12-14 22:35:32,1560.7824718110066,2,12,0.5501165986061096,3.922990322113037,10.060320080971794,9.80938502849076,40.40265643178896,35.43717726008695,3.237724376958795e-05,0.0940944999456405,0,0,0
3313,122364.520553728,2010-12-14 22:36:02,1590.7977793794555,2,12,0.5501165986061096,3.9246091842651367,10.064907491013244,9.80938502849076,40.42065664954555,35.43717726008695,3.237724376958795e-05,0.0940944999456405,0,0,0
3314,122394.53533073116,2010-12-14 22:36:32,1620.8125563776011,2,12,0.5501165986061096,3.9263899326324463,10.06949477917007,9.80938502849076,40.43866412604539,35.43717726008695,3.237724376958795e-05,0.0940944999456405,0,0,0
3315,122424.55039799162,2010-12-14 22:37:02,1650.8276236330405,2,12,0.5501165986061096,3.928170680999756,10.0740821289249,9.80938502849076,40.456679646871,35.43717726008695,6.47544875391759e-05,0.0940944999456405,0,0,0
3316,122454.56558036854,2010-12-14 22:37:32,1680.8428060751178,2,12,0.5501165986061096,3.929789543151856,10.078669445519274,9.80938502849076,40.47470278051187,35.43717726008695,6.47544875391759e-05,0.0940944999456405,0,0,0
3317,122484.58052224698,2010-12-14 22:38:02,1710.8577478934117,2,12,0.550297200679779,3.931570291519165,10.083256783927036,9.80938502849076,40.4927337967085,35.43717726008695,6.47544875391759e-05,0.0940944999456405,0,0,0
3318,122514.59556002408,2010-12-14 22:38:32,1740.8727856504456,2,12,0.5501165986061096,3.9331891536712646,10.0878441553222,9.80938502849076,40.5107727041249,35.43717726008695,6.47544875391759e-05,0.0940944999456405,0,0,0
3319,122544.61058116976,2010-12-14 22:39:02,1770.8878067911303,2,12,0.550297200679779,3.934969902038574,10.09243147664474,9.80938502849076,40.52881916489112,35.43717726008695,9.713172767078504e-05,0.0940944999456405,0,0,0
3320,122574.62561885662,2010-12-14 22:39:32,1800.9028444779894,2,12,0.550297200679779,3.936426877975464,10.097018784035592,9.80938502849076,40.54687330570043,35.43717726008695,3.237724376958795e-05,0.0940944999456405,0,0,0
3321,122604.6406918714,2010-12-14 22:40:02,1830.9179174927608,2,12,0.5501165986061096,3.938045740127564,10.101606108918014,9.80938502849076,40.56493528223845,35.43717726008695,0.0,0.0940944999456405,0,0,0
3322,122634.65586042393,2010-12-14 22:40:32,1860.9330861104363,2,12,0.550297200679779,3.939826488494873,10.106193453406172,9.80938502849076,40.58300515606957,35.43717726008695,0.0,0.0940944999456405,0,0,0
3323,122664.67088503322,2010-12-14 22:41:02,1890.9481106646151,2,12,0.550297200679779,3.941607236862183,10.1107807354024,9.80938502849076,40.601082553656845,35.43717726008695,6.47544875391759e-05,0.0940944999456405,0,0,0
3324,122694.6858094382,2010-12-14 22:41:32,1920.963035069577,2,12,0.5501165986061096,3.943226099014282,10.115368019989234,9.80938502849076,40.61916776589639,35.43717726008695,3.237724376958795e-05,0.0940944999456405,0,0,0
3325,122724.70086260856,2010-12-14 22:42:02,1950.9780882399664,2,12,0.550297200679779,3.945006847381592,10.119955332750363,9.80938502849076,40.63726095510405,35.43717726008695,3.237724376958795e-05,0.0940944999456405,0,0,0
3326,122754.71630305269,2010-12-14 22:42:32,1980.9935287492333,2,12,0.550297200679779,3.946787595748901,10.124542702857472,9.80938502849076,40.655362236848006,35.43717726008695,3.237724376958795e-05,0.0940944999456405,0,0,0
3327,122784.7310922612,2010-12-14 22:43:02,2011.008317977814,2,12,0.550297200679779,3.948406457901001,10.129130039821836,9.80938502849076,40.6734711880803,35.43717726008695,3.237724376958795e-05,0.0940944999456405,0,0,0
3328,122814.74602579889,2010-12-14 22:43:32,2041.023251445327,2,12,0.550297200679779,3.950187206268311,10.133717337935916,9.80938502849076,40.69158785035713,35.43717726008695,3.237724376958795e-05,0.0940944999456405,0,0,0
3329,122844.76109147038,2010-12-14 22:44:02,2071.038317116825,2,12,0.5501165986061096,3.95180606842041,10.138304711710564,9.80938502849076,40.70971272586414,35.43717726008695,3.237724376958795e-05,0.0940944999456405,0,0,0
3330,122874.77610239064,2010-12-14 22:44:32,2101.0533280420896,2,12,0.550297200679779,3.9537487030029297,10.142891979572328,9.80938502849076,40.7278450335572,35.43717726008695,6.47544875391759e-05,0.0940944999456405,0,0,0
3331,122904.79114664886,2010-12-14 22:45:02,2131.068372295289,2,12,0.550297200679779,3.9555294513702393,10.14747934793218,9.80938502849076,40.74598574826809,35.43717726008695,9.713172767078504e-05,0.0940944999456405,0,0,0
3332,122934.80632988791,2010-12-14 22:45:32,2161.083555514299,2,12,0.5501165986061096,3.956986427307129,10.152066713417748,9.80938502849076,40.7641344099298,35.43717726008695,3.237724376958795e-05,0.0940944999456405,0,0,0
3333,122964.82126219755,2010-12-14 22:46:02,2191.098487818919,2,12,0.5501165986061096,3.9587671756744394,10.156654109909882,9.80938502849076,40.782291069331016,35.43717726008695,6.47544875391759e-05,0.0940944999456405,0,0,0
3334,122994.83641976774,2010-12-14 22:46:32,2221.1136453891027,2,12,0.5501165986061096,3.960547924041748,10.161241478930322,9.80938502849076,40.800455663793215,35.43717726008695,3.237724376958795e-05,0.0940944999456405,0,0,0
3335,123024.85134850848,2010-12-14 22:47:02,2251.128574129854,2,12,0.550297200679779,3.9623286724090576,10.165828813568186,9.80938502849076,40.81862816803096,35.43717726008695,6.47544875391759e-05,0.0940944999456405,0,0,0
3336,123054.86641339803,2010-12-14 22:47:32,2281.143639039456,2,12,0.5501165986061096,3.963947534561157,10.170416222717211,9.80938502849076,40.83680898134965,35.43717726008695,0.0,0.0940944999456405,0,0,0
3337,123084.88146685416,2010-12-14 22:48:02,2311.1586924755065,2,12,0.550297200679779,3.966052055358887,10.175003552742965,9.80938502849076,40.85499759670578,35.43717726008695,0.0001295089750783,0.0940944999456405,0,0,0
3338,123114.8964927216,2010-12-14 22:48:32,2341.173718342953,2,12,0.550297200679779,3.9676709175109854,10.17959093309045,9.80938502849076,40.87319458877883,35.43717726008695,6.47544875391759e-05,0.0940944999456405,0,0,0
3339,123144.91154057372,2010-12-14 22:49:02,2371.1887661951087,2,12,0.550297200679779,3.969451665878296,10.184178250253996,9.80938502849076,40.89139951786368,35.43717726008695,3.237724376958795e-05,0.0940944999456405,0,0,0
3340,123174.9268164784,2010-12-14 22:49:32,2401.204042104776,2,12,0.5501165986061096,3.971394300460816,10.188765636177116,9.80938502849076,40.909612996476085,35.43717726008695,9.713172767078504e-05,0.0940944999456405,0,0,0
3341,123204.94166148076,2010-12-14 22:50:02,2431.2188871271974,2,12,0.550297200679779,3.973013162612915,10.193352995137078,9.80938502849076,40.92783467964176,35.43717726008695,0.0,0.0940944999456405,0,0,0
3342,123234.95681864995,2010-12-14 22:50:32,2461.2340443013964,2,12,0.550297200679779,3.9749557971954346,10.197940352204252,9.80938502849076,40.94606471550994,35.43717726008695,6.47544875391759e-05,0.0940944999456405,0,0,0
3343,123264.97175046836,2010-12-14 22:51:02,2491.248976114793,2,12,0.550297200679779,3.976898431777954,10.20252768619066,9.80938502849076,40.96430305677643,35.43717726008695,6.47544875391759e-05,0.0940944999456405,0,0,0
3344,123294.98691599836,2010-12-14 22:51:32,2521.2641416497977,2,12,0.5499359965324402,3.978355407714844,10.207115137942896,9.80938502849076,40.98254994284394,35.43717726008695,3.237724376958795e-05,0.0940944999456405,0,0,0
3345,123325.00190065324,2010-12-14 22:52:02,2551.279126344789,2,12,0.5501165986061096,3.980459928512573,10.211702433503255,9.80938502849076,41.00080524635397,35.43717726008695,6.47544875391759e-05,0.0940944999456405,0,0,0
3346,123355.01690027038,2010-12-14 22:52:32,2581.294125916801,2,12,0.550297200679779,3.982240676879883,10.216289681555995,9.80938502849076,41.01906904145999,35.43717726008695,0.0,0.0940944999456405,0,0,0
3347,123385.03206766,2010-12-14 22:53:02,2611.309293291383,2,12,0.5504778623580933,3.984345197677612,10.220877025542206,9.80938502849076,41.03734188261202,35.43717726008695,3.237724376958795e-05,0.0940944999456405,0,0,0
3348,123415.04699185945,2010-12-14 22:53:32,2641.3242175058704,2,12,0.550297200679779,3.986287832260132,10.225464322564498,9.80938502849076,41.05562340088069,35.43717726008695,6.47544875391759e-05,0.0940944999456405,0,0,0
3349,123445.06210270336,2010-12-14 22:54:02,2671.339328419953,2,12,0.550297200679779,3.9882304668426514,10.230051678023797,9.80938502849076,41.073914059181575,35.43717726008695,3.237724376958795e-05,0.0940944999456405,0,0,0
3350,123475.07711300204,2010-12-14 22:54:32,2701.3543386434703,2,12,0.550297200679779,3.990173101425171,10.234638952685325,9.80938502849076,41.09221326170478,35.43717726008695,6.47544875391759e-05,0.0940944999456405,0,0,0
3351,123505.09215633296,2010-12-14 22:55:02,2731.369381979387,2,12,0.550297200679779,3.9921157360076895,10.239226176670927,9.80938502849076,41.11052140331629,35.43717726008695,6.47544875391759e-05,0.0940944999456405,0,0,0
3352,123535.10718957876,2010-12-14 22:55:32,2761.384415205145,2,12,0.5501165986061096,3.994058132171631,10.243813504475812,9.80938502849076,41.12883916946405,35.43717726008695,3.23295607813634e-05,0.0940944999456405,0,0,0
3353,123565.1222504032,2010-12-14 22:56:03,2791.399476024569,2,12,0.5501165986061096,3.99616265296936,10.248400830855692,9.80938502849076,41.14716619500467,35.43717726008695,9.713172767078504e-05,0.0940944999456405,0,0,0
3354,123595.1374265847,2010-12-14 22:56:33,2821.414652291279,2,12,0.550297200679779,3.99826717376709,10.252988212534015,9.80938502849076,41.165502847373865,35.43717726008695,3.237724376958795e-05,0.0940944999456405,0,0,0
3355,123625.15235206232,2010-12-14 22:57:03,2851.4295777638968,2,12,0.5501165986061096,4.000209808349609,10.25757547500864,9.80938502849076,41.1838483360148,35.43717726008695,6.47544875391759e-05,0.0940944999456405,0,0,0
3356,123655.16737803504,2010-12-14 22:57:33,2881.444603681469,2,12,0.550297200679779,4.002476215362549,10.262162764803373,9.80938502849076,41.20220360898133,35.43717726008695,9.70840483205393e-05,0.0940944999456405,0,0,0
3357,123685.18245463874,2010-12-14 22:58:03,2911.4596802651213,2,12,0.5504778623580933,4.004580974578857,10.26675007755414,9.80938502849076,41.220568652517706,35.43717726008695,6.47544875391759e-05,0.0940944999456405,0,0,0
3358,123715.19759566274,2010-12-14 22:58:33,2941.4748213041685,2,12,0.550297200679779,4.006523609161377,10.271337328089768,9.80938502849076,41.23894326185856,35.43717726008695,3.24249267578125e-05,0.0940944999456405,0,0,0
3359,123745.2125042684,2010-12-14 22:59:03,2971.4897299098134,2,12,0.5501165986061096,4.008790016174316,10.27592454494864,9.80938502849076,41.25732775418612,35.43717726008695,0.0,0.0940944999456405,0,0,0
3360,123775.22760162372,2010-12-14 22:59:33,3001.504827260143,2,12,0.550297200679779,4.011218070983887,10.280511857328191,9.80938502849076,41.275722633084165,35.43717726008695,9.70840483205393e-05,0.0940944999456405,0,0,0
3361,123805.2425965592,2010-12-14 23:00:03,3031.519822205643,2,12,0.5501165986061096,4.013484477996826,10.285099089951869,9.80938502849076,41.29412737889952,35.43717726008695,6.47544875391759e-05,0.0940944999456405,0,0,0
3362,123835.25768311768,2010-12-14 23:00:33,3061.534908764117,2,12,0.5501165986061096,4.015427112579346,10.289686397207063,9.80938502849076,41.312542729640455,35.43717726008695,3.23295607813634e-05,0.0940944999456405,0,0,0
3363,123865.27268384256,2010-12-14 23:01:03,3091.5499094889974,2,12,0.550297200679779,4.018017292022705,10.294273697461188,9.80938502849076,41.330968540424585,35.43717726008695,6.47544875391759e-05,0.0940944999456405,0,0,0
3364,123895.28785449028,2010-12-14 23:01:33,3121.5650801317124,2,12,0.550297200679779,4.0202836990356445,10.29886105829663,9.80938502849076,41.34940506260961,35.43717726008695,6.47544875391759e-05,0.0940944999456405,0,0,0
3365,123925.3028901872,2010-12-14 23:02:03,3151.580115833632,2,12,0.5501165986061096,4.022388458251953,10.303448272652732,9.80938502849076,41.367851695079246,35.43717726008695,3.24249267578125e-05,0.0940944999456405,0,0,0
3366,123955.31800419898,2010-12-14 23:02:33,3181.5952299356472,2,12,0.5501165986061096,4.024816513061523,10.30803553948517,9.80938502849076,41.38630935844465,35.43717726008695,6.47544875391759e-05,0.0940944999456405,0,0,0
3367,123985.33309802554,2010-12-14 23:03:03,3211.6103236769964,2,12,0.5501165986061096,4.027245044708252,10.312622788285504,9.80938502849076,41.40477785569652,35.43717726008695,6.47544875391759e-05,0.0940944999456405,0,0,0
3368,124015.34802733271,2010-12-14 23:03:33,3241.6252529791445,2,12,0.550297200679779,4.029511451721191,10.317210049106126,9.80938502849076,41.423257420435824,35.43717726008695,3.24249267578125e-05,0.0940944999456405,0,0,0
3369,124045.3630898714,2010-12-14 23:04:03,3271.6403155178464,2,12,0.5501165986061096,4.031939506530762,10.321797330135515,9.80938502849076,41.44174808718108,35.43717726008695,3.23295607813634e-05,0.0940944999456405,0,0,0
3370,124075.37813192414,2010-12-14 23:04:33,3301.6553575755825,2,12,0.5501165986061096,4.034529685974121,10.32638459252038,9.80938502849076,41.46024994027197,35.43717726008695,6.47544875391759e-05,0.0940944999456405,0,0,0
3371,124105.3931958513,2010-12-14 23:05:03,3331.6704214927145,2,12,0.550297200679779,4.0371198654174805,10.330971913949757,9.80938502849076,41.478763300419445,35.43717726008695,9.71794142969884e-05,0.0940944999456405,0,0,0
3372,124135.41085821456,2010-12-14 23:05:33,3361.688083926155,2,12,0.550297200679779,4.039547920227051,10.335559648010284,9.80938502849076,41.49728984855901,35.43717726008695,9.70840483205393e-05,0.0940944999456405,0,0,0
3373,124165.42334382568,2010-12-14 23:06:03,3391.700569542284,2,12,0.5501165986061096,4.041976451873779,10.340146497915711,9.80938502849076,41.51582421427239,35.43717726008695,6.47544875391759e-05,0.0940944999456405,0,0,0
3374,124195.4383564251,2010-12-14 23:06:33,3421.715582141714,2,12,0.5501165986061096,4.044566631317139,10.34473377030302,9.80938502849076,41.53437197946498,35.43717726008695,3.24249267578125e-05,0.0940944999456405,0,0,0
3375,124225.45338068856,2010-12-14 23:07:03,3451.730606340008,2,12,0.550297200679779,4.047318458557129,10.349321005499531,9.80938502849076,41.552931367663504,35.43717726008695,9.70840483205393e-05,0.0940944999456405,0,0,0
3376,124255.46843064595,2010-12-14 23:07:33,3481.7456562974016,2,12,0.550297200679779,4.049746990203857,10.353908347106994,9.80938502849076,41.57150307265259,35.43717726008695,6.47544875391759e-05,0.0940944999456405,0,0,0
3377,124285.48362251648,2010-12-14 23:08:03,3511.760848167941,2,12,0.5501165986061096,4.052337169647217,10.358495649480837,9.80938502849076,41.59008657949381,35.43717726008695,6.47544875391759e-05,0.0940944999456405,0,0,0
3378,124315.4985535279,2010-12-14 23:08:33,3541.775779169317,2,12,0.5501165986061096,4.055088996887207,10.363082919001904,9.80938502849076,41.608682070248335,35.43717726008695,6.47544875391759e-05,0.0940944999456405,0,0,0
3379,124345.5135975405,2010-12-14 23:09:03,3571.790823242068,2,12,0.5501165986061096,4.057679176330566,10.367670218903555,9.80938502849076,41.62728993157606,35.43717726008695,6.47544875391759e-05,0.0940944999456405,0,0,0
3380,124375.52862964848,2010-12-14 23:09:33,3601.80585529992,2,12,0.5497553944587708,4.060269355773926,10.372257493472368,9.80938502849076,41.64591011884136,35.43717726008695,6.47544875391759e-05,0.0940944999456405,0,0,0
3381,124405.543734718,2010-12-14 23:10:03,3631.82096043462,2,12,0.5501165986061096,4.063021659851074,10.37684469939938,9.80938502849076,41.66454198668383,35.43717726008695,6.47544875391759e-05,0.0940944999456405,0,0,0
3382,124435.55874121224,2010-12-14 23:10:33,3661.835966868708,2,12,0.550297200679779,4.0657734870910645,10.381431931182531,9.80938502849076,41.68318659412754,35.43717726008695,3.23295607813634e-05,0.0940944999456405,0,0,0
3383,124465.57378711956,2010-12-14 23:11:03,3691.8510127509608,2,12,0.550297200679779,4.068687438964844,10.386019218908253,9.80938502849076,41.70184411633375,35.43717726008695,9.70840483205393e-05,0.0940944999456405,0,0,0
3384,124495.58883490154,2010-12-14 23:11:33,3721.866060547979,2,12,0.5501165986061096,4.071439743041992,10.390606548905753,9.80938502849076,41.72051463276812,35.43717726008695,9.71794142969884e-05,0.0940944999456405,0,0,0
3385,124525.60394051245,2010-12-14 23:12:03,3751.8811661588647,2,12,0.5501165986061096,4.074353694915772,10.395193779882993,9.80938502849076,41.7391976399297,35.43717726008695,0.0001295089750783,0.0940944999456405,0,0,0
3386,124555.61906720077,2010-12-14 23:12:33,3781.8962928472006,2,12,0.550297200679779,4.077267646789551,10.399781105120088,9.80938502849076,41.757894119778406,35.43717726008695,9.71794142969884e-05,0.0940944999456405,0,0,0
3387,124585.63399028244,2010-12-14 23:13:03,3811.9112159338815,2,12,0.5501165986061096,4.07985782623291,10.404368320275976,9.80938502849076,41.77660333782299,35.43717726008695,3.24249267578125e-05,0.0940944999456405,0,0,0
3388,124615.64903294168,2010-12-14 23:13:33,3841.9262585881015,2,12,0.550297200679779,4.08293342590332,10.408955602994007,9.80938502849076,41.79532606868718,35.43717726008695,0.0001295089750783,0.0940944999456405,0,0,0
3389,124645.66409443776,2010-12-14 23:14:03,3871.9413200842096,2,12,0.550297200679779,4.0858473777771,10.413542815271144,9.80938502849076,41.8140618871272,35.43717726008695,9.70840483205393e-05,0.0940944999456405,0,0,0
3390,124675.67936447282,2010-12-14 23:14:33,3901.9565902094832,2,12,0.550297200679779,4.088923454284668,10.418129812778496,9.80938502849076,41.83281028037308,35.43717726008695,0.0001295089750783,0.0940944999456405,0,0,0
3391,124705.69418609704,2010-12-14 23:15:03,3931.971411813629,2,12,0.5501165986061096,4.091675281524658,10.42271628591511,9.80938502849076,41.85157007628618,35.43717726008695,6.47544875391759e-05,0.0940944999456405,0,0,0
3392,124735.70928671549,2010-12-14 23:15:33,3961.9865123468794,2,12,0.550297200679779,4.094751358032227,10.427303150610404,9.80938502849076,41.87034518136517,35.43717726008695,6.47544875391759e-05,0.0940944999456405,0,0,0
3393,124765.72445025553,2010-12-14 23:16:03,3992.001675876893,2,12,0.5501165986061096,4.097665309906006,10.431890437035864,9.80938502849076,41.88913599957546,35.43717726008695,3.24249267578125e-05,0.0940944999456405,0,0,0
3394,124795.73938126193,2010-12-14 23:16:33,4022.0166069133575,2,12,0.550297200679779,4.100903034210205,10.436477650313218,9.80938502849076,41.9079404997054,35.43717726008695,0.0001295089750783,0.0940944999456405,0,0,0
3395,124825.75440606671,2010-12-14 23:17:03,4052.03163171816,2,12,0.5501165986061096,4.103978633880615,10.441064937611651,9.80938502849076,41.92675945258148,35.43717726008695,9.70840483205393e-05,0.0940944999456405,0,0,0
3396,124855.76945492136,2010-12-14 23:17:33,4082.046680557773,2,12,0.5501165986061096,4.1068925857543945,10.44565224779898,9.80938502849076,41.94559278607502,35.43717726008695,3.23295607813634e-05,0.0940944999456405,0,0,0
3397,124885.78464962896,2010-12-14 23:18:03,4112.061875265372,2,12,0.5501165986061096,4.110130310058594,10.450239543292092,9.80938502849076,41.964440359947794,35.43717726008695,3.23295607813634e-05,0.0940944999456405,0,0,0
3398,124915.799563212,2010-12-14 23:18:33,4142.076788848403,2,12,0.5499359965324402,4.113206386566162,10.454826764394864,9.80938502849076,41.9833020615467,35.43717726008695,9.71794142969884e-05,0.0940944999456405,0,0,0
3399,124945.81462921933,2010-12-14 23:19:03,4172.09185486075,2,12,0.5501165986061096,4.116605758666992,10.459414013502023,9.80938502849076,42.00217845292839,35.43717726008695,6.47544875391759e-05,0.0940944999456405,0,0,0
3400,124975.82966477088,2010-12-14 23:19:33,4202.10689042232,2,12,0.550297200679779,4.119843482971191,10.46400131913377,9.80938502849076,42.02106978991127,35.43717726008695,0.0001295089750783,0.0940944999456405,0,0,0
3401,125005.84472994112,2010-12-14 23:20:03,4232.121955562496,2,12,0.5501165986061096,4.122919082641602,10.468588632908178,9.80938502849076,42.03997589151142,35.43717726008695,6.47544875391759e-05,0.0940944999456405,0,0,0
3402,125035.85976681096,2010-12-14 23:20:33,4262.136992457385,2,12,0.550297200679779,4.126480579376221,10.473175893712012,9.80938502849076,42.05889660588285,35.43717726008695,0.0001295089750783,0.0940944999456405,0,0,0
3403,125065.87481501396,2010-12-14 23:21:03,4292.152040655401,2,12,0.5501165986061096,4.129556655883789,10.477763137118655,9.80938502849076,42.07783226697554,35.43717726008695,9.71794142969884e-05,0.0940944999456405,0,0,0
3404,125095.89023552347,2010-12-14 23:21:33,4322.167461225049,2,12,0.5501165986061096,4.132794380187988,10.482350447114234,9.80938502849076,42.09678339129668,35.43717726008695,6.47544875391759e-05,0.0940944999456405,0,0,0
3405,125125.90493068295,2010-12-14 23:22:03,4352.182156329404,2,12,0.550297200679779,4.136193752288818,10.486937591242617,9.80938502849076,42.11574897540201,35.43717726008695,9.70840483205393e-05,0.0940944999456405,0,0,0
3406,125155.9199886102,2010-12-14 23:22:33,4382.197214251619,2,12,0.550297200679779,4.139593601226807,10.491524804878786,9.80938502849076,42.134730285788905,35.43717726008695,6.47544875391759e-05,0.0940944999456405,0,0,0
3407,125185.93502701886,2010-12-14 23:23:03,4412.212252670299,2,12,0.550297200679779,4.142831325531006,10.49611214179592,9.80938502849076,42.15372761252336,35.43717726008695,6.47544875391759e-05,0.0940944999456405,0,0,0
3408,125215.95020395222,2010-12-14 23:23:33,4442.227429583618,2,12,0.5501165986061096,4.146230697631836,10.50069949717174,9.80938502849076,42.172740685058365,35.43717726008695,3.23295607813634e-05,0.0940944999456405,0,0,0
3409,125245.96513312908,2010-12-14 23:24:03,4472.242358775491,2,12,0.5499359965324402,4.149630546569824,10.505286781982154,9.80938502849076,42.1917694271628,35.43717726008695,3.24249267578125e-05,0.0940944999456405,0,0,0
3410,125275.98017922684,2010-12-14 23:24:33,4502.25740487328,2,12,0.5501165986061096,4.153353691101074,10.509874029290502,9.80938502849076,42.21081387521343,35.43717726008695,9.70840483205393e-05,0.0940944999456405,0,0,0
3411,125305.99522684842,2010-12-14 23:25:03,4532.272452499875,2,12,0.550297200679779,4.156915187835693,10.514461256493146,9.80938502849076,42.22987416478318,35.43717726008695,9.70840483205393e-05,0.0940944999456405,0,0,0
3412,125336.01029297104,2010-12-14 23:25:33,4562.287518622496,2,12,0.550297200679779,4.160315036773682,10.51904846897402,9.80938502849076,42.248950484000176,35.43717726008695,9.71794142969884e-05,0.0940944999456405,0,0,0
3413,125366.0253888828,2010-12-14 23:26:03,4592.302614534245,2,12,0.550297200679779,4.164038181304932,10.523635792936352,9.80938502849076,42.26804357868063,35.43717726008695,9.70840483205393e-05,0.0940944999456405,0,0,0
3414,125396.04045038894,2010-12-14 23:26:33,4622.317676035365,2,12,0.5501165986061096,4.167275905609131,10.528223008984972,9.80938502849076,42.28715241756695,35.43717726008695,3.23295607813634e-05,0.0940944999456405,0,0,0
3415,125426.05556232054,2010-12-14 23:27:03,4652.332787946929,2,12,0.5501165986061096,4.17116117477417,10.53281025926918,9.80938502849076,42.3062778575556,35.43717726008695,0.0001295089750783,0.0940944999456405,0,0,0
3416,125456.07048505134,2010-12-14 23:27:33,4682.347710697774,2,12,0.5501165986061096,4.174561023712158,10.537397462541188,9.80938502849076,42.32541962103377,35.43717726008695,6.47544875391759e-05,0.0940944999456405,0,0,0
3417,125486.0855470086,2010-12-14 23:28:04,4712.362772655029,2,12,0.5501165986061096,4.178284168243408,10.541984680495109,9.80938502849076,42.344578004657805,35.43717726008695,0.0001295089750783,0.0940944999456405,0,0,0
3418,125516.10071869892,2010-12-14 23:28:34,4742.3779443503645,2,12,0.550297200679779,4.182007789611816,10.546571994886472,9.80938502849076,42.363753548404205,35.43717726008695,0.0001619339018361,0.0940944999456405,0,0,0
3419,125546.11563802624,2010-12-14 23:29:04,4772.39286365764,2,12,0.550297200679779,4.185569286346436,10.55115928039876,9.80938502849076,42.3829457155254,35.43717726008695,9.71794142969884e-05,0.0940944999456405,0,0,0
3420,125576.13118074986,2010-12-14 23:29:34,4802.408406170741,2,12,0.5501165986061096,4.1892924308776855,10.55574652736758,9.80938502849076,42.40215465489536,35.43717726008695,9.70840483205393e-05,0.0940944999456405,0,0,0
3421,125606.1457609182,2010-12-14 23:30:04,4832.422986539581,2,12,0.5501165986061096,4.193016052246094,10.560333611923031,9.80938502849076,42.42137992256633,35.43717726008695,9.71794142969884e-05,0.0940944999456405,0,0,0
3422,125636.16081694572,2010-12-14 23:30:34,4862.43804268738,2,12,0.5499359965324402,4.196577072143555,10.564920806957648,9.80938502849076,42.4406227530438,35.43717726008695,6.47544875391759e-05,0.0940944999456405,0,0,0
3423,125661.66057948404,2010-12-14 23:30:59,4887.937805205646,2,12,0.550297200679779,4.200138568878174,10.56881794610848,9.80938502849076,42.4569844079644,35.43717726008695,0.0001618385285837,0.0940944999456405,0,0,0
3424,125691.675293689,2010-12-14 23:31:29,30.015060974810392,3,12,0.0,4.108997344970703,10.56881794610848,9.80938502849076,42.4569844079644,35.43717726008695,-0.0004208564641885,0.0940944999456405,0,0,0
3425,125721.69042048258,2010-12-14 23:31:59,60.03018782855799,3,12,0.0,4.097503185272217,10.56881794610848,9.80938502849076,42.4569844079644,35.43717726008695,-0.0001942634553415,0.0940944999456405,0,0,0
3426,125751.70538920784,2010-12-14 23:32:29,90.04515646358439,3,12,0.0,4.0903801918029785,10.56881794610848,9.80938502849076,42.4569844079644,35.43717726008695,-0.0001942634553415,0.0940944999456405,0,0,0
3427,125781.67371352528,2010-12-14 23:32:59,120.0134807910454,3,12,0.0,4.086009502410889,10.56881794610848,9.80938502849076,42.4569844079644,35.43717726008695,-9.70840483205393e-05,0.0940944999456405,0,0,0
3428,125781.67578749877,2010-12-14 23:32:59,2.696710661e-06,4,12,1.0070581436157229,4.199814796447754,10.568817946862852,9.80938502849076,42.45698441113263,35.43717726008695,0.0,0.0940944999456405,0,0,0
3429,125782.47281865514,2010-12-14 23:33:00,0.797033878150629,4,12,0.9570293426513672,4.199814796447754,10.569034055500774,9.80938502849076,42.45789202409467,35.43717726008695,0.0,0.0940944999456405,0,0,0
3430,125784.4257575184,2010-12-14 23:33:02,2.749972761448682,4,12,0.9064587354660034,4.199814796447754,10.569538534079364,9.80938502849076,42.46001071575467,35.43717726008695,0.0,0.0940944999456405,0,0,0
3431,125787.41018498637,2010-12-14 23:33:05,5.734400209367156,4,12,0.856429934501648,4.199814796447754,10.570268081803968,9.80938502849076,42.46307466129734,35.43717726008695,0.0,0.0940944999456405,0,0,0
3432,125791.47259855126,2010-12-14 23:33:09,9.796813794326653,4,12,0.8064011931419373,4.199976921081543,10.571204840553053,9.80938502849076,42.46700885433174,35.43717726008695,3.24249267578125e-05,0.0940944999456405,0,0,0
3433,125796.87876088332,2010-12-14 23:33:15,15.202976106310704,4,12,0.7560111880302429,4.199814796447754,10.572376500001798,9.80938502849076,42.47192958983699,35.43717726008695,0.0,0.0940944999456405,0,0,0
3434,125803.92537048024,2010-12-14 23:33:22,22.249585718306708,4,12,0.7059824466705322,4.199653148651123,10.573805404105284,9.80938502849076,42.47793073386735,35.43717726008695,-3.23295607813634e-05,0.0940944999456405,0,0,0
3435,125813.23768399928,2010-12-14 23:33:31,31.561899237332906,4,12,0.6559536457061768,4.199814796447754,10.57556389248888,9.80938502849076,42.48531605891853,35.43717726008695,3.23295607813634e-05,0.0940944999456405,0,0,0
3436,125826.15931462008,2010-12-14 23:33:44,44.48352985814701,4,12,0.6059249043464661,4.199814796447754,10.577823778305936,9.80938502849076,42.4948071760017,35.43717726008695,3.23295607813634e-05,0.0940944999456405,0,0,0
3437,125845.7370628636,2010-12-14 23:34:03,64.06127810166066,4,12,0.5558961033821106,4.199653148651123,10.580972866057278,9.80938502849076,42.50803273893892,35.43717726008695,-3.23295607813634e-05,0.0940944999456405,0,0,0
3438,125878.83032319914,2010-12-14 23:34:37,97.15453843718792,4,12,0.5058673620223999,4.199814796447754,10.585832907209127,9.80938502849076,42.52844402022251,35.43717726008695,0.0,0.0940944999456405,0,0,0
3439,125942.34459125232,2010-12-14 23:35:40,160.6688064753444,4,12,0.4558385610580444,4.199814796447754,10.594276068118177,9.80938502849076,42.563903758129214,35.43717726008695,0.0,0.0940944999456405,0,0,0
3440,126042.54580608151,2010-12-14 23:37:20,260.87002131959144,4,12,0.4058097898960113,4.199814796447754,10.606235529111244,9.80938502849076,42.61413138917657,35.43717726008695,3.23295607813634e-05,0.0940944999456405,0,0,0
3441,126169.90276229876,2010-12-14 23:39:28,388.22697763203047,4,12,0.3557810187339782,4.199653148651123,10.619691564011648,9.80938502849076,42.67064431604015,35.43717726008695,-3.23295607813634e-05,0.0940944999456405,0,0,0
3442,126323.33731032518,2010-12-14 23:42:01,541.661525568241,4,12,0.3057522773742676,4.199814796447754,10.63377247607744,9.80938502849076,42.72978169476955,35.43717726008695,0.0,0.0940944999456405,0,0,0
3443,126505.99008712512,2010-12-14 23:45:04,724.3143024333631,4,12,0.2555428743362427,4.199653148651123,10.647992414212826,9.80938502849076,42.78950302159494,35.43717726008695,0.0,0.0940944999456405,0,0,0
3444,126733.67334910051,2010-12-14 23:48:51,951.9975643235282,4,12,0.2053335011005401,4.199814796447754,10.662543302132562,9.80938502849076,42.850614206816125,35.43717726008695,0.0,0.0940944999456405,0,0,0
3445,127035.85490774683,2010-12-14 23:53:54,1254.1791229698515,4,12,0.155304729938507,4.199653148651123,10.677600561657368,9.80938502849076,42.913852073022646,35.43717726008695,-3.23295607813634e-05,0.0940944999456405,0,0,0
3446,127483.89325077122,2010-12-15 00:01:22,1702.217465994224,4,12,0.1052759662270546,4.199653148651123,10.693597226453235,9.80938502849076,42.98103522624852,35.43717726008695,-3.23295607813634e-05,0.0940944999456405,0,0,0
3447,128359.31403867187,2010-12-15 00:15:57,2577.6382539099222,4,12,0.0552471950650215,4.199653148651123,10.71234015839366,9.80938502849076,43.05975220622501,35.43717726008695,-6.47544875391759e-05,0.0940944999456405,0,0,0
3448,128514.0768388076,2010-12-15 00:18:32,2732.4010540356194,4,12,0.0498289167881011,4.199814796447754,10.714617857039096,9.80938502849076,43.06931813164688,35.43717726008695,-3.24249267578125e-05,0.0940944999456405,0,0,0
3449,128544.09152719434,2010-12-15 00:19:02,30.015078037269667,5,12,0.0,4.191073417663574,10.714617860398103,9.80938502849076,43.06931814575408,35.43717726008695,-9.70840483205393e-05,0.0940944999456405,0,0,0
3450,128574.09095281616,2010-12-15 00:19:32,60.01450368416791,5,12,0.0,4.1901021003723145,10.714617860398103,9.80938502849076,43.06931814575408,35.43717726008695,0.0,0.0940944999456405,0,0,0
3451,128574.27943329651,2010-12-15 00:19:32,0.187595439034829,6,12,-1.9243103452026844e-05,4.1901021003723145,10.714617860398103,9.809385029493514,43.06931814575408,35.43717726428859,0.0,0.0987826660275459,0,0,0
3452,128579.10761760244,2010-12-15 00:19:37,5.015779840217772,6,12,0.0008838032954372,4.189939975738525,10.714618910122113,9.809385029576498,43.06932254414994,35.437177264636304,-3.24249267578125e-05,0.0987826660275459,0,0,0
3453,128609.12339299622,2010-12-15 00:20:07,30.015067370726385,7,12,-1.0997490882873535,4.000371932983398,10.714618910122113,9.818552995267671,43.06932254414994,35.474070039329135,-0.0010360718006268,0.0987826660275459,0,0,0
3454,128639.13842949012,2010-12-15 00:20:37,60.03010386962942,7,12,-1.099568486213684,3.9702610969543457,10.714618910122113,9.827720879932324,43.06932254414994,35.510597604632494,-0.0006799221155233,0.0987826660275459,0,0,0
3455,128669.15347627964,2010-12-15 00:21:07,90.04515065914026,7,12,-1.099568486213684,3.949215888977051,10.714618910122113,9.836888701377848,43.06932254414994,35.54689575057399,-0.0005180359003134,0.0987826660275459,0,0,0
3456,128699.16852773576,2010-12-15 00:21:37,120.06020211025128,7,12,-1.099568486213684,3.933027267456055,10.714618910122113,9.846056509668356,43.06932254414994,35.58302515252541,-0.0003561496851034,0.0987826660275459,0,0,0
3457,128729.18359048998,2010-12-15 00:22:07,150.0752649196269,7,12,-1.099568486213684,3.919266939163208,10.714618910122113,9.85522441230602,43.06932254414994,35.61901831629556,-0.0003237724304199,0.0987826660275459,0,0,0
3458,128759.19863586096,2010-12-15 00:22:37,180.09031022043317,7,12,-1.0993878841400146,3.90696382522583,10.714618910122113,9.864392218743706,43.06932254414994,35.65489244409031,-0.0003561496851034,0.0987826660275459,0,0,0
3459,128789.21368457023,2010-12-15 00:23:07,210.10535894475868,7,12,-1.099568486213684,3.895631790161133,10.714618910122113,9.873560045826984,43.06932254414994,35.69065816327654,-0.0002913951757363,0.0987826660275459,0,0,0
3460,128819.22875466276,2010-12-15 00:23:37,240.1204290322456,7,12,-1.099568486213684,3.8849472999572754,10.714618910122113,9.882727824594252,43.06932254414994,35.72632278243501,-0.0002913951757363,0.0987826660275459,0,0,0
3461,128849.2440012695,2010-12-15 00:24:07,270.1356757041561,7,12,-1.099568486213684,3.874586582183838,10.714618910122113,9.89189568262807,43.06932254414994,35.76189157700312,-0.0002913951757363,0.0987826660275459,0,0,0
3462,128879.25888926888,2010-12-15 00:24:37,300.15056362833667,7,12,-1.0997490882873535,3.8647115230560303,10.714618910122113,9.901063454120584,43.06932254414994,35.79736755247904,-0.0002590179501567,0.0987826660275459,0,0,0
3463,128909.27401270912,2010-12-15 00:25:07,330.16568706858993,7,12,-1.0997490882873535,3.8549983501434326,10.714618910122113,9.910231338722872,43.06932254414994,35.8327544684071,-0.0002913951757363,0.0987826660275459,0,0,0
3464,128939.28891747522,2010-12-15 00:25:37,360.1805918547308,7,12,-1.099568486213684,3.845608949661255,10.714618910122113,9.91939913583656,43.06932254414994,35.868053652891945,-0.0002913951757363,0.0987826660275459,0,0,0
3465,128969.30396186876,2010-12-15 00:26:07,390.19563623324194,7,12,-1.099568486213684,3.836543321609497,10.714618910122113,9.928567040741212,43.06932254414994,35.90326856660667,-0.0002266406954731,0.0987826660275459,0,0,0
3466,128999.3190522668,2010-12-15 00:26:37,420.21072664630833,7,12,-1.099568486213684,3.827639818191528,10.714618910122113,9.937734995148398,43.06932254414994,35.938400713095064,-0.0002266406954731,0.0987826660275459,0,0,0
3467,129029.33417290507,2010-12-15 00:27:07,450.22584737481344,7,12,-1.0997490882873535,3.8190598487854,10.714618910122113,9.946902908438284,43.06932254414994,35.973451986889714,-0.0001942634553415,0.0987826660275459,0,0,0
3468,129059.3493191922,2010-12-15 00:27:37,480.24099363685787,7,12,-1.099568486213684,3.810479879379273,10.714618910122113,9.95607087001406,43.06932254414994,36.00842452693448,-0.0001942634553415,0.0987826660275459,0,0,0
3469,129089.36434434786,2010-12-15 00:28:07,510.2560187273716,7,12,-1.099568486213684,3.801738023757935,10.714618910122113,9.965238803949678,43.06932254414994,36.04331881603776,-0.0002266406954731,0.0987826660275459,0,0,0
3470,129119.37929402068,2010-12-15 00:28:37,540.2709683951988,7,12,-1.099568486213684,3.7938055992126474,10.714618910122113,9.974406663404716,43.06932254414994,36.07813733217861,-0.0001942634553415,0.0987826660275459,0,0,0
3471,129149.39432076032,2010-12-15 00:29:07,570.2859951348163,7,12,-1.099568486213684,3.7858731746673584,10.714618910122113,9.98357458014585,43.06932254414994,36.11288221845915,-0.0002266406954731,0.0987826660275459,0,0,0
3472,129179.409497423,2010-12-15 00:29:37,600.3011717975115,7,12,-1.099568486213684,3.77826452255249,10.714618910122113,9.9927425109466,43.06932254414994,36.14755571167034,-0.0002266406954731,0.0987826660275459,0,0,0
3473,129209.42449251386,2010-12-15 00:30:07,630.3161668933847,7,12,-1.0993878841400146,3.770655870437622,10.714618910122113,10.001910405089385,43.06932254414994,36.18215907378439,-0.0001942634553415,0.0987826660275459,0,0,0
3474,129239.43958256605,2010-12-15 00:30:38,660.3312570257526,7,12,-1.099568486213684,3.763047218322754,10.714618910122113,10.011078358056713,43.06932254414994,36.21669385746939,-0.0002590179501567,0.0987826660275459,0,0,0
3475,129269.45467561066,2010-12-15 00:31:08,690.3463500402926,7,12,-1.0997490882873535,3.7557623386383057,10.714618910122113,10.020246302498608,43.06932254414994,36.25116185907818,-0.0002590179501567,0.0987826660275459,0,0,0
3476,129299.46958601076,2010-12-15 00:31:38,720.361260370229,7,12,-1.0997490882873535,3.749125242233277,10.714618910122113,10.02941419569324,43.06932254414994,36.28556495163416,-0.0001618862152099,0.0987826660275459,0,0,0
3477,129329.48465756692,2010-12-15 00:32:08,750.376331941408,7,12,-1.099568486213684,3.742164134979248,10.714618910122113,10.038582204860028,43.06932254414994,36.31990513771218,-0.0001618862152099,0.0987826660275459,0,0,0
3478,129359.49969396555,2010-12-15 00:32:38,780.3913683400616,7,12,-1.0997490882873535,3.7353649139404297,10.714618910122113,10.04775011692394,43.06932254414994,36.35418266699405,-0.0001942634553415,0.0987826660275459,0,0,0
3479,129389.51473883029,2010-12-15 00:33:08,810.4064131947578,7,12,-1.099568486213684,3.729051351547241,10.714618910122113,10.05691814177434,43.06932254414994,36.388399108303474,-0.0001295089750783,0.0987826660275459,0,0,0
3480,129419.52979376506,2010-12-15 00:33:38,840.4214681445751,7,12,-1.099568486213684,3.722414016723633,10.714618910122113,10.066086105854676,43.06932254414994,36.422556366705,-0.0001942634553415,0.0987826660275459,0,0,0
3481,129449.5448639979,2010-12-15 00:34:08,870.4365383774236,7,12,-1.0997490882873535,3.716100454330444,10.714618910122113,10.075254043449208,43.06932254414994,36.45665488466232,-0.0001942634553415,0.0987826660275459,0,0,0
3482,129479.55990513836,2010-12-15 00:34:38,900.4515795128647,7,12,-1.0997490882873535,3.709948778152466,10.714618910122113,10.084421967852174,43.06932254414994,36.49069554857338,-0.0001618862152099,0.0987826660275459,0,0,0
3483,129509.57495005822,2010-12-15 00:35:08,930.4666244327228,7,12,-1.0997490882873535,3.703635215759277,10.714618910122113,10.093589916352196,43.06932254414994,36.5246792158069,-0.0001618862152099,0.0987826660275459,0,0,0
3484,129539.58999644172,2010-12-15 00:35:38,960.481670821236,7,12,-1.099568486213684,3.697807312011719,10.714618910122113,10.102757908974937,43.06932254414994,36.55860737271741,-0.0001295089750783,0.0987826660275459,0,0,0
3485,129569.60505781251,2010-12-15 00:36:08,990.4967321870192,7,12,-1.099568486213684,3.69181752204895,10.714618910122113,10.111925958802368,43.06932254414994,36.59248111168224,-0.0001618862152099,0.0987826660275459,0,0,0
3486,129599.62010931876,2010-12-15 00:36:38,1020.5117836832424,7,12,-1.099568486213684,3.685989618301392,10.714618910122113,10.12109396673838,43.06932254414994,36.62630065505959,-0.0001295089750783,0.0987826660275459,0,0,0
3487,129629.63515611328,2010-12-15 00:37:08,1050.526830487791,7,12,-1.0997490882873535,3.680161714553833,10.714618910122113,10.130261948144003,43.06932254414994,36.66006679324185,-0.0001295089750783,0.0987826660275459,0,0,0
3488,129659.6502277797,2010-12-15 00:37:38,1080.5419021542068,7,12,-1.099568486213684,3.6746575832366943,10.714618910122113,10.139429875809588,43.06932254414994,36.69378072937624,-0.0001295089750783,0.0987826660275459,0,0,0
3489,129689.66528290998,2010-12-15 00:38:08,1110.5569573596604,7,12,-1.099929690361023,3.668991804122925,10.714618910122113,10.148597818066769,43.06932254414994,36.72744328388176,-0.0001295089750783,0.0987826660275459,0,0,0
3490,129719.68046223932,2010-12-15 00:38:38,1140.5721366037794,7,12,-1.0997490882873535,3.663487672805786,10.714618910122113,10.157765817780248,43.06932254414994,36.76105534858013,-0.0001295089750783,0.0987826660275459,0,0,0
3491,129749.69536026362,2010-12-15 00:39:08,1170.587034638119,7,12,-1.099568486213684,3.6581454277038574,10.714618910122113,10.1669337742206,43.06932254414994,36.79461779518703,-0.0001618862152099,0.0987826660275459,0,0,0
3492,129779.71041930864,2010-12-15 00:39:38,1200.6020936680895,7,12,-1.099568486213684,3.6529650688171382,10.714618910122113,10.176101770900893,43.06932254414994,36.82813176356919,-0.0001295089750783,0.0987826660275459,0,0,0
3493,129809.7282748426,2010-12-15 00:40:08,1230.6199493073148,7,12,-1.099568486213684,3.64778470993042,10.714618910122113,10.185270622864207,43.06932254414994,36.86160086351088,-0.0001618862152099,0.0987826660275459,0,0,0
3494,129839.74067134196,2010-12-15 00:40:38,1260.632345701419,7,12,-1.099568486213684,3.642604351043701,10.714618910122113,10.194437727360764,43.06932254414994,36.89501609006962,-0.0001295089750783,0.0987826660275459,0,0,0
3495,129869.75560489968,2010-12-15 00:41:08,1290.6472792691814,7,12,-1.099568486213684,3.6377477645874015,10.714618910122113,10.20360568841639,43.06932254414994,36.92838822566911,-9.713172767078504e-05,0.0987826660275459,0,0,0
3496,129899.77074283602,2010-12-15 00:41:38,1320.66241721052,7,12,-1.0997490882873535,3.632567405700684,10.714618910122113,10.212773662265493,43.06932254414994,36.961715028565976,-0.0001295089750783,0.0987826660275459,0,0,0
3497,129929.78588693768,2010-12-15 00:42:08,1350.6775613873754,7,12,-1.099568486213684,3.6277108192443848,10.714618910122113,10.2219416804358,43.06932254414994,36.994997162778695,-0.0001618862152099,0.0987826660275459,0,0,0
3498,129959.80086229944,2010-12-15 00:42:38,1380.692536673954,7,12,-1.099568486213684,3.623178005218506,10.714618910122113,10.23110961937076,43.06932254414994,37.02823510564665,-9.713172767078504e-05,0.0987826660275459,0,0,0
3499,129989.81578198768,2010-12-15 00:43:08,1410.7074563621782,7,12,-1.099568486213684,3.618483304977417,10.714618910122113,10.24027754862994,43.06932254414994,37.06143034721774,-0.0001295089750783,0.0987826660275459,0,0,0
3500,130019.83083004534,2010-12-15 00:43:38,1440.722504424857,7,12,-1.099568486213684,3.613950490951538,10.714618910122113,10.249445519651442,43.06932254414994,37.0945837460897,-0.0001295089750783,0.0987826660275459,0,0,0
3501,130049.8458871756,2010-12-15 00:44:08,1470.737561550088,7,12,-1.099568486213684,3.609579563140869,10.714618910122113,10.258613526975902,43.06932254414994,37.12769610224637,-9.713172767078504e-05,0.0987826660275459,0,0,0
3502,130079.86109909602,2010-12-15 00:44:38,1500.7527735607457,7,12,-1.099568486213684,3.6052086353302,10.714618910122113,10.267781519217392,43.06932254414994,37.16076837730227,-0.0001295089750783,0.0987826660275459,0,0,0
3503,130109.87605168612,2010-12-15 00:45:08,1530.7677261508447,7,12,-1.099568486213684,3.6008377075195312,10.714618910122113,10.27694940790252,43.06932254414994,37.193800953082295,-0.0001618862152099,0.0987826660275459,0,0,0
3504,130139.89103613047,2010-12-15 00:45:38,1560.7827105049876,7,12,-1.099568486213684,3.5967905521392822,10.714618910122113,10.286117393736948,43.06932254414994,37.226795747161695,-0.0001295089750783,0.0987826660275459,0,0,0
3505,130169.90609745616,2010-12-15 00:46:08,1590.7977719008454,7,12,-1.099929690361023,3.5925815105438232,10.714618910122113,10.295285391393532,43.06932254414994,37.25975343184717,-0.0001618862152099,0.0987826660275459,0,0,0
3506,130199.92127349733,2010-12-15 00:46:38,1620.8129478718197,7,12,-1.099568486213684,3.589020252227783,10.714618910122113,10.304453473244823,43.06932254414994,37.29267517073006,-0.0001295089750783,0.0987826660275459,0,0,0
3507,130229.93673347504,2010-12-15 00:47:08,1650.8284079046705,7,12,-1.099568486213684,3.585134983062744,10.714618910122113,10.313621586646086,43.06932254414994,37.325561541431576,-0.0001295089750783,0.0987826660275459,0,0,0
3508,130259.95123238616,2010-12-15 00:47:38,1680.8429067606698,7,12,-1.099568486213684,3.581411600112915,10.714618910122113,10.32278944930777,43.06932254414994,37.35841246456699,-9.713172767078504e-05,0.0987826660275459,0,0,0
3509,130289.9663071854,2010-12-15 00:48:08,1710.8579815498567,7,12,-1.099568486213684,3.577850103378296,10.714618910122113,10.33195742879382,43.06932254414994,37.391230424477,-0.0001295089750783,0.0987826660275459,0,0,0
3510,130319.98136732313,2010-12-15 00:48:38,1740.873041697609,7,12,-1.0993878841400146,3.5744504928588867,10.714618910122113,10.341125451962371,43.06932254414994,37.42401581795771,-3.237724376958795e-05,0.0987826660275459,0,0,0
3511,130349.99659995009,2010-12-15 00:49:08,1770.8882743797064,7,12,-1.099568486213684,3.570888996124268,10.714618910122113,10.35029346379134,43.06932254414994,37.45676910379076,-6.47544875391759e-05,0.0987826660275459,0,0,0
3512,130380.01149321251,2010-12-15 00:49:38,1800.9031676772584,7,12,-1.0997490882873535,3.5673274993896484,10.714618910122113,10.35946141557326,43.06932254414994,37.489490650562736,-9.713172767078504e-05,0.0987826660275459,0,0,0
3513,130410.02648978207,2010-12-15 00:50:08,1830.9181641415369,7,12,-1.099568486213684,3.5639278888702397,10.714618910122113,10.368629345338473,43.06932254414994,37.52218105845036,-0.0001295089750783,0.0987826660275459,0,0,0
3514,130440.04164104656,2010-12-15 00:50:38,1860.9333154912413,7,12,-1.099568486213684,3.56069016456604,10.714618910122113,10.377797843487274,43.06932254414994,37.55484286526729,-0.0001295089750783,0.0987826660275459,0,0,0
3515,130470.05655291032,2010-12-15 00:51:08,1890.94822728482,7,12,-1.0997490882873535,3.557452440261841,10.714618910122113,10.386966416971172,43.06932254414994,37.587474676887126,-9.713172767078504e-05,0.0987826660275459,0,0,0
3516,130500.0716340052,2010-12-15 00:51:38,1920.9633083847111,7,12,-1.0997490882873535,3.5542147159576416,10.714618910122113,10.396134972652014,43.06932254414994,37.620076291722285,-6.47544875391759e-05,0.0987826660275459,0,0,0
3517,130530.08666794772,2010-12-15 00:52:08,1950.9783423222405,7,12,-1.099568486213684,3.5509769916534424,10.714618910122113,10.405303618303758,43.06932254414994,37.65264829182152,-6.47544875391759e-05,0.0987826660275459,0,0,0
3518,130560.10173719314,2010-12-15 00:52:38,1980.993411567632,7,12,-1.099568486213684,3.547739267349243,10.714618910122113,10.41447229154094,43.06932254414994,37.68519025512782,-6.47544875391759e-05,0.0987826660275459,0,0,0
3519,130590.11680778186,2010-12-15 00:53:08,2011.0084821563664,7,12,-1.099568486213684,3.544339656829834,10.714618910122113,10.423640996376802,43.06932254414994,37.71770238430352,-9.713172767078504e-05,0.0987826660275459,0,0,0
3520,130620.1318341656,2010-12-15 00:53:38,2041.0235085451104,7,12,-1.099568486213684,3.540940046310425,10.714618910122113,10.432809192054082,43.06932254414994,37.75018282518679,-0.0001295089750783,0.0987826660275459,0,0,0
3521,130650.14688085987,2010-12-15 00:54:08,2071.038555234372,7,12,-1.099568486213684,3.5377023220062256,10.714618910122113,10.441977108819309,43.06932254414994,37.78263195442809,-9.713172767078504e-05,0.0987826660275459,0,0,0
3522,130680.16197577414,2010-12-15 00:54:38,2101.053650243876,7,12,-1.099568486213684,3.5343027114868164,10.714618910122113,10.4511451479836,43.06932254414994,37.81505071969483,-9.713172767078504e-05,0.0987826660275459,0,0,0
3523,130710.17714924888,2010-12-15 00:55:08,2131.0688236183887,7,12,-1.099568486213684,3.531064987182617,10.714618910122113,10.46031309912754,43.06932254414994,37.84743816268678,-6.47544875391759e-05,0.0987826660275459,0,0,0
3524,130740.1921632418,2010-12-15 00:55:38,2161.0838376012616,7,12,-1.0997490882873535,3.527503490447998,10.714618910122113,10.469481039202552,43.06932254414994,37.87979436862524,-9.713172767078504e-05,0.0987826660275459,0,0,0
3525,130770.20722551984,2010-12-15 00:56:08,2191.09889986929,7,12,-1.099568486213684,3.523941993713379,10.714618910122113,10.478648974989754,43.06932254414994,37.91211841947269,-9.713172767078504e-05,0.0987826660275459,0,0,0
3526,130800.22229274022,2010-12-15 00:56:38,2221.11396710468,7,12,-1.0997490882873535,3.52021861076355,10.714618910122113,10.487816921578457,43.06932254414994,37.94440956982939,-0.0001295089750783,0.0987826660275459,0,0,0
3527,130830.23720336588,2010-12-15 00:57:08,2251.128877715315,7,12,-1.0997490882873535,3.5166571140289307,10.714618910122113,10.496984788518064,43.06932254414994,37.97666670913285,-9.713172767078504e-05,0.0987826660275459,0,0,0
3528,130860.25226182945,2010-12-15 00:57:38,2281.143936178876,7,12,-1.0997490882873535,3.512771844863892,10.714618910122113,10.506152708993312,43.06932254414994,38.008889236513234,-9.713172767078504e-05,0.0987826660275459,0,0,0
3529,130890.26730613776,2010-12-15 00:58:08,2311.158980512275,7,12,-1.0997490882873535,3.5087249279022217,10.714618910122113,10.515320673278072,43.06932254414994,38.04107575814472,-0.0001295089750783,0.0987826660275459,0,0,0
3530,130920.28239715232,2010-12-15 00:58:38,2341.1740715218257,7,12,-1.0993878841400146,3.5046777725219727,10.714618910122113,10.52448865038137,43.06932254414994,38.07322486439675,-6.47544875391759e-05,0.0987826660275459,0,0,0
3531,130950.29741437828,2010-12-15 00:59:08,2371.189088752781,7,12,-1.099568486213684,3.5001449584960938,10.714618910122113,10.533656541682587,43.06932254414994,38.105334076210376,-0.0001618862152099,0.0987826660275459,0,0,0
3532,130980.31251481127,2010-12-15 00:59:38,2401.204189276006,7,12,-1.099568486213684,3.495450258255005,10.714618910122113,10.542824533192826,43.06932254414994,38.137401696419744,-9.713172767078504e-05,0.0987826660275459,0,0,0
3533,131010.3275202128,2010-12-15 01:00:08,2431.2191945873,7,12,-1.099568486213684,3.490431785583496,10.714618910122113,10.551992444083256,43.06932254414994,38.16942442131428,-0.0001295089750783,0.0987826660275459,0,0,0
3534,131040.3426034881,2010-12-15 01:00:38,2461.234277957841,7,12,-1.099568486213684,3.4849276542663574,10.714618910122113,10.561160352603382,43.06932254414994,38.201399198173206,-0.0001618862152099,0.0987826660275459,0,0,0
3535,131070.35762714004,2010-12-15 01:01:08,2491.249301514538,7,12,-1.0997490882873535,3.478775978088379,10.714618910122113,10.570328245244898,43.06932254414994,38.23332102036775,-0.0001942634553415,0.0987826660275459,0,0,0
3536,131100.37268105728,2010-12-15 01:01:38,2521.2643554317856,7,12,-1.0997490882873535,3.4719767570495605,10.714618910122113,10.579496152294668,43.06932254414994,38.26518405397534,-0.0001942634553415,0.0987826660275459,0,0,0
3537,131130.38774513482,2010-12-15 01:02:08,2551.2794195043048,7,12,-1.099568486213684,3.4645299911499023,10.714618910122113,10.588664053097824,43.06932254414994,38.29698137325443,-0.0001942634553415,0.0987826660275459,0,0,0
3538,131160.40279558845,2010-12-15 01:02:39,2581.2944699679583,7,12,-1.0997490882873535,3.4554643630981445,10.714618910122113,10.597832065678816,43.06932254414994,38.32870396885488,-0.0003237724304199,0.0987826660275459,0,0,0
3539,131190.4179916093,2010-12-15 01:03:09,2611.309666038951,7,12,-1.099568486213684,3.445427417755127,10.714618910122113,10.607000069874491,43.06932254414994,38.36033908614031,-0.0002590179501567,0.0987826660275459,0,0,0
3540,131220.432892586,2010-12-15 01:03:39,2641.324566960475,7,12,-1.0993878841400146,3.43312406539917,10.714618910122113,10.616167969934647,43.06932254414994,38.39187078495988,-0.0003561496851034,0.0987826660275459,0,0,0
3541,131250.4479380973,2010-12-15 01:04:09,2671.339612471805,7,12,-1.099568486213684,3.4180688858032227,10.714618910122113,10.625335900265068,43.06932254414994,38.42327788731547,-0.0004209041653666,0.0987826660275459,0,0,0
3542,131280.46303023468,2010-12-15 01:04:39,2701.354704679337,7,12,-1.099568486213684,3.399451971054077,10.714618910122113,10.634503880203455,43.06932254414994,38.454531748218685,-0.0005180359003134,0.0987826660275459,0,0,0
3543,131310.47806809694,2010-12-15 01:05:09,2731.369742471458,7,12,-1.099568486213684,3.375654697418213,10.714618910122113,10.643671826130475,43.06932254414994,38.485592668467525,-0.0006799221155233,0.0987826660275459,0,0,0
3544,131340.49311567342,2010-12-15 01:05:39,2761.384790047927,7,12,-1.099568486213684,3.344410896301269,10.714618910122113,10.65283978256844,43.06932254414994,38.51640341126114,-0.0008741855854168,0.0987826660275459,0,0,0
3545,131370.50814358096,2010-12-15 01:06:09,2791.3998179354007,7,12,-1.099568486213684,3.3026442527771,10.714618910122113,10.662007699988402,43.06932254414994,38.54688203788526,-0.0012303352123126,0.0987826660275459,0,0,0
3546,131400.5233465391,2010-12-15 01:06:39,2821.415020913581,7,12,-1.0997490882873535,3.2456605434417725,10.714618910122113,10.67117566439888,43.06932254414994,38.57691320761797,-0.0017159938579425,0.0987826660275459,0,0,0
3547,131430.5382589141,2010-12-15 01:07:09,2851.4299332886067,7,12,-1.099568486213684,3.16666030883789,10.714618910122113,10.680343591791292,43.06932254414994,38.60632857895859,-0.0024606704246252,0.0987826660275459,0,0,0
3548,131460.55330845548,2010-12-15 01:07:39,2881.4449828299653,7,12,-1.099568486213684,3.0504262447357178,10.714618910122113,10.689511588493612,43.06932254414994,38.634865581920366,-0.0037557601463049,0.0987826660275459,0,0,0
3549,131490.53711263393,2010-12-15 01:08:09,2911.42878700844,7,12,-1.0997490882873535,2.850335597991944,10.714618910122113,10.698669967529144,43.06932254414994,38.66198347744402,-0.0069286823272705,0.0987826660275459,0,0,0
3550,131506.02121841564,2010-12-15 01:08:24,2926.912892775098,7,12,-1.0997490882873535,2.699943780899048,10.714618910122113,10.703399480989289,43.06932254414994,38.67511656039771,-0.0080295084044337,0.0987826660275459,0,0,0
3551,131566.03003652877,2010-12-15 01:09:24,60.014457223552455,8,12,0.0,3.412726640701294,10.714618910122113,10.703399480989289,43.06932254414994,38.67511656039771,0.0013598442310467,0.0987826660275459,0,0,0
3552,131566.21307021796,2010-12-15 01:09:25,0.187491119439528,9,12,-1.9243103452026844e-05,3.412726640701294,10.714618910122113,10.703399481991484,43.06932254414994,38.67511656381794,0.0,0.0948198437690734,0,0,0
3553,131571.04109892168,2010-12-15 01:09:29,5.015519818162891,9,12,0.0007031940040178,3.420982837677002,10.714619904877798,10.703399482158908,43.06932594385691,38.67511656438963,0.0011332035064697,0.0948198437690734,0,0,0
