Data_Point,Test_Time(s),Date_Time,Step_Time(s),Step_Index,Cycle_Index,Current(A),Voltage(V),Charge_Capacity(Ah),Discharge_Capacity(Ah),Charge_Energy(Wh),Discharge_Energy(Wh),dV/dt(V/s),Internal_Resistance(Ohm),Is_FC_Data,AC_Impedance(Ohm),ACI_Phase_Angle(Deg)
11428,421006.3053953174,2010-12-18 09:33:59,30.015435301307484,1,40,0.0,3.4561119079589844,34.355232687674864,34.33033591760085,138.01970678895404,124.09334618667602,0.0007770538213662,0.0939245000481605,0,0,0
11429,421036.3201786713,2010-12-18 09:34:29,60.03021857005702,1,40,0.0,3.4812042713165283,34.355232687674864,34.33033591760085,138.01970678895404,124.09334618667602,0.0006151676061563,0.0939245000481605,0,0,0
11430,421066.33541197,2010-12-18 09:34:59,90.04545188873853,1,40,0.0,3.499821186065674,34.355232687674864,34.33033591760085,138.01970678895404,124.09334618667602,0.0004209041653666,0.0939245000481605,0,0,0
11431,421096.3037000372,2010-12-18 09:35:29,120.01374000609208,1,40,0.0,3.514714479446411,34.355232687674864,34.33033591760085,138.01970678895404,124.09334618667602,0.0003561496851034,0.0939245000481605,0,0,0
11432,421126.3323475997,2010-12-18 09:35:59,30.014940284477145,2,40,0.550297200679779,3.6610593795776367,34.35982002921101,34.33033591760085,138.0363634382333,124.09334618667602,0.0012950897216796,0.0939245000481605,0,0,0
11433,421156.3475755201,2010-12-18 09:36:29,60.030168189687416,2,40,0.5501165986061096,3.6994261741638175,34.36440742995124,34.33033591760085,138.05325223529184,124.09334618667602,0.0008418083307333,0.0939245000481605,0,0,0
11434,421186.3626939678,2010-12-18 09:36:59,90.04528663751722,2,40,0.550297200679779,3.726623058319092,34.36899480294651,34.33033591760085,138.0702882067652,124.09334618667602,0.0006475448608398,0.0939245000481605,0,0,0
11435,421216.3776531744,2010-12-18 09:37:30,120.06024585911864,2,40,0.5501165986061096,3.747020721435547,34.373582128938985,34.33033591760085,138.08743204798705,124.09334618667602,0.0004856586456298,0.0939245000481605,0,0,0
11436,421246.3928747539,2010-12-18 09:38:00,150.07546743858757,2,40,0.5501165986061096,3.761914014816284,34.37816953980311,34.33033591760085,138.10465739595045,124.09334618667602,0.0003561496851034,0.0939245000481605,0,0,0
11437,421276.4078727269,2010-12-18 09:38:30,180.09046549182003,2,40,0.550297200679779,3.772112846374512,34.38275694723808,34.33033591760085,138.121939731032,124.09334618667602,0.0002590179501567,0.0939245000481605,0,0,0
11438,421306.4229344085,2010-12-18 09:39:00,210.1055270982021,2,40,0.5501165986061096,3.77891206741333,34.38734434464644,34.33033591760085,138.13926023348847,124.09334618667602,0.0001295089750783,0.0939245000481605,0,0,0
11439,421336.4380463903,2010-12-18 09:39:30,240.12063905989132,2,40,0.550297200679779,3.784578084945679,34.391931698479226,34.33033591760085,138.1566089208545,124.09334618667602,0.0001295089750783,0.0939245000481605,0,0,0
11440,421366.4532594735,2010-12-18 09:40:00,270.1358521632678,2,40,0.5501165986061096,3.789596557617188,34.39651911481769,34.33033591760085,138.17398239629904,124.09334618667602,9.713172767078504e-05,0.0939245000481605,0,0,0
11441,421396.4682686996,2010-12-18 09:40:30,300.1508613842909,2,40,0.550297200679779,3.7944531440734863,34.40110646514746,34.33033591760085,138.1913780880423,124.09334618667602,0.0001295089750783,0.0939245000481605,0,0,0
11442,421426.4833297446,2010-12-18 09:41:00,330.1659224342884,2,40,0.550297200679779,3.798985958099365,34.405693785175934,34.33033591760085,138.20879495496646,124.09334618667602,0.0001295089750783,0.0939245000481605,0,0,0
11443,421456.4984376712,2010-12-18 09:41:30,360.1810303559242,2,40,0.550297200679779,3.803356885910034,34.41028117230099,34.33033591760085,138.22623230310967,124.09334618667602,0.0001295089750783,0.0939245000481605,0,0,0
11444,421486.5135269064,2010-12-18 09:42:00,390.1961195910593,2,40,0.550297200679779,3.807565927505493,34.41486857267695,34.33033591760085,138.24368928320703,124.09334618667602,0.0001295089750783,0.0939245000481605,0,0,0
11445,421516.5286447978,2010-12-18 09:42:30,420.2112375576916,2,40,0.5504778623580933,3.811613082885742,34.419455970021,34.33033591760085,138.26116512267606,124.09334618667602,9.713172767078504e-05,0.0939245000481605,0,0,0
11446,421546.5437726691,2010-12-18 09:43:00,450.2263653537842,2,40,0.550297200679779,3.815660238265991,34.42404331983609,34.33033591760085,138.27865935317814,124.09334618667602,0.0001295089750783,0.0939245000481605,0,0,0
11447,421576.56070637406,2010-12-18 09:43:30,480.2432991390113,2,40,0.550297200679779,3.8195455074310303,34.42863100136324,34.33033591760085,138.29617302239592,124.09334618667602,9.713172767078504e-05,0.0939245000481605,0,0,0
11448,421606.57408618537,2010-12-18 09:44:00,510.256678855074,2,40,0.550297200679779,3.8232688903808594,34.43321811329507,34.33033591760085,138.31370219791202,124.09334618667602,9.713172767078504e-05,0.0939245000481605,0,0,0
11449,421636.58902267047,2010-12-18 09:44:30,540.2716153400963,2,40,0.5501165986061096,3.8271541595458975,34.43780545784867,34.33033591760085,138.331249820274,124.09334618667602,9.713172767078504e-05,0.0939245000481605,0,0,0
11450,421666.6041251836,2010-12-18 09:45:00,570.2867178683108,2,40,0.550297200679779,3.8310394287109375,34.44239282618197,34.33033591760085,138.34881504792986,124.09334618667602,0.0001295089750783,0.0939245000481605,0,0,0
11451,421696.61923121056,2010-12-18 09:45:30,600.3018238952316,2,40,0.550297200679779,3.8349244594573975,34.44698019365073,34.33033591760085,138.36639780443622,124.09334618667602,0.0001295089750783,0.0939245000481605,0,0,0
11452,421726.63432599953,2010-12-18 09:46:00,630.3169186841873,2,40,0.550297200679779,3.8384859561920166,34.45156755989038,34.33033591760085,138.3839981846439,124.09334618667602,9.713172767078504e-05,0.0939245000481605,0,0,0
11453,421756.6494169388,2010-12-18 09:46:30,660.3320096235633,2,40,0.5501165986061096,3.8425331115722656,34.45615488565206,34.33033591760085,138.40161604087976,124.09334618667602,9.713172767078504e-05,0.0939245000481605,0,0,0
11454,421786.6674517992,2010-12-18 09:47:00,690.3500446040724,2,40,0.550297200679779,3.8464183807373047,34.460742695196615,34.33033591760085,138.41925326858157,124.09334618667602,0.0001295089750783,0.0939245000481605,0,0,0
11455,421816.6797865147,2010-12-18 09:47:30,720.3623791993923,2,40,0.5501165986061096,3.849979877471924,34.46532959281957,34.33033591760085,138.43690452357757,124.09334618667602,6.47544875391759e-05,0.0939245000481605,0,0,0
11456,421846.69471819774,2010-12-18 09:48:00,750.3773108824652,2,40,0.5501165986061096,3.853703260421753,34.46991698075937,34.33033591760085,138.45457501716135,124.09334618667602,6.47544875391759e-05,0.0939245000481605,0,0,0
11457,421876.7098141546,2010-12-18 09:48:30,780.392406839327,2,40,0.550297200679779,3.857426643371582,34.4745043446048,34.33033591760085,138.47226247162706,124.09334618667602,9.713172767078504e-05,0.0939245000481605,0,0,0
11458,421906.7249949576,2010-12-18 09:49:00,810.4075877175123,2,40,0.550297200679779,3.861150026321411,34.479091670106925,34.33033591760085,138.489966517476,124.09334618667602,9.713172767078504e-05,0.0939245000481605,0,0,0
11459,421936.7401511394,2010-12-18 09:49:30,840.4227438240544,2,40,0.550297200679779,3.8647115230560303,34.48367907601135,34.33033591760085,138.50768712675227,124.09334618667602,0.0001295089750783,0.0939245000481605,0,0,0
11460,421966.75512499234,2010-12-18 09:50:00,870.4377177472402,2,40,0.5501165986061096,3.8679492473602295,34.48826643152664,34.33033591760085,138.5254233131975,124.09334618667602,9.713172767078504e-05,0.0939245000481605,0,0,0
11461,421996.7702109894,2010-12-18 09:50:30,900.4528036741431,2,40,0.5501165986061096,3.871348857879639,34.49285377270873,34.33033591760085,138.54317469494413,124.09334618667602,9.713172767078504e-05,0.0939245000481605,0,0,0
11462,422026.7853416176,2010-12-18 09:51:00,930.4679343022832,2,40,0.5501165986061096,3.874262809753418,34.49744118588854,34.33033591760085,138.56094097298586,124.09334618667602,9.713172767078504e-05,0.0939245000481605,0,0,0
11463,422056.8004319103,2010-12-18 09:51:30,960.4830245850252,2,40,0.5501165986061096,3.8773386478424072,34.50202855761239,34.33033591760085,138.57872100199845,124.09334618667602,9.713172767078504e-05,0.0939245000481605,0,0,0
11464,422086.8155429196,2010-12-18 09:52:00,990.498135609382,2,40,0.550297200679779,3.880090713500977,34.50661597364927,34.33033591760085,138.59651455450916,124.09334618667602,6.47544875391759e-05,0.0939245000481605,0,0,0
11465,422116.8306142252,2010-12-18 09:52:30,1020.5132069098872,2,40,0.550297200679779,3.882842779159546,34.51120341003985,34.33033591760085,138.6143207806128,124.09334618667602,6.47544875391759e-05,0.0939245000481605,0,0,0
11466,422146.8457240065,2010-12-18 09:53:00,1050.5283166911506,2,40,0.550297200679779,3.8852710723876953,34.51579074820764,34.33033591760085,138.63213853375646,124.09334618667602,3.237724376958795e-05,0.0939245000481605,0,0,0
11467,422176.86266918,2010-12-18 09:53:30,1080.5452619449168,2,40,0.5504778623580933,3.887861251831055,34.52037836369702,34.33033591760085,138.64996865480953,124.09334618667602,0.0001295089750783,0.0939245000481605,0,0,0
11468,422206.8760210869,2010-12-18 09:54:00,1110.5586137615528,2,40,0.5501165986061096,3.889965772628784,34.52496552016433,34.33033591760085,138.66780774946417,124.09334618667602,3.237724376958795e-05,0.0939245000481605,0,0,0
11469,422236.8910025137,2010-12-18 09:54:30,1140.573595198436,2,40,0.550297200679779,3.892232179641724,34.52955291808636,34.33033591760085,138.6856580337503,124.09334618667602,3.237724376958795e-05,0.0939245000481605,0,0,0
11470,422266.9060789922,2010-12-18 09:55:00,1170.5886716668017,2,40,0.550297200679779,3.894336700439453,34.53414034433542,34.33033591760085,138.70351812732352,124.09334618667602,6.47544875391759e-05,0.0939245000481605,0,0,0
11471,422296.9211844927,2010-12-18 09:55:30,1200.6037771774377,2,40,0.5504778623580933,3.8962793350219727,34.53872777919626,34.33033591760085,138.7213871799999,124.09334618667602,6.47544875391759e-05,0.0939245000481605,0,0,0
11472,422326.9365119106,2010-12-18 09:56:00,1230.6191046704685,2,40,0.5501165986061096,3.898060083389282,34.543315282121334,34.33033591760085,138.73926548671295,124.09334618667602,6.47544875391759e-05,0.0939245000481605,0,0,0
11473,422356.95138123847,2010-12-18 09:56:30,1260.6339739933603,2,40,0.550297200679779,3.9000027179718018,34.54790270334513,34.33033591760085,138.75715218603395,124.09334618667602,6.47544875391759e-05,0.0939245000481605,0,0,0
11474,422386.966472228,2010-12-18 09:57:00,1290.6490648976492,2,40,0.550297200679779,3.9017834663391113,34.55249011807546,34.33033591760085,138.77504724902204,124.09334618667602,3.237724376958795e-05,0.0939245000481605,0,0,0
11475,422416.9815815882,2010-12-18 09:57:30,1320.664174272902,2,40,0.550297200679779,3.903726100921631,34.55707762606165,34.33033591760085,138.79295104424187,124.09334618667602,6.47544875391759e-05,0.0939245000481605,0,0,0
11476,422446.99669547967,2010-12-18 09:58:00,1350.6792881643937,2,40,0.550297200679779,3.9053449630737305,34.56166508651246,34.33033591760085,138.81086287847685,124.09334618667602,3.237724376958795e-05,0.0939245000481605,0,0,0
11477,422477.0117688604,2010-12-18 09:58:30,1380.6943615300383,2,40,0.550297200679779,3.90712571144104,34.566252565259646,34.33033591760085,138.82878277577166,124.09334618667602,6.47544875391759e-05,0.0939245000481605,0,0,0
11478,422507.0269908709,2010-12-18 09:59:00,1410.7095835455923,2,40,0.5499359965324402,3.9085826873779297,34.57084005034537,34.33033591760085,138.84671077912165,124.09334618667602,0.0,0.0939245000481605,0,0,0
11479,422537.0420261368,2010-12-18 09:59:30,1440.724618896639,2,40,0.550297200679779,3.910525321960449,34.575427417007255,34.33033591760085,138.86464629370175,124.09334618667602,6.47544875391759e-05,0.0939245000481605,0,0,0
11480,422567.0583229068,2010-12-18 10:00:00,1470.7409156817157,2,40,0.550297200679779,3.912306070327759,34.58001500633879,34.33033591760085,138.8825906069172,124.09334618667602,3.237724376958795e-05,0.0939245000481605,0,0,0
11481,422597.0722307822,2010-12-18 10:00:30,1500.7548235370325,2,40,0.550297200679779,3.914248466491699,34.58460228962735,34.33033591760085,138.90054163413137,124.09334618667602,9.713172767078504e-05,0.0939245000481605,0,0,0
11482,422627.0872926492,2010-12-18 10:01:00,1530.7698853338884,2,40,0.5501165986061096,3.915705442428589,34.58918978084637,34.33033591760085,138.91850141376622,124.09334618667602,3.237724376958795e-05,0.0939245000481605,0,0,0
11483,422657.10240478127,2010-12-18 10:01:30,1560.784997466002,2,40,0.550297200679779,3.9174861907958975,34.593777228321954,34.33033591760085,138.9364688195788,124.09334618667602,0.0,0.0939245000481605,0,0,0
11484,422687.11740765657,2010-12-18 10:02:00,1590.8000003412335,2,40,0.5501165986061096,3.919266939163208,34.59836465165748,34.33033591760085,138.95444405241352,124.09334618667602,6.47544875391759e-05,0.0939245000481605,0,0,0
11485,422717.13255110657,2010-12-18 10:02:30,1620.815143791281,2,40,0.5501165986061096,3.920885801315308,34.602951277056334,34.33033591760085,138.97242389076467,124.09334618667602,3.237724376958795e-05,0.0939245000481605,0,0,0
11486,422747.1478507052,2010-12-18 10:03:00,1650.8304434600716,2,40,0.5501165986061096,3.922828435897827,34.607537927991785,34.33033591760085,138.99041166251538,124.09334618667602,9.713172767078504e-05,0.0939245000481605,0,0,0
11487,422777.164628793,2010-12-18 10:03:30,1680.847221552864,2,40,0.5499359965324402,3.924285411834717,34.612124835114294,34.33033591760085,139.00840834380023,124.09334618667602,3.237724376958795e-05,0.0939245000481605,0,0,0
11488,422807.17782109766,2010-12-18 10:04:00,1710.8604137873865,2,40,0.5501165986061096,3.9260661602020255,34.61671118925736,34.33033591760085,139.0264107071719,124.09334618667602,3.237724376958795e-05,0.0939245000481605,0,0,0
11489,422837.1929506532,2010-12-18 10:04:30,1740.8755433428569,2,40,0.550297200679779,3.928008794784546,34.62129870762084,34.33033591760085,139.04442556833672,124.09334618667602,6.47544875391759e-05,0.0939245000481605,0,0,0
11490,422867.208075527,2010-12-18 10:05:00,1770.8906682116651,2,40,0.550297200679779,3.9296276569366455,34.62588610800469,34.33033591760085,139.0624478270558,124.09334618667602,9.713172767078504e-05,0.0939245000481605,0,0,0
11491,422897.2231568274,2010-12-18 10:05:30,1800.9057495170675,2,40,0.5501165986061096,3.931084632873535,34.63047358056873,34.33033591760085,139.08047830443002,124.09334618667602,0.0,0.0939245000481605,0,0,0
11492,422927.23826405226,2010-12-18 10:06:00,1830.9208567369567,2,40,0.5501165986061096,3.9328653812408447,34.63506100963266,34.33033591760085,139.09851644227507,124.09334618667602,0.0,0.0939245000481605,0,0,0
11493,422957.2533396284,2010-12-18 10:06:30,1860.9359322980647,2,40,0.550297200679779,3.934808015823364,34.63964842149824,34.33033591760085,139.11656240591748,124.09334618667602,9.713172767078504e-05,0.0939245000481605,0,0,0
11494,422987.2685697191,2010-12-18 10:07:00,1890.951162393726,2,40,0.5501165986061096,3.936264991760254,34.64423579898324,34.33033591760085,139.13461614063252,124.09334618667602,3.237724376958795e-05,0.0939245000481605,0,0,0
11495,423017.28358822817,2010-12-18 10:07:30,1920.966181003112,2,40,0.550297200679779,3.938207626342773,34.6488231884261,34.33033591760085,139.1526777324335,124.09334618667602,0.0001295089750783,0.0939245000481605,0,0,0
11496,423047.298763342,2010-12-18 10:08:00,1950.981356026728,2,40,0.5501165986061096,3.939826488494873,34.65341062354485,34.33033591760085,139.1707475023203,124.09334618667602,3.237724376958795e-05,0.0939245000481605,0,0,0
11497,423077.3138943411,2010-12-18 10:08:30,1980.9964870107533,2,40,0.550297200679779,3.9414453506469727,34.65799806799006,34.33033591760085,139.18882526600134,124.09334618667602,3.237724376958795e-05,0.0939245000481605,0,0,0
11498,423107.32883833983,2010-12-18 10:09:00,2011.011431029524,2,40,0.550297200679779,3.943226099014282,34.6625855096456,34.33033591760085,139.2069109300152,124.09334618667602,3.237724376958795e-05,0.0939245000481605,0,0,0
11499,423137.3439564167,2010-12-18 10:09:31,2041.0265491064304,2,40,0.550297200679779,3.945006847381592,34.66717297634917,34.33033591760085,139.22500471199524,124.09334618667602,0.0,0.0939245000481605,0,0,0
11500,423167.3591440918,2010-12-18 10:10:01,2071.0417367815294,2,40,0.550297200679779,3.9469494819641113,34.67176039319841,34.33033591760085,139.243106352872,124.09334618667602,6.47544875391759e-05,0.0939245000481605,0,0,0
11501,423197.3741091631,2010-12-18 10:10:31,2101.056701847675,2,40,0.5501165986061096,3.948730230331421,34.676347766907966,34.33033591760085,139.2612157805215,124.09334618667602,9.713172767078504e-05,0.0939245000481605,0,0,0
11502,423227.3892577658,2010-12-18 10:11:01,2131.071850450544,2,40,0.5501165986061096,3.950349092483521,34.68093522453465,34.33033591760085,139.27933358117963,124.09334618667602,6.47544875391759e-05,0.0939245000481605,0,0,0
11503,423257.4043641537,2010-12-18 10:11:31,2161.086956838363,2,40,0.550297200679779,3.95212984085083,34.685522652776555,34.33033591760085,139.2974593958755,124.09334618667602,6.47544875391759e-05,0.0939245000481605,0,0,0
11504,423287.4194737043,2010-12-18 10:12:01,2191.1020663890527,2,40,0.550297200679779,3.95391058921814,34.69011008453638,34.33033591760085,139.31559334378613,124.09334618667602,3.237724376958795e-05,0.0939245000481605,0,0,0
11505,423317.4346886774,2010-12-18 10:12:31,2221.1172813670946,2,40,0.550297200679779,3.955691337585449,34.69469749157378,34.33033591760085,139.33373538760657,124.09334618667602,6.47544875391759e-05,0.0939245000481605,0,0,0
11506,423347.4497722084,2010-12-18 10:13:01,2251.132364963197,2,40,0.5501165986061096,3.957310199737549,34.699284970450016,34.33033591760085,139.35188592768466,124.09334618667602,3.237724376958795e-05,0.0939245000481605,0,0,0
11507,423377.4665474991,2010-12-18 10:13:31,2281.149140259029,2,40,0.550297200679779,3.959252834320069,34.70387264173316,34.33033591760085,139.3700455014472,124.09334618667602,3.237724376958795e-05,0.0939245000481605,0,0,0
11508,423407.4798589002,2010-12-18 10:14:01,2311.1624515849053,2,40,0.550297200679779,3.961195468902588,34.70845980670685,34.33033591760085,139.388211364463,124.09334618667602,6.47544875391759e-05,0.0939245000481605,0,0,0
11509,423437.4949478447,2010-12-18 10:14:31,2341.1775405293174,2,40,0.5501165986061096,3.962814331054688,34.71304728531294,34.33033591760085,139.40638685394026,124.09334618667602,0.0,0.0939245000481605,0,0,0
11510,423467.5101958248,2010-12-18 10:15:01,2371.1927885997075,2,40,0.550297200679779,3.964756965637207,34.71763477178591,34.33033591760085,139.42457079702027,124.09334618667602,6.47544875391759e-05,0.0939245000481605,0,0,0
11511,423497.5252636568,2010-12-18 10:15:31,2401.2078564315816,2,40,0.5501165986061096,3.9665377140045166,34.72222226643898,34.33033591760085,139.44276329801508,124.09334618667602,0.0,0.0939245000481605,0,0,0
11512,423527.540397152,2010-12-18 10:16:01,2431.222989821594,2,40,0.550297200679779,3.968480348587036,34.72680981645008,34.33033591760085,139.46096453494724,124.09334618667602,6.47544875391759e-05,0.0939245000481605,0,0,0
11513,423557.5554656354,2010-12-18 10:16:31,2461.2380583903023,2,40,0.550297200679779,3.970422983169556,34.73139722670463,34.33033591760085,139.47917379618838,124.09334618667602,9.713172767078504e-05,0.0939245000481605,0,0,0
11514,423587.57043982926,2010-12-18 10:17:01,2491.253032513987,2,40,0.5501165986061096,3.972203731536865,34.73598467840593,34.33033591760085,139.49739196372096,124.09334618667602,0.0,0.0939245000481605,0,0,0
11515,423617.58572915726,2010-12-18 10:17:31,2521.268321922245,2,40,0.550297200679779,3.973984479904175,34.74057228385297,34.33033591760085,139.51561945480498,124.09334618667602,0.0,0.0939245000481605,0,0,0
11516,423647.6006374372,2010-12-18 10:18:01,2551.2832301218805,2,40,0.550297200679779,3.9759271144866943,34.74515981450059,34.33033591760085,139.53385551478425,124.09334618667602,3.237724376958795e-05,0.0939245000481605,0,0,0
11517,423677.6157322512,2010-12-18 10:18:31,2581.298324935898,2,40,0.550297200679779,3.977869749069214,34.749747305994454,34.33033591760085,139.5521002449118,124.09334618667602,3.237724376958795e-05,0.0939245000481605,0,0,0
11518,423707.63364587975,2010-12-18 10:19:01,2611.3162386396148,2,40,0.5501165986061096,3.979974269866944,34.75433518414363,34.33033591760085,139.57035538106436,124.09334618667602,3.237724376958795e-05,0.0939245000481605,0,0,0
11519,423737.64597843,2010-12-18 10:19:31,2641.328571119671,2,40,0.5501165986061096,3.982078790664673,34.7589220957972,34.33033591760085,139.58861604693362,124.09334618667602,3.237724376958795e-05,0.0939245000481605,0,0,0
11520,423767.6610439662,2010-12-18 10:20:01,2671.3436366508195,2,40,0.5501165986061096,3.9841833114624015,34.76350949028782,34.33033591760085,139.60688785067003,124.09334618667602,9.713172767078504e-05,0.0939245000481605,0,0,0
11521,423797.67613844434,2010-12-18 10:20:31,2701.3587311340143,2,40,0.550297200679779,3.986125946044922,34.768096918423055,34.33033591760085,139.6251691576891,124.09334618667602,6.47544875391759e-05,0.0939245000481605,0,0,0
11522,423827.6912610174,2010-12-18 10:21:01,2731.373853797334,2,40,0.5501165986061096,3.9880685806274414,34.772684307290426,34.33033591760085,139.64345974162288,124.09334618667602,3.237724376958795e-05,0.0939245000481605,0,0,0
11523,423857.70651008026,2010-12-18 10:21:31,2761.389102764957,2,40,0.5501165986061096,3.990173101425171,34.77727169547632,34.33033591760085,139.66175971250598,124.09334618667602,3.237724376958795e-05,0.0939245000481605,0,0,0
11524,423887.72143583855,2010-12-18 10:22:01,2791.404028523287,2,40,0.550297200679779,3.9924395084381104,34.78185907716935,34.33033591760085,139.68006936159415,124.09334618667602,6.47544875391759e-05,0.0939245000481605,0,0,0
11525,423917.7365741909,2010-12-18 10:22:31,2821.419166945823,2,40,0.550297200679779,3.9945437908172607,34.78644648551553,34.33033591760085,139.6983888795932,124.09334618667602,3.237724376958795e-05,0.0939245000481605,0,0,0
11526,423947.7517792593,2010-12-18 10:23:01,2851.4343720392667,2,40,0.5501165986061096,3.9966483116149902,34.79103390996194,34.33033591760085,139.71671828109424,124.09334618667602,6.47544875391759e-05,0.0939245000481605,0,0,0
11527,423977.7686096975,2010-12-18 10:23:31,2881.4512024522564,2,40,0.5501165986061096,3.9985909461975098,34.79562162518618,34.33033591760085,139.73505873564648,124.09334618667602,3.237724376958795e-05,0.0939245000481605,0,0,0
11528,424007.7818358764,2010-12-18 10:24:01,2911.464428551048,2,40,0.550297200679779,4.001019477844238,34.80020873044779,34.33033591760085,139.7534068023236,124.09334618667602,6.47544875391759e-05,0.0939245000481605,0,0,0
11529,424037.79694424913,2010-12-18 10:24:31,2941.4795369338312,2,40,0.550297200679779,4.003285884857178,34.80479610696131,34.33033591760085,139.7717661510362,124.09334618667602,6.47544875391759e-05,0.0939245000481605,0,0,0
11530,424067.812036602,2010-12-18 10:25:01,2971.4946292867253,2,40,0.5501165986061096,4.005552291870117,34.80938343509151,34.33033591760085,139.7901355590886,124.09334618667602,6.47544875391759e-05,0.0939245000481605,0,0,0
11531,424097.82715351606,2010-12-18 10:25:31,3001.5097462057506,2,40,0.5504778623580933,4.007980346679688,34.81397082010239,34.33033591760085,139.80851572660922,124.09334618667602,9.70840483205393e-05,0.0939245000481605,0,0,0
11532,424127.842384128,2010-12-18 10:26:01,3031.524976812684,2,40,0.5501165986061096,4.010085105895996,34.8185582705682,34.33033591760085,139.82690667268773,124.09334618667602,6.47544875391759e-05,0.0939245000481605,0,0,0
11533,424157.85731652286,2010-12-18 10:26:31,3061.539909197503,2,40,0.5504778623580933,4.012675285339356,34.82314567095334,34.33033591760085,139.84530807940283,124.09334618667602,6.47544875391759e-05,0.0939245000481605,0,0,0
11534,424187.87254767615,2010-12-18 10:27:01,3091.5551403457835,2,40,0.550297200679779,4.014779567718506,34.82773309558372,34.33033591760085,139.86372037007453,124.09334618667602,6.47544875391759e-05,0.0939245000481605,0,0,0
11535,424217.8875350478,2010-12-18 10:27:31,3121.570127732473,2,40,0.550297200679779,4.017208099365234,34.8323204588547,34.33033591760085,139.8821432679556,124.09334618667602,6.47544875391759e-05,0.0939245000481605,0,0,0
11536,424247.902842481,2010-12-18 10:28:01,3151.585435150548,2,40,0.5501165986061096,4.019636154174805,34.83690795813127,34.33033591760085,139.90057769872809,124.09334618667602,9.70840483205393e-05,0.0939245000481605,0,0,0
11537,424277.9177220593,2010-12-18 10:28:31,3181.6003148392347,2,40,0.550297200679779,4.021902561187744,34.84149531054719,34.33033591760085,139.91902265970862,124.09334618667602,3.23295607813634e-05,0.0939245000481605,0,0,0
11538,424307.93282099854,2010-12-18 10:29:01,3211.615413683281,2,40,0.5501165986061096,4.024331092834473,34.846082817372306,34.33033591760085,139.93747952897095,124.09334618667602,3.24249267578125e-05,0.0939245000481605,0,0,0
11539,424337.9479462082,2010-12-18 10:29:31,3241.6305388779,2,40,0.5501165986061096,4.026921272277832,34.85067024388547,34.33033591760085,139.9559474077291,124.09334618667602,6.47544875391759e-05,0.0939245000481605,0,0,0
11540,424367.9630861896,2010-12-18 10:30:01,3271.645678964577,2,40,0.550297200679779,4.029511451721191,34.855257708033946,34.33033591760085,139.97442691238624,124.09334618667602,9.71794142969884e-05,0.0939245000481605,0,0,0
11541,424397.9781134807,2010-12-18 10:30:31,3301.6607061703544,2,40,0.5501165986061096,4.031939506530762,34.8598450190641,34.33033591760085,139.99291720959425,124.09334618667602,6.47544875391759e-05,0.0939245000481605,0,0,0
11542,424427.9932154676,2010-12-18 10:31:01,3331.67580815221,2,40,0.5501165986061096,4.034691333770752,34.86443239403572,34.33033591760085,140.01141946283852,124.09334618667602,6.47544875391759e-05,0.0939245000481605,0,0,0
11543,424458.0083551181,2010-12-18 10:31:31,3361.690947787764,2,40,0.5501165986061096,4.0371198654174805,34.86901973700878,34.33033591760085,140.02993331912495,124.09334618667602,6.47544875391759e-05,0.0939245000481605,0,0,0
11544,424488.0235898102,2010-12-18 10:32:01,3391.7061824798634,2,40,0.550297200679779,4.03971004486084,34.87360716197527,34.33033591760085,140.0484593392212,124.09334618667602,9.71794142969884e-05,0.0939245000481605,0,0,0
11545,424518.0386690255,2010-12-18 10:32:31,3421.7212617101018,2,40,0.5501165986061096,4.042300224304199,34.87819455290325,34.33033591760085,140.0669970513764,124.09334618667602,6.47544875391759e-05,0.0939245000481605,0,0,0
11546,424548.0536393045,2010-12-18 10:33:01,3451.736231994232,2,40,0.550297200679779,4.0450520515441895,34.88278193580532,34.33033591760085,140.08554682299047,124.09334618667602,9.70840483205393e-05,0.0939245000481605,0,0,0
11547,424578.0707365064,2010-12-18 10:33:31,3481.753329261277,2,40,0.5504778623580933,4.047804355621338,34.8873696362031,34.33033591760085,140.10410994321344,124.09334618667602,9.71794142969884e-05,0.0939245000481605,0,0,0
11548,424608.08381841634,2010-12-18 10:34:01,3511.766411101086,2,40,0.5504778623580933,4.050232410430908,34.89195674723199,34.33033591760085,140.122683000989,124.09334618667602,3.23295607813634e-05,0.0939245000481605,0,0,0
11549,424638.0989486837,2010-12-18 10:34:31,3541.781541423465,2,40,0.5499359965324402,4.052984714508057,34.89654417919402,34.33033591760085,140.14126967960829,124.09334618667602,6.47544875391759e-05,0.0939245000481605,0,0,0
11550,424668.1143448475,2010-12-18 10:35:01,3571.796937532244,2,40,0.5501165986061096,4.055736541748047,34.90113166953674,34.33033591760085,140.15986909123626,124.09334618667602,6.47544875391759e-05,0.0939245000481605,0,0,0
11551,424698.12913816125,2010-12-18 10:35:31,3601.8117309161644,2,40,0.550297200679779,4.058650493621826,34.905719051632005,34.33033591760085,140.1784807067806,124.09334618667602,0.0001295089750783,0.0939245000481605,0,0,0
11552,424728.14421477,2010-12-18 10:36:01,3631.826807454705,2,40,0.5501165986061096,4.061402797698975,34.910306534360345,34.33033591760085,140.19710534504566,124.09334618667602,0.0001295089750783,0.0939245000481605,0,0,0
11553,424758.1593496789,2010-12-18 10:36:31,3661.841942433672,2,40,0.5501165986061096,4.063992977142334,34.91489389895652,34.33033591760085,140.21574219721657,124.09334618667602,6.47544875391759e-05,0.0939245000481605,0,0,0
11554,424788.1744158415,2010-12-18 10:37:01,3691.857008531229,2,40,0.5501165986061096,4.066906929016113,34.91948131495634,34.33033591760085,140.2343922431295,124.09334618667602,6.47544875391759e-05,0.0939245000481605,0,0,0
11555,424818.1895314373,2010-12-18 10:37:31,3721.8721241219496,2,40,0.5501165986061096,4.069820880889893,34.92406869924589,34.33033591760085,140.25305521866565,124.09334618667602,9.71794142969884e-05,0.0939245000481605,0,0,0
11556,424848.2046278954,2010-12-18 10:38:01,3751.887220585072,2,40,0.5501165986061096,4.072734832763672,34.928656146611345,34.33033591760085,140.2717316673928,124.09334618667602,9.71794142969884e-05,0.0939245000481605,0,0,0
11557,424878.2197195064,2010-12-18 10:38:31,3781.9023121911055,2,40,0.550297200679779,4.075648784637451,34.93324349807541,34.33033591760085,140.2904210560274,124.09334618667602,6.47544875391759e-05,0.0939245000481605,0,0,0
11558,424908.2348152076,2010-12-18 10:39:01,3811.917407897344,2,40,0.5501165986061096,4.078400611877441,34.937830873085126,34.33033591760085,140.30912395108527,124.09334618667602,6.47544875391759e-05,0.0939245000481605,0,0,0
11559,424938.2499260064,2010-12-18 10:39:31,3841.932518691128,2,40,0.550297200679779,4.08147668838501,34.94241829271692,34.33033591760085,140.32784058936315,124.09334618667602,6.47544875391759e-05,0.0939245000481605,0,0,0
11560,424968.2651524229,2010-12-18 10:40:01,3871.9477451076336,2,40,0.5501165986061096,4.084390640258789,34.94700569892629,34.33033591760085,140.34657067665145,124.09334618667602,6.47544875391759e-05,0.0939245000481605,0,0,0
11561,424998.28010891273,2010-12-18 10:40:31,3901.962701597437,2,40,0.5501165986061096,4.087466239929199,34.95159311229341,34.33033591760085,140.3653145932645,124.09334618667602,9.70840483205393e-05,0.0939245000481605,0,0,0
11562,425028.2951997167,2010-12-18 10:41:01,3931.977792406489,2,40,0.5501165986061096,4.090542316436768,34.95618050671241,34.33033591760085,140.38407231638925,124.09334618667602,6.47544875391759e-05,0.0939245000481605,0,0,0
11563,425058.3104493861,2010-12-18 10:41:32,3961.9930420708456,2,40,0.5501165986061096,4.093456268310547,34.96076794449395,34.33033591760085,140.40284419581394,124.09334618667602,6.47544875391759e-05,0.0939245000481605,0,0,0
11564,425088.325533308,2010-12-18 10:42:02,3992.0081259777216,2,40,0.5501165986061096,4.096531867980957,34.96535535892513,34.33033591760085,140.4216301190286,124.09334618667602,3.23295607813634e-05,0.0939245000481605,0,0,0
11565,425118.3405095118,2010-12-18 10:42:32,4022.023102181583,2,40,0.550297200679779,4.099931716918945,34.9699428011339,34.33033591760085,140.4404303037957,124.09334618667602,0.0001295089750783,0.0939245000481605,0,0,0
11566,425148.3555996092,2010-12-18 10:43:02,4052.038192293901,2,40,0.5501165986061096,4.102845668792725,34.97453031860055,34.33033591760085,140.45924509510974,124.09334618667602,9.71794142969884e-05,0.0939245000481605,0,0,0
11567,425178.37259224587,2010-12-18 10:43:32,4082.0551850358393,2,40,0.5501165986061096,4.106083393096924,34.979118046569894,34.33033591760085,140.4780752092547,124.09334618667602,9.71794142969884e-05,0.0939245000481605,0,0,0
11568,425208.3858005303,2010-12-18 10:44:02,4112.068393200002,2,40,0.5504778623580933,4.109321117401123,34.98370517214062,34.33033591760085,140.4969173912613,124.09334618667602,9.71794142969884e-05,0.0939245000481605,0,0,0
11569,425238.40089459246,2010-12-18 10:44:32,4142.083487267161,2,40,0.5501165986061096,4.112235069274902,34.988292591131426,34.33033591760085,140.51577543622645,124.09334618667602,6.47544875391759e-05,0.0939245000481605,0,0,0
11570,425268.4159959728,2010-12-18 10:45:02,4172.098588647519,2,40,0.550297200679779,4.115634441375732,34.99287996783028,34.33033591760085,140.5346479715097,124.09334618667602,9.71794142969884e-05,0.0939245000481605,0,0,0
11571,425298.4312370057,2010-12-18 10:45:32,4202.113829695434,2,40,0.550297200679779,4.118872165679932,34.99746743471998,34.33033591760085,140.55353582991566,124.09334618667602,9.71794142969884e-05,0.0939245000481605,0,0,0
11572,425328.44620183634,2010-12-18 10:46:02,4232.128794505944,2,40,0.550297200679779,4.122271537780762,35.00205483581742,34.33033591760085,140.57243842051076,124.09334618667602,9.70840483205393e-05,0.0939245000481605,0,0,0
11573,425358.4612863848,2010-12-18 10:46:32,4262.143879054416,2,40,0.5501165986061096,4.12534761428833,35.00664228648829,34.33033591760085,140.59135624295257,124.09334618667602,6.47544875391759e-05,0.0939245000481605,0,0,0
11574,425388.4764195943,2010-12-18 10:47:02,4292.159012279018,2,40,0.5501165986061096,4.128909111022949,35.01122972431003,34.33033591760085,140.6102892572323,124.09334618667602,9.71794142969884e-05,0.0939245000481605,0,0,0
11575,425418.49150738586,2010-12-18 10:47:32,4322.174100045498,2,40,0.5504778623580933,4.132308483123779,35.01581718768173,34.33033591760085,140.62923777950812,124.09334618667602,0.0001295089750783,0.0939245000481605,0,0,0
11576,425448.5066075783,2010-12-18 10:48:02,4352.189200267974,2,40,0.5501165986061096,4.1355462074279785,35.02040463777544,34.33033591760085,140.64820161711472,124.09334618667602,0.0001295089750783,0.0939245000481605,0,0,0
11577,425478.5216960616,2010-12-18 10:48:32,4382.204288751239,2,40,0.5501165986061096,4.138946056365967,35.02499209127791,34.33033591760085,140.66718099864968,124.09334618667602,0.0001295089750783,0.0939245000481605,0,0,0
11578,425508.53681198304,2010-12-18 10:49:02,4412.21940466777,2,40,0.550297200679779,4.142345428466797,35.029579596345634,34.33033591760085,140.68617629008446,124.09334618667602,6.47544875391759e-05,0.0939245000481605,0,0,0
11579,425538.55189979967,2010-12-18 10:49:32,4442.234492484375,2,40,0.5501165986061096,4.145906925201416,35.03416701559956,34.33033591760085,140.70518714536706,124.09334618667602,9.70840483205393e-05,0.0939245000481605,0,0,0
11580,425568.5669877216,2010-12-18 10:50:02,4472.249580406242,2,40,0.5504778623580933,4.149468421936035,35.0387537012711,34.33033591760085,140.7242109111667,124.09334618667602,0.0001295089750783,0.0939245000481605,0,0,0
11581,425598.5821330513,2010-12-18 10:50:32,4502.264725735966,2,40,0.5501165986061096,4.152868270874023,35.04334046989673,34.33033591760085,140.74325099954658,124.09334618667602,0.0001295089750783,0.0939245000481605,0,0,0
11582,425628.6000749201,2010-12-18 10:51:02,4532.28266772507,2,40,0.550297200679779,4.156429767608643,35.04792837888277,34.33033591760085,140.7623120754544,124.09334618667602,9.71794142969884e-05,0.0939245000481605,0,0,0
11583,425658.61233769165,2010-12-18 10:51:32,4562.294930376359,2,40,0.5501165986061096,4.159829139709473,35.05251538479376,34.33033591760085,140.78138562914057,124.09334618667602,9.70840483205393e-05,0.0939245000481605,0,0,0
11584,425688.62741578906,2010-12-18 10:52:02,4592.310008453728,2,40,0.5504778623580933,4.163714408874512,35.05710280925446,34.33033591760085,140.80047733482272,124.09334618667602,0.0001295089750783,0.0939245000481605,0,0,0
11585,425718.6425123675,2010-12-18 10:52:32,4622.325105057201,2,40,0.5501165986061096,4.166952133178711,35.06169023785437,34.33033591760085,140.81958545928055,124.09334618667602,6.47544875391759e-05,0.0939245000481605,0,0,0
11586,425748.6576092016,2010-12-18 10:53:02,4652.340201886232,2,40,0.550297200679779,4.170675754547119,35.06627767302858,34.33033591760085,140.83871018290793,124.09334618667602,9.71794142969884e-05,0.0939245000481605,0,0,0
11587,425778.6746477174,2010-12-18 10:53:32,4682.357240522377,2,40,0.550297200679779,4.174398899078369,35.07086543044175,34.33033591760085,140.8578529549015,124.09334618667602,0.0001295089750783,0.0939245000481605,0,0,0
11588,425808.6878477863,2010-12-18 10:54:02,4712.370440456058,2,40,0.5499359965324402,4.177960395812988,35.07545258028102,34.33033591760085,140.8770098389915,124.09334618667602,6.47544875391759e-05,0.0939245000481605,0,0,0
11589,425838.7029070169,2010-12-18 10:54:32,4742.385499706577,2,40,0.550297200679779,4.181845664978027,35.08004005033017,34.33033591760085,140.8961849796763,124.09334618667602,9.70840483205393e-05,0.0939245000481605,0,0,0
11590,425868.718011941,2010-12-18 10:55:02,4772.400604630754,2,40,0.550297200679779,4.185569286346436,35.08462756400711,34.33033591760085,140.91537723386713,124.09334618667602,0.0001295089750783,0.0939245000481605,0,0,0
11591,425898.73313315073,2010-12-18 10:55:32,4802.415725815395,2,40,0.550297200679779,4.189130783081055,35.089214930533295,34.33033591760085,140.93458598877936,124.09334618667602,6.47544875391759e-05,0.0939245000481605,0,0,0
11592,425928.7482099048,2010-12-18 10:56:02,4832.430802594533,2,40,0.5501165986061096,4.193016052246094,35.093802328404976,34.33033591760085,140.95381209745102,124.09334618667602,0.0001295089750783,0.0939245000481605,0,0,0
11593,425958.7633078466,2010-12-18 10:56:32,4862.445900536335,2,40,0.550297200679779,4.196739196777344,35.09838974054321,34.33033591760085,140.97305555129924,124.09334618667602,6.47544875391759e-05,0.0939245000481605,0,0,0
11594,425983.7784927371,2010-12-18 10:56:57,4887.461085517037,2,40,0.5504778623580933,4.200138568878174,35.1022129947072,34.33033591760085,140.9891068287979,124.09334618667602,0.0001295089750783,0.0939245000481605,0,0,0
11595,426013.7995214142,2010-12-18 10:57:27,30.01521867223437,3,40,0.0,4.112072944641113,35.1022129947072,34.33033591760085,140.9891068287979,124.09334618667602,-0.0004532813909463,0.0939245000481605,0,0,0
11596,426043.8145076031,2010-12-18 10:57:57,60.03020487096737,3,40,0.0,4.100903034210205,35.1022129947072,34.33033591760085,140.9891068287979,124.09334618667602,-0.0002590179501567,0.0939245000481605,0,0,0
11597,426073.8296005524,2010-12-18 10:58:27,90.04529782034524,3,40,0.0,4.094265460968018,35.1022129947072,34.33033591760085,140.9891068287979,124.09334618667602,-0.0001942634553415,0.0939245000481605,0,0,0
11598,426103.7978187858,2010-12-18 10:58:57,120.01351605880788,3,40,0.0,4.0903801918029785,35.1022129947072,34.33033591760085,140.9891068287979,124.09334618667602,-6.47544875391759e-05,0.0939245000481605,0,0,0
11599,426103.8057404112,2010-12-18 10:58:57,2.606486141e-06,4,40,1.0139212608337402,4.199653148651123,35.102212995441306,34.33033591760085,140.9891068318809,124.09334618667602,0.0,0.0939245000481605,0,0,0
11600,426104.5402509975,2010-12-18 10:58:58,0.734513217892216,4,40,0.9638924598693848,4.199976921081543,35.10241338913497,34.33033591760085,140.98994843224318,124.09334618667602,6.47544875391759e-05,0.0939245000481605,0,0,0
11601,426106.32149650354,2010-12-18 10:59:00,2.515758738861706,4,40,0.9131412506103516,4.199653148651123,35.102876724196854,34.33033591760085,140.9918943182522,124.09334618667602,0.0,0.0939245000481605,0,0,0
11602,426109.1181262139,2010-12-18 10:59:03,5.312388449333533,4,40,0.8629319071769714,4.199814796447754,35.10356548918691,34.33033591760085,140.99478695636125,124.09334618667602,0.0,0.0939245000481605,0,0,0
11603,426112.9461758032,2010-12-18 10:59:06,9.140438038503508,4,40,0.812903106212616,4.199653148651123,35.10445507494209,34.33033591760085,140.9985229877558,124.09334618667602,-3.23295607813634e-05,0.0939245000481605,0,0,0
11604,426117.9772442935,2010-12-18 10:59:11,14.171506528939322,4,40,0.7628743648529053,4.199814796447754,35.10555485685166,34.33033591760085,141.00314179388255,124.09334618667602,0.0,0.0939245000481605,0,0,0
11605,426124.5711649766,2010-12-18 10:59:18,20.76542728713375,4,40,0.7126649618148804,4.199653148651123,35.10690464470527,34.33033591760085,141.00881059379293,124.09334618667602,-3.23295607813634e-05,0.0939245000481605,0,0,0
11606,426133.2739360528,2010-12-18 10:59:27,29.46819829306004,4,40,0.6626362204551697,4.199814796447754,35.10856449569948,34.33033591760085,141.0157815802005,124.09334618667602,0.0,0.0939245000481605,0,0,0
11607,426145.27554754127,2010-12-18 10:59:39,41.469809871873466,4,40,0.6124268174171448,4.199814796447754,35.11068587756314,34.33033591760085,141.02469092769266,124.09334618667602,0.0,0.0939245000481605,0,0,0
11608,426163.10159254365,2010-12-18 10:59:57,59.29585486923228,4,40,0.5623980164527893,4.199814796447754,35.11358656354837,34.33033591760085,141.03687316120303,124.09334618667602,3.23295607813634e-05,0.0939245000481605,0,0,0
11609,426192.5698879133,2010-12-18 11:00:26,88.76415013861416,4,40,0.5123692750930786,4.199653148651123,35.117967819994135,34.33033591760085,141.05527343068147,124.09334618667602,-3.23295607813634e-05,0.0939245000481605,0,0,0
11610,426247.06880959874,2010-12-18 11:01:21,143.26307183915358,4,40,0.4623405039310455,4.199814796447754,35.12531183021451,34.33033591760085,141.0861165968342,124.09334618667602,3.23295607813634e-05,0.0939245000481605,0,0,0
11611,426336.6298658476,2010-12-18 11:02:50,232.8241280829603,4,40,0.4123117327690124,4.199653148651123,35.13616046894609,34.33033591760085,141.13167844650587,124.09334618667602,-3.23295607813634e-05,0.0939245000481605,0,0,0
11612,426453.4402607075,2010-12-18 11:04:47,349.6345229629116,4,40,0.3622829616069793,4.199653148651123,35.1487067934557,34.33033591760085,141.18437024956037,124.09334618667602,-3.23295607813634e-05,0.0939245000481605,0,0,0
11613,426592.89089616033,2010-12-18 11:07:06,489.0851584007125,4,40,0.3118929862976074,4.199653148651123,35.16175143100722,34.33033591760085,141.239154937684,124.09334618667602,-3.23295607813634e-05,0.0939245000481605,0,0,0
11614,426761.0442120445,2010-12-18 11:09:55,657.238474284855,4,40,0.2618642151355743,4.199653148651123,35.17513365799594,34.33033591760085,141.2953573791315,124.09334618667602,-3.23295607813634e-05,0.0939245000481605,0,0,0
11615,426966.6187335845,2010-12-18 11:13:20,862.8129958099579,4,40,0.2118354439735412,4.199653148651123,35.18862093986217,34.33033591760085,141.35200105805455,124.09334618667602,-3.23295607813634e-05,0.0939245000481605,0,0,0
11616,427238.5829800618,2010-12-18 11:17:52,1134.777242372365,4,40,0.1618066728115081,4.199653148651123,35.20266359211522,34.33033591760085,141.41097717639514,124.09334618667602,-3.23295607813634e-05,0.0939245000481605,0,0,0
11617,427647.1537002197,2010-12-18 11:24:41,1543.3479624550323,4,40,0.1117779016494751,4.199814796447754,35.21800922068814,34.33033591760085,141.475425489958,124.09334618667602,0.0,0.0939245000481605,0,0,0
11618,428404.56267141335,2010-12-18 11:37:18,2300.756933718908,4,40,0.061749130487442,4.199653148651123,35.23571816319416,34.33033591760085,141.54979922329454,124.09334618667602,-3.23295607813634e-05,0.0939245000481605,0,0,0
11619,428715.76003879297,2010-12-18 11:42:29,2611.954301108528,4,40,0.0496483072638511,4.199653148651123,35.24056109259388,34.33033591760085,141.57013845769512,124.09334618667602,-3.23295607813634e-05,0.0939245000481605,0,0,0
11620,428745.7818195166,2010-12-18 11:42:59,30.01506232316572,5,40,0.0,4.191720962524414,35.24056109259388,34.33033591760085,141.57013845769512,124.09334618667602,0.0,0.0939245000481605,0,0,0
11621,428775.7814278381,2010-12-18 11:43:29,60.0146706496551,5,40,0.0,4.190263748168945,35.24056109259388,34.33033591760085,141.57013845769512,124.09334618667602,-3.24249267578125e-05,0.0939245000481605,0,0,0
11622,428775.9608667944,2010-12-18 11:43:30,0.187406012654567,6,40,-1.9243103452026844e-05,4.190263748168945,35.240561100994285,34.33033591760085,141.5701384928964,124.09334618667602,-6.47544875391759e-05,0.0963535830378532,0,0,0
11623,428780.7888977436,2010-12-18 11:43:35,5.015436982028356,6,40,0.0005225847125984,4.190263748168945,35.24056213315457,34.330335917768146,141.57014281808736,124.093346187377,-6.47544875391759e-05,0.0963535830378532,0,0,0
11624,428810.7962729985,2010-12-18 11:44:05,30.01512482369589,7,40,-1.099568486213684,4.008627891540527,35.24056213315457,34.3395046911458,141.57014281808736,124.13031112153408,-0.0010037422180175,0.0963535830378532,0,0,0
11625,428840.8131665736,2010-12-18 11:44:35,60.03201840387426,7,40,-1.099568486213684,3.980136156082153,35.24056213315457,34.348673931449454,141.57014281808736,124.16692670882016,-0.0005827903514727,0.0963535830378532,0,0,0
11626,428870.8264511178,2010-12-18 11:45:05,90.04530285788096,7,40,-1.0997490882873535,3.960224151611328,35.24056213315457,34.357841985523486,141.57014281808736,124.20331960555882,-0.0004209041653666,0.0963535830378532,0,0,0
11627,428900.84155173134,2010-12-18 11:45:35,120.06040347634304,7,40,-1.0997490882873535,3.944521188735962,35.24056213315457,34.3670106263901,141.57014281808736,124.23955441836316,-0.0003885269106831,0.0963535830378532,0,0,0
11628,428930.8568812644,2010-12-18 11:46:05,150.07573309967495,7,40,-1.0997490882873535,3.931084632873535,35.24056213315457,34.376179333534175,141.57014281808736,124.27565721414496,-0.0003237724304199,0.0963535830378532,0,0,0
11629,428960.8717645672,2010-12-18 11:46:35,180.090616327168,7,40,-1.099929690361023,3.918781280517578,35.24056213315457,34.38534797934258,141.57014281808736,124.31164259067984,-0.0003237724304199,0.0963535830378532,0,0,0
11630,428990.88684753166,2010-12-18 11:47:05,210.10569929169893,7,40,-1.0997490882873535,3.90761137008667,35.24056213315457,34.39451664571167,141.57014281808736,124.34752027517278,-0.0002913951757363,0.0963535830378532,0,0,0
11631,429020.9019944704,2010-12-18 11:47:35,240.12084621037732,7,40,-1.0997490882873535,3.8966031074523926,35.24056213315457,34.40368540004754,141.57014281808736,124.38329691238457,-0.0002913951757363,0.0963535830378532,0,0,0
11632,429050.919859904,2010-12-18 11:48:05,270.1387117492376,7,40,-1.099568486213684,3.886404275894165,35.24056213315457,34.41285489975308,141.57014281808736,124.4189797559478,-0.0002590179501567,0.0963535830378532,0,0,0
11633,429080.9321715923,2010-12-18 11:48:35,300.15102333229225,7,40,-1.099568486213684,3.876367330551148,35.24056213315457,34.42202275772881,141.57014281808736,124.45456217971751,-0.0002266406954731,0.0963535830378532,0,0,0
11634,429110.9472650279,2010-12-18 11:49:05,330.1661167678801,7,40,-1.0997490882873535,3.86633038520813,35.24056213315457,34.431191477770966,141.57014281808736,124.4900567067171,-0.0002590179501567,0.0963535830378532,0,0,0
11635,429140.9623471704,2010-12-18 11:49:35,360.1811989103654,7,40,-1.099568486213684,3.856779098510742,35.24056213315457,34.44036025394103,141.57014281808736,124.52546240026469,-0.0002590179501567,0.0963535830378532,0,0,0
11636,429170.9774633476,2010-12-18 11:50:05,390.1963151928067,7,40,-1.0993878841400146,3.847389698028565,35.24056213315457,34.449529002075394,141.57014281808736,124.56078077596716,-0.0002266406954731,0.0963535830378532,0,0,0
11637,429200.9926825962,2010-12-18 11:50:35,420.211534351251,7,40,-1.0997490882873535,3.8381621837615967,35.24056213315457,34.45869775091835,141.57014281808736,124.59601433595196,-0.0002266406954731,0.0963535830378532,0,0,0
11638,429231.007691256,2010-12-18 11:51:05,450.2265430660143,7,40,-1.099568486213684,3.829258680343628,35.24056213315457,34.46786640545524,141.57014281808736,124.63116424726763,-0.0002590179501567,0.0963535830378532,0,0,0
11639,429261.02277173416,2010-12-18 11:51:35,480.2416235644083,7,40,-1.099568486213684,3.8206787109375,35.24056213315457,34.477035105575055,141.57014281808736,124.66623325739718,-0.0001942634553415,0.0963535830378532,0,0,0
11640,429291.0378552701,2010-12-18 11:52:05,510.2567070101367,7,40,-1.0997490882873535,3.811936855316162,35.24056213315457,34.486203832099136,141.57014281808736,124.70122272774348,-0.0002590179501567,0.0963535830378532,0,0,0
11641,429321.0529720138,2010-12-18 11:52:35,540.2718237737755,7,40,-1.0997490882873535,3.803518772125244,35.24056213315457,34.49537252577638,141.57014281808736,124.73613383523312,-0.0002266406954731,0.0963535830378532,0,0,0
11642,429351.06808065216,2010-12-18 11:53:05,570.2869324823696,7,40,-1.099929690361023,3.795262575149536,35.24056213315457,34.50454123334629,141.57014281808736,124.7709692487926,-0.0002266406954731,0.0963535830378532,0,0,0
11643,429381.0831517121,2010-12-18 11:53:35,600.3020034670892,7,40,-1.099929690361023,3.787168264389038,35.24056213315457,34.513709948949185,141.57014281808736,124.8057305572965,-0.0002590179501567,0.0963535830378532,0,0,0
11644,429411.09825124784,2010-12-18 11:54:05,630.3171030078696,7,40,-1.0997490882873535,3.77955961227417,35.24056213315457,34.52287867447661,141.57014281808736,124.84041958837552,-0.0001942634553415,0.0963535830378532,0,0,0
11645,429441.11523183953,2010-12-18 11:54:35,660.3340836747599,7,40,-1.0997490882873535,3.7719509601593018,35.24056213315457,34.53204800631075,141.57014281808736,124.87504051322836,-0.0001942634553415,0.0963535830378532,0,0,0
11646,429471.1287028979,2010-12-18 11:55:05,690.3475547130745,7,40,-1.099929690361023,3.7643423080444336,35.24056213315457,34.541216276939274,141.57014281808736,124.9095886243242,-0.0002266406954731,0.0963535830378532,0,0,0
11647,429501.14354944415,2010-12-18 11:55:35,720.3624011891129,7,40,-1.0997490882873535,3.757057428359986,35.24056213315457,34.5503849255229,141.57014281808736,124.94407097953322,-0.0002590179501567,0.0963535830378532,0,0,0
11648,429531.1587801914,2010-12-18 11:56:05,750.3776319464205,7,40,-1.099568486213684,3.750096559524536,35.24056213315457,34.559553721469,141.57014281808736,124.97848805512284,-0.0001942634553415,0.0963535830378532,0,0,0
11649,429561.1737914925,2010-12-18 11:56:35,780.3926432526325,7,40,-1.099568486213684,3.7432973384857178,35.24056213315457,34.56872241461462,141.57014281808736,125.01284066631364,-0.0001942634553415,0.0963535830378532,0,0,0
11650,429591.189054796,2010-12-18 11:57:05,810.4079066311166,7,40,-1.099568486213684,3.7364981174468994,35.24056213315457,34.57789111954937,141.57014281808736,125.047130609889,-0.0001942634553415,0.0963535830378532,0,0,0
11651,429621.2039310711,2010-12-18 11:57:35,840.4227829163341,7,40,-1.0997490882873535,3.730022668838501,35.24056213315457,34.58705962133204,141.57014281808736,125.08135851151935,-0.0001618862152099,0.0963535830378532,0,0,0
11652,429651.2190528572,2010-12-18 11:58:05,870.4379046122467,7,40,-1.0993878841400146,3.723547220230103,35.24056213315457,34.59622813108628,141.57014281808736,125.11552685844693,-0.0001618862152099,0.0963535830378532,0,0,0
11653,429681.23413833306,2010-12-18 11:58:35,900.4529900880267,7,40,-1.0997490882873535,3.717395544052124,35.24056213315457,34.60539667152248,141.57014281808736,125.14963666999452,-9.713172767078504e-05,0.0963535830378532,0,0,0
11654,429711.2493607596,2010-12-18 11:59:05,930.468212519616,7,40,-1.099568486213684,3.711081981658936,35.24056213315457,34.61456540973035,141.57014281808736,125.18368955185784,-0.0001618862152099,0.0963535830378532,0,0,0
11655,429741.2643357103,2010-12-18 11:59:35,960.4831874503092,7,40,-1.0997490882873535,3.704768419265747,35.24056213315457,34.62373404189365,141.57014281808736,125.21768571094051,-0.0001618862152099,0.0963535830378532,0,0,0
11656,429771.2795748434,2010-12-18 12:00:05,990.4984266536344,7,40,-1.099568486213684,3.698940515518189,35.24056213315457,34.63290284257591,141.57014281808736,125.25162685668238,-0.0001618862152099,0.0963535830378532,0,0,0
11657,429801.2946744894,2010-12-18 12:00:35,1020.5135262295018,7,40,-1.0997490882873535,3.69295072555542,35.24056213315457,34.642071556434644,141.57014281808736,125.28551316977136,-0.0001618862152099,0.0963535830378532,0,0,0
11658,429831.3097890326,2010-12-18 12:01:05,1050.5286407776275,7,40,-1.0997490882873535,3.687122821807861,35.24056213315457,34.65124033915636,141.57014281808736,125.3193460041079,-0.0001618862152099,0.0963535830378532,0,0,0
11659,429861.32475548727,2010-12-18 12:01:35,1080.54360731744,7,40,-1.0997490882873535,3.681294918060303,35.24056213315457,34.6604090224567,141.57014281808736,125.3531256289798,-0.0001942634553415,0.0963535830378532,0,0,0
11660,429891.3399637786,2010-12-18 12:02:05,1110.5588155386674,7,40,-1.0997490882873535,3.675790786743164,35.24056213315457,34.66957784100202,141.57014281808736,125.38685367892364,-0.0001618862152099,0.0963535830378532,0,0,0
11661,429921.3549770648,2010-12-18 12:02:35,1140.573828874931,7,40,-1.099568486213684,3.6701250076293945,35.24056213315457,34.67874660914921,141.57014281808736,125.42053041932608,-0.0001618862152099,0.0963535830378532,0,0,0
11662,429951.3701805943,2010-12-18 12:03:05,1170.5890323543588,7,40,-1.099568486213684,3.664944648742676,35.24056213315457,34.68791537991193,141.57014281808736,125.45415670883304,-9.713172767078504e-05,0.0963535830378532,0,0,0
11663,429981.385158748,2010-12-18 12:03:35,1200.604010488022,7,40,-1.0997490882873535,3.659440517425537,35.24056213315457,34.69708406312439,141.57014281808736,125.48773325422096,-0.0001618862152099,0.0963535830378532,0,0,0
11664,430011.4005772926,2010-12-18 12:04:05,1230.6194290476683,7,40,-1.099568486213684,3.654098272323608,35.24056213315457,34.70625292043154,141.57014281808736,125.52126168780369,-0.0001618862152099,0.0963535830378532,0,0,0
11665,430041.4173988685,2010-12-18 12:04:35,1260.6362506988544,7,40,-1.0997490882873535,3.6489179134368896,35.24056213315457,34.715422259198704,141.57014281808736,125.55474430324708,-0.0001295089750783,0.0963535830378532,0,0,0
11666,430071.43048339017,2010-12-18 12:05:05,1290.6493351351246,7,40,-1.099568486213684,3.644061326980591,35.24056213315457,34.72459035275841,141.57014281808736,125.58817505194848,-9.713172767078504e-05,0.0963535830378532,0,0,0
11667,430101.44555584353,2010-12-18 12:05:35,1320.664407598524,7,40,-1.099568486213684,3.639042854309082,35.24056213315457,34.73375902644692,141.57014281808736,125.62156177852653,-6.47544875391759e-05,0.0963535830378532,0,0,0
11668,430131.4606428832,2010-12-18 12:06:05,1350.6794946231585,7,40,-1.0997490882873535,3.634024381637573,35.24056213315457,34.742927752394934,141.57014281808736,125.65490321151974,-0.0001295089750783,0.0963535830378532,0,0,0
11669,430161.4757611856,2010-12-18 12:06:35,1380.694612940664,7,40,-1.099568486213684,3.629329681396485,35.24056213315457,34.7520964518672,141.57014281808736,125.6882002682736,-0.0001295089750783,0.0963535830378532,0,0,0
11670,430191.4909732264,2010-12-18 12:07:05,1410.7098249864084,7,40,-1.0997490882873535,3.6244730949401855,35.24056213315457,34.76126525651087,141.57014281808736,125.72145419251328,-0.0001295089750783,0.0963535830378532,0,0,0
11671,430221.5059426533,2010-12-18 12:07:35,1440.724794408393,7,40,-1.099568486213684,3.6201021671295166,35.24056213315457,34.7704339574514,141.57014281808736,125.75466541010545,-6.47544875391759e-05,0.0963535830378532,0,0,0
11672,430251.5210456929,2010-12-18 12:08:05,1470.73989744788,7,40,-1.099568486213684,3.6155693531036377,35.24056213315457,34.77960268915141,141.57014281808736,125.78783520530878,-9.713172767078504e-05,0.0963535830378532,0,0,0
11673,430281.53618449136,2010-12-18 12:08:35,1500.755036251364,7,40,-1.0997490882873535,3.611036539077759,35.24056213315457,34.78877141337548,141.57014281808736,125.82096461802357,-0.0001295089750783,0.0963535830378532,0,0,0
11674,430311.5512469949,2010-12-18 12:09:05,1530.7700987499663,7,40,-1.099568486213684,3.6069893836975098,35.24056213315457,34.7979402099299,141.57014281808736,125.85405482802597,-9.713172767078504e-05,0.0963535830378532,0,0,0
11675,430341.56635184895,2010-12-18 12:09:35,1560.7852036039685,7,40,-1.099568486213684,3.602780342102051,35.24056213315457,34.8071089489671,141.57014281808736,125.88710650511824,-9.713172767078504e-05,0.0963535830378532,0,0,0
11676,430371.5814469587,2010-12-18 12:10:05,1590.800298718735,7,40,-1.0997490882873535,3.5987331867218018,35.24056213315457,34.81627773244623,141.57014281808736,125.9201209679914,-9.713172767078504e-05,0.0963535830378532,0,0,0
11677,430401.5965517426,2010-12-18 12:10:36,1620.8154034875247,7,40,-1.099568486213684,3.5948479175567627,35.24056213315457,34.82544653827033,141.57014281808736,125.95309917641764,-9.713172767078504e-05,0.0963535830378532,0,0,0
11678,430431.61181387794,2010-12-18 12:11:06,1650.8306656930902,7,40,-1.099568486213684,3.5911247730255127,35.24056213315457,34.83461523056052,141.57014281808736,125.9860417956988,-9.713172767078504e-05,0.0963535830378532,0,0,0
11679,430461.62674595695,2010-12-18 12:11:36,1680.8455977170113,7,40,-1.0997490882873535,3.5872395038604736,35.24056213315457,34.84378401027586,141.57014281808736,126.01895010793234,-9.713172767078504e-05,0.0963535830378532,0,0,0
11680,430491.64186450007,2010-12-18 12:12:06,1710.8607162550654,7,40,-1.0997490882873535,3.5835161209106445,35.24056213315457,34.852952751506514,141.57014281808736,126.05182446696485,-0.0001295089750783,0.0963535830378532,0,0,0
11681,430521.6569532991,2010-12-18 12:12:36,1740.875805059128,7,40,-1.0997490882873535,3.580116510391236,35.24056213315457,34.86212148486562,141.57014281808736,126.08466622643238,-6.47544875391759e-05,0.0963535830378532,0,0,0
11682,430551.6720755614,2010-12-18 12:13:06,1770.8909273164377,7,40,-1.099568486213684,3.576716899871826,35.24056213315457,34.87129026784332,141.57014281808736,126.11747585629098,-6.47544875391759e-05,0.0963535830378532,0,0,0
11683,430581.6871458795,2010-12-18 12:13:36,1800.905997634498,7,40,-1.0997490882873535,3.573155403137207,35.24056213315457,34.88045899147277,141.57014281808736,126.15025348696612,-0.0001295089750783,0.0963535830378532,0,0,0
11684,430611.7022551896,2010-12-18 12:14:06,1830.9211069496016,7,40,-1.0997490882873535,3.569917678833008,35.24056213315457,34.88962776368243,141.57014281808736,126.18300017277076,-6.47544875391759e-05,0.0963535830378532,0,0,0
11685,430641.7192551595,2010-12-18 12:14:36,1860.938106929552,7,40,-1.099568486213684,3.566518068313598,35.24056213315457,34.89879716158797,141.57014281808736,126.21571808868336,-6.47544875391759e-05,0.0963535830378532,0,0,0
11686,430671.73258331226,2010-12-18 12:15:06,1890.951435052226,7,40,-1.0997490882873535,3.563118457794189,35.24056213315457,34.90796545429833,141.57014281808736,126.24840122425928,-6.47544875391759e-05,0.0963535830378532,0,0,0
11687,430701.7477022212,2010-12-18 12:15:36,1920.9665539612035,7,40,-1.099568486213684,3.5598807334899902,35.24056213315457,34.917134204414566,141.57014281808736,126.28105630564066,-0.0001295089750783,0.0963535830378532,0,0,0
11688,430731.7628039324,2010-12-18 12:16:06,1950.9816556573471,7,40,-1.0997490882873535,3.556643009185791,35.24056213315457,34.92630300867375,141.57014281808736,126.31368108357572,-9.713172767078504e-05,0.0963535830378532,0,0,0
11689,430761.7778896738,2010-12-18 12:16:36,1980.996741433876,7,40,-1.0997490882873535,3.553243398666382,35.24056213315457,34.93547179521193,141.57014281808736,126.34627520809164,-9.713172767078504e-05,0.0963535830378532,0,0,0
11690,430791.7928570708,2010-12-18 12:17:06,2011.0117088308216,7,40,-1.099568486213684,3.5500056743621826,35.24056213315457,34.94464050390524,141.57014281808736,126.37883827282072,-3.237724376958795e-05,0.0963535830378532,0,0,0
11691,430821.808054425,2010-12-18 12:17:36,2041.0269061649567,7,40,-1.099929690361023,3.5464441776275635,35.24056213315457,34.95380934705125,141.57014281808736,126.41137070760968,-0.0001295089750783,0.0963535830378532,0,0,0
11692,430851.8230296464,2010-12-18 12:18:06,2071.041881386373,7,40,-1.0997490882873535,3.5430445671081543,35.24056213315457,34.96297815292496,141.57014281808736,126.44387127638493,-6.47544875391759e-05,0.0963535830378532,0,0,0
11693,430881.8381901989,2010-12-18 12:18:36,2101.0570419540163,7,40,-1.0997490882873535,3.539483070373535,35.24056213315457,34.9721470293953,141.57014281808736,126.47634032947111,-6.47544875391759e-05,0.0963535830378532,0,0,0
11694,430911.8533045918,2010-12-18 12:19:06,2131.0721564169294,7,40,-1.099568486213684,3.536083459854126,35.24056213315457,34.98131591890495,141.57014281808736,126.50877700474597,-9.713172767078504e-05,0.0963535830378532,0,0,0
11695,430941.8683877066,2010-12-18 12:19:36,2161.087239446623,7,40,-1.0997490882873535,3.532198190689087,35.24056213315457,34.990484844629044,141.57014281808736,126.54118070449434,-9.713172767078504e-05,0.0963535830378532,0,0,0
11696,430971.8862912601,2010-12-18 12:20:06,2191.105143105343,7,40,-1.0997490882873535,3.528636693954468,35.24056213315457,34.99965454944473,141.57014281808736,126.57355348512998,-6.47544875391759e-05,0.0963535830378532,0,0,0
11697,431001.8988278932,2010-12-18 12:20:36,2221.117679738426,7,40,-1.0997490882873535,3.5247514247894287,35.24056213315457,35.008822650541006,141.57014281808736,126.60588569818007,-9.713172767078504e-05,0.0963535830378532,0,0,0
11698,431031.91368619865,2010-12-18 12:21:06,2251.1325379586897,7,40,-1.0997490882873535,3.52070426940918,35.24056213315457,35.017991406767315,141.57014281808736,126.6381842399694,-9.713172767078504e-05,0.0963535830378532,0,0,0
11699,431061.9287952732,2010-12-18 12:21:36,2281.147647098356,7,40,-1.0997490882873535,3.5164952278137207,35.24056213315457,35.02716028347016,141.57014281808736,126.67044596791848,-0.0001618862152099,0.0963535830378532,0,0,0
11700,431091.94392137,2010-12-18 12:22:06,2311.162773200233,7,40,-1.099929690361023,3.512124300003052,35.24056213315457,35.036329219743344,141.57014281808736,126.70266924871824,-9.713172767078504e-05,0.0963535830378532,0,0,0
11701,431121.9591620871,2010-12-18 12:22:36,2341.1780138271006,7,40,-1.099568486213684,3.507753610610962,35.24056213315457,35.04549817367727,141.57014281808736,126.73485234624748,-0.0001295089750783,0.0963535830378532,0,0,0
11702,431151.9741038654,2010-12-18 12:23:06,2371.192955620332,7,40,-1.0997490882873535,3.502897024154663,35.24056213315457,35.054667068247895,141.57014281808736,126.76699270905912,-0.0001295089750783,0.0963535830378532,0,0,0
11703,431181.9891976668,2010-12-18 12:23:36,2401.208049406793,7,40,-1.0997490882873535,3.4978785514831543,35.24056213315457,35.06383604668599,141.57014281808736,126.79908828623034,-0.0001618862152099,0.0963535830378532,0,0,0
11704,431212.0042906011,2010-12-18 12:24:06,2431.223142361184,7,40,-1.0997490882873535,3.492374420166016,35.24056213315457,35.07300499729932,141.57014281808736,126.83113554572807,-0.0001618862152099,0.0963535830378532,0,0,0
11705,431242.0213843144,2010-12-18 12:24:36,2461.2402361746344,7,40,-1.099568486213684,3.486384630203247,35.24056213315457,35.082174524569524,141.57014281808736,126.86313206390216,-0.0001618862152099,0.0963535830378532,0,0,0
11706,431272.03446242487,2010-12-18 12:25:06,2491.253314184914,7,40,-1.0997490882873535,3.4795854091644287,35.24056213315457,35.09134336425397,141.57014281808736,126.89506756023955,-0.0001942634553415,0.0963535830378532,0,0,0
11707,431302.0495529984,2010-12-18 12:25:36,2521.26840475838,7,40,-1.0997490882873535,3.4719767570495605,35.24056213315457,35.10051288538562,141.57014281808736,126.92693976486323,-0.0001942634553415,0.0963535830378532,0,0,0
11708,431332.06470245327,2010-12-18 12:26:06,2551.28355421337,7,40,-1.0997490882873535,3.4632349014282227,35.24056213315457,35.109682344738694,141.57014281808736,126.95873708253498,-0.0002590179501567,0.0963535830378532,0,0,0
11709,431362.07979393407,2010-12-18 12:26:36,2581.29864568908,7,40,-1.099929690361023,3.453036069869995,35.24056213315457,35.11885193569317,141.57014281808736,126.99044814771904,-0.0002913951757363,0.0963535830378532,0,0,0
11710,431392.0950087015,2010-12-18 12:27:06,2611.3138605267723,7,40,-1.099929690361023,3.440732717514038,35.24056213315457,35.12802157118026,141.57014281808736,127.02205695027148,-0.0003237724304199,0.0963535830378532,0,0,0
11711,431422.10997721634,2010-12-18 12:27:36,2641.328828971325,7,40,-1.099929690361023,3.425839424133301,35.24056213315457,35.137191079677805,141.57014281808736,127.05354161397682,-0.0004856586456298,0.0963535830378532,0,0,0
11712,431452.12508304766,2010-12-18 12:28:06,2671.343934802759,7,40,-1.099568486213684,3.407546281814575,35.24056213315457,35.14636016861867,141.57014281808736,127.08487261143031,-0.0005180359003134,0.0963535830378532,0,0,0
11713,431482.1403185068,2010-12-18 12:28:36,2701.359170266779,7,40,-1.0997490882873535,3.383749008178711,35.24056213315457,35.15552897734461,141.57014281808736,127.1160105328838,-0.0006799221155233,0.0963535830378532,0,0,0
11714,431512.1555135552,2010-12-18 12:29:06,2731.3743653854017,7,40,-1.0997490882873535,3.3523430824279785,35.24056213315457,35.164697839888255,141.57014281808736,127.1468982937722,-0.0009389400365762,0.0963535830378532,0,0,0
11715,431542.17049992434,2010-12-18 12:29:36,2761.389351769596,7,40,-1.0997490882873535,3.310252904891968,35.24056213315457,35.17386659492572,141.57014281808736,127.17745223424504,-0.0012950897216796,0.0963535830378532,0,0,0
11716,431572.18561023695,2010-12-18 12:30:06,2791.404461991957,7,40,-1.0997490882873535,3.2529454231262207,35.24056213315457,35.18303539749219,141.57014281808736,127.20755534664012,-0.0017483711708337,0.0963535830378532,0,0,0
11717,431602.2005990321,2010-12-18 12:30:36,2821.419450787151,7,40,-1.099929690361023,3.172811985015869,35.24056213315457,35.192204191361945,141.57014281808736,127.23703654919834,-0.0024930476211011,0.0963535830378532,0,0,0
11718,431632.2158173234,2010-12-18 12:31:06,2851.4346690634,7,40,-1.099568486213684,3.055120944976806,35.24056213315457,35.20137303675165,141.57014281808736,127.26562638423074,-0.0037557601463049,0.0963535830378532,0,0,0
11719,431661.996417652,2010-12-18 12:31:36,2881.2152694069478,7,40,-1.099568486213684,2.855030298233032,35.24056213315457,35.210470221787084,141.57014281808736,127.29260092951058,-0.0068315505050122,0.0963535830378532,0,0,0
11720,431678.4493107887,2010-12-18 12:31:52,2897.6681625487267,7,40,-1.0997490882873535,2.699943780899048,35.24056213315457,35.215496100512595,141.57014281808736,127.30656559704497,-0.007640981581062,0.0963535830378532,0,0,0
11721,431738.459825311,2010-12-18 12:32:52,60.01455030518252,8,40,0.0,3.4107840061187744,35.24056213315457,35.215496100512595,141.57014281808736,127.30656559704497,0.0013922214275225,0.0963535830378532,0,0,0
11722,431738.6618433515,2010-12-18 12:32:53,0.189296973237248,9,40,0.0019674589857459,3.411593437194824,35.24056223660847,35.215496100512595,141.57014317103,127.30656559704497,0.0,0.0939245000481605,0,0,0
11723,431743.4881967613,2010-12-18 12:32:58,5.015650292844116,9,40,0.0007031940040178,3.4192020893096924,35.240563221725786,35.215496100512595,141.57014653604324,127.30656559704497,0.0011979580158367,0.0939245000481605,0,0,0
