Data_Point,Test_Time(s),Date_Time,Step_Time(s),Step_Index,Cycle_Index,Current(A),Voltage(V),Charge_Capacity(Ah),Discharge_Capacity(Ah),Charge_Energy(Wh),Discharge_Energy(Wh),dV/dt(V/s),Internal_Resistance(Ohm),Is_FC_Data,AC_Impedance(Ohm),ACI_Phase_Angle(Deg)
12614,464039.0426326414,2010-12-18 21:31:17,30.015074739062207,1,44,0.0,3.4548168182373047,37.896743649885295,37.87057795117142,152.22057825329145,136.9470970618238,0.0008094310760498,0.0923885703086853,0,0,0
12615,464069.05774551525,2010-12-18 21:31:47,60.030187618034105,1,44,0.0,3.4799091815948486,37.896743649885295,37.87057795117142,152.22057825329145,136.9470970618238,0.0005504131549969,0.0923885703086853,0,0,0
12616,464099.0728583291,2010-12-18 21:32:17,90.04530045189377,1,44,0.0,3.498687982559204,37.896743649885295,37.87057795117142,152.22057825329145,136.9470970618238,0.0004209041653666,0.0923885703086853,0,0,0
12617,464129.0410989984,2010-12-18 21:32:47,120.0135411211746,1,44,0.0,3.513743162155152,37.896743649885295,37.87057795117142,152.22057825329145,136.9470970618238,0.0004208564641885,0.0923885703086853,0,0,0
12618,464159.065345985,2010-12-18 21:33:17,30.01510838278331,2,44,0.550297200679779,3.659764289855957,37.90133116644756,37.87057795117142,152.23722891002836,136.9470970618238,0.0012950897216796,0.0923885703086853,0,0,0
12619,464189.0806670672,2010-12-18 21:33:47,60.03042946987311,2,44,0.5501165986061096,3.6979691982269287,37.905918692329536,37.87057795117142,152.25411200677306,136.9470970618238,0.0008418083307333,0.0923885703086853,0,0,0
12620,464219.0956074268,2010-12-18 21:34:17,90.04536991474939,2,44,0.5501165986061096,3.725166082382202,37.91050613552734,37.87057795117142,152.27114239588,136.9470970618238,0.0005827903514727,0.0923885703086853,0,0,0
12621,464249.1106878048,2010-12-18 21:34:47,120.0604502026196,2,44,0.5501165986061096,3.745725631713867,37.9150935958988,37.87057795117142,152.28828114300447,136.9470970618238,0.0004856586456298,0.0923885703086853,0,0,0
12622,464279.1257933656,2010-12-18 21:35:17,150.0755557683929,2,44,0.5504778623580933,3.7607808113098153,37.91968101587655,37.87057795117142,152.3055010485883,136.9470970618238,0.0003561496851034,0.0923885703086853,0,0,0
12623,464309.1409403594,2010-12-18 21:35:47,180.0907027572459,2,44,0.5501165986061096,3.770817756652832,37.92426852462951,37.87057795117142,152.32277859299222,136.9470970618238,0.0001618862152099,0.0923885703086853,0,0,0
12624,464339.15603347926,2010-12-18 21:36:17,210.10579584697305,2,44,0.5501165986061096,3.7779407501220703,37.92885599522034,37.87057795117142,152.34009435012396,136.9470970618238,0.0001618862152099,0.0923885703086853,0,0,0
12625,464369.17114707,2010-12-18 21:36:47,240.12090944272865,2,44,0.5501165986061096,3.783444881439209,37.9334434567068,37.87057795117142,152.35743851917496,136.9470970618238,0.0001295089750783,0.0923885703086853,0,0,0
12626,464399.1862463301,2010-12-18 21:37:17,270.1360087278728,2,44,0.5501165986061096,3.788625240325928,37.938030853115166,37.87057795117142,152.37480692672003,136.9470970618238,0.0001295089750783,0.0923885703086853,0,0,0
12627,464429.2013641865,2010-12-18 21:37:47,300.1511265842307,2,44,0.550297200679779,3.7934818267822266,37.94261827143952,37.87057795117142,152.3921979533685,136.9470970618238,0.0001618862152099,0.0923885703086853,0,0,0
12628,464459.21648932085,2010-12-18 21:38:17,330.1662517237125,2,44,0.5501165986061096,3.7976908683776855,37.94720564844406,37.87057795117142,152.40961006923845,136.9470970618238,9.713172767078504e-05,0.0923885703086853,0,0,0
12629,464489.2315868667,2010-12-18 21:38:47,360.1813492645159,2,44,0.5501165986061096,3.8023855686187744,37.95179299285751,37.87057795117142,152.42704235857707,136.9470970618238,0.0001618862152099,0.0923885703086853,0,0,0
12630,464519.2467186177,2010-12-18 21:39:17,390.19648101545,2,44,0.5501165986061096,3.806432723999024,37.95638042129767,37.87057795117142,152.44449437661152,136.9470970618238,0.0001295089750783,0.0923885703086853,0,0,0
12631,464549.2618135921,2010-12-18 21:39:47,420.211575989867,2,44,0.5501165986061096,3.8103179931640634,37.96096781822735,37.87057795117142,152.4619650758057,136.9470970618238,6.47544875391759e-05,0.0923885703086853,0,0,0
12632,464579.2788262887,2010-12-18 21:40:18,450.2285887616492,2,44,0.5501165986061096,3.814365148544312,37.96555552323496,37.87057795117142,152.47945538152183,136.9470970618238,9.713172767078504e-05,0.0923885703086853,0,0,0
12633,464609.2922286962,2010-12-18 21:40:48,480.2419911741912,2,44,0.5499359965324402,3.818250417709351,37.97014267936946,37.87057795117142,152.49696174555567,136.9470970618238,9.713172767078504e-05,0.0923885703086853,0,0,0
12634,464639.3071805044,2010-12-18 21:41:18,510.2569429823446,2,44,0.5501165986061096,3.8221356868743896,37.97473005081667,37.87057795117142,152.51448663439257,136.9470970618238,6.47544875391759e-05,0.0923885703086853,0,0,0
12635,464669.3222705916,2010-12-18 21:41:48,540.272032994413,2,44,0.550297200679779,3.8260209560394287,37.97931741706758,37.87057795117142,152.53202897239748,136.9470970618238,9.713172767078504e-05,0.0923885703086853,0,0,0
12636,464699.3374087284,2010-12-18 21:42:18,570.2871711262256,2,44,0.550297200679779,3.829744338989258,37.983904776055226,37.87057795117142,152.54958884480197,136.9470970618238,6.47544875391759e-05,0.0923885703086853,0,0,0
12637,464729.3525301888,2010-12-18 21:42:48,600.3022925715145,2,44,0.5501165986061096,3.833467483520508,37.98849223909028,37.87057795117142,152.56716660385322,136.9470970618238,6.470680091297254e-05,0.0923885703086853,0,0,0
12638,464759.3676072085,2010-12-18 21:43:18,630.3173696062895,2,44,0.5501165986061096,3.837514638900757,37.99307964092765,37.87057795117142,152.58476171751929,136.9470970618238,0.0001295089750783,0.0923885703086853,0,0,0
12639,464789.38285174005,2010-12-18 21:43:48,660.3326141128115,2,44,0.5501165986061096,3.841238021850586,37.9976670060574,37.87057795117142,152.60237439282346,136.9470970618238,0.0001295089750783,0.0923885703086853,0,0,0
12640,464819.3978894821,2010-12-18 21:44:18,690.3476519500449,2,44,0.5501165986061096,3.845285177230835,38.002254424573714,37.87057795117142,152.62000498142936,136.9470970618238,0.0001618862152099,0.0923885703086853,0,0,0
12641,464849.4129508629,2010-12-18 21:44:48,720.3627132606911,2,44,0.5501165986061096,3.848846673965454,38.006841767509655,37.87057795117142,152.63765280720594,136.9470970618238,6.47544875391759e-05,0.0923885703086853,0,0,0
12642,464879.4280609298,2010-12-18 21:45:18,750.377823332678,2,44,0.550297200679779,3.852731943130493,38.01142919544677,37.87057795117142,152.6553183841385,136.9470970618238,6.47544875391759e-05,0.0923885703086853,0,0,0
12643,464909.4431784905,2010-12-18 21:45:48,780.39294087325,2,44,0.550297200679779,3.856293439865112,38.01601658214853,37.87057795117142,152.67300080503207,136.9470970618238,6.47544875391759e-05,0.0923885703086853,0,0,0
12644,464939.4583130384,2010-12-18 21:46:18,810.4080754361815,2,44,0.5504778623580933,3.860016822814941,38.02060402687148,37.87057795117142,152.69070025954852,136.9470970618238,9.713172767078504e-05,0.0923885703086853,0,0,0
12645,464969.4735227232,2010-12-18 21:46:48,840.4232851210512,2,44,0.5504778623580933,3.863578319549561,38.02519146714454,37.87057795117142,152.70841594359024,136.9470970618238,9.713172767078504e-05,0.0923885703086853,0,0,0
12646,464999.4885062604,2010-12-18 21:47:18,870.438268658161,2,44,0.5501165986061096,3.86681604385376,38.029778882644784,37.87057795117142,152.72614718095505,136.9470970618238,6.47544875391759e-05,0.0923885703086853,0,0,0
12647,465029.5036384173,2010-12-18 21:47:48,900.4534008702426,2,44,0.550297200679779,3.870053768157959,38.03436629252688,37.87057795117142,152.74389358307627,136.9470970618238,6.47544875391759e-05,0.0923885703086853,0,0,0
12648,465059.5187670605,2010-12-18 21:48:18,930.468529458306,2,44,0.550297200679779,3.873291492462158,38.03895371220831,37.87057795117142,152.7616545822652,136.9470970618238,9.713172767078504e-05,0.0923885703086853,0,0,0
12649,465089.53386385954,2010-12-18 21:48:48,960.483626242226,2,44,0.550297200679779,3.8762054443359375,38.043541104859926,37.87057795117142,152.7794293527094,136.9470970618238,6.47544875391759e-05,0.0923885703086853,0,0,0
12650,465119.5489632148,2010-12-18 21:49:18,990.498725612582,2,44,0.550297200679779,3.879119396209717,38.048128494149154,37.87057795117142,152.7972173850585,136.9470970618238,6.47544875391759e-05,0.0923885703086853,0,0,0
12651,465149.5651876799,2010-12-18 21:49:48,1020.514950147868,2,44,0.550297200679779,3.881709575653076,38.052716067278354,37.87057795117142,152.81501870372415,136.9470970618238,6.47544875391759e-05,0.0923885703086853,0,0,0
12652,465179.5652836549,2010-12-18 21:50:18,1050.5150461078144,2,44,0.550297200679779,3.884299755096436,38.0573011479684,37.87057795117142,152.83282227957108,136.9470970618238,6.47544875391759e-05,0.0923885703086853,0,0,0
12653,465209.5804571046,2010-12-18 21:50:48,1080.5302195926015,2,44,0.550297200679779,3.886566162109375,38.06188859420202,37.87057795117142,152.8506462683656,136.9470970618238,6.47544875391759e-05,0.0923885703086853,0,0,0
12654,465239.5937968462,2010-12-18 21:51:18,1110.5435592439646,2,44,0.550297200679779,3.888994455337525,38.06647574402247,37.87057795117142,152.86847975441486,136.9470970618238,9.713172767078504e-05,0.0923885703086853,0,0,0
12655,465269.60889321903,2010-12-18 21:51:48,1140.558655616862,2,44,0.5501165986061096,3.890937089920044,38.07106317671808,37.87057795117142,152.88632454756035,136.9470970618238,3.237724376958795e-05,0.0923885703086853,0,0,0
12656,465299.62403802754,2010-12-18 21:52:18,1170.5738004252892,2,44,0.550297200679779,3.893203496932984,38.07565069251705,37.87057795117142,152.90417938750156,136.9470970618238,6.47544875391759e-05,0.0923885703086853,0,0,0
12657,465329.6392568952,2010-12-18 21:52:48,1200.58901929301,2,44,0.5501165986061096,3.894984245300293,38.08023815679436,37.87057795117142,152.92204327103286,136.9470970618238,3.237724376958795e-05,0.0923885703086853,0,0,0
12658,465359.65423803136,2010-12-18 21:53:18,1230.604000429145,2,44,0.5501165986061096,3.8967649936676025,38.084825534062006,37.87057795117142,152.93991535097655,136.9470970618238,6.47544875391759e-05,0.0923885703086853,0,0,0
12659,465389.6693690605,2010-12-18 21:53:48,1260.6191314582827,2,44,0.5501165986061096,3.898707628250122,38.08941294069264,37.87057795117142,152.95779632838963,136.9470970618238,3.237724376958795e-05,0.0923885703086853,0,0,0
12660,465419.68446016026,2010-12-18 21:54:18,1290.634222558058,2,44,0.550297200679779,3.9006502628326416,38.09400037824354,37.87057795117142,152.97568594602524,136.9470970618238,6.47544875391759e-05,0.0923885703086853,0,0,0
12661,465449.6995965277,2010-12-18 21:54:48,1320.64935892548,2,44,0.5501165986061096,3.902431011199951,38.09858776344457,37.87057795117142,152.9935836861299,136.9470970618238,6.47544875391759e-05,0.0923885703086853,0,0,0
12662,465479.714757351,2010-12-18 21:55:18,1350.6645198690587,2,44,0.5501165986061096,3.904049873352051,38.10317513150521,37.87057795117142,153.01148950891127,136.9470970618238,3.237724376958795e-05,0.0923885703086853,0,0,0
12663,465509.72982012527,2010-12-18 21:55:48,1380.6795824979854,2,44,0.5501165986061096,3.90583062171936,38.1077625595632,37.87057795117142,153.02940365404345,136.9470970618238,0.0,0.0923885703086853,0,0,0
12664,465539.7450156148,2010-12-18 21:56:18,1410.6947780176054,2,44,0.5501165986061096,3.90777325630188,38.11234998698373,37.87057795117142,153.047325846929,136.9470970618238,6.47544875391759e-05,0.0923885703086853,0,0,0
12665,465569.7600147858,2010-12-18 21:56:48,1440.7097771886197,2,44,0.550297200679779,3.90939211845398,38.11693730563376,37.87057795117142,153.0652555920129,136.9470970618238,0.0,0.0923885703086853,0,0,0
12666,465599.7754090551,2010-12-18 21:57:18,1470.7251714528074,2,44,0.5501165986061096,3.911172866821289,38.12152479472178,37.87057795117142,153.08319398346814,136.9470970618238,3.237724376958795e-05,0.0923885703086853,0,0,0
12667,465629.7902777163,2010-12-18 21:57:48,1500.740040104028,2,44,0.5501165986061096,3.912953615188599,38.1261121559845,37.87057795117142,153.10113981364665,136.9470970618238,6.47544875391759e-05,0.0923885703086853,0,0,0
12668,465659.8054094572,2010-12-18 21:58:18,1530.7551719451865,2,44,0.5501165986061096,3.914734125137329,38.130699545143656,37.87057795117142,153.11909365523,136.9470970618238,3.237724376958795e-05,0.0923885703086853,0,0,0
12669,465689.8205211682,2010-12-18 21:58:48,1560.7702835710402,2,44,0.5501165986061096,3.9161911010742183,38.13528697434844,37.87057795117142,153.137055468773,136.9470970618238,3.237724376958795e-05,0.0923885703086853,0,0,0
12670,465719.8359861534,2010-12-18 21:59:18,1590.7857486063397,2,44,0.5499359965324402,3.917971849441528,38.13987439712373,37.87057795117142,153.1550251721833,136.9470970618238,3.237724376958795e-05,0.0923885703086853,0,0,0
12671,465749.85072894144,2010-12-18 21:59:48,1620.8004913392172,2,44,0.5501165986061096,3.919752597808838,38.14446172241943,37.87057795117142,153.17300232670908,136.9470970618238,6.47544875391759e-05,0.0923885703086853,0,0,0
12672,465779.86584908346,2010-12-18 22:00:18,1650.815611481263,2,44,0.5501165986061096,3.9213714599609375,38.14904912283336,37.87057795117142,153.19098768130902,136.9470970618238,3.237724376958795e-05,0.0923885703086853,0,0,0
12673,465809.88280667295,2010-12-18 22:00:48,1680.8325691258633,2,44,0.5501165986061096,3.923152208328247,38.153636737762255,37.87057795117142,153.20898172493696,136.9470970618238,3.237724376958795e-05,0.0923885703086853,0,0,0
12674,465839.8960833476,2010-12-18 22:01:18,1710.845845745374,2,44,0.550297200679779,3.9249329566955566,38.15822383672462,37.87057795117142,153.22698158555102,136.9470970618238,6.47544875391759e-05,0.0923885703086853,0,0,0
12675,465869.91118327936,2010-12-18 22:01:48,1740.8609456771271,2,44,0.5501165986061096,3.9263899326324463,38.16281120215513,37.87057795117142,153.2449902738796,136.9470970618238,3.237724376958795e-05,0.0923885703086853,0,0,0
12676,465899.9262901484,2010-12-18 22:02:18,1770.8760525461437,2,44,0.5501165986061096,3.928332567214966,38.16739800761175,37.87057795117142,153.2630045412606,136.9470970618238,6.47544875391759e-05,0.0923885703086853,0,0,0
12677,465929.941444706,2010-12-18 22:02:48,1800.8912071038314,2,44,0.550297200679779,3.9301133155822754,38.17198459113102,37.87057795117142,153.28102573202864,136.9470970618238,6.47544875391759e-05,0.0923885703086853,0,0,0
12678,465959.9568355668,2010-12-18 22:03:18,1830.9065980347248,2,44,0.550297200679779,3.931732177734375,38.17657192879712,37.87057795117142,153.29905789795893,136.9470970618238,3.237724376958795e-05,0.0923885703086853,0,0,0
12679,465989.9716633162,2010-12-18 22:03:48,1860.9214257139884,2,44,0.550297200679779,3.9333510398864746,38.18115925025663,37.87057795117142,153.31709791347106,136.9470970618238,3.237724376958795e-05,0.0923885703086853,0,0,0
12680,466019.9867715987,2010-12-18 22:04:18,1890.9365340015345,2,44,0.550297200679779,3.935131788253784,38.18574668311116,37.87057795117142,153.33514627767462,136.9470970618238,0.0,0.0923885703086853,0,0,0
12681,466050.0018991291,2010-12-18 22:04:48,1920.9516615269536,2,44,0.550297200679779,3.937074422836304,38.19033412936385,37.87057795117142,153.35320254795838,136.9470970618238,0.0001295089750783,0.0923885703086853,0,0,0
12682,466080.0171273602,2010-12-18 22:05:18,1950.9668897279,2,44,0.550297200679779,3.9386932849884033,38.194921502904215,37.87057795117142,153.37126649388622,136.9470970618238,6.47544875391759e-05,0.0923885703086853,0,0,0
12683,466110.0321034388,2010-12-18 22:05:48,1980.981865836524,2,44,0.550297200679779,3.940312147140503,38.199508807092194,37.87057795117142,153.38933806646168,136.9470970618238,6.47544875391759e-05,0.0923885703086853,0,0,0
12684,466140.0474481346,2010-12-18 22:06:18,2010.9972105323632,2,44,0.550297200679779,3.942092895507813,38.2040962739269,37.87057795117142,153.40741826800772,136.9470970618238,3.237724376958795e-05,0.0923885703086853,0,0,0
12685,466170.06235232425,2010-12-18 22:06:48,2041.01211472202,2,44,0.550297200679779,3.943711757659912,38.20868362859011,37.87057795117142,153.42550603225146,136.9470970618238,3.237724376958795e-05,0.0923885703086853,0,0,0
12686,466200.0774460606,2010-12-18 22:07:18,2071.027208458356,2,44,0.5501165986061096,3.9454925060272217,38.21327105296398,37.87057795117142,153.44360211394658,136.9470970618238,6.47544875391759e-05,0.0923885703086853,0,0,0
12687,466230.0925665986,2010-12-18 22:07:48,2101.042328996388,2,44,0.550297200679779,3.947435140609741,38.2178585176231,37.87057795117142,153.4617064084356,136.9470970618238,9.713172767078504e-05,0.0923885703086853,0,0,0
12688,466260.1077567348,2010-12-18 22:08:18,2131.05751923286,2,44,0.550297200679779,3.949054002761841,38.222445926842006,37.87057795117142,153.47981854769435,136.9470970618238,3.237724376958795e-05,0.0923885703086853,0,0,0
12689,466290.12279312353,2010-12-18 22:08:48,2161.07255552124,2,44,0.550297200679779,3.9508347511291504,38.2270332668227,37.87057795117142,153.49793844581313,136.9470970618238,3.237724376958795e-05,0.0923885703086853,0,0,0
12690,466320.137896188,2010-12-18 22:09:18,2191.087658590801,2,44,0.5501165986061096,3.95245361328125,38.23162062490724,37.87057795117142,153.51606654063522,136.9470970618238,3.237724376958795e-05,0.0923885703086853,0,0,0
12691,466350.15322596673,2010-12-18 22:09:48,2221.102988459744,2,44,0.5504778623580933,3.95455813407898,38.23620801662522,37.87057795117142,153.53420292950423,136.9470970618238,6.47544875391759e-05,0.0923885703086853,0,0,0
12692,466380.1681459808,2010-12-18 22:10:18,2251.117908383554,2,44,0.5501165986061096,3.956176996231079,38.2407953661174,37.87057795117142,153.55234735817268,136.9470970618238,0.0,0.0923885703086853,0,0,0
12693,466410.185125565,2010-12-18 22:10:48,2281.134888037925,2,44,0.5501165986061096,3.958119630813599,38.245383136307005,37.87057795117142,153.57050165063308,136.9470970618238,6.47544875391759e-05,0.0923885703086853,0,0,0
12694,466440.198362606,2010-12-18 22:11:18,2311.148125003759,2,44,0.550297200679779,3.959900379180908,38.24997026253801,37.87057795117142,153.5886616776378,136.9470970618238,3.237724376958795e-05,0.0923885703086853,0,0,0
12695,466470.21346712415,2010-12-18 22:11:48,2341.1632295219256,2,44,0.5501165986061096,3.9616811275482178,38.25455769421945,37.87057795117142,153.60683132536633,136.9470970618238,6.47544875391759e-05,0.0923885703086853,0,0,0
12696,466500.22857466986,2010-12-18 22:12:18,2371.1783370726384,2,44,0.5497553944587708,3.9634618759155273,38.25914508605713,37.87057795117142,153.6250091609675,136.9470970618238,6.47544875391759e-05,0.0923885703086853,0,0,0
12697,466530.24370435067,2010-12-18 22:12:49,2401.1934667484084,2,44,0.550297200679779,3.965404510498047,38.26373249652509,37.87057795117142,153.6431955724406,136.9470970618238,9.713172767078504e-05,0.0923885703086853,0,0,0
12698,466560.2589601302,2010-12-18 22:13:19,2431.208722527984,2,44,0.5501165986061096,3.967185258865357,38.26831994363129,37.87057795117142,153.6613907571138,136.9470970618238,3.237724376958795e-05,0.0923885703086853,0,0,0
12699,466590.2740456812,2010-12-18 22:13:49,2461.2238080839625,2,44,0.550297200679779,3.969127893447876,38.27290739960638,37.87057795117142,153.6795944494572,136.9470970618238,3.237724376958795e-05,0.0923885703086853,0,0,0
12700,466620.2890511328,2010-12-18 22:14:19,2491.238813610793,2,44,0.5501165986061096,3.9709086418151855,38.27749485129653,37.87057795117142,153.69780693807928,136.9470970618238,3.237724376958795e-05,0.0923885703086853,0,0,0
12701,466650.304288271,2010-12-18 22:14:49,2521.2540506737923,2,44,0.550297200679779,3.972851276397705,38.28208226722346,37.87057795117142,153.71602800641446,136.9470970618238,6.47544875391759e-05,0.0923885703086853,0,0,0
12702,466680.31925812905,2010-12-18 22:15:19,2551.269020526849,2,44,0.5501165986061096,3.9747939109802246,38.28666970656234,37.87057795117142,153.7342580083448,136.9470970618238,0.0,0.0923885703086853,0,0,0
12703,466710.3343739303,2010-12-18 22:15:49,2581.284136328093,2,44,0.5501165986061096,3.976736545562744,38.29125716332108,37.87057795117142,153.75249695270193,136.9470970618238,3.237724376958795e-05,0.0923885703086853,0,0,0
12704,466740.34949148085,2010-12-18 22:16:19,2611.2992538786903,2,44,0.550297200679779,3.9788410663604736,38.2958445959147,37.87057795117142,153.77074451751506,136.9470970618238,9.713172767078504e-05,0.0923885703086853,0,0,0
12705,466770.3646553969,2010-12-18 22:16:49,2641.314417894915,2,44,0.550297200679779,3.980783700942993,38.300432061253545,37.87057795117142,153.78900182067153,136.9470970618238,6.47544875391759e-05,0.0923885703086853,0,0,0
12706,466800.3797355694,2010-12-18 22:17:19,2671.329498037424,2,44,0.5501165986061096,3.9827263355255127,38.30501944212877,37.87057795117142,153.80726804141406,136.9470970618238,0.0,0.0923885703086853,0,0,0
12707,466830.3949480362,2010-12-18 22:17:49,2701.3447104941915,2,44,0.550297200679779,3.984830856323242,38.30960681184263,37.87057795117142,153.82554346390165,136.9470970618238,3.237724376958795e-05,0.0923885703086853,0,0,0
12708,466860.409959147,2010-12-18 22:18:19,2731.359721544767,2,44,0.5499359965324402,3.9867734909057617,38.314194115692,37.87057795117142,153.84382811652222,136.9470970618238,3.237724376958795e-05,0.0923885703086853,0,0,0
12709,466890.4250634496,2010-12-18 22:18:49,2761.3748258524097,2,44,0.5501165986061096,3.989201784133911,38.31878147801065,37.87057795117142,153.86212252522463,136.9470970618238,9.713172767078504e-05,0.0923885703086853,0,0,0
12710,466920.4401817271,2010-12-18 22:19:19,2791.3899441298154,2,44,0.550297200679779,3.991144418716431,38.32336881309501,37.87057795117142,153.88042649152615,136.9470970618238,3.237724376958795e-05,0.0923885703086853,0,0,0
12711,466950.455278476,2010-12-18 22:19:49,2821.405040873636,2,44,0.5501165986061096,3.99324893951416,38.327956158249165,37.87057795117142,153.8987402893045,136.9470970618238,3.237724376958795e-05,0.0923885703086853,0,0,0
12712,466980.47043246205,2010-12-18 22:20:19,2851.4201949150383,2,44,0.5501165986061096,3.995353221893311,38.33254351941241,37.87057795117142,153.91706395225987,136.9470970618238,3.237724376958795e-05,0.0923885703086853,0,0,0
12713,467010.4873739565,2010-12-18 22:20:49,2881.4371365297493,2,44,0.5499359965324402,3.99761962890625,38.33713113554877,37.87057795117142,153.93539864186795,136.9470970618238,6.47544875391759e-05,0.0923885703086853,0,0,0
12714,467040.50062852114,2010-12-18 22:21:19,2911.4503909189407,2,44,0.5501165986061096,3.9998860359191895,38.341718206894114,37.87057795117142,153.95374117310325,136.9470970618238,3.237724376958795e-05,0.0923885703086853,0,0,0
12715,467070.5158543914,2010-12-18 22:21:49,2941.465616794099,2,44,0.550297200679779,4.002152442932129,38.34630554840612,37.87057795117142,153.97209504240803,136.9470970618238,9.70840483205393e-05,0.0923885703086853,0,0,0
12716,467100.53155774967,2010-12-18 22:22:19,2971.481320347943,2,44,0.5501165986061096,4.0042572021484375,38.35089302006286,37.87057795117142,153.9904597443141,136.9470970618238,3.24249267578125e-05,0.0923885703086853,0,0,0
12717,467130.5331377476,2010-12-18 22:22:49,3001.4829002355864,2,44,0.550297200679779,4.006847381591797,38.35547821440965,37.87057795117142,154.00882575389008,136.9470970618238,3.24249267578125e-05,0.0923885703086853,0,0,0
12718,467160.5455043375,2010-12-18 22:23:19,3031.495266825524,2,44,0.5501165986061096,4.008790016174316,38.36006512816039,37.87057795117142,154.0272092398116,136.9470970618238,0.0,0.0923885703086853,0,0,0
12719,467190.56068495504,2010-12-18 22:23:49,3061.5104473377983,2,44,0.550297200679779,4.011380195617676,38.36465249790825,37.87057795117142,154.0456051827927,136.9470970618238,6.47544875391759e-05,0.0923885703086853,0,0,0
12720,467220.57567419135,2010-12-18 22:24:19,3091.525436589128,2,44,0.550297200679779,4.013646602630615,38.36923987438889,37.87057795117142,154.06401195035988,136.9470970618238,6.47544875391759e-05,0.0923885703086853,0,0,0
12721,467250.590778118,2010-12-18 22:24:49,3121.5405405158217,2,44,0.550297200679779,4.0160746574401855,38.37382725424287,37.87057795117142,154.0824296040243,136.9470970618238,3.23295607813634e-05,0.0923885703086853,0,0,0
12722,467280.6060307048,2010-12-18 22:25:19,3151.555793102451,2,44,0.550297200679779,4.018341064453125,38.37841464496015,37.87057795117142,154.1008582841757,136.9470970618238,3.23295607813634e-05,0.0923885703086853,0,0,0
12723,467310.6210134949,2010-12-18 22:25:49,3181.5707758927024,2,44,0.5501165986061096,4.0207695960998535,38.38300198342561,37.87057795117142,154.119297771915,136.9470970618238,6.47544875391759e-05,0.0923885703086853,0,0,0
12724,467340.636147281,2010-12-18 22:26:19,3211.5859096787003,2,44,0.550297200679779,4.023521423339844,38.387589263110016,37.87057795117142,154.13774828622158,136.9470970618238,9.70840483205393e-05,0.0923885703086853,0,0,0
12725,467370.65123276674,2010-12-18 22:26:49,3241.600995164505,2,44,0.5501165986061096,4.025787830352783,38.39217659087586,37.87057795117142,154.15621030673955,136.9470970618238,6.47544875391759e-05,0.0923885703086853,0,0,0
12726,467400.6663614049,2010-12-18 22:27:19,3271.616123802693,2,44,0.550297200679779,4.028378009796143,38.39676396316203,37.87057795117142,154.17468394563625,136.9470970618238,9.70840483205393e-05,0.0923885703086853,0,0,0
12727,467430.6814578079,2010-12-18 22:27:49,3301.6312202106774,2,44,0.550297200679779,4.030806541442871,38.40135130214905,37.87057795117142,154.19316891659614,136.9470970618238,6.47544875391759e-05,0.0923885703086853,0,0,0
12728,467460.6965656694,2010-12-18 22:28:19,3331.646328067152,2,44,0.5501165986061096,4.033396720886231,38.40593864003655,37.87057795117142,154.21166558518087,136.9470970618238,6.47544875391759e-05,0.0923885703086853,0,0,0
12729,467490.7116908941,2010-12-18 22:28:49,3361.661453296858,2,44,0.550297200679779,4.035986423492432,38.41052599909882,37.87057795117142,154.23017412932896,136.9470970618238,3.23295607813634e-05,0.0923885703086853,0,0,0
12730,467520.72680663015,2010-12-18 22:29:19,3391.676569027927,2,44,0.550297200679779,4.038576602935791,38.41511331652114,37.87057795117142,154.24869434942167,136.9470970618238,6.47544875391759e-05,0.0923885703086853,0,0,0
12731,467550.7421794109,2010-12-18 22:29:49,3421.6919418788293,2,44,0.5504778623580933,4.04132890701294,38.4197007174852,37.87057795117142,154.26722685324094,136.9470970618238,9.71794142969884e-05,0.0923885703086853,0,0,0
12732,467580.75701943086,2010-12-18 22:30:19,3451.7067818135897,2,44,0.5501165986061096,4.04375696182251,38.42428805849104,37.87057795117142,154.28577117077907,136.9470970618238,3.23295607813634e-05,0.0923885703086853,0,0,0
12733,467610.77229452354,2010-12-18 22:30:49,3481.7220569914366,2,44,0.550297200679779,4.046509265899658,38.42887543675448,37.87057795117142,154.30432781825263,136.9470970618238,9.71794142969884e-05,0.0923885703086853,0,0,0
12734,467640.78914414434,2010-12-18 22:31:19,3511.738906597186,2,44,0.5499359965324402,4.049261093139648,38.43346310257503,37.87057795117142,154.32289798542806,136.9470970618238,9.70840483205393e-05,0.0923885703086853,0,0,0
12735,467670.8025923207,2010-12-18 22:31:49,3541.7523547084475,2,44,0.550297200679779,4.052013397216797,38.4380501871704,37.87057795117142,154.34147813872613,136.9470970618238,9.71794142969884e-05,0.0923885703086853,0,0,0
12736,467700.817480696,2010-12-18 22:32:19,3571.767243184,2,44,0.550297200679779,4.054603576660156,38.44263743708694,37.87057795117142,154.3600714308181,136.9470970618238,3.24249267578125e-05,0.0923885703086853,0,0,0
12737,467730.8325997002,2010-12-18 22:32:49,3601.78236209799,2,44,0.550297200679779,4.0573554039001465,38.44722480690291,37.87057795117142,154.37867785999217,136.9470970618238,6.47544875391759e-05,0.0923885703086853,0,0,0
12738,467760.8477337719,2010-12-18 22:33:19,3631.7974961546615,2,44,0.550297200679779,4.060269355773926,38.45181217900781,37.87057795117142,154.39729707667794,136.9470970618238,9.70840483205393e-05,0.0923885703086853,0,0,0
12739,467790.8628228516,2010-12-18 22:33:49,3661.81258525446,2,44,0.550297200679779,4.062859535217285,38.456399511646254,37.87057795117142,154.41592856874863,136.9470970618238,6.47544875391759e-05,0.0923885703086853,0,0,0
12740,467820.8779251394,2010-12-18 22:34:19,3691.827687542075,2,44,0.550297200679779,4.0657734870910645,38.46098682049839,37.87057795117142,154.43457297234622,136.9470970618238,9.70840483205393e-05,0.0923885703086853,0,0,0
12741,467850.8930457876,2010-12-18 22:34:49,3721.842808185369,2,44,0.550297200679779,4.068687438964844,38.4655741242398,37.87057795117142,154.45323038933603,136.9470970618238,6.47544875391759e-05,0.0923885703086853,0,0,0
12742,467880.9081650024,2010-12-18 22:35:19,3751.857927400107,2,44,0.5499359965324402,4.071439743041992,38.470161495490906,37.87057795117142,154.47190128869738,136.9470970618238,9.71794142969884e-05,0.0923885703086853,0,0,0
12743,467910.92351761786,2010-12-18 22:35:49,3781.8732800156554,2,44,0.550297200679779,4.074353694915772,38.47474888647989,37.87057795117142,154.4905855392173,136.9470970618238,6.47544875391759e-05,0.0923885703086853,0,0,0
12744,467940.9384005296,2010-12-18 22:36:19,3811.888162932375,2,44,0.5501165986061096,4.077267646789551,38.47933620390207,37.87057795117142,154.50928290622954,136.9470970618238,6.47544875391759e-05,0.0923885703086853,0,0,0
12745,467970.95358460577,2010-12-18 22:36:49,3841.9033470937297,2,44,0.5501165986061096,4.08018159866333,38.483923488433945,37.87057795117142,154.52799366212088,136.9470970618238,9.71794142969884e-05,0.0923885703086853,0,0,0
12746,468000.968740176,2010-12-18 22:37:19,3871.918502573712,2,44,0.550297200679779,4.08358097076416,38.48851079596052,37.87057795117142,154.54671811670693,136.9470970618238,0.0001618385285837,0.0923885703086853,0,0,0
12747,468030.9837232619,2010-12-18 22:37:49,3901.933485664712,2,44,0.5501165986061096,4.086333274841309,38.4930980879389,37.87057795117142,154.5654562667937,136.9470970618238,6.47544875391759e-05,0.0923885703086853,0,0,0
12748,468060.9988319354,2010-12-18 22:38:19,3931.948594333207,2,44,0.5499359965324402,4.089247226715088,38.49768542341614,37.87057795117142,154.58420845193567,136.9470970618238,6.47544875391759e-05,0.0923885703086853,0,0,0
12749,468091.0141620751,2010-12-18 22:38:49,3961.9639244577857,2,44,0.550297200679779,4.092484951019287,38.50227281929592,37.87057795117142,154.60297486504683,136.9470970618238,9.71794142969884e-05,0.0923885703086853,0,0,0
12750,468121.02907442,2010-12-18 22:39:19,3991.978836822786,2,44,0.550297200679779,4.095560550689697,38.50686011129923,37.87057795117142,154.62175491473482,136.9470970618238,9.70840483205393e-05,0.0923885703086853,0,0,0
12751,468151.04417553474,2010-12-18 22:39:49,4021.993937932471,2,44,0.5501165986061096,4.098474502563477,38.51144743229203,37.87057795117142,154.64054926512867,136.9470970618238,6.47544875391759e-05,0.0923885703086853,0,0,0
12752,468181.0593058872,2010-12-18 22:40:19,4052.009068269888,2,44,0.550297200679779,4.101712226867676,38.516034777316,37.87057795117142,154.65935807301162,136.9470970618238,6.47544875391759e-05,0.0923885703086853,0,0,0
12753,468211.0744119291,2010-12-18 22:40:49,4082.024174331895,2,44,0.5504778623580933,4.104949951171875,38.52062216033367,37.87057795117142,154.67818139614818,136.9470970618238,6.47544875391759e-05,0.0923885703086853,0,0,0
12754,468241.0913506165,2010-12-18 22:41:19,4112.041113094509,2,44,0.550297200679779,4.108187675476074,38.52520975136864,37.87057795117142,154.6970201945892,136.9470970618238,0.0001295089750783,0.0923885703086853,0,0,0
12755,468271.1046319328,2010-12-18 22:41:49,4142.05439433552,2,44,0.550297200679779,4.111263751983643,38.5297967739297,37.87057795117142,154.71587132049743,136.9470970618238,6.47544875391759e-05,0.0923885703086853,0,0,0
12756,468301.1197409471,2010-12-18 22:42:19,4172.069503344862,2,44,0.550297200679779,4.114501476287842,38.53438413907774,37.87057795117142,154.7347386064488,136.9470970618238,9.71794142969884e-05,0.0923885703086853,0,0,0
12757,468331.1349828571,2010-12-18 22:42:49,4202.084745244898,2,44,0.550297200679779,4.117738723754883,38.538971470127095,37.87057795117142,154.75362063530486,136.9470970618238,6.47544875391759e-05,0.0923885703086853,0,0,0
12758,468361.149985577,2010-12-18 22:43:19,4232.099747974768,2,44,0.550297200679779,4.121138572692871,38.54355885883838,37.87057795117142,154.77251787774796,136.9470970618238,9.71794142969884e-05,0.0923885703086853,0,0,0
12759,468391.1651021,2010-12-18 22:43:49,4262.114864482771,2,44,0.5501165986061096,4.12437629699707,38.54814619841111,37.87057795117142,154.7914299847164,136.9470970618238,9.71794142969884e-05,0.0923885703086853,0,0,0
12760,468421.1801898565,2010-12-18 22:44:19,4292.129952254264,2,44,0.550297200679779,4.1277756690979,38.55273347383744,37.87057795117142,154.81035704036498,136.9470970618238,0.0001295089750783,0.0923885703086853,0,0,0
12761,468451.19530477055,2010-12-18 22:44:49,4322.145067153262,2,44,0.5501165986061096,4.1310133934021,38.55732079257357,37.87057795117142,154.82929961511988,136.9470970618238,9.70840483205393e-05,0.0923885703086853,0,0,0
12762,468481.2104445314,2010-12-18 22:45:20,4352.160206934178,2,44,0.550297200679779,4.134413242340088,38.56190813955707,37.87057795117142,154.84825779546503,136.9470970618238,9.71794142969884e-05,0.0923885703086853,0,0,0
12763,468511.2256602964,2010-12-18 22:45:50,4382.175422699179,2,44,0.550297200679779,4.137650966644287,38.566495533084726,37.87057795117142,154.86723172005065,136.9470970618238,6.47544875391759e-05,0.0923885703086853,0,0,0
12764,468541.2405464862,2010-12-18 22:46:20,4412.190308889043,2,44,0.550297200679779,4.141374111175537,38.57108287237445,37.87057795117142,154.8862211399533,136.9470970618238,6.47544875391759e-05,0.0923885703086853,0,0,0
12765,468571.2558872173,2010-12-18 22:46:50,4442.205649670141,2,44,0.5501165986061096,4.144773960113525,38.575670359877854,37.87057795117142,154.90522702697606,136.9470970618238,6.47544875391759e-05,0.0923885703086853,0,0,0
12766,468601.27087786206,2010-12-18 22:47:20,4472.220640244764,2,44,0.5501165986061096,4.148173332214356,38.58025773139497,37.87057795117142,154.92424861668053,136.9470970618238,6.47544875391759e-05,0.0923885703086853,0,0,0
12767,468631.2859673378,2010-12-18 22:47:50,4502.235729720496,2,44,0.5501165986061096,4.151734828948975,38.58484505199793,37.87057795117142,154.94328595763994,136.9470970618238,9.70840483205393e-05,0.0923885703086853,0,0,0
12768,468661.30099114514,2010-12-18 22:48:20,4532.250753547867,2,44,0.550297200679779,4.155296325683594,38.58943248254662,37.87057795117142,154.96233982418548,136.9470970618238,9.70840483205393e-05,0.0923885703086853,0,0,0
12769,468691.3161784994,2010-12-18 22:48:50,4562.265940902168,2,44,0.5501165986061096,4.158696174621582,38.59401990651919,37.87057795117142,154.98140986646413,136.9470970618238,6.47544875391759e-05,0.0923885703086853,0,0,0
12770,468721.331296446,2010-12-18 22:49:20,4592.281058848751,2,44,0.550297200679779,4.162257671356201,38.59860733043914,37.87057795117142,155.00049622113903,136.9470970618238,6.47544875391759e-05,0.0923885703086853,0,0,0
12771,468751.34643833205,2010-12-18 22:49:50,4622.296200734906,2,44,0.5504778623580933,4.165980815887451,38.60319478799887,37.87057795117142,155.01959911180643,136.9470970618238,0.0001295089750783,0.0923885703086853,0,0,0
12772,468781.3615560732,2010-12-18 22:50:20,4652.311318475977,2,44,0.550297200679779,4.16954231262207,38.60778215327806,37.87057795117142,155.03871821423323,136.9470970618238,6.47544875391759e-05,0.0923885703086853,0,0,0
12773,468811.37686074944,2010-12-18 22:50:50,4682.326623132179,2,44,0.550297200679779,4.173265933990479,38.6123695998294,37.87057795117142,155.05785435326635,136.9470970618238,9.71794142969884e-05,0.0923885703086853,0,0,0
12774,468841.39382106566,2010-12-18 22:51:20,4712.343583538653,2,44,0.5501165986061096,4.1769890785217285,38.616957301015965,37.87057795117142,155.0770083358775,136.9470970618238,9.70840483205393e-05,0.0923885703086853,0,0,0
12775,468871.4069021787,2010-12-18 22:51:50,4742.356664576465,2,44,0.550297200679779,4.180550575256348,38.621544454574575,37.87057795117142,155.0961768705862,136.9470970618238,9.70840483205393e-05,0.0923885703086853,0,0,0
12776,468901.4220072232,2010-12-18 22:52:20,4772.371769605904,2,44,0.550297200679779,4.184435844421387,38.62613186517732,37.87057795117142,155.11536345405037,136.9470970618238,0.0001295089750783,0.0923885703086853,0,0,0
12777,468931.43714786624,2010-12-18 22:52:50,4802.386910269015,2,44,0.550297200679779,4.187997341156006,38.63071930030993,37.87057795117142,155.1345671759897,136.9470970618238,6.47544875391759e-05,0.0923885703086853,0,0,0
12778,468961.4522541438,2010-12-18 22:53:20,4832.402016546561,2,44,0.550297200679779,4.191882610321045,38.63530675423153,37.87057795117142,155.15378822056147,136.9470970618238,0.0001295089750783,0.0923885703086853,0,0,0
12779,468991.46738636587,2010-12-18 22:53:50,4862.417148763654,2,44,0.550297200679779,4.195444107055664,38.639894196531245,37.87057795117142,155.1730265064698,136.9470970618238,6.47544875391759e-05,0.0923885703086853,0,0,0
12780,469021.4824822526,2010-12-18 22:54:20,4892.432244640317,2,44,0.5501165986061096,4.199329376220703,38.64448165546945,37.87057795117142,155.19228223476568,136.9470970618238,9.71794142969884e-05,0.0923885703086853,0,0,0
12781,469026.0448825753,2010-12-18 22:54:24,4896.99464497808,2,44,0.5501165986061096,4.200138568878174,38.64517894582707,37.87057795117142,155.19521062023395,136.9470970618238,0.0001618385285837,0.0923885703086853,0,0,0
12782,469056.074493993,2010-12-18 22:54:54,30.01511647291529,3,44,0.0,4.112720489501953,38.64517894582707,37.87057795117142,155.19521062023395,136.9470970618238,-0.0003885269106831,0.0923885703086853,0,0,0
12783,469086.08963107225,2010-12-18 22:55:25,60.03025361727067,3,44,0.0,4.101874351501465,38.64517894582707,37.87057795117142,155.19521062023395,136.9470970618238,-0.0001618385285837,0.0923885703086853,0,0,0
12784,469116.1048450278,2010-12-18 22:55:55,90.04546757778007,3,44,0.0,4.095398902893066,38.64517894582707,37.87057795117142,155.19521062023395,136.9470970618238,-0.0001295089750783,0.0923885703086853,0,0,0
12785,469146.0729654428,2010-12-18 22:56:24,120.0135879878004,3,44,0.0,4.091027736663818,38.64517894582707,37.87057795117142,155.19521062023395,136.9470970618238,-9.71794142969884e-05,0.0923885703086853,0,0,0
12786,469146.0738734884,2010-12-18 22:56:25,2.681673241e-06,4,44,1.0117539167404177,4.199814796447754,38.645178946580735,37.87057795117142,155.1952106233992,136.9470970618238,0.0,0.0923885703086853,0,0,0
12787,469146.8394817752,2010-12-18 22:56:25,0.765611013560668,4,44,0.9610027074813844,4.199653148651123,38.64538737045971,37.87057795117142,155.19608594134823,136.9470970618238,-3.23295607813634e-05,0.0923885703086853,0,0,0
12788,469148.6675831101,2010-12-18 22:56:27,2.593712348420878,4,44,0.9104321002960204,4.199653148651123,38.6458614682544,37.87057795117142,155.19807703210407,136.9470970618238,-3.23295607813634e-05,0.0923885703086853,0,0,0
12789,469151.4489086416,2010-12-18 22:56:30,5.375037880032235,4,44,0.8602227568626404,4.199491024017334,38.64654439943682,37.87057795117142,155.20094516030997,136.9470970618238,0.0,0.0923885703086853,0,0,0
12790,469155.323710076,2010-12-18 22:56:34,9.249839314370762,4,44,0.8101939558982849,4.199814796447754,38.647442139640745,37.87057795117142,155.20471543830627,136.9470970618238,3.23295607813634e-05,0.0923885703086853,0,0,0
12791,469160.433004248,2010-12-18 22:56:39,14.359133461344191,4,44,0.7599846124649048,4.199653148651123,38.6485549394053,37.87057795117142,155.20938893267947,136.9470970618238,-3.23295607813634e-05,0.0923885703086853,0,0,0
12792,469167.0891369382,2010-12-18 22:56:46,21.01526617158853,4,44,0.7097752094268799,4.199653148651123,38.64991179750129,37.87057795117142,155.2150874055608,136.9470970618238,-3.23295607813634e-05,0.0923885703086853,0,0,0
12793,469175.854729448,2010-12-18 22:56:54,29.780858666373632,4,44,0.6597464680671692,4.199653148651123,38.65157660040782,37.87057795117142,155.2220791785537,136.9470970618238,-3.23295607813634e-05,0.0923885703086853,0,0,0
12794,469187.99686339137,2010-12-18 22:57:07,41.92299269991093,4,44,0.6097176671028137,4.199653148651123,38.653713514032354,37.87057795117142,155.23105374600746,136.9470970618238,0.0,0.0923885703086853,0,0,0
12795,469206.1041317021,2010-12-18 22:57:25,60.03026101568133,4,44,0.559688925743103,4.199814796447754,38.65664630173107,37.87057795117142,155.24337077634496,136.9470970618238,0.0,0.0923885703086853,0,0,0
12796,469236.27545022784,2010-12-18 22:57:55,90.20157944616024,4,44,0.5096601247787476,4.199653148651123,38.66110916755724,37.87057795117142,155.26211381674844,136.9470970618238,-3.23295607813634e-05,0.0923885703086853,0,0,0
12797,469291.7901327301,2010-12-18 22:58:50,145.71626196843687,4,44,0.459450751543045,4.199653148651123,38.668546728711945,37.87057795117142,155.29334991388473,136.9470970618238,-3.23295607813634e-05,0.0923885703086853,0,0,0
12798,469382.0698534828,2010-12-18 23:00:21,235.9959827212332,4,44,0.4094219803810119,4.199653148651123,38.679411710664304,37.87057795117142,155.3389803949024,136.9470970618238,-3.23295607813634e-05,0.0923885703086853,0,0,0
12799,469498.67737590754,2010-12-18 23:02:17,352.60350513084484,4,44,0.3593932092189789,4.199653148651123,38.691842362728096,37.87057795117142,155.39118625610462,136.9470970618238,0.0,0.0923885703086853,0,0,0
12800,469637.3936376797,2010-12-18 23:04:36,491.3197669180614,4,44,0.3093644380569458,4.199653148651123,38.70471027208355,37.87057795117142,155.4452285324136,136.9470970618238,-3.23295607813634e-05,0.0923885703086853,0,0,0
12801,469804.0158270444,2010-12-18 23:07:23,657.9419562777373,4,44,0.2593356668949127,4.199814796447754,38.71784913743421,37.87057795117142,155.50040879372582,136.9470970618238,0.0,0.0923885703086853,0,0,0
12802,470009.7154329872,2010-12-18 23:10:48,863.6415622206027,4,44,0.2093069106340408,4.199653148651123,38.73120396815513,37.87057795117142,155.55649599738905,136.9470970618238,0.0,0.0923885703086853,0,0,0
12803,470285.4451125348,2010-12-18 23:15:24,1139.3712417681693,4,44,0.1592781394720077,4.199653148651123,38.74523792953939,37.87057795117142,155.61543541064825,136.9470970618238,-3.23295607813634e-05,0.0923885703086853,0,0,0
12804,470697.0632299285,2010-12-18 23:22:16,1550.9893591618372,4,44,0.1092493683099746,4.199653148651123,38.76039847608715,37.87057795117142,155.6791063374288,136.9470970618238,-3.23295607813634e-05,0.0923885703086853,0,0,0
12805,471477.69064757816,2010-12-18 23:35:16,2331.6167768817018,4,44,0.0592206008732318,4.199653148651123,38.77807340113604,37.87057795117142,155.7533370132308,136.9470970618238,0.0,0.0923885703086853,0,0,0
12806,471713.1551370389,2010-12-18 23:39:12,2567.081266272224,4,44,0.0498289167881011,4.199653148651123,38.78166605311815,37.87057795117142,155.76842522775183,136.9470970618238,0.0,0.0923885703086853,0,0,0
12807,471743.1816085199,2010-12-18 23:39:42,30.013075368705973,5,44,0.0,4.191558837890625,38.78166605311815,37.87057795117142,155.76842522775183,136.9470970618238,-6.47544875391759e-05,0.0923885703086853,0,0,0
12808,471773.1810239613,2010-12-18 23:40:12,60.01249063477192,5,44,0.0,4.190263748168945,38.78166605311815,37.87057795117142,155.76842522775183,136.9470970618238,0.0,0.0923885703086853,0,0,0
12809,471773.38310068654,2010-12-18 23:40:12,0.187641959799964,6,44,-1.9243103452026844e-05,4.190587520599365,38.78166605311815,37.87057795217442,155.76842522775183,136.94709706602697,0.0,0.0956302732229232,0,0,0
12810,471778.2109792968,2010-12-18 23:40:17,5.015520544971525,6,44,0.0007031940040178,4.190263748168945,38.7816668422431,37.87057795225692,155.76842853447187,136.9470970663727,0.0,0.0956302732229232,0,0,0
12811,471808.2250452037,2010-12-18 23:40:47,30.015270606470715,7,44,-1.099568486213684,4.009922981262207,38.7816668422431,37.87974687660067,155.76842853447187,136.98407204288242,-0.0010037422180175,0.0956302732229232,0,0,0
12812,471838.2400668807,2010-12-18 23:41:17,60.030292298527485,7,44,-1.0997490882873535,3.981269359588623,38.7816668422431,37.888915703021205,155.76842853447187,137.0206972918217,-0.0006475448608398,0.0956302732229232,0,0,0
12813,471868.2551985363,2010-12-18 23:41:47,90.04542395422455,7,44,-1.0997490882873535,3.961519241333008,38.7816668422431,37.89808444694744,155.76842853447187,137.0571060593433,-0.0004856586456298,0.0956302732229232,0,0,0
12814,471898.27044536365,2010-12-18 23:42:17,120.06067086172128,7,44,-1.0997490882873535,3.9461400508880615,38.7816668422431,37.90725328176634,155.76842853447187,137.0933557058139,-0.0003561496851034,0.0956302732229232,0,0,0
12815,471928.2873616051,2010-12-18 23:42:47,150.0775871133166,7,44,-1.099568486213684,3.9327034950256343,38.7816668422431,37.91642259354414,155.76842853447187,137.1294759796712,-0.0003561496851034,0.0956302732229232,0,0,0
12816,471958.3005672782,2010-12-18 23:43:17,180.09079268101777,7,44,-1.099568486213684,3.9207239151000977,38.7816668422431,37.92559081489511,155.76842853447187,137.16547570571586,-0.0002913951757363,0.0956302732229232,0,0,0
12817,471988.3156368093,2010-12-18 23:43:47,210.10586221212017,7,44,-1.0997490882873535,3.90939211845398,38.7816668422431,37.93475962662091,155.76842853447187,137.20137081704698,-0.0002590179501567,0.0956302732229232,0,0,0
12818,472018.3307586105,2010-12-18 23:44:17,240.1209840283321,7,44,-1.099568486213684,3.898545742034912,38.7816668422431,37.94392839431674,155.76842853447187,137.23716492320185,-0.0002913951757363,0.0956302732229232,0,0,0
12819,472048.3458815696,2010-12-18 23:44:47,270.1361069924003,7,44,-1.0997490882873535,3.8881850242614746,38.7816668422431,37.95309709831653,155.76842853447187,137.27286251201798,-0.0002913951757363,0.0956302732229232,0,0,0
12820,472078.3610126889,2010-12-18 23:45:17,300.1512381769249,7,44,-1.0997490882873535,3.878148078918457,38.7816668422431,37.962265838816826,155.76842853447187,137.30846664389497,-0.0002913951757363,0.0956302732229232,0,0,0
12821,472108.37609953294,2010-12-18 23:45:47,330.16632495093563,7,44,-1.099568486213684,3.8684349060058594,38.7816668422431,37.97143464697581,155.76842853447187,137.3439797690654,-0.0002266406954731,0.0956302732229232,0,0,0
12822,472138.3913873324,2010-12-18 23:46:17,360.18161278026474,7,44,-1.099568486213684,3.858883619308472,38.7816668422431,37.98060350822264,155.76842853447187,137.37940425643157,-0.0001942634553415,0.0956302732229232,0,0,0
12823,472168.4063154715,2010-12-18 23:46:47,390.1965408894442,7,44,-1.0997490882873535,3.849170446395874,38.7816668422431,37.98977207543701,155.76842853447187,137.4147404897819,-0.0003237724304199,0.0956302732229232,0,0,0
12824,472198.4215309709,2010-12-18 23:47:17,420.2117564589575,7,44,-1.099568486213684,3.840266704559326,38.7816668422431,37.99894077749794,155.76842853447187,137.44999203607773,-0.0002590179501567,0.0956302732229232,0,0,0
12825,472228.4365733344,2010-12-18 23:47:47,450.2267988224543,7,44,-1.099568486213684,3.831201314926148,38.7816668422431,38.00810956184377,155.76842853447187,137.48516041338976,-0.0002266406954731,0.0956302732229232,0,0,0
12826,472258.45169652905,2010-12-18 23:48:17,480.2419219318843,7,44,-1.0997490882873535,3.8224594593048096,38.7816668422431,38.01727829373209,155.76842853447187,137.52024648746246,-0.0001942634553415,0.0956302732229232,0,0,0
12827,472288.4668176636,2010-12-18 23:48:47,510.2570430664,7,44,-1.0997490882873535,3.813717603683472,38.7816668422431,38.02644709953922,155.76842853447187,137.55525294081656,-0.0002266406954731,0.0956302732229232,0,0,0
12828,472318.4819627326,2010-12-18 23:49:17,540.2721881354756,7,44,-1.0997490882873535,3.8052995204925537,38.7816668422431,38.03561591615402,155.76842853447187,137.59018110007003,-0.0001618862152099,0.0956302732229232,0,0,0
12829,472348.49707120063,2010-12-18 23:49:47,570.287296603471,7,44,-1.099568486213684,3.7970433235168457,38.7816668422431,38.0447846918528,155.76842853447187,137.62503269700096,-0.0001942634553415,0.0956302732229232,0,0,0
12830,472378.5122439034,2010-12-18 23:50:17,600.3024693965368,7,44,-1.099568486213684,3.788949012756348,38.7816668422431,38.05395346678912,155.76842853447187,137.65980988106526,-0.0002266406954731,0.0956302732229232,0,0,0
12831,472408.5272907382,2010-12-18 23:50:47,630.3175161559727,7,44,-1.099929690361023,3.7811784744262695,38.7816668422431,38.06312224366467,155.76842853447187,137.69451461282677,-0.0001942634553415,0.0956302732229232,0,0,0
12832,472438.54262889264,2010-12-18 23:51:17,660.3328543005093,7,44,-1.0997490882873535,3.7737317085266113,38.7816668422431,38.07229110587115,155.76842853447187,137.72914920553805,-0.0001942634553415,0.0956302732229232,0,0,0
12833,472468.5574956392,2010-12-18 23:51:47,690.3477210419775,7,44,-1.0997490882873535,3.766123056411743,38.7816668422431,38.08145983705874,155.76842853447187,137.76371417349336,-0.0002266406954731,0.0956302732229232,0,0,0
12834,472498.57270296814,2010-12-18 23:52:17,720.3629284762467,7,44,-1.099568486213684,3.759000062942505,38.7816668422431,38.09062867437478,155.76842853447187,137.7982121102417,-0.0001942634553415,0.0956302732229232,0,0,0
12835,472528.5896270693,2010-12-18 23:52:48,750.3798525623378,7,44,-1.099568486213684,3.7518773078918457,38.7816668422431,38.09979804328111,155.76842853447187,137.83264630363325,-0.0001942634553415,0.0956302732229232,0,0,0
12836,472558.6031131149,2010-12-18 23:53:18,780.3933386380725,7,44,-1.099929690361023,3.744754314422608,38.7816668422431,38.10896640189396,155.76842853447187,137.8670126188686,-0.0002266406954731,0.0956302732229232,0,0,0
12837,472588.617958814,2010-12-18 23:53:48,810.4081842168781,7,44,-1.0997490882873535,3.738116979598999,38.7816668422431,38.11813509586429,155.76842853447187,137.90131744087714,-0.0002266406954731,0.0956302732229232,0,0,0
12838,472618.6331333314,2010-12-18 23:54:18,840.4233588194469,7,44,-1.099929690361023,3.731479644775391,38.7816668422431,38.12730394373941,155.76842853447187,137.93556165395324,-0.0001942634553415,0.0956302732229232,0,0,0
12839,472648.6481956746,2010-12-18 23:54:48,870.4384210774504,7,44,-1.0997490882873535,3.725004196166992,38.7816668422431,38.13647277307322,155.76842853447187,137.96974585643528,-0.0001942634553415,0.0956302732229232,0,0,0
12840,472678.6635618589,2010-12-18 23:55:18,900.4537873519876,7,44,-1.099929690361023,3.718690633773804,38.7816668422431,38.14564174626428,155.76842853447187,138.00387184009196,-0.0001942634553415,0.0956302732229232,0,0,0
12841,472708.6784175178,2010-12-18 23:55:48,930.468642925665,7,44,-1.0997490882873535,3.7123770713806152,38.7816668422431,38.15481049943958,155.76842853447187,138.03793925642336,-0.0001618862152099,0.0956302732229232,0,0,0
12842,472738.6936803148,2010-12-18 23:56:18,960.4839057176896,7,44,-1.0993878841400146,3.7065491676330566,38.7816668422431,38.163979401712176,155.76842853447187,138.07195029542407,-0.0001295089750783,0.0956302732229232,0,0,0
12843,472768.7087972739,2010-12-18 23:56:48,990.499022676815,7,44,-1.099568486213684,3.700235605239868,38.7816668422431,38.17314826236163,155.76842853447187,138.10590550071026,-0.0001942634553415,0.0956302732229232,0,0,0
12844,472798.72396694927,2010-12-18 23:57:18,1020.514192422297,7,44,-1.099568486213684,3.6942458152771,38.7816668422431,38.18231711280794,155.76842853447187,138.13980566279676,-0.0001942634553415,0.0956302732229232,0,0,0
12845,472828.738873961,2010-12-18 23:57:48,1050.529099378839,7,44,-1.099929690361023,3.688417911529541,38.7816668422431,38.19148589667291,155.76842853447187,138.1736512899517,-0.0001618862152099,0.0956302732229232,0,0,0
12846,472858.75411452266,2010-12-18 23:58:18,1080.544340020744,7,44,-1.0997490882873535,3.682751893997192,38.7816668422431,38.20065478094502,155.76842853447187,138.20744381809405,-0.0001295089750783,0.0956302732229232,0,0,0
12847,472888.7691164906,2010-12-18 23:58:48,1110.5593419085185,7,44,-1.0997490882873535,3.677085876464844,38.7816668422431,38.20982361131523,155.76842853447187,138.2411837449646,-0.0001295089750783,0.0956302732229232,0,0,0
12848,472918.7843086218,2010-12-18 23:59:18,1140.5745340948438,7,44,-1.0997490882873535,3.671420097351074,38.7816668422431,38.218992554303576,155.76842853447187,138.27487248566064,-0.0001618862152099,0.0956302732229232,0,0,0
12849,472948.7993332562,2010-12-18 23:59:48,1170.5895586740853,7,44,-1.099568486213684,3.666239738464356,38.7816668422431,38.22816143090724,155.76842853447187,138.30851035129254,-9.713172767078504e-05,0.0956302732229232,0,0,0
12850,472978.8147376055,2010-12-19 00:00:18,1200.6049630985567,7,44,-1.099929690361023,3.660573720932007,38.7816668422431,38.23733042803031,155.76842853447187,138.34209942508747,-0.0001618862152099,0.0956302732229232,0,0,0
12851,473008.8295736155,2010-12-19 00:00:48,1230.6197990333635,7,44,-1.0997490882873535,3.655555248260498,38.7816668422431,38.24649924055276,155.76842853447187,138.37563923581988,-0.0001295089750783,0.0956302732229232,0,0,0
12852,473038.8449056098,2010-12-19 00:01:18,1260.635131102783,7,44,-1.099568486213684,3.650213003158569,38.7816668422431,38.25566819946346,155.76842853447187,138.40913190655868,-0.0001295089750783,0.0956302732229232,0,0,0
12853,473068.85979354393,2010-12-19 00:01:48,1290.6500189467636,7,44,-1.0997490882873535,3.6450326442718506,38.7816668422431,38.264836936270285,155.76842853447187,138.44257656604847,-0.0001618862152099,0.0956302732229232,0,0,0
12854,473098.87564912107,2010-12-19 00:02:18,1320.6658746792982,7,44,-1.099568486213684,3.640176057815552,38.7816668422431,38.27400602303534,155.76842853447187,138.47597634889257,-0.0001295089750783,0.0956302732229232,0,0,0
12855,473128.87615864014,2010-12-19 00:02:48,1350.6663841131583,7,44,-1.0997490882873535,3.635319471359253,38.7816668422431,38.283170375529046,155.76842853447187,138.5093136384342,-9.713172767078504e-05,0.0956302732229232,0,0,0
12856,473158.8912510181,2010-12-19 00:03:18,1380.6814765262018,7,44,-1.099568486213684,3.630462884902954,38.7816668422431,38.292339210973374,155.76842853447187,138.54262309689113,-0.0001295089750783,0.0956302732229232,0,0,0
12857,473188.9047667226,2010-12-19 00:03:48,1410.6949922005913,7,44,-1.0997490882873535,3.625768184661865,38.7816668422431,38.30150767723431,155.76842853447187,138.57588766266826,-0.0001295089750783,0.0956302732229232,0,0,0
12858,473218.91975287616,2010-12-19 00:04:18,1440.709978279025,7,44,-1.0997490882873535,3.6212353706359854,38.7816668422431,38.310676429632096,155.76842853447187,138.6091110250646,-0.0001618862152099,0.0956302732229232,0,0,0
12859,473248.93486437167,2010-12-19 00:04:48,1470.7250897895915,7,44,-1.099568486213684,3.616864442825317,38.7816668422431,38.31984532111145,155.76842853447187,138.64229343804726,-9.713172767078504e-05,0.0956302732229232,0,0,0
12860,473278.9501986466,2010-12-19 00:05:18,1500.7404241547235,7,44,-1.0997490882873535,3.6123316287994394,38.7816668422431,38.32901422318645,155.76842853447187,138.67543516879454,-0.0001295089750783,0.0956302732229232,0,0,0
12861,473308.96508869104,2010-12-19 00:05:48,1530.7553140939183,7,44,-1.0997490882873535,3.60812258720398,38.7816668422431,38.33818298099922,155.76842853447187,138.70853681637757,-0.0001295089750783,0.0956302732229232,0,0,0
12862,473338.9803017343,2010-12-19 00:06:18,1560.77052720732,7,44,-1.0997490882873535,3.603913545608521,38.7816668422431,38.34735181821646,155.76842853447187,138.7416002435381,-0.0001295089750783,0.0956302732229232,0,0,0
12863,473368.9953206795,2010-12-19 00:06:48,1590.7855460974038,7,44,-1.0997490882873535,3.600028276443481,38.7816668422431,38.35652063824209,155.76842853447187,138.77462629969162,-9.713172767078504e-05,0.0956302732229232,0,0,0
12864,473399.01052483567,2010-12-19 00:07:18,1620.8007503086526,7,44,-1.099929690361023,3.5961430072784424,38.7816668422431,38.365689536348334,155.76842853447187,138.80761617685857,-9.713172767078504e-05,0.0956302732229232,0,0,0
12865,473429.0255633395,2010-12-19 00:07:48,1650.8157887574075,7,44,-1.099929690361023,3.5920960903167725,38.7816668422431,38.374858354909314,155.76842853447187,138.84057050996316,-0.0001294612884521,0.0956302732229232,0,0,0
12866,473459.0407272204,2010-12-19 00:08:18,1680.8309526232586,7,44,-1.099568486213684,3.5885345935821533,38.7816668422431,38.38402717445934,155.76842853447187,138.8734902709959,-3.237724376958795e-05,0.0956302732229232,0,0,0
12867,473489.0558496382,2010-12-19 00:08:48,1710.8460751512418,7,44,-1.0997490882873535,3.584811210632324,38.7816668422431,38.39319605206136,155.76842853447187,138.9063765680076,-9.713172767078504e-05,0.0956302732229232,0,0,0
12868,473519.0711202897,2010-12-19 00:09:18,1740.861345762725,7,44,-1.0997490882873535,3.581411600112915,38.7816668422431,38.40236504983375,155.76842853447187,138.93923041374902,-9.713172767078504e-05,0.0956302732229232,0,0,0
12869,473549.08614939015,2010-12-19 00:09:48,1770.8763748632173,7,44,-1.0997490882873535,3.578011989593506,38.7816668422431,38.41153393946608,155.76842853447187,138.97205183379816,-6.47544875391759e-05,0.0956302732229232,0,0,0
12870,473579.1011890169,2010-12-19 00:10:18,1800.8914145049412,7,44,-1.0997490882873535,3.5746123790740967,38.7816668422431,38.42070282678318,155.76842853447187,139.0048415913201,-6.47544875391759e-05,0.0956302732229232,0,0,0
12871,473609.1162420319,2010-12-19 00:10:48,1830.9064674547817,7,44,-1.0993878841400146,3.5712127685546875,38.7816668422431,38.42987169729403,155.76842853447187,139.03760025477607,-0.0001295089750783,0.0956302732229232,0,0,0
12872,473639.13145459886,2010-12-19 00:11:18,1860.921680071948,7,44,-1.0997490882873535,3.5678131580352783,38.7816668422431,38.43904057008716,155.76842853447187,139.07032825057885,-6.47544875391759e-05,0.0956302732229232,0,0,0
12873,473669.1466987997,2010-12-19 00:11:48,1890.936924297772,7,44,-1.099929690361023,3.564413547515869,38.7816668422431,38.448209526403005,155.76842853447187,139.10302594026052,-6.47544875391759e-05,0.0956302732229232,0,0,0
12874,473699.1615814658,2010-12-19 00:12:18,1920.9518069388057,7,44,-1.099568486213684,3.56117582321167,38.7816668422431,38.457378299861965,155.76842853447187,139.13569297569552,-0.0001295089750783,0.0956302732229232,0,0,0
12875,473729.1766937584,2010-12-19 00:12:48,1950.966919161143,7,44,-1.0997490882873535,3.5579380989074707,38.7816668422431,38.46654715858946,155.76842853447187,139.16833045861782,-9.713172767078504e-05,0.0956302732229232,0,0,0
12876,473759.1936634128,2010-12-19 00:13:18,1980.9838889108669,7,44,-1.0997490882873535,3.5547003746032715,38.7816668422431,38.47571662314951,155.76842853447187,139.20093965966916,-6.47544875391759e-05,0.0956302732229232,0,0,0
12877,473789.20693008753,2010-12-19 00:13:48,2010.9971555104432,7,44,-1.0997490882873535,3.5513007640838623,38.7816668422431,38.48488500250291,155.76842853447187,139.23351411954178,-9.713172767078504e-05,0.0956302732229232,0,0,0
12878,473819.2220376132,2010-12-19 00:14:18,2041.0122630360936,7,44,-1.099568486213684,3.547901153564453,38.7816668422431,38.49405391255388,155.76842853447187,139.26605958778524,-9.713172767078504e-05,0.0956302732229232,0,0,0
12879,473849.2372783504,2010-12-19 00:14:48,2071.027503773236,7,44,-1.099568486213684,3.544501543045044,38.7816668422431,38.503222876020025,155.76842853447187,139.29857394029173,-6.47544875391759e-05,0.0956302732229232,0,0,0
12880,473879.25231138064,2010-12-19 00:15:18,2101.042536803507,7,44,-1.099568486213684,3.540940046310425,38.7816668422431,38.5123917748066,155.76842853447187,139.3310560222365,-6.47544875391759e-05,0.0956302732229232,0,0,0
12881,473909.26749967225,2010-12-19 00:15:48,2131.057725145265,7,44,-1.099929690361023,3.537216663360596,38.7816668422431,38.52156066422047,155.76842853447187,139.36350553243034,-9.713172767078504e-05,0.0956302732229232,0,0,0
12882,473939.2825020662,2010-12-19 00:16:18,2161.0727274691253,7,44,-1.099568486213684,3.533655166625977,38.7816668422431,38.530729533526895,155.76842853447187,139.3959217957305,-6.47544875391759e-05,0.0956302732229232,0,0,0
12883,473969.2976331054,2010-12-19 00:16:48,2191.0878585133005,7,44,-1.0997490882873535,3.5299317836761475,38.7816668422431,38.53989848651322,155.76842853447187,139.42830436934278,-6.47544875391759e-05,0.0956302732229232,0,0,0
12884,473999.3128794215,2010-12-19 00:17:18,2221.1031048293253,7,44,-1.0997490882873535,3.5260465145111084,38.7816668422431,38.54906745747886,155.76842853447187,139.4606521799047,-9.713172767078504e-05,0.0956302732229232,0,0,0
12885,474029.3278530088,2010-12-19 00:17:48,2251.1180784267,7,44,-1.099568486213684,3.52199935913086,38.7816668422431,38.55823629362435,155.76842853447187,139.4929632839636,-0.0001295089750783,0.0956302732229232,0,0,0
12886,474059.3429595219,2010-12-19 00:18:18,2281.1331849448434,7,44,-1.099929690361023,3.5177903175354004,38.7816668422431,38.5674051206957,155.76842853447187,139.5252368333416,-9.713172767078504e-05,0.0956302732229232,0,0,0
12887,474089.358406352,2010-12-19 00:18:48,2311.1486317698277,7,44,-1.099568486213684,3.5135812759399414,38.7816668422431,38.576574078451486,155.76842853447187,139.55747176921747,-9.713172767078504e-05,0.0956302732229232,0,0,0
12888,474119.3732150841,2010-12-19 00:19:18,2341.163440486904,7,44,-1.0997490882873535,3.508886814117432,38.7816668422431,38.58574282877866,155.76842853447187,139.58966533860573,-0.0001295089750783,0.0956302732229232,0,0,0
12889,474149.38859583467,2010-12-19 00:19:48,2371.178821307639,7,44,-1.099929690361023,3.504030227661133,38.7816668422431,38.59491181328667,155.76842853447187,139.62181705138929,-0.0001295089750783,0.0956302732229232,0,0,0
12890,474179.4034505712,2010-12-19 00:20:18,2401.1936759740584,7,44,-1.0997490882873535,3.499011754989624,38.7816668422431,38.604080630687264,155.76842853447187,139.6539228482099,-0.0001295089750783,0.0956302732229232,0,0,0
12891,474209.4185325432,2010-12-19 00:20:48,2431.2087579661697,7,44,-1.099568486213684,3.4935076236724854,38.7816668422431,38.613249487840925,155.76842853447187,139.6859804670335,-0.0001618862152099,0.0956302732229232,0,0,0
12892,474239.4336658982,2010-12-19 00:21:18,2461.2238913210954,7,44,-1.099568486213684,3.4876797199249268,38.7816668422431,38.62241836416428,155.76842853447187,139.7179854604813,-0.0001295089750783,0.0956302732229232,0,0,0
12893,474269.4487756443,2010-12-19 00:21:48,2491.2390010622585,7,44,-1.099568486213684,3.4805567264556885,38.7816668422431,38.63158728989308,155.76842853447187,139.74993228475608,-0.0002590179501567,0.0956302732229232,0,0,0
12894,474299.4640111885,2010-12-19 00:22:18,2521.2542365964537,7,44,-1.0997490882873535,3.47327184677124,38.7816668422431,38.6407561943524,155.76842853447187,139.78181298321758,-0.0001942634553415,0.0956302732229232,0,0,0
12895,474329.4791249698,2010-12-19 00:22:48,2551.269350372658,7,44,-1.099568486213684,3.4643681049346924,38.7816668422431,38.64992509956295,155.76842853447187,139.81361874017466,-0.0002590179501567,0.0956302732229232,0,0,0
12896,474359.4960991656,2010-12-19 00:23:18,2581.28632465867,7,44,-1.0997490882873535,3.454169273376465,38.7816668422431,38.65909457371558,155.76842853447187,139.84533940142123,-0.0002913951757363,0.0956302732229232,0,0,0
12897,474389.5094108574,2010-12-19 00:23:48,2611.2996362652448,7,44,-1.099568486213684,3.441865921020508,38.7816668422431,38.66826295533954,155.76842853447187,139.87695315755266,-0.0003561496851034,0.0956302732229232,0,0,0
12898,474419.5243618085,2010-12-19 00:24:18,2641.3145872262903,7,44,-1.0997490882873535,3.4268107414245605,38.7816668422431,38.67743186560808,155.76842853447187,139.90844412252744,-0.0004532813909463,0.0956302732229232,0,0,0
12899,474449.5394622966,2010-12-19 00:24:48,2671.329687714428,7,44,-1.0997490882873535,3.407870054244995,38.7816668422431,38.68660085741825,155.76842853447187,139.93978122808946,-0.0005504131549969,0.0956302732229232,0,0,0
12900,474479.55481714767,2010-12-19 00:25:19,2701.345042620675,7,44,-1.099568486213684,3.383910894393921,38.7816668422431,38.69576982267824,155.76842853447187,139.97092292428462,-0.0006799221155233,0.0956302732229232,0,0,0
12901,474509.56981990254,2010-12-19 00:25:49,2731.360045305433,7,44,-1.099929690361023,3.3516955375671387,38.7816668422431,38.70493870463047,155.76842853447187,140.00180928975672,-0.0009713172912597,0.0956302732229232,0,0,0
12902,474539.5849083206,2010-12-19 00:26:19,2761.375133828797,7,44,-1.099568486213684,3.308795928955078,38.7816668422431,38.71410764762108,155.76842853447187,140.0323550064784,-0.0013274669181555,0.0956302732229232,0,0,0
12903,474569.59997650346,2010-12-19 00:26:49,2791.3902019965067,7,44,-1.099568486213684,3.2500314712524414,38.7816668422431,38.72327647286729,155.76842853447187,140.06243798012153,-0.0017807483673095,0.0956302732229232,0,0,0
12904,474599.6153041117,2010-12-19 00:27:19,2821.405529604824,7,44,-1.0997490882873535,3.1677935123443604,38.7816668422431,38.73244540273844,155.76842853447187,140.09188314644416,-0.0026225566398352,0.0956302732229232,0,0,0
12905,474629.6301597957,2010-12-19 00:27:49,2851.4203852135893,7,44,-1.0997490882873535,3.0470266342163086,38.7816668422431,38.74161425958386,155.76842853447187,140.1204140266611,-0.0038205147720873,0.0956302732229232,0,0,0
12906,474658.7703014976,2010-12-19 00:28:18,2880.5605269054145,7,44,-1.099929690361023,2.846774101257324,38.7816668422431,38.750515883886855,155.76842853447187,140.14673312793087,-0.0069286823272705,0.0956302732229232,0,0,0
12907,474674.3485590624,2010-12-19 00:28:33,2896.1387845704503,7,44,-1.099568486213684,2.699943780899048,38.7816668422431,38.755274682212736,155.76842853447187,140.15993493254362,-0.007640981581062,0.0956302732229232,0,0,0
12908,474734.3638026734,2010-12-19 00:29:33,60.01448309793987,8,44,0.0,3.409003257751465,38.7816668422431,38.755274682212736,155.76842853447187,140.15993493254362,0.0013922214275225,0.0956302732229232,0,0,0
12909,474734.55525023496,2010-12-19 00:29:34,0.189274898304627,9,44,-1.9243103452026844e-05,3.4093270301818848,38.7816668422431,38.75527468322447,155.76842853447187,140.15993493599296,0.0,0.0946486890316009,0,0,0
12910,474739.3815299364,2010-12-19 00:29:39,5.015554529540819,9,44,0.0007031940040178,3.4177451133728027,38.78166781347301,38.75527468329904,155.76843185037288,140.1599349362472,0.0012303352123126,0.0946486890316009,0,0,0
