Data_Point,Test_Time(s),Date_Time,Step_Time(s),Step_Index,Cycle_Index,Current(A),Voltage(V),Charge_Capacity(Ah),Discharge_Capacity(Ah),Charge_Energy(Wh),Discharge_Energy(Wh),dV/dt(V/s),Internal_Resistance(Ohm),Is_FC_Data,AC_Impedance(Ohm),ACI_Phase_Angle(Deg)
14361,525429.4970201963,2010-12-19 14:34:35,30.015077596172013,1,50,0.0,3.440894603729248,43.0678998360638,43.04882687857588,172.9256511877204,155.72772678681838,0.0007770538213662,0.0947341993451118,0,0,0
14362,525459.5121304889,2010-12-19 14:35:05,60.03018788369519,1,50,0.0,3.4642062187194824,43.0678998360638,43.04882687857588,172.9256511877204,155.72772678681838,0.0005504131549969,0.0947341993451118,0,0,0
14363,525489.5272564053,2010-12-19 14:35:35,90.04531380011028,1,50,0.0,3.482013702392578,43.0678998360638,43.04882687857588,172.9256511877204,155.72772678681838,0.0004209041653666,0.0947341993451118,0,0,0
14364,525519.4954360928,2010-12-19 14:36:05,120.01349347260296,1,50,0.0,3.4959359169006348,43.0678998360638,43.04882687857588,172.9256511877204,155.72772678681838,0.0003237724304199,0.0947341993451118,0,0,0
14365,525549.5396678516,2010-12-19 14:36:35,30.0152161459478,2,50,0.550297200679779,3.6474609375,43.0724872940058,43.04882687857588,172.9422378139261,155.72772678681838,0.0013922214275225,0.0947341993451118,0,0,0
14366,525579.5542586865,2010-12-19 14:37:05,60.02980695075824,2,50,0.5501165986061096,3.688256025314331,43.07706510995366,43.04882687857588,172.9590347770571,155.72772678681838,0.0009389400365762,0.0947341993451118,0,0,0
14367,525609.5543027974,2010-12-19 14:37:35,90.0298510265931,2,50,0.5501165986061096,3.717557430267334,43.08165967247158,43.04882687857588,172.97605120621526,155.72772678681838,0.0007122993702068,0.0947341993451118,0,0,0
14368,525639.5694549241,2010-12-19 14:38:05,120.04500313819388,2,50,0.5501165986061096,3.739735841751098,43.08624711036346,43.04882687857588,172.99315821170524,155.72772678681838,0.0005180359003134,0.0947341993451118,0,0,0
14369,525669.5864257716,2010-12-19 14:38:35,150.06197407587342,2,50,0.5501165986061096,3.756247997283936,43.09083476006525,43.04882687857588,173.0103552718634,155.72772678681838,0.0002913951757363,0.0947341993451118,0,0,0
14370,525699.5996973936,2010-12-19 14:39:05,180.07524561774878,2,50,0.550297200679779,3.768065690994263,43.09542186957683,43.04882687857588,173.02761526075898,155.72772678681838,0.0002590179501567,0.0947341993451118,0,0,0
14371,525729.6148360567,2010-12-19 14:39:35,210.0903842808836,2,50,0.5501165986061096,3.775836229324341,43.10000919579658,43.04882687857588,173.04491971336682,155.72772678681838,0.0001618862152099,0.0947341993451118,0,0,0
14372,525759.6299090565,2010-12-19 14:40:05,240.10545728563,2,50,0.5501165986061096,3.7819879055023193,43.10459660719421,43.04882687857588,173.06225519202513,155.72772678681838,0.0001942634553415,0.0947341993451118,0,0,0
14373,525789.6450433488,2010-12-19 14:40:35,270.12059157788804,2,50,0.550297200679779,3.787006378173828,43.109183978061246,43.04882687857588,173.07961581989753,155.72772678681838,0.0001295089750783,0.0947341993451118,0,0,0
14374,525819.6602786975,2010-12-19 14:41:05,300.1358269115838,2,50,0.5501165986061096,3.791862964630127,43.11377142392833,43.04882687857588,173.0969996587605,155.72772678681838,0.0001295089750783,0.0947341993451118,0,0,0
14375,525849.6754336512,2010-12-19 14:41:35,330.15098186024454,2,50,0.550297200679779,3.796233892440796,43.11835880867584,43.04882687857588,173.11440463454673,155.72772678681838,9.713172767078504e-05,0.0947341993451118,0,0,0
14376,525879.6904095943,2010-12-19 14:42:05,360.165957823507,2,50,0.550297200679779,3.800766706466675,43.12294616566001,43.04882687857588,173.131829720705,155.72772678681838,9.713172767078504e-05,0.0947341993451118,0,0,0
14377,525909.7056684666,2010-12-19 14:42:35,390.1812166757277,2,50,0.5501165986061096,3.804813861846924,43.12753358985268,43.04882687857588,173.14927445196685,155.72772678681838,0.0001295089750783,0.0947341993451118,0,0,0
14378,525939.7207732254,2010-12-19 14:43:05,420.1963214395052,2,50,0.5501165986061096,3.808699131011963,43.13212097118995,43.04882687857588,173.1667377386161,155.72772678681838,6.47544875391759e-05,0.0947341993451118,0,0,0
14379,525969.7357756144,2010-12-19 14:43:35,450.21132384356457,2,50,0.5501165986061096,3.812584400177002,43.13670834492266,43.04882687857588,173.18421919756952,155.72772678681838,9.713172767078504e-05,0.0947341993451118,0,0,0
14380,525999.7508986687,2010-12-19 14:44:05,480.2264468978574,2,50,0.550297200679779,3.816631555557251,43.1412957144354,43.04882687857588,173.2017187036039,155.72772678681838,0.0001295089750783,0.0947341993451118,0,0,0
14381,526029.7660516273,2010-12-19 14:44:36,510.2415999467906,2,50,0.550297200679779,3.82035493850708,43.14588306549404,43.04882687857588,173.21923559720204,155.72772678681838,9.713172767078504e-05,0.0947341993451118,0,0,0
14382,526059.7816880894,2010-12-19 14:45:06,540.2572363685788,2,50,0.550297200679779,3.824078321456909,43.15047052686409,43.04882687857588,173.23677013980543,155.72772678681838,6.47544875391759e-05,0.0947341993451118,0,0,0
14383,526089.7963143323,2010-12-19 14:45:36,570.2718625564386,2,50,0.550297200679779,3.8278017044067374,43.15505787112989,43.04882687857588,173.25432144790722,155.72772678681838,0.0001295089750783,0.0947341993451118,0,0,0
14384,526119.8113899034,2010-12-19 14:46:06,600.2869382177958,2,50,0.5501165986061096,3.831686973571777,43.15964523593929,43.04882687857588,173.27189003608348,155.72772678681838,6.47544875391759e-05,0.0947341993451118,0,0,0
14385,526149.8265277846,2010-12-19 14:46:36,630.3020761039973,2,50,0.550297200679779,3.8354101181030273,43.16423268431884,43.04882687857588,173.2894761478714,155.72772678681838,0.0001295089750783,0.0947341993451118,0,0,0
14386,526179.8416385583,2010-12-19 14:47:06,660.3171867724684,2,50,0.550297200679779,3.839133501052856,43.16882012261191,43.04882687857588,173.3070795470654,155.72772678681838,9.713172767078504e-05,0.0947341993451118,0,0,0
14387,526209.856763793,2010-12-19 14:47:36,690.3323120071872,2,50,0.5499359965324402,3.8428568840026855,43.173407495271775,43.04882687857588,173.3247000659438,155.72772678681838,9.713172767078504e-05,0.0947341993451118,0,0,0
14388,526239.8718900352,2010-12-19 14:48:06,720.3474382494129,2,50,0.550297200679779,3.8467421531677246,43.17799491699633,43.04882687857588,173.34233807105207,155.72772678681838,9.713172767078504e-05,0.0947341993451118,0,0,0
14389,526269.8889002658,2010-12-19 14:48:36,750.3644485700955,2,50,0.550297200679779,3.8504655361175537,43.182582647362686,43.04882687857588,173.3599945734798,155.72772678681838,9.713172767078504e-05,0.0947341993451118,0,0,0
14390,526299.9021466802,2010-12-19 14:49:06,780.3776948892049,2,50,0.550297200679779,3.854188919067383,43.18716982404767,43.04882687857588,173.37766594446865,155.72772678681838,9.713172767078504e-05,0.0947341993451118,0,0,0
14391,526329.9173835376,2010-12-19 14:49:36,810.3929317517051,2,50,0.5501165986061096,3.857912302017212,43.191757248630125,43.04882687857588,173.39535500827142,155.72772678681838,0.0001618862152099,0.0947341993451118,0,0,0
14392,526359.932404954,2010-12-19 14:50:06,840.4079531630636,2,50,0.550297200679779,3.861311912536621,43.196344564632376,43.04882687857588,173.4130599443451,155.72772678681838,9.713172767078504e-05,0.0947341993451118,0,0,0
14393,526389.9476402425,2010-12-19 14:50:36,870.4231884716969,2,50,0.5501165986061096,3.86454963684082,43.20093205655136,43.04882687857588,173.43078143096503,155.72772678681838,6.47544875391759e-05,0.0947341993451118,0,0,0
14394,526419.9626224112,2010-12-19 14:51:06,900.4381706253638,2,50,0.550297200679779,3.86811113357544,43.20551943214252,43.04882687857588,173.44851781491218,155.72772678681838,0.0001295089750783,0.0947341993451118,0,0,0
14395,526449.9777293103,2010-12-19 14:51:36,930.4532775394924,2,50,0.550297200679779,3.8710250854492183,43.210106849080745,43.04882687857588,173.46626914273506,155.72772678681838,6.47544875391759e-05,0.0947341993451118,0,0,0
14396,526479.9930035659,2010-12-19 14:52:06,960.468551774994,2,50,0.5504778623580933,3.874262809753418,43.21469433116678,43.04882687857588,173.48403501447007,155.72772678681838,9.713172767078504e-05,0.0947341993451118,0,0,0
14397,526510.0079789828,2010-12-19 14:52:36,990.4835272119468,2,50,0.5501165986061096,3.877176761627197,43.219281709949385,43.04882687857588,173.50181393741212,155.72772678681838,9.713172767078504e-05,0.0947341993451118,0,0,0
14398,526540.023099987,2010-12-19 14:53:06,1020.498648216138,2,50,0.5501165986061096,3.8797669410705566,43.22386916399135,43.04882687857588,173.51960602945272,155.72772678681838,3.237724376958795e-05,0.0947341993451118,0,0,0
14399,526570.0382291013,2010-12-19 14:53:36,1050.5137773305107,2,50,0.550297200679779,3.882357120513916,43.22845660551018,43.04882687857588,173.537410172005,155.72772678681838,6.47544875391759e-05,0.0947341993451118,0,0,0
14400,526600.0562792948,2010-12-19 14:54:06,1080.5318276090889,2,50,0.550297200679779,3.884623527526856,43.233044628014845,43.04882687857588,173.55522805154692,155.72772678681838,0.0,0.0947341993451118,0,0,0
14401,526630.0686358196,2010-12-19 14:54:36,1110.5441840287176,2,50,0.5504778623580933,3.887213706970215,43.23763167500769,43.04882687857588,173.57305295790383,155.72772678681838,9.713172767078504e-05,0.0947341993451118,0,0,0
14402,526660.0835967354,2010-12-19 14:55:06,1140.5591449595724,2,50,0.5501165986061096,3.889318227767944,43.24221913421327,43.04882687857588,173.59088981006494,155.72772678681838,6.47544875391759e-05,0.0947341993451118,0,0,0
14403,526690.0987964154,2010-12-19 14:55:36,1170.5743446245078,2,50,0.550297200679779,3.891422748565674,43.24680667040043,43.04882687857588,173.60873675910813,155.72772678681838,6.47544875391759e-05,0.0947341993451118,0,0,0
14404,526720.1138400771,2010-12-19 14:56:06,1200.5893883012727,2,50,0.5501165986061096,3.893365383148194,43.25139422232198,43.04882687857588,173.62659320319543,155.72772678681838,6.47544875391759e-05,0.0947341993451118,0,0,0
14405,526750.1290779071,2010-12-19 14:56:36,1230.6046261161428,2,50,0.550297200679779,3.895146131515503,43.255981808346114,43.04882687857588,173.64445869467198,155.72772678681838,6.47544875391759e-05,0.0947341993451118,0,0,0
14406,526780.1440706621,2010-12-19 14:57:06,1260.6196188711913,2,50,0.550297200679779,3.897250652313232,43.26056930067844,43.04882687857588,173.66233235562538,155.72772678681838,6.47544875391759e-05,0.0947341993451118,0,0,0
14407,526810.1593610528,2010-12-19 14:57:36,1290.6349092769317,2,50,0.550297200679779,3.899031400680542,43.26515686100071,43.04882687857588,173.6802148532855,155.72772678681838,6.47544875391759e-05,0.0947341993451118,0,0,0
14408,526840.1743774667,2010-12-19 14:58:06,1320.6499256808288,2,50,0.5501165986061096,3.9006502628326416,43.26974439209368,43.04882687857588,173.69810560960053,155.72772678681838,3.237724376958795e-05,0.0947341993451118,0,0,0
14409,526870.1914338319,2010-12-19 14:58:36,1350.6669821313037,2,50,0.5504778623580933,3.902592897415161,43.27433218133489,43.04882687857588,173.71600559924295,155.72772678681838,6.47544875391759e-05,0.0947341993451118,0,0,0
14410,526900.2046440261,2010-12-19 14:59:06,1380.6801922352931,2,50,0.550297200679779,3.904373645782471,43.27891946271722,43.04882687857588,173.7339116740795,155.72772678681838,6.47544875391759e-05,0.0947341993451118,0,0,0
14411,526930.2197259982,2010-12-19 14:59:36,1410.6952742123667,2,50,0.550297200679779,3.90615439414978,43.28350705333255,43.04882687857588,173.7518269232258,155.72772678681838,6.47544875391759e-05,0.0947341993451118,0,0,0
14412,526960.2348469974,2010-12-19 15:00:06,1440.7103952215705,2,50,0.550297200679779,3.90777325630188,43.28809462700384,43.04882687857588,173.76975003558766,155.72772678681838,9.713172767078504e-05,0.0947341993451118,0,0,0
14413,526990.2499815454,2010-12-19 15:00:36,1470.7255297544273,2,50,0.5501165986061096,3.9092302322387695,43.29268218386782,43.04882687857588,173.7876809210916,155.72772678681838,0.0,0.0947341993451118,0,0,0
14414,527020.2653373588,2010-12-19 15:01:06,1500.740885638107,2,50,0.5501165986061096,3.911172866821289,43.29726984617431,43.04882687857588,173.80562012698005,155.72772678681838,6.47544875391759e-05,0.0947341993451118,0,0,0
14415,527050.2802222755,2010-12-19 15:01:36,1530.7557704896417,2,50,0.550297200679779,3.912953615188599,43.30185732760133,43.04882687857588,173.82356646209564,155.72772678681838,3.237724376958795e-05,0.0947341993451118,0,0,0
14416,527080.2953695501,2010-12-19 15:02:06,1560.7709178444052,2,50,0.550297200679779,3.914734125137329,43.3064448767623,43.04882687857588,173.84152093097262,155.72772678681838,6.47544875391759e-05,0.0947341993451118,0,0,0
14417,527110.3106282268,2010-12-19 15:02:36,1590.7861764409895,2,50,0.550297200679779,3.9163529872894287,43.31103249242426,43.04882687857588,173.8594834623309,155.72772678681838,3.237724376958795e-05,0.0947341993451118,0,0,0
14418,527140.3258114258,2010-12-19 15:03:06,1620.801359730175,2,50,0.550297200679779,3.917971849441528,43.31562006443286,43.04882687857588,173.87745372658054,155.72772678681838,0.0,0.0947341993451118,0,0,0
14419,527170.3407503269,2010-12-19 15:03:36,1650.8162986412342,2,50,0.5499359965324402,3.919590711593628,43.320207527895526,43.04882687857588,173.8954313678598,155.72772678681838,0.0,0.0947341993451118,0,0,0
14420,527200.3558399831,2010-12-19 15:04:06,1680.8313881921551,2,50,0.550297200679779,3.921533346176148,43.32479509672192,43.04882687857588,173.91341731580306,155.72772678681838,6.47544875391759e-05,0.0947341993451118,0,0,0
14421,527230.3709750071,2010-12-19 15:04:36,1710.8465232162343,2,50,0.550297200679779,3.923152208328247,43.32938268960593,43.04882687857588,173.93141121802174,155.72772678681838,3.237724376958795e-05,0.0947341993451118,0,0,0
14422,527260.3860907683,2010-12-19 15:05:06,1740.8616389773783,2,50,0.5499359965324402,3.9249329566955566,43.333970259859065,43.04882687857588,173.94941282849388,155.72772678681838,6.47544875391759e-05,0.0947341993451118,0,0,0
14423,527290.4013338361,2010-12-19 15:05:36,1770.8768820653704,2,50,0.5501165986061096,3.926551818847656,43.33855792349591,43.04882687857588,173.96742266654064,155.72772678681838,6.47544875391759e-05,0.0947341993451118,0,0,0
14424,527320.416353403,2010-12-19 15:06:06,1800.891901627126,2,50,0.5499359965324402,3.928170680999756,43.34314551132066,43.04882687857588,173.98544004510026,155.72772678681838,0.0,0.0947341993451118,0,0,0
14425,527350.4314714147,2010-12-19 15:06:36,1830.907019628845,2,50,0.550297200679779,3.9299514293670654,43.34773306092223,43.04882687857588,174.00346513632178,155.72772678681838,3.237724376958795e-05,0.0947341993451118,0,0,0
14426,527380.446581196,2010-12-19 15:07:06,1860.9221294101087,2,50,0.550297200679779,3.931732177734375,43.35232072077161,43.04882687857588,174.02149862814304,155.72772678681838,6.47544875391759e-05,0.0947341993451118,0,0,0
14427,527410.4617090974,2010-12-19 15:07:36,1890.937257326501,2,50,0.5501165986061096,3.9333510398864746,43.35690832233785,43.04882687857588,174.03953979984797,155.72772678681838,3.237724376958795e-05,0.0947341993451118,0,0,0
14428,527440.4768342669,2010-12-19 15:08:06,1920.952382491045,2,50,0.5501165986061096,3.935131788253784,43.36149593326727,43.04882687857588,174.05758898211482,155.72772678681838,3.237724376958795e-05,0.0947341993451118,0,0,0
14429,527470.4938776499,2010-12-19 15:08:36,1950.969425929139,2,50,0.5501165986061096,3.936750650405884,43.366083835308245,43.04882687857588,174.07564713913703,155.72772678681838,0.0,0.0947341993451118,0,0,0
14430,527500.5070870119,2010-12-19 15:09:06,1980.982635221108,2,50,0.5501165986061096,3.9386932849884033,43.3706711578603,43.04882687857588,174.0937110385855,155.72772678681838,6.47544875391759e-05,0.0947341993451118,0,0,0
14431,527530.522240126,2010-12-19 15:09:36,2010.9977883352035,2,50,0.5501165986061096,3.940474033355713,43.37525869008122,43.04882687857588,174.1117836855431,155.72772678681838,6.47544875391759e-05,0.0947341993451118,0,0,0
14432,527560.5373372509,2010-12-19 15:10:06,2041.0128854750087,2,50,0.5501165986061096,3.942092895507813,43.37984629177134,43.04882687857588,174.12986459433503,155.72772678681838,3.237724376958795e-05,0.0947341993451118,0,0,0
14433,527590.5526023386,2010-12-19 15:10:36,2071.028150552722,2,50,0.550297200679779,3.943873643875122,43.38443388127135,43.04882687857588,174.1479534407789,155.72772678681838,6.47544875391759e-05,0.0947341993451118,0,0,0
14434,527620.5676461407,2010-12-19 15:11:06,2101.043194485123,2,50,0.5501165986061096,3.945654392242432,43.38902140042845,43.04882687857588,174.16604994960946,155.72772678681838,6.47544875391759e-05,0.0947341993451118,0,0,0
14435,527650.5827441576,2010-12-19 15:11:36,2131.058292472036,2,50,0.550297200679779,3.947435140609741,43.3936090143095,43.04882687857588,174.1841548422574,155.72772678681838,6.47544875391759e-05,0.0947341993451118,0,0,0
14436,527680.5979590204,2010-12-19 15:12:06,2161.073507249579,2,50,0.550297200679779,3.949054002761841,43.39819661630266,43.04882687857588,174.20226776991967,155.72772678681838,3.237724376958795e-05,0.0947341993451118,0,0,0
14437,527710.612962021,2010-12-19 15:12:36,2191.08851024511,2,50,0.550297200679779,3.9508347511291504,43.402784154649694,43.04882687857588,174.2203885375454,155.72772678681838,3.237724376958795e-05,0.0947341993451118,0,0,0
14438,527740.628117932,2010-12-19 15:13:06,2221.103666141128,2,50,0.5501165986061096,3.95261549949646,43.407371786993046,43.04882687857588,174.23851787157284,155.72772678681838,0.0,0.0947341993451118,0,0,0
14439,527770.6432052874,2010-12-19 15:13:36,2251.118753516636,2,50,0.550297200679779,3.9543962478637695,43.41195933611575,43.04882687857588,174.25665508645483,155.72772678681838,3.237724376958795e-05,0.0947341993451118,0,0,0
14440,527800.6584316689,2010-12-19 15:14:06,2281.133980023366,2,50,0.5501165986061096,3.956338882446289,43.41654689917214,43.04882687857588,174.2748006055388,155.72772678681838,6.47544875391759e-05,0.0947341993451118,0,0,0
14441,527830.6734647894,2010-12-19 15:14:36,2311.1490130135376,2,50,0.550297200679779,3.958119630813599,43.42113450813596,43.04882687857588,174.29295447758264,155.72772678681838,3.237724376958795e-05,0.0947341993451118,0,0,0
14442,527860.688575087,2010-12-19 15:15:06,2341.164123301061,2,50,0.5501165986061096,3.959738492965698,43.425722101664654,43.04882687857588,174.31111661267204,155.72772678681838,3.237724376958795e-05,0.0947341993451118,0,0,0
14443,527890.7036973243,2010-12-19 15:15:36,2371.179245548345,2,50,0.550297200679779,3.961843013763428,43.430309671289685,43.04882687857588,174.3292870429518,155.72772678681838,6.47544875391759e-05,0.0947341993451118,0,0,0
14444,527920.7188198572,2010-12-19 15:16:06,2401.1943680663035,2,50,0.5504778623580933,3.9637856483459473,43.43489724817449,43.04882687857588,174.34746587731638,155.72772678681838,9.713172767078504e-05,0.0947341993451118,0,0,0
14445,527950.7339934873,2010-12-19 15:16:37,2431.2095417816645,2,50,0.5501165986061096,3.965404510498047,43.439484849289606,43.04882687857588,174.3656533311482,155.72772678681838,3.237724376958795e-05,0.0947341993451118,0,0,0
14446,527980.7493422233,2010-12-19 15:17:07,2461.224890522569,2,50,0.550297200679779,3.9673471450805664,43.44407248178618,43.04882687857588,174.38384953910872,155.72772678681838,6.47544875391759e-05,0.0947341993451118,0,0,0
14447,528010.7642070298,2010-12-19 15:17:37,2491.239755238999,2,50,0.550297200679779,3.969289779663086,43.44865996946225,43.04882687857588,174.40205373029073,155.72772678681838,3.237724376958795e-05,0.0947341993451118,0,0,0
14448,528040.7793153174,2010-12-19 15:18:07,2521.254863541582,2,50,0.5501165986061096,3.971070528030396,43.45324758428958,43.04882687857588,174.42026726832108,155.72772678681838,3.237724376958795e-05,0.0947341993451118,0,0,0
14449,528070.7963487005,2010-12-19 15:18:37,2551.2718969998414,2,50,0.5504778623580933,3.973175048828125,43.457835436437136,43.04882687857588,174.43849054209812,155.72772678681838,9.713172767078504e-05,0.0947341993451118,0,0,0
14450,528100.8095698219,2010-12-19 15:19:07,2581.285118031024,2,50,0.5504778623580933,3.9749557971954346,43.46242271858304,43.04882687857588,174.45672044947236,155.72772678681838,3.237724376958795e-05,0.0947341993451118,0,0,0
14451,528130.824688345,2010-12-19 15:19:37,2611.300236559053,2,50,0.550297200679779,3.976898431777954,43.46701039133346,43.04882687857588,174.4749608940084,155.72772678681838,3.237724376958795e-05,0.0947341993451118,0,0,0
14452,528160.8398352736,2010-12-19 15:20:07,2641.315383497781,2,50,0.5501165986061096,3.978679180145264,43.47159802505453,43.04882687857588,174.49320986015863,155.72772678681838,0.0,0.0947341993451118,0,0,0
14453,528190.8549476363,2010-12-19 15:20:37,2671.330495860468,2,50,0.5501165986061096,3.980945587158203,43.47618551992713,43.04882687857588,174.51146786008977,155.72772678681838,0.0,0.0947341993451118,0,0,0
14454,528220.8700646556,2010-12-19 15:21:07,2701.345612879743,2,50,0.5501165986061096,3.982888221740722,43.48077308829603,43.04882687857588,174.52973551518843,155.72772678681838,3.237724376958795e-05,0.0947341993451118,0,0,0
14455,528250.8851597052,2010-12-19 15:21:37,2731.36070793436,2,50,0.550297200679779,3.985154628753662,43.48536065134164,43.04882687857588,174.54801248725462,155.72772678681838,3.237724376958795e-05,0.0947341993451118,0,0,0
14456,528280.9003170498,2010-12-19 15:22:07,2761.3758652739702,2,50,0.550297200679779,3.9870972633361816,43.48994821118296,43.04882687857588,174.56629886590315,155.72772678681838,3.237724376958795e-05,0.0947341993451118,0,0,0
14457,528310.9156006837,2010-12-19 15:22:37,2791.391148912872,2,50,0.550297200679779,3.989201784133911,43.49453576508607,43.04882687857588,174.58459473165965,155.72772678681838,0.0,0.0947341993451118,0,0,0
14458,528340.9305298906,2010-12-19 15:23:07,2821.406078099733,2,50,0.5504778623580933,3.9914681911468506,43.49912320563436,43.04882687857588,174.60289977755886,155.72772678681838,6.47544875391759e-05,0.0947341993451118,0,0,0
14459,528370.9456752253,2010-12-19 15:23:37,2851.421223434469,2,50,0.5501165986061096,3.99341082572937,43.50371078472816,43.04882687857588,174.62121519718525,155.72772678681838,3.237724376958795e-05,0.0947341993451118,0,0,0
14460,528400.9609004288,2010-12-19 15:24:07,2881.4364486529944,2,50,0.550297200679779,3.9956769943237305,43.50829837970209,43.04882687857588,174.63954049557933,155.72772678681838,6.47544875391759e-05,0.0947341993451118,0,0,0
14461,528430.9759072689,2010-12-19 15:24:37,2911.451455498105,2,50,0.5504778623580933,3.99794340133667,43.512885871499726,43.04882687857588,174.6578753905045,155.72772678681838,9.713172767078504e-05,0.0947341993451118,0,0,0
14462,528460.9911619507,2010-12-19 15:25:07,2941.466710159898,2,50,0.5501165986061096,4.000209808349609,43.51747346187823,43.04882687857588,174.67622079066396,155.72772678681838,9.713172767078504e-05,0.0947341993451118,0,0,0
14463,528491.006275361,2010-12-19 15:25:37,2971.481823585229,2,50,0.550297200679779,4.002314567565918,43.52206095266109,43.04882687857588,174.694576153,155.72772678681838,6.47544875391759e-05,0.0947341993451118,0,0,0
14464,528521.0240509511,2010-12-19 15:26:07,3001.4995992955546,2,50,0.550297200679779,4.004580974578857,43.52664890556361,43.04882687857588,174.7129437091421,155.72772678681838,6.47544875391759e-05,0.0947341993451118,0,0,0
14465,528551.0363954661,2010-12-19 15:26:37,3031.5119436752225,2,50,0.550297200679779,4.006847381591797,43.53123596301048,43.04882687857588,174.73131814457946,155.72772678681838,6.47544875391759e-05,0.0947341993451118,0,0,0
14466,528581.051521984,2010-12-19 15:27:07,3061.527070193134,2,50,0.550297200679779,4.009113788604736,43.53582346650673,43.04882687857588,174.74970490571408,155.72772678681838,6.47544875391759e-05,0.0947341993451118,0,0,0
14467,528611.0666385472,2010-12-19 15:27:37,3091.542186756274,2,50,0.550297200679779,4.011541843414307,43.54041098170477,43.04882687857588,174.7681023912403,155.72772678681838,6.47544875391759e-05,0.0947341993451118,0,0,0
14468,528641.081767471,2010-12-19 15:28:07,3121.557315680174,2,50,0.550297200679779,4.013970375061035,43.54499843773712,43.04882687857588,174.78651051604152,155.72772678681838,6.47544875391759e-05,0.0947341993451118,0,0,0
14469,528671.098974376,2010-12-19 15:28:37,3151.5745226752724,2,50,0.550297200679779,4.0163984298706055,43.54958630681089,43.04882687857588,174.80493118616783,155.72772678681838,6.47544875391759e-05,0.0947341993451118,0,0,0
14470,528701.1120047126,2010-12-19 15:29:07,3181.587552926706,2,50,0.550297200679779,4.018826961517334,43.55417362347273,43.04882687857588,174.8233607283446,155.72772678681838,9.71794142969884e-05,0.0947341993451118,0,0,0
14471,528731.1271253258,2010-12-19 15:29:37,3211.6026735399246,2,50,0.5501165986061096,4.021093368530273,43.55876119098095,43.04882687857588,174.84180231976313,155.72772678681838,6.47544875391759e-05,0.0947341993451118,0,0,0
14472,528761.142240661,2010-12-19 15:30:07,3241.6177888900456,2,50,0.550297200679779,4.023521423339844,43.563348744464136,43.04882687857588,174.86025518610975,155.72772678681838,3.23295607813634e-05,0.0947341993451118,0,0,0
14473,528791.1574129828,2010-12-19 15:30:37,3271.632961191889,2,50,0.550297200679779,4.025949954986572,43.56793625548868,43.04882687857588,174.87871911517044,155.72772678681838,3.24249267578125e-05,0.0947341993451118,0,0,0
14474,528821.172488183,2010-12-19 15:31:07,3301.6480363920987,2,50,0.550297200679779,4.028540134429932,43.57252381922095,43.04882687857588,174.8971947405502,155.72772678681838,6.47544875391759e-05,0.0947341993451118,0,0,0
14475,528851.1876224452,2010-12-19 15:31:37,3331.663170654282,2,50,0.550297200679779,4.031130313873291,43.577111403001815,43.04882687857588,174.91568193060957,155.72772678681838,9.71794142969884e-05,0.0947341993451118,0,0,0
14476,528881.2027442363,2010-12-19 15:32:07,3361.6782924454315,2,50,0.550297200679779,4.033882141113281,43.58169893279688,43.04882687857588,174.93418053737764,155.72772678681838,9.70840483205393e-05,0.0947341993451118,0,0,0
14477,528911.2179502721,2010-12-19 15:32:37,3391.693498571445,2,50,0.550297200679779,4.036148548126221,43.5862865053394,43.04882687857588,174.95269109866487,155.72772678681838,3.24249267578125e-05,0.0947341993451118,0,0,0
14478,528941.2331171404,2010-12-19 15:33:07,3421.708665349543,2,50,0.550297200679779,4.038900375366211,43.590874055871616,43.04882687857588,174.9712133342819,155.72772678681838,9.70840483205393e-05,0.0947341993451118,0,0,0
14479,528971.2482762194,2010-12-19 15:33:37,3451.7238244284813,2,50,0.550297200679779,4.04149055480957,43.59546165059689,43.04882687857588,174.989747653053,155.72772678681838,9.70840483205393e-05,0.0947341993451118,0,0,0
14480,529001.26326919,2010-12-19 15:34:07,3481.738817489291,2,50,0.5501165986061096,4.04408073425293,43.60004916039247,43.04882687857588,175.00829381155015,155.72772678681838,6.47544875391759e-05,0.0947341993451118,0,0,0
14481,529031.2783801942,2010-12-19 15:34:37,3511.753928423423,2,50,0.5501165986061096,4.046670913696289,43.60463671732512,43.04882687857588,175.02685230506628,155.72772678681838,6.47544875391759e-05,0.0947341993451118,0,0,0
14482,529061.2937289,2010-12-19 15:35:07,3541.7692772545524,2,50,0.550297200679779,4.0494232177734375,43.60922433935939,43.04882687857588,175.0454233326105,155.72772678681838,6.47544875391759e-05,0.0947341993451118,0,0,0
14483,529091.308641235,2010-12-19 15:35:37,3571.7841895343413,2,50,0.550297200679779,4.052175045013428,43.61381189100192,43.04882687857588,175.06400639158414,155.72772678681838,6.47544875391759e-05,0.0947341993451118,0,0,0
14484,529121.3237303799,2010-12-19 15:36:07,3601.7992785890274,2,50,0.5501165986061096,4.054765224456787,43.61839940664824,43.04882687857588,175.0826017534634,155.72772678681838,6.47544875391759e-05,0.0947341993451118,0,0,0
14485,529151.3388672486,2010-12-19 15:36:37,3631.8144154727343,2,50,0.550297200679779,4.057517528533936,43.62298697016072,43.04882687857588,175.1012099078824,155.72772678681838,6.47544875391759e-05,0.0947341993451118,0,0,0
14486,529181.3539805085,2010-12-19 15:37:07,3661.8295287376654,2,50,0.5501165986061096,4.060269355773926,43.627574558739,43.04882687857588,175.11983097622303,155.72772678681838,3.23295607813634e-05,0.0947341993451118,0,0,0
14487,529211.3691323093,2010-12-19 15:37:37,3691.844680518444,2,50,0.5501165986061096,4.063183307647705,43.63216217370088,43.04882687857588,175.1384645873553,155.72772678681838,6.47544875391759e-05,0.0947341993451118,0,0,0
14488,529241.3842255895,2010-12-19 15:38:07,3721.859773813683,2,50,0.550297200679779,4.0659356117248535,43.636749744414445,43.04882687857588,175.1571109988856,155.72772678681838,3.24249267578125e-05,0.0947341993451118,0,0,0
14489,529271.4012698648,2010-12-19 15:38:37,3751.876818164046,2,50,0.5501165986061096,4.068849563598633,43.6413375661482,43.04882687857588,175.17577141421347,155.72772678681838,9.71794142969884e-05,0.0947341993451118,0,0,0
14490,529301.4144811516,2010-12-19 15:39:07,3781.89002945098,2,50,0.5499359965324402,4.071601390838623,43.64592487789416,43.04882687857588,175.194442989971,155.72772678681838,3.23295607813634e-05,0.0947341993451118,0,0,0
14491,529331.4296040004,2010-12-19 15:39:37,3811.905152209537,2,50,0.5501165986061096,4.074677467346191,43.65051236258712,43.04882687857588,175.21312857056537,155.72772678681838,9.71794142969884e-05,0.0947341993451118,0,0,0
14492,529361.4447281023,2010-12-19 15:40:07,3841.9202763264734,2,50,0.5504778623580933,4.077753067016602,43.65509988786184,43.04882687857588,175.23182780065216,155.72772678681838,0.0001295089750783,0.0947341993451118,0,0,0
14493,529391.4598636527,2010-12-19 15:40:37,3871.9354118618257,2,50,0.5501165986061096,4.08050537109375,43.65968749668235,43.04882687857588,175.2505409021177,155.72772678681838,6.47544875391759e-05,0.0947341993451118,0,0,0
14494,529421.4751253971,2010-12-19 15:41:07,3901.950673606243,2,50,0.5501165986061096,4.083419322967529,43.66427499948353,43.04882687857588,175.2692670733355,155.72772678681838,6.47544875391759e-05,0.0947341993451118,0,0,0
14495,529451.490224557,2010-12-19 15:41:37,3931.965772786125,2,50,0.5501165986061096,4.08649492263794,43.668862489783,43.04882687857588,175.2880070791791,155.72772678681838,6.47544875391759e-05,0.0947341993451118,0,0,0
14496,529481.5052287806,2010-12-19 15:42:07,3961.9807769896624,2,50,0.5501165986061096,4.089570999145508,43.67344996766343,43.04882687857588,175.3067609292601,155.72772678681838,6.47544875391759e-05,0.0947341993451118,0,0,0
14497,529511.5203868068,2010-12-19 15:42:37,3991.9959351011935,2,50,0.550297200679779,4.092484951019287,43.678037495867976,43.04882687857588,175.3255289225388,155.72772678681838,6.47544875391759e-05,0.0947341993451118,0,0,0
14498,529541.5354677363,2010-12-19 15:43:07,4022.011015945449,2,50,0.550297200679779,4.095722675323486,43.68262502593285,43.04882687857588,175.34431093447083,155.72772678681838,9.71794142969884e-05,0.0947341993451118,0,0,0
14499,529571.5507113356,2010-12-19 15:43:37,4052.026259629926,2,50,0.550297200679779,4.0987982749938965,43.68721256694598,43.04882687857588,175.3631071606386,155.72772678681838,6.47544875391759e-05,0.0947341993451118,0,0,0
14500,529601.5658427507,2010-12-19 15:44:07,4082.041390959811,2,50,0.550297200679779,4.101874351501465,43.69180011138285,43.04882687857588,175.38191770405064,155.72772678681838,3.24249267578125e-05,0.0947341993451118,0,0,0
14501,529631.5808571195,2010-12-19 15:44:37,4112.056405328645,2,50,0.550297200679779,4.105112075805664,43.696387616536505,43.04882687857588,175.40074239952347,155.72772678681838,6.47544875391759e-05,0.0947341993451118,0,0,0
14502,529661.5960051711,2010-12-19 15:45:07,4142.071553400192,2,50,0.5504778623580933,4.108511447906494,43.70097511081425,43.04882687857588,175.41958164154764,155.72772678681838,0.0001618385285837,0.0947341993451118,0,0,0
14503,529691.6110791231,2010-12-19 15:45:37,4172.086627347284,2,50,0.5501165986061096,4.111587524414063,43.70556265383711,43.04882687857588,175.43843570588976,155.72772678681838,0.0001295089750783,0.0947341993451118,0,0,0
14504,529721.6261968743,2010-12-19 15:46:07,4202.101745103392,2,50,0.5504778623580933,4.114986896514893,43.71015023927218,43.04882687857588,175.45730470069225,155.72772678681838,9.70840483205393e-05,0.0947341993451118,0,0,0
14505,529751.6413471863,2010-12-19 15:46:37,4232.116895410502,2,50,0.5501165986061096,4.117738723754883,43.714737797698106,43.04882687857588,175.47618836885667,155.72772678681838,6.47544875391759e-05,0.0947341993451118,0,0,0
14506,529781.6564411432,2010-12-19 15:47:07,4262.131989437561,2,50,0.5501165986061096,4.121138572692871,43.719325390233735,43.04882687857588,175.4950871396809,155.72772678681838,6.47544875391759e-05,0.0947341993451118,0,0,0
14507,529811.6716889429,2010-12-19 15:47:37,4292.147237152067,2,50,0.550297200679779,4.124537944793701,43.72391303302415,43.04882687857588,175.5140010344776,155.72772678681838,9.70840483205393e-05,0.0947341993451118,0,0,0
14508,529841.6867251712,2010-12-19 15:48:07,4322.162273380296,2,50,0.5501165986061096,4.1276140213012695,43.72850055723211,43.04882687857588,175.53292958259556,155.72772678681838,3.24249267578125e-05,0.0947341993451118,0,0,0
14509,529871.7038389343,2010-12-19 15:48:38,4352.179387238628,2,50,0.550297200679779,4.131175518035889,43.73308843120261,43.04882687857588,175.55187478116986,155.72772678681838,9.71794142969884e-05,0.0947341993451118,0,0,0
14510,529901.7170470334,2010-12-19 15:49:08,4382.192595242392,2,50,0.550297200679779,4.134413242340088,43.73767575815488,43.04882687857588,175.57083308573692,155.72772678681838,6.47544875391759e-05,0.0947341993451118,0,0,0
14511,529931.7320420039,2010-12-19 15:49:38,4412.207590212954,2,50,0.5501165986061096,4.137812614440918,43.74226320102076,43.04882687857588,175.58980725693434,155.72772678681838,0.0001295089750783,0.0947341993451118,0,0,0
14512,529961.7471637399,2010-12-19 15:50:08,4442.222711964003,2,50,0.550297200679779,4.141212463378906,43.74685078508448,43.04882687857588,175.6087976899656,155.72772678681838,9.71794142969884e-05,0.0947341993451118,0,0,0
14513,529991.7622969694,2010-12-19 15:50:38,4472.237845198629,2,50,0.550297200679779,4.144773960113525,43.75143834793213,43.04882687857588,175.6278038110617,155.72772678681838,9.71794142969884e-05,0.0947341993451118,0,0,0
14514,530021.7777153888,2010-12-19 15:51:08,4502.253263723188,2,50,0.5497553944587708,4.148011684417725,43.75602596419521,43.04882687857588,175.64682634682134,155.72772678681838,3.24249267578125e-05,0.0947341993451118,0,0,0
14515,530051.7925838045,2010-12-19 15:51:38,4532.268132018523,2,50,0.5501165986061096,4.151573181152344,43.76061346378245,43.04882687857588,175.66586431981483,155.72772678681838,9.71794142969884e-05,0.0947341993451118,0,0,0
14516,530081.80766723,2010-12-19 15:52:08,4562.283215439189,2,50,0.5501165986061096,4.155296325683594,43.76520105520822,43.04882687857588,175.68491880404162,155.72772678681838,9.70840483205393e-05,0.0947341993451118,0,0,0
14517,530111.8227998882,2010-12-19 15:52:38,4592.298348112418,2,50,0.550297200679779,4.158857822418213,43.769788639215285,43.04882687857588,175.70398940562131,155.72772678681838,0.0001295089750783,0.0947341993451118,0,0,0
14518,530141.83806859,2010-12-19 15:53:08,4622.313616804124,2,50,0.550297200679779,4.162419319152832,43.77437623705659,43.04882687857588,175.72307631971222,155.72772678681838,0.0001295089750783,0.0947341993451118,0,0,0
14519,530171.8531697098,2010-12-19 15:53:38,4652.328717923834,2,50,0.5501165986061096,4.165980815887451,43.77896383397856,43.04882687857588,175.74217959275475,155.72772678681838,0.0001295089750783,0.0947341993451118,0,0,0
14520,530201.868174224,2010-12-19 15:54:08,4682.343722433132,2,50,0.5501165986061096,4.16954231262207,43.78355133375494,43.04882687857588,175.76129894151958,155.72772678681838,9.70840483205393e-05,0.0947341993451118,0,0,0
14521,530231.8834254773,2010-12-19 15:54:38,4712.358973706493,2,50,0.5501165986061096,4.1731038093566895,43.78813807774167,43.04882687857588,175.7804315251587,155.72772678681838,9.70840483205393e-05,0.0947341993451118,0,0,0
14522,530261.898430528,2010-12-19 15:55:08,4742.373978752125,2,50,0.5501165986061096,4.176827430725098,43.792724805529694,43.04882687857588,175.7995806208823,155.72772678681838,9.71794142969884e-05,0.0947341993451118,0,0,0
14523,530291.9135352166,2010-12-19 15:55:38,4772.389083445729,2,50,0.5501165986061096,4.180226802825928,43.79731153885469,43.04882687857588,175.8187464602776,155.72772678681838,6.47544875391759e-05,0.0947341993451118,0,0,0
14524,530321.9287782044,2010-12-19 15:56:08,4802.404326428458,2,50,0.550297200679779,4.184112071990967,43.80189829958421,43.04882687857588,175.8379293195661,155.72772678681838,9.70840483205393e-05,0.0947341993451118,0,0,0
14525,530351.9437955706,2010-12-19 15:56:38,4832.419343784726,2,50,0.550297200679779,4.187673568725586,43.80648583014517,43.04882687857588,175.8571325796324,155.72772678681838,6.47544875391759e-05,0.0947341993451118,0,0,0
14526,530381.959035225,2010-12-19 15:57:08,4862.434583434161,2,50,0.5501165986061096,4.191558837890625,43.81107340790869,43.04882687857588,175.8763531917387,155.72772678681838,9.70840483205393e-05,0.0947341993451118,0,0,0
14527,530411.9741619384,2010-12-19 15:57:38,4892.449710167609,2,50,0.5501165986061096,4.195281982421875,43.815660973748415,43.04882687857588,175.89559096094317,155.72772678681838,6.47544875391759e-05,0.0947341993451118,0,0,0
14528,530441.9909737151,2010-12-19 15:58:08,4922.466522009385,2,50,0.550297200679779,4.199167251586914,43.82024875146133,43.04882687857588,175.91484691675498,155.72772678681838,9.70840483205393e-05,0.0947341993451118,0,0,0
14529,530448.5203045938,2010-12-19 15:58:14,4928.995852817974,2,50,0.550297200679779,4.200138568878174,43.8212467304545,43.04882687857588,175.91903798622226,155.72772678681838,0.0001618385285837,0.0947341993451118,0,0,0
14530,530478.5061402329,2010-12-19 15:58:44,30.01516943972116,3,50,0.0,4.112558841705322,43.8212467304545,43.04882687857588,175.91903798622226,155.72772678681838,-0.0004208564641885,0.0947341993451118,0,0,0
14531,530508.5212426006,2010-12-19 15:59:14,60.03027169726203,3,50,0.0,4.101712226867676,43.8212467304545,43.04882687857588,175.91903798622226,155.72772678681838,-0.0002590179501567,0.0947341993451118,0,0,0
14532,530538.5363464322,2010-12-19 15:59:44,90.04537554876944,3,50,0.0,4.095236778259277,43.8212467304545,43.04882687857588,175.91903798622226,155.72772678681838,-0.0001942634553415,0.0947341993451118,0,0,0
14533,530568.5046205296,2010-12-19 16:00:14,120.01364973645956,3,50,0.0,4.091027736663818,43.8212467304545,43.04882687857588,175.91903798622226,155.72772678681838,-0.0001295089750783,0.0947341993451118,0,0,0
14534,530568.5086596805,2010-12-19 16:00:15,0.015774604496574,4,50,1.0056132078170776,4.199814796447754,43.821251158652,43.04882687857588,175.91905658383163,155.72772678681838,0.0,0.0947341993451118,0,0,0
14535,530569.3991250644,2010-12-19 16:00:16,0.906240008405532,4,50,0.954681396484375,4.199653148651123,43.82149236274805,43.04882687857588,175.92006957071908,155.72772678681838,-3.23295607813634e-05,0.0947341993451118,0,0,0
14536,530571.3210877596,2010-12-19 16:00:17,2.828202703651009,4,50,0.9042913913726808,4.199653148651123,43.82198772800602,43.04882687857588,175.92214996607828,155.72772678681838,-3.23295607813634e-05,0.0947341993451118,0,0,0
14537,530574.2428004944,2010-12-19 16:00:20,5.749915438417909,4,50,0.8540820479393005,4.199653148651123,43.8227001565304,43.04882687857588,175.92514197227524,155.72772678681838,0.0,0.0947341993451118,0,0,0
14538,530578.2427418345,2010-12-19 16:00:24,9.749856778599051,4,50,0.8040532469749451,4.199814796447754,43.82361995014078,43.04882687857588,175.92900485120728,155.72772678681838,3.23295607813634e-05,0.0947341993451118,0,0,0
14539,530583.5239208454,2010-12-19 16:00:30,15.031035789445273,4,50,0.7538439035415649,4.199814796447754,43.824761033188246,43.04882687857588,175.93379709976864,155.72772678681838,3.23295607813634e-05,0.0947341993451118,0,0,0
14540,530590.3675174223,2010-12-19 16:00:36,21.874632351274133,4,50,0.7038151025772095,4.199814796447754,43.82614453850894,43.04882687857588,175.93960747317558,155.72772678681838,3.23295607813634e-05,0.0947341993451118,0,0,0
14541,530599.5548909479,2010-12-19 16:00:46,31.06200596214426,4,50,0.6536057591438293,4.199653148651123,43.82787355002185,43.04882687857588,175.94686888368508,155.72772678681838,-6.47544875391759e-05,0.0947341993451118,0,0,0
14542,530612.3515409392,2010-12-19 16:00:58,43.8586558632443,4,50,0.6033963561058044,4.199814796447754,43.83010261043199,43.04882687857588,175.9562304027411,155.72772678681838,3.23295607813634e-05,0.0947341993451118,0,0,0
14543,530631.585599429,2010-12-19 16:01:18,63.092714373074536,4,50,0.553367555141449,4.199653148651123,43.833183280051706,43.04882687857588,175.9691684545726,155.72772678681838,0.0,0.0947341993451118,0,0,0
14544,530664.3506576762,2010-12-19 16:01:50,95.8577726002784,4,50,0.5033388137817383,4.199491024017334,43.83797158074584,43.04882687857588,175.98927810099244,155.72772678681838,-6.47544875391759e-05,0.0947341993451118,0,0,0
14545,530724.2871702275,2010-12-19 16:02:50,155.79428516654906,4,50,0.4533100426197052,4.199491024017334,43.84590121036898,43.04882687857588,176.02258058553022,155.72772678681838,-9.71794142969884e-05,0.0947341993451118,0,0,0
14546,530819.5218620653,2010-12-19 16:04:26,251.0289770795017,4,50,0.4032812714576721,4.199653148651123,43.85720438481595,43.04882687857588,176.07005118347112,155.72772678681838,3.24249267578125e-05,0.0947341993451118,0,0,0
14547,530939.5492223699,2010-12-19 16:06:26,371.0563372989709,4,50,0.353252500295639,4.199814796447754,43.86979734176406,43.04882687857588,176.1229386074274,155.72772678681838,0.0,0.0947341993451118,0,0,0
14548,531083.3593004982,2010-12-19 16:08:49,514.8664154422737,4,50,0.3032237291336059,4.199653148651123,43.882889512739325,43.04882687857588,176.17792261085197,155.72772678681838,-3.23295607813634e-05,0.0947341993451118,0,0,0
14549,531255.9979707692,2010-12-19 16:11:42,687.5050857834689,4,50,0.2531949579715729,4.199653148651123,43.896207865837226,43.04882687857588,176.23385646410622,155.72772678681838,0.0,0.0947341993451118,0,0,0
14550,531472.337191815,2010-12-19 16:15:18,903.8443067190276,4,50,0.2031661868095398,4.199491024017334,43.90988625673233,43.04882687857588,176.29130243451937,155.72772678681838,-6.47544875391759e-05,0.0947341993451118,0,0,0
14551,531766.3166849569,2010-12-19 16:20:12,1197.8237998958948,4,50,0.1531374305486679,4.199653148651123,43.92435394724728,43.04882687857588,176.35206326442108,155.72772678681838,0.0,0.0947341993451118,0,0,0
14552,532220.0122378605,2010-12-19 16:27:46,1651.5193527994663,4,50,0.1031086519360542,4.199653148651123,43.94026729872054,43.04882687857588,176.4188954622981,155.72772678681838,0.0,0.0947341993451118,0,0,0
14553,533113.2473846581,2010-12-19 16:42:39,2544.7544995820367,4,50,0.0530798844993114,4.199653148651123,43.95885129400781,43.04882687857588,176.49694355864716,155.72772678681838,-3.23295607813634e-05,0.0947341993451118,0,0,0
14554,533212.5582337965,2010-12-19 16:44:19,2644.065348725482,4,50,0.0498289167881011,4.199653148651123,43.96028004384192,43.04882687857588,176.50294395396884,155.72772678681838,-3.23295607813634e-05,0.0947341993451118,0,0,0
14555,533242.5900387617,2010-12-19 16:44:49,30.015107681037044,5,50,0.0,4.191720962524414,43.96028004384192,43.04882687857588,176.50294395396884,155.72772678681838,-6.47544875391759e-05,0.0947341993451118,0,0,0
14556,533272.58952525,2010-12-19 16:45:19,60.01459418437419,5,50,0.0,4.190263748168945,43.96028004384192,43.04882687857588,176.50294395396884,155.72772678681838,-9.71794142969884e-05,0.0947341993451118,0,0,0
14557,533272.794839024,2010-12-19 16:45:19,0.187625268263718,6,50,-1.9243103452026844e-05,4.190425872802734,43.96028004384192,43.0488268795788,176.50294395396884,155.727726791021,0.0,0.0963535830378532,0,0,0
14558,533277.6227482554,2010-12-19 16:45:24,5.015534514734743,6,50,0.0008838032954372,4.190425872802734,43.96028111186661,43.04882687966192,176.50294842958374,155.72772679136935,-6.47544875391759e-05,0.0963535830378532,0,0,0
14559,533307.6226688629,2010-12-19 16:45:54,30.01338712449827,7,50,-1.099568486213684,4.011056423187256,43.96028111186661,43.05799532738054,176.50294842958374,155.76470911149053,-0.0009388923645019,0.0963535830378532,0,0,0
14560,533337.6376490517,2010-12-19 16:46:24,60.02836734836304,7,50,-1.099568486213684,3.982888221740722,43.96028111186661,43.067164197429896,176.50294842958374,155.8013464774601,-0.0005827903514727,0.0963535830378532,0,0,0
14561,533367.6526970743,2010-12-19 16:46:54,90.04341527069285,7,50,-1.0997490882873535,3.9631381034851074,43.96028111186661,43.07633297649544,176.50294842958374,155.8377691965579,-0.0004856586456298,0.0963535830378532,0,0,0
14562,533397.6678263892,2010-12-19 16:47:24,120.05854460060227,7,50,-1.099568486213684,3.947758913040161,43.96028111186661,43.085501795431526,176.50294842958374,155.8740340715587,-0.0003885269106831,0.0963535830378532,0,0,0
14563,533427.6829429022,2010-12-19 16:47:54,150.07366111361736,7,50,-1.099568486213684,3.9346461296081534,43.96028111186661,43.09467059233831,176.50294842958374,155.91016882611763,-0.0003237724304199,0.0963535830378532,0,0,0
14564,533457.6980740366,2010-12-19 16:48:24,180.08879224300472,7,50,-1.099568486213684,3.9225046634674072,43.96028111186661,43.10383938380206,176.50294842958374,155.946188142827,-0.0003237724304199,0.0963535830378532,0,0,0
14565,533487.713316869,2010-12-19 16:48:54,210.10403508037308,7,50,-1.099929690361023,3.911172866821289,43.96028111186661,43.113008260726005,176.50294842958374,155.98210126251917,-0.0002913951757363,0.0963535830378532,0,0,0
14566,533517.7284094975,2010-12-19 16:49:24,240.1191277741148,7,50,-1.099568486213684,3.900488376617432,43.96028111186661,43.122177083741725,176.50294842958374,156.017913308923,-0.0002590179501567,0.0963535830378532,0,0,0
14567,533547.7434765375,2010-12-19 16:49:54,270.13419472880594,7,50,-1.0997490882873535,3.890127658843994,43.96028111186661,43.1313458812164,176.50294842958374,156.05362844711124,-0.0002913951757363,0.0963535830378532,0,0,0
14568,533577.7587926972,2010-12-19 16:50:24,300.1495109738465,7,50,-1.0997490882873535,3.880090713500977,43.96028111186661,43.14051477101148,176.50294842958374,156.0892503438959,-0.0002590179501567,0.0963535830378532,0,0,0
14569,533607.7736964609,2010-12-19 16:50:54,330.16441467228066,7,50,-1.099568486213684,3.870377540588379,43.96028111186661,43.14968356404976,176.50294842958374,156.12478047527452,-0.0001942634553415,0.0963535830378532,0,0,0
14570,533637.7889587667,2010-12-19 16:51:24,360.179676973083,7,50,-1.0997490882873535,3.8605024814605713,43.96028111186661,43.15885245374387,176.50294842958374,156.16022181180725,-0.0002590179501567,0.0963535830378532,0,0,0
14571,533667.8039491709,2010-12-19 16:51:54,390.1946673822936,7,50,-1.0997490882873535,3.851274967193604,43.96028111186661,43.16802127231071,176.50294842958374,156.195575595622,-0.0002266406954731,0.0963535830378532,0,0,0
14572,533697.8191126157,2010-12-19 16:52:24,420.2098308772215,7,50,-1.099568486213684,3.8422093391418457,43.96028111186661,43.1771901359249,176.50294842958374,156.2308443054339,-0.0001942634553415,0.0963535830378532,0,0,0
14573,533727.8345413858,2010-12-19 16:52:54,450.225259667326,7,50,-1.0997490882873535,3.832820177078247,43.96028111186661,43.18635916057848,176.50294842958374,156.26603039350576,-0.0002589702489785,0.0963535830378532,0,0,0
14574,533757.8494318813,2010-12-19 16:53:24,480.24015015789286,7,50,-1.099929690361023,3.824078321456909,43.96028111186661,43.19552799756293,176.50294842958374,156.301133824433,-0.0002590179501567,0.0963535830378532,0,0,0
14575,533787.8644710468,2010-12-19 16:53:54,510.2551892582696,7,50,-1.0997490882873535,3.815660238265991,43.96028111186661,43.20469689267814,176.50294842958374,156.33615748917833,-0.0002266406954731,0.0963535830378532,0,0,0
14576,533817.8797872668,2010-12-19 16:54:24,540.27050554341,7,50,-1.0997490882873535,3.806918382644653,43.96028111186661,43.21386587155508,176.50294842958374,156.37110271996752,-0.0002266406954731,0.0963535830378532,0,0,0
14577,533847.894700519,2010-12-19 16:54:54,570.2854187304562,7,50,-1.0997490882873535,3.798662185668945,43.96028111186661,43.2230346837246,176.50294842958374,156.40597025376536,-0.0002266406954731,0.0963535830378532,0,0,0
14578,533877.9118011745,2010-12-19 16:55:24,600.3025194360582,7,50,-1.0997490882873535,3.790729761123657,43.96028111186661,43.232204166712464,176.50294842958374,156.440765079577,-0.0001942634553415,0.0963535830378532,0,0,0
14579,533907.9250937738,2010-12-19 16:55:54,630.3158120704214,7,50,-1.0997490882873535,3.782797336578369,43.96028111186661,43.24137252126418,176.50294842958374,156.47548250894138,-0.0001618862152099,0.0963535830378532,0,0,0
14580,533937.9401452751,2010-12-19 16:56:24,660.3308635516072,7,50,-1.099568486213684,3.775188684463501,43.96028111186661,43.250541371245056,176.50294842958374,156.51013061783502,-0.0001942634553415,0.0963535830378532,0,0,0
14581,533967.9553553809,2010-12-19 16:56:54,690.3460735773251,7,50,-1.099568486213684,3.7677419185638423,43.96028111186661,43.25971030201933,176.50294842958374,156.54470978804997,-0.0001618862152099,0.0963535830378532,0,0,0
14582,533997.970420461,2010-12-19 16:57:24,720.3611387375507,7,50,-1.0997490882873535,3.760295152664185,43.96028111186661,43.268879196093366,176.50294842958374,156.57922136746458,-0.0001942634553415,0.0963535830378532,0,0,0
14583,534027.9855878406,2010-12-19 16:57:54,750.3763060369457,7,50,-1.099568486213684,3.7531721591949454,43.96028111186661,43.278048156304926,176.50294842958374,156.6136670501764,-0.0001618862152099,0.0963535830378532,0,0,0
14584,534058.0007931245,2010-12-19 16:58:24,780.3915114010633,7,50,-1.0997490882873535,3.746373176574707,43.96028111186661,43.28721705207369,176.50294842958374,156.64804816989897,-0.0001618862152099,0.0963535830378532,0,0,0
14585,534088.0157055747,2010-12-19 16:58:54,810.4064237811015,7,50,-1.099929690361023,3.739412069320679,43.96028111186661,43.29638589634884,176.50294842958374,156.68236600636146,-0.0001942634553415,0.0963535830378532,0,0,0
14586,534118.0310301755,2010-12-19 16:59:25,840.4217484521098,7,50,-1.0997490882873535,3.7327747344970703,43.96028111186661,43.30555488125945,176.50294842958374,156.71662254332128,-0.0001618862152099,0.0963535830378532,0,0,0
14587,534148.0460989849,2010-12-19 16:59:55,870.4368172463785,7,50,-1.099929690361023,3.726137399673462,43.96028111186661,43.31472375379665,176.50294842958374,156.7508181995854,-0.0002266406954731,0.0963535830378532,0,0,0
14588,534178.0611828917,2010-12-19 17:00:25,900.4519010981173,7,50,-1.0997490882873535,3.7199857234954834,43.96028111186661,43.32389260156975,176.50294842958374,156.7849547519077,-0.0001618862152099,0.0963535830378532,0,0,0
14589,534208.076213897,2010-12-19 17:00:55,930.4669321033494,7,50,-1.099568486213684,3.713672161102295,43.96028111186661,43.33306146589881,176.50294842958374,156.81903318905773,-0.0001295089750783,0.0963535830378532,0,0,0
14590,534238.0914192009,2010-12-19 17:01:25,960.4821374073174,7,50,-1.099929690361023,3.7073585987091056,43.96028111186661,43.34223038444638,176.50294842958374,156.85305459774256,-0.0001942634553415,0.0963535830378532,0,0,0
14591,534268.1064631934,2010-12-19 17:01:55,990.497181399868,7,50,-1.0997490882873535,3.701368808746338,43.96028111186661,43.35139925093232,176.50294842958374,156.88701956502933,-0.0001295089750783,0.0963535830378532,0,0,0
14592,534298.1216645726,2010-12-19 17:02:25,1020.5123828342068,7,50,-1.0997490882873535,3.695379018783569,43.96028111186661,43.36056820016751,176.50294842958374,156.92092934656853,-0.0001618862152099,0.0963535830378532,0,0,0
14593,534328.1367255475,2010-12-19 17:02:55,1050.5274437538797,7,50,-1.0997490882873535,3.689389228820801,43.96028111186661,43.36973710420221,176.50294842958374,156.95478449275433,-0.0001618862152099,0.0963535830378532,0,0,0
14594,534358.1519293677,2010-12-19 17:03:25,1080.542647629293,7,50,-1.0997490882873535,3.683723211288452,43.96028111186661,43.37890606707137,176.50294842958374,156.98858649155036,-0.0001295089750783,0.0963535830378532,0,0,0
14595,534388.1669984978,2010-12-19 17:03:55,1110.5577166942353,7,50,-1.099929690361023,3.6778953075408936,43.96028111186661,43.38807489769782,176.50294842958374,157.02233542203194,-0.0001295089750783,0.0963535830378532,0,0,0
14596,534418.1821553011,2010-12-19 17:04:25,1140.5728735777109,7,50,-1.0997490882873535,3.672391414642334,43.96028111186661,43.397243800496405,176.50294842958374,157.05603305742412,-0.0001294612884521,0.0963535830378532,0,0,0
14597,534448.1972416842,2010-12-19 17:04:55,1170.5879598905738,7,50,-1.099568486213684,3.667049169540405,43.96028111186661,43.406412736159005,176.50294842958374,157.08968002324792,-0.0001295089750783,0.0963535830378532,0,0,0
14598,534478.2142794732,2010-12-19 17:05:25,1200.6049977698349,7,50,-1.099568486213684,3.6615450382232666,43.96028111186661,43.41558221852838,176.50294842958374,157.1232790960916,-9.713172767078504e-05,0.0963535830378532,0,0,0
14599,534508.2274832865,2010-12-19 17:05:55,1230.618201482921,7,50,-1.0997490882873535,3.656364679336548,43.96028111186661,43.424750532048726,176.50294842958374,157.15682474105347,-0.0001295089750783,0.0963535830378532,0,0,0
14600,534538.2428079175,2010-12-19 17:06:25,1260.6335261789916,7,50,-1.0997490882873535,3.651022434234619,43.96028111186661,43.43391953003389,176.50294842958374,157.19032472972535,-9.713172767078504e-05,0.0963535830378532,0,0,0
14601,534568.2577309791,2010-12-19 17:06:55,1290.6484491604108,7,50,-1.0997490882873535,3.645842075347901,43.96028111186661,43.44308839149412,176.50294842958374,157.22377674966444,-6.47544875391759e-05,0.0963535830378532,0,0,0
14602,534598.2729522528,2010-12-19 17:07:25,1320.6636705293558,7,50,-1.099929690361023,3.640823602676392,43.96028111186661,43.452257258908766,176.50294842958374,157.2571822467805,-0.0001295089750783,0.0963535830378532,0,0,0
14603,534628.2879901301,2010-12-19 17:07:55,1350.6787083916515,7,50,-1.099929690361023,3.635805130004883,43.96028111186661,43.46142613515445,176.50294842958374,157.29054200265983,-0.0001618862152099,0.0963535830378532,0,0,0
14604,534658.303217128,2010-12-19 17:08:25,1380.6939354246915,7,50,-1.0997490882873535,3.630948543548584,43.96028111186661,43.47059508332154,176.50294842958374,157.32385745085327,-0.0001618862152099,0.0963535830378532,0,0,0
14605,534688.3212463843,2010-12-19 17:08:55,1410.711964680956,7,50,-1.0997490882873535,3.626415729522705,43.96028111186661,43.4797648688117,176.50294842958374,157.35713222614126,-0.0001295089750783,0.0963535830378532,0,0,0
14606,534718.3334522041,2010-12-19 17:09:25,1440.7241705008232,7,50,-1.099568486213684,3.621882915496826,43.96028111186661,43.48893286336467,176.50294842958374,157.39035819974987,-0.0001295089750783,0.0963535830378532,0,0,0
14607,534748.3485126527,2010-12-19 17:09:55,1470.7392309142365,7,50,-1.099929690361023,3.6173501014709473,43.96028111186661,43.49810178179247,176.50294842958374,157.4235460259,-9.713172767078504e-05,0.0963535830378532,0,0,0
14608,534778.3637046034,2010-12-19 17:10:25,1500.7544228649756,7,50,-1.0997490882873535,3.6129791736602783,43.96028111186661,43.50727064776966,176.50294842958374,157.45669309479015,-9.713172767078504e-05,0.0963535830378532,0,0,0
14609,534808.3787612425,2010-12-19 17:10:55,1530.7694794338215,7,50,-1.099568486213684,3.60860824584961,43.96028111186661,43.51643951646001,176.50294842958374,157.48980052685542,-0.0001295089750783,0.0963535830378532,0,0,0
14610,534838.3940662094,2010-12-19 17:11:25,1560.7847844860096,7,50,-1.099568486213684,3.6047229766845694,43.96028111186661,43.52560844290304,176.50294842958374,157.52286952396517,-6.47544875391759e-05,0.0963535830378532,0,0,0
14611,534868.4089883938,2010-12-19 17:11:55,1590.7997066002706,7,50,-1.0997490882873535,3.6005139350891118,43.96028111186661,43.53477724129058,176.50294842958374,157.55590085643072,-9.713172767078504e-05,0.0963535830378532,0,0,0
14612,534898.4241948107,2010-12-19 17:12:25,1620.8149130871825,7,50,-1.099568486213684,3.5966286659240723,43.96028111186661,43.54394618556413,176.50294842958374,157.58889605531735,-9.713172767078504e-05,0.0963535830378532,0,0,0
14613,534928.4393609021,2010-12-19 17:12:55,1650.8300790933592,7,50,-1.099929690361023,3.592743396759033,43.96028111186661,43.55311518755979,176.50294842958374,157.62185584184476,-0.0001295089750783,0.0963535830378532,0,0,0
14614,534958.4544673149,2010-12-19 17:13:25,1680.8451855062406,7,50,-1.099929690361023,3.589020252227783,43.96028111186661,43.56228417737941,176.50294842958374,157.6547810063939,-9.713172767078504e-05,0.0963535830378532,0,0,0
14615,534988.4696154967,2010-12-19 17:13:55,1710.8603336880622,7,50,-1.099929690361023,3.585458755493164,43.96028111186661,43.57145313367422,176.50294842958374,157.68767229933547,-6.47544875391759e-05,0.0963535830378532,0,0,0
14616,535018.4846659102,2010-12-19 17:14:25,1740.875384186803,7,50,-1.099568486213684,3.581897258758545,43.96028111186661,43.58062197118882,176.50294842958374,157.7205302151678,-6.47544875391759e-05,0.0963535830378532,0,0,0
14617,535048.4997326644,2010-12-19 17:14:55,1770.8904508557837,7,50,-1.099568486213684,3.578335762023926,43.96028111186661,43.58979089279914,176.50294842958374,157.75335617271858,-0.0001295089750783,0.0963535830378532,0,0,0
14618,535078.5168000672,2010-12-19 17:15:25,1800.9075183487373,7,50,-1.0997490882873535,3.5749361515045166,43.96028111186661,43.59896048822942,176.50294842958374,157.78615275005245,-9.713172767078504e-05,0.0963535830378532,0,0,0
14619,535108.530151593,2010-12-19 17:15:55,1830.9208697894376,7,50,-1.099929690361023,3.5715365409851074,43.96028111186661,43.60812887403466,176.50294842958374,157.8189138396033,-9.713172767078504e-05,0.0963535830378532,0,0,0
14620,535138.5451469796,2010-12-19 17:16:25,1860.9358651760344,7,50,-1.099929690361023,3.5681369304656982,43.96028111186661,43.61729783391036,176.50294842958374,157.85164576693245,-9.713172767078504e-05,0.0963535830378532,0,0,0
14621,535168.5602749462,2010-12-19 17:16:55,1890.950993152576,7,50,-1.099568486213684,3.564737319946289,43.96028111186661,43.6264668381717,176.50294842958374,157.88434705358745,-9.713172767078504e-05,0.0963535830378532,0,0,0
14622,535198.5754981948,2010-12-19 17:17:25,1920.9662164763856,7,50,-1.099929690361023,3.56149959564209,43.96028111186661,43.63563589134489,176.50294842958374,157.91701784031335,-9.713172767078504e-05,0.0963535830378532,0,0,0
14623,535228.5907675232,2010-12-19 17:17:55,1950.9814858247253,7,50,-1.099929690361023,3.5580999851226807,43.96028111186661,43.64480491793284,176.50294842958374,157.9496584209704,-9.713172767078504e-05,0.0963535830378532,0,0,0
14624,535258.6058294703,2010-12-19 17:18:25,1980.9965477368685,7,50,-1.099929690361023,3.5550241470336914,43.96028111186661,43.65397388047598,176.50294842958374,157.9822680814853,-6.47544875391759e-05,0.0963535830378532,0,0,0
14625,535288.6207702159,2010-12-19 17:18:55,2011.0114884273555,7,50,-1.0997490882873535,3.5516245365142822,43.96028111186661,43.66314285157634,176.50294842958374,158.01484698646885,-6.47544875391759e-05,0.0963535830378532,0,0,0
14626,535318.6360202162,2010-12-19 17:19:25,2041.0267384927108,7,50,-1.099568486213684,3.548063039779663,43.96028111186661,43.67231185578913,176.50294842958374,158.04739477185908,-6.47544875391759e-05,0.0963535830378532,0,0,0
14627,535348.6510198081,2010-12-19 17:19:55,2071.0417380196104,7,50,-1.099568486213684,3.544663429260254,43.96028111186661,43.68148081112546,176.50294842958374,158.07991063785266,-6.47544875391759e-05,0.0963535830378532,0,0,0
14628,535378.666220651,2010-12-19 17:20:25,2101.0569388574645,7,50,-1.0997490882873535,3.540940046310425,43.96028111186661,43.69064985367971,176.50294842958374,158.11239466443232,-9.713172767078504e-05,0.0963535830378532,0,0,0
14629,535408.6812817111,2010-12-19 17:20:55,2131.0719999225,7,50,-1.0997490882873535,3.5373785495758057,43.96028111186661,43.699818788706416,176.50294842958374,158.14484562546082,-9.713172767078504e-05,0.0963535830378532,0,0,0
14630,535438.6964976265,2010-12-19 17:21:25,2161.087215903036,7,50,-1.0997490882873535,3.533655166625977,43.96028111186661,43.708987832680265,176.50294842958374,158.17726321364836,-9.713172767078504e-05,0.0963535830378532,0,0,0
14631,535468.7115478144,2010-12-19 17:21:55,2191.102266085991,7,50,-1.099568486213684,3.529769897460937,43.96028111186661,43.71815683700064,176.50294842958374,158.20964589827065,-9.713172767078504e-05,0.0963535830378532,0,0,0
14632,535498.726722006,2010-12-19 17:22:25,2221.1174402675115,7,50,-1.099929690361023,3.5258846282958984,43.96028111186661,43.727325868631205,176.50294842958374,158.24199309157044,-9.713172767078504e-05,0.0963535830378532,0,0,0
14633,535528.7417829707,2010-12-19 17:22:55,2251.13250117716,7,50,-1.0997490882873535,3.5218374729156494,43.96028111186661,43.73649489173087,176.50294842958374,158.27430347997694,-9.713172767078504e-05,0.0963535830378532,0,0,0
14634,535558.7569973423,2010-12-19 17:23:25,2281.147715618867,7,50,-1.0997490882873535,3.5176284313201904,43.96028111186661,43.745663932863245,176.50294842958374,158.30657607437954,-9.713172767078504e-05,0.0963535830378532,0,0,0
14635,535588.7720289992,2010-12-19 17:23:55,2311.162747205546,7,50,-1.099929690361023,3.5129337310791016,43.96028111186661,43.7548329866846,176.50294842958374,158.33880893964886,-0.0001618862152099,0.0963535830378532,0,0,0
14636,535618.7872246141,2010-12-19 17:24:25,2341.177942890577,7,50,-1.099568486213684,3.508563041687012,43.96028111186661,43.76400206487784,176.50294842958374,158.37100052393566,-0.0001295089750783,0.0963535830378532,0,0,0
14637,535648.8025029497,2010-12-19 17:24:55,2371.193221156108,7,50,-1.0997490882873535,3.503544569015503,43.96028111186661,43.77317118691277,176.50294842958374,158.4031486554571,-0.0001618862152099,0.0963535830378532,0,0,0
14638,535678.8193502798,2010-12-19 17:25:25,2401.210068556369,7,50,-1.0997490882873535,3.498526096343994,43.96028111186661,43.78234078019155,176.50294842958374,158.435252296565,-9.713172767078504e-05,0.0963535830378532,0,0,0
14639,535708.8326944474,2010-12-19 17:25:55,2431.223412703921,7,50,-1.099929690361023,3.492860078811645,43.96028111186661,43.79150932998546,176.50294842958374,158.46730283987569,-0.0001618862152099,0.0963535830378532,0,0,0
14640,535738.8477354876,2010-12-19 17:26:25,2461.2384537341,7,50,-1.0997490882873535,3.486708402633667,43.96028111186661,43.80067838132963,176.50294842958374,158.49930119263686,-0.0001295089750783,0.0963535830378532,0,0,0
14641,535768.8628230185,2010-12-19 17:26:55,2491.253541224894,7,50,-1.099929690361023,3.4797472953796387,43.96028111186661,43.80984738848107,176.50294842958374,158.53123931192235,-0.0001618862152099,0.0963535830378532,0,0,0
14642,535798.8780011949,2010-12-19 17:27:25,2521.268719471531,7,50,-1.0997490882873535,3.4718148708343506,43.96028111186661,43.81901642769762,176.50294842958374,158.5631095102599,-0.0002266406954731,0.0963535830378532,0,0,0
14643,535828.8930428317,2010-12-19 17:27:55,2551.2837610380443,7,50,-1.0997490882873535,3.462587356567383,43.96028111186661,43.82818539618122,176.50294842958374,158.59490161109977,-0.0002913951757363,0.0963535830378532,0,0,0
14644,535858.9082858445,2010-12-19 17:28:25,2581.299004121024,7,50,-1.0997490882873535,3.4519028663635254,43.96028111186661,43.83735448716095,176.50294842958374,158.62660343536436,-0.0003237724304199,0.0963535830378532,0,0,0
14645,535888.9232988548,2010-12-19 17:28:55,2611.314017071328,7,50,-1.0997490882873535,3.4389519691467285,43.96028111186661,43.846523475107766,176.50294842958374,158.65819687247648,-0.0004209041653666,0.0963535830378532,0,0,0
14646,535918.9385326748,2010-12-19 17:29:25,2641.3292509363687,7,50,-1.0997490882873535,3.4230873584747314,43.96028111186661,43.85569255334351,176.50294842958374,158.6896593749671,-0.0004856586456298,0.0963535830378532,0,0,0
14647,535948.9535597704,2010-12-19 17:29:55,2671.344277981747,7,50,-1.099929690361023,3.4031753540039062,43.96028111186661,43.8648615849343,176.50294842958374,158.7209582354324,-0.0005827903514727,0.0963535830378532,0,0,0
14648,535978.9687754351,2010-12-19 17:30:25,2701.3594937317093,7,50,-1.099568486213684,3.3771116733551025,43.96028111186661,43.8740306299739,176.50294842958374,158.75204796581437,-0.0007770538213662,0.0963535830378532,0,0,0
14649,536008.9838098739,2010-12-19 17:30:55,2731.374528080262,7,50,-1.099929690361023,3.34246826171875,43.96028111186661,43.883199694751,176.50294842958374,158.78286243883488,-0.0010360718006268,0.0963535830378532,0,0,0
14650,536038.9990247667,2010-12-19 17:31:26,2761.389743028228,7,50,-1.099568486213684,3.296006917953491,43.96028111186661,43.89236876056679,176.50294842958374,158.81330764620787,-0.0013922214275225,0.0963535830378532,0,0,0
14651,536069.0142136097,2010-12-19 17:31:56,2791.404931811084,7,50,-1.099568486213684,3.231900215148926,43.96028111186661,43.901537798224,176.50294842958374,158.84325014010173,-0.0019426345825195,0.0963535830378532,0,0,0
14652,536099.0293017972,2010-12-19 17:32:26,2821.420020093849,7,50,-1.099568486213684,3.142053604125977,43.96028111186661,43.910706868688095,176.50294842958374,158.87249648424287,-0.002816820051521,0.0963535830378532,0,0,0
14653,536129.0446670442,2010-12-19 17:32:56,2851.435385340829,7,50,-1.0997490882873535,3.007040977478028,43.96028111186661,43.91987603290839,176.50294842958374,158.90073582116003,-0.0044033052399754,0.0963535830378532,0,0,0
14654,536155.3876384404,2010-12-19 17:33:22,2877.7783566467324,7,50,-1.099568486213684,2.806950092315674,43.96028111186661,43.92792333709618,176.50294842958374,158.92419290667164,-0.0072525022551417,0.0963535830378532,0,0,0
14655,536166.7468263125,2010-12-19 17:33:33,2889.137544503823,7,50,-1.099929690361023,2.699458122253418,43.96028111186661,43.93139334279984,176.50294842958374,158.93374770043604,-0.007640981581062,0.0963535830378532,0,0,0
14656,536226.7803468151,2010-12-19 17:34:33,60.014615517460754,8,50,0.0,3.408031940460205,43.96028111186661,43.93139334279984,176.50294842958374,158.93374770043604,0.0013598442310467,0.0963535830378532,0,0,0
14657,536226.9409774812,2010-12-19 17:34:34,0.187610847377898,9,50,-1.9243103452026844e-05,3.408355712890625,43.96028111186661,43.93139334380268,176.50294842958374,158.93374770385415,-3.237724376958795e-05,0.0947341993451118,0,0,0
14658,536231.7690229667,2010-12-19 17:34:39,5.015656398036652,9,50,0.0008838032954372,3.416773796081543,43.96028204289017,43.93139334396903,176.50295160745827,158.9337477044211,0.0011979580158367,0.0947341993451118,0,0,0
