Data_Point,Test_Time(s),Date_Time,Step_Time(s),Step_Index,Cycle_Index,Current(A),Voltage(V),Charge_Capacity(Ah),Discharge_Capacity(Ah),Charge_Energy(Wh),Discharge_Energy(Wh),dV/dt(V/s),Internal_Resistance(Ohm),Is_FC_Data,AC_Impedance(Ohm),ACI_Phase_Angle(Deg)
2372,87892.15186528067,2010-12-14 13:01:25,30.01499854445485,1,9,0.0,3.4803948402404785,7.157551408257847,7.141955385213899,28.7762265311012,25.796586893864443,0.0007446765666827,0.0972511246800422,0,0,0
2373,87922.16688665193,2010-12-14 13:01:55,60.03001991070086,1,9,0.0,3.503868341445923,7.157551408257847,7.141955385213899,28.7762265311012,25.796586893864443,0.0005504131549969,0.0972511246800422,0,0,0
2374,87952.18189014871,2010-12-14 13:02:25,90.04502340747939,1,9,0.0,3.5213518142700195,7.157551408257847,7.141955385213899,28.7762265311012,25.796586893864443,0.0004209041653666,0.0972511246800422,0,0,0
2375,87982.15000124053,2010-12-14 13:02:55,120.01313449931176,1,9,0.0,3.535112142562866,7.157551408257847,7.141955385213899,28.7762265311012,25.796586893864443,0.0002913951757363,0.0972511246800422,0,0,0
2376,88012.16508298622,2010-12-14 13:03:26,30.0151600463461,2,9,0.550297200679779,3.6822662353515625,7.162138476181175,7.141955385213899,28.79298799145859,25.796586893864443,0.0012303352123126,0.0972511246800422,0,0,0
2377,88042.17991480078,2010-12-14 13:03:56,60.02999186090002,2,9,0.550297200679779,3.718366861343384,7.166725607076862,7.141955385213899,28.80996683319608,25.796586893864443,0.0008418083307333,0.0972511246800422,0,0,0
2378,88072.19502857196,2010-12-14 13:04:26,90.04510563710464,2,9,0.5501165986061096,3.743459224700928,7.171312712192789,7.141955385213899,28.827083163851057,25.796586893864443,0.0006475448608398,0.0972511246800422,0,0,0
2379,88102.20993850593,2010-12-14 13:04:56,120.0600155660432,2,9,0.5501165986061096,3.762237787246704,7.175899779270504,7.141955385213899,28.844299870561837,25.796586893864443,0.0004209041653666,0.0972511246800422,0,0,0
2380,88132.22494416808,2010-12-14 13:05:26,150.0750213234472,2,9,0.550297200679779,3.775674343109131,7.180486916282924,7.141955385213899,28.86159059195328,25.796586893864443,0.0002913951757363,0.0972511246800422,0,0,0
2381,88162.2399152091,2010-12-14 13:05:56,180.0899922541864,2,9,0.5501165986061096,3.784578084945679,7.185073914999591,7.141955385213899,28.87893131273505,25.796586893864443,0.0002266406954731,0.0972511246800422,0,0,0
2382,88192.25509820254,2010-12-14 13:06:26,210.10517523761047,2,9,0.5501165986061096,3.791053533554077,7.18966097446414,7.141955385213899,28.896307118458704,25.796586893864443,9.713172767078504e-05,0.0972511246800422,0,0,0
2383,88222.2699287339,2010-12-14 13:06:56,240.1200057940336,2,9,0.550297200679779,3.796719551086426,7.194247986657795,7.141955385213899,28.91371003363201,25.796586893864443,0.0001295089750783,0.0972511246800422,0,0,0
2384,88252.28492601021,2010-12-14 13:07:26,270.13500306532023,2,9,0.550297200679779,3.801899909973145,7.198835067592719,7.141955385213899,28.93113762650106,25.796586893864443,0.0001295089750783,0.0972511246800422,0,0,0
2385,88282.29982856079,2010-12-14 13:07:56,300.14990562592294,2,9,0.5499359965324402,3.8065946102142334,7.203422110540378,7.141955385213899,28.948587967200936,25.796586893864443,0.0001295089750783,0.0972511246800422,0,0,0
2386,88312.31490309433,2010-12-14 13:08:26,330.16498015446126,2,9,0.5501165986061096,3.811451196670532,7.208009165380442,7.141955385213899,28.96606015711625,25.796586893864443,0.0001618862152099,0.0972511246800422,0,0,0
2387,88342.32992807457,2010-12-14 13:08:56,360.1800051096382,2,9,0.5501165986061096,3.815822124481201,7.212596258669918,7.141955385213899,28.98355349408745,25.796586893864443,9.713172767078504e-05,0.0972511246800422,0,0,0
2388,88372.34491715547,2010-12-14 13:09:26,390.19499419054335,2,9,0.550297200679779,3.82035493850708,7.217183290093249,7.141955385213899,29.001066794922973,25.796586893864443,0.0001295089750783,0.0972511246800422,0,0,0
2389,88402.35993135389,2010-12-14 13:09:56,420.2100084090024,2,9,0.550297200679779,3.824402093887329,7.221770294272107,7.141955385213899,29.018599377230128,25.796586893864443,9.713172767078504e-05,0.0972511246800422,0,0,0
2390,88432.37512985092,2010-12-14 13:10:26,450.22520698121866,2,9,0.550297200679779,3.828449249267578,7.226357325479101,7.141955385213899,29.0361510213734,25.796586893864443,0.0001618862152099,0.0972511246800422,0,0,0
2391,88462.38999031676,2010-12-14 13:10:56,480.2400674671202,2,9,0.5501165986061096,3.832334518432617,7.230944413544949,7.141955385213899,29.05372143761404,25.796586893864443,9.713172767078504e-05,0.0972511246800422,0,0,0
2392,88492.4049538441,2010-12-14 13:11:26,510.2550309743862,2,9,0.5501165986061096,3.836381435394287,7.235531423774165,7.141955385213899,29.07130973660331,25.796586893864443,9.713172767078504e-05,0.0972511246800422,0,0,0
2393,88522.4199372609,2010-12-14 13:11:56,540.2700143260344,2,9,0.5501165986061096,3.840266704559326,7.240118507175674,7.141955385213899,29.08891634795867,25.796586893864443,9.713172767078504e-05,0.0972511246800422,0,0,0
2394,88552.43494225641,2010-12-14 13:12:26,570.2850193215424,2,9,0.5501165986061096,3.844151973724365,7.244705576147196,7.141955385213899,29.10654068369061,25.796586893864443,0.0001295089750783,0.0972511246800422,0,0,0
2395,88582.45008390196,2010-12-14 13:12:56,600.3001609620864,2,9,0.5501165986061096,3.8478753566741934,7.249292625911992,7.141955385213899,29.12418255094888,25.796586893864443,9.713172767078504e-05,0.0972511246800422,0,0,0
2396,88612.4649677159,2010-12-14 13:13:26,630.3150447710264,2,9,0.550297200679779,3.8517606258392334,7.253879653254822,7.141955385213899,29.14184193144461,25.796586893864443,9.713172767078504e-05,0.0972511246800422,0,0,0
2397,88642.47994917785,2010-12-14 13:13:56,660.3300262379845,2,9,0.550297200679779,3.8554840087890634,7.258466697614273,7.141955385213899,29.159518831873378,25.796586893864443,6.47544875391759e-05,0.0972511246800422,0,0,0
2398,88672.4949530656,2010-12-14 13:14:26,690.3450301006735,2,9,0.5501165986061096,3.859531164169312,7.263053758224683,7.141955385213899,29.177213253121003,25.796586893864443,0.0001295089750783,0.0972511246800422,0,0,0
2399,88702.50999077251,2010-12-14 13:14:56,720.3600678075827,2,9,0.550297200679779,3.8632545471191406,7.267640829517247,7.141955385213899,29.19492508691952,25.796586893864443,0.0001295089750783,0.0972511246800422,0,0,0
2400,88732.5249683498,2010-12-14 13:15:26,750.3750454149363,2,9,0.550297200679779,3.86665415763855,7.272227907058404,7.141955385213899,29.212653971349432,25.796586893864443,9.713172767078504e-05,0.0972511246800422,0,0,0
2401,88762.53996748573,2010-12-14 13:15:56,780.3900445258007,2,9,0.5501165986061096,3.870539426803589,7.276814921475426,7.141955385213899,29.23039946391341,25.796586893864443,0.0001295089750783,0.0972511246800422,0,0,0
2402,88792.55496667679,2010-12-14 13:16:26,810.405043741927,2,9,0.5499359965324402,3.873939037322998,7.281401965650763,7.141955385213899,29.24816159941459,25.796586893864443,9.713172767078504e-05,0.0972511246800422,0,0,0
2403,88822.5699987246,2010-12-14 13:16:56,840.4200757797288,2,9,0.550297200679779,3.877500534057617,7.285989087481514,7.141955385213899,29.265940082948347,25.796586893864443,9.713172767078504e-05,0.0972511246800422,0,0,0
2404,88852.58510175407,2010-12-14 13:17:26,870.4351788643279,2,9,0.550297200679779,3.8809001445770255,7.29057621769469,7.141955385213899,29.283734291489637,25.796586893864443,9.713172767078504e-05,0.0972511246800422,0,0,0
2405,88882.59997762325,2010-12-14 13:17:56,900.4500546783727,2,9,0.5501165986061096,3.8841378688812256,7.29516326029949,7.141955385213899,29.301543300057844,25.796586893864443,9.713172767078504e-05,0.0972511246800422,0,0,0
2406,88912.61498684429,2010-12-14 13:18:26,930.465063879346,2,9,0.5501165986061096,3.887213706970215,7.299750381863523,7.141955385213899,29.319367097852066,25.796586893864443,6.47544875391759e-05,0.0972511246800422,0,0,0
2407,88942.63001939836,2010-12-14 13:18:56,960.480096438445,2,9,0.550297200679779,3.890127658843994,7.304337502571327,7.141955385213899,29.33720477056112,25.796586893864443,6.47544875391759e-05,0.0972511246800422,0,0,0
2408,88972.64521660718,2010-12-14 13:19:26,990.495293642256,2,9,0.5501165986061096,3.892879724502564,7.308924644371806,7.141955385213899,29.35505565900472,25.796586893864443,6.47544875391759e-05,0.0972511246800422,0,0,0
2409,89002.66011749864,2010-12-14 13:19:56,1020.510194648992,2,9,0.5501165986061096,3.895308017730713,7.31351178890421,7.141955385213899,29.372918898912356,25.796586893864443,6.47544875391759e-05,0.0972511246800422,0,0,0
2410,89032.67503565806,2010-12-14 13:20:26,1050.5251128033992,2,9,0.5501165986061096,3.898060083389282,7.318098842078076,7.141955385213899,29.390793373230917,25.796586893864443,6.47544875391759e-05,0.0972511246800422,0,0,0
2411,89062.69001681425,2010-12-14 13:20:56,1080.5400938493096,2,9,0.5501165986061096,3.900164604187012,7.322685861217186,7.141955385213899,29.40867889435824,25.796586893864443,3.237724376958795e-05,0.0972511246800422,0,0,0
2412,89092.70500497286,2010-12-14 13:21:26,1110.5550820079195,2,9,0.5501165986061096,3.902592897415161,7.327272891659745,7.141955385213899,29.42657507937077,25.796586893864443,3.237724376958795e-05,0.0972511246800422,0,0,0
2413,89122.72000651478,2010-12-14 13:21:56,1140.570083554846,2,9,0.5501165986061096,3.9048593044281006,7.331859987372674,7.141955385213899,29.444481606725265,25.796586893864443,9.713172767078504e-05,0.0972511246800422,0,0,0
2414,89152.73500623215,2010-12-14 13:22:26,1170.5850832672072,2,9,0.5501165986061096,3.90680193901062,7.336447020953318,7.141955385213899,29.46239735968252,25.796586893864443,6.47544875391759e-05,0.0972511246800422,0,0,0
2415,89182.75003610455,2010-12-14 13:22:56,1200.60011323987,2,9,0.5499359965324402,3.90874457359314,7.341034117477034,7.141955385213899,29.480322577308044,25.796586893864443,3.237724376958795e-05,0.0972511246800422,0,0,0
2416,89212.7650224687,2010-12-14 13:23:26,1230.6150995037651,2,9,0.5501165986061096,3.910525321960449,7.345621100088094,7.141955385213899,29.498256187514485,25.796586893864443,3.237724376958795e-05,0.0972511246800422,0,0,0
2417,89242.78003809566,2010-12-14 13:23:56,1260.6301151507787,2,9,0.5501165986061096,3.912306070327759,7.350208171377991,7.141955385213899,29.516198653324487,25.796586893864443,0.0,0.0972511246800422,0,0,0
2418,89272.795022525,2010-12-14 13:24:26,1290.6450996252213,2,9,0.550297200679779,3.914410352706909,7.354795191370413,7.141955385213899,29.534149178731827,25.796586893864443,6.47544875391759e-05,0.0972511246800422,0,0,0
2419,89302.81003454799,2010-12-14 13:24:56,1320.660111583055,2,9,0.550297200679779,3.916029214859009,7.359382307634891,7.141955385213899,29.552108183222465,25.796586893864443,6.47544875391759e-05,0.0972511246800422,0,0,0
2420,89332.82503360372,2010-12-14 13:25:26,1350.675110638782,2,9,0.5501165986061096,3.917648077011109,7.363969348625149,7.141955385213899,29.570074908477977,25.796586893864443,3.237724376958795e-05,0.0972511246800422,0,0,0
2421,89362.8400438523,2010-12-14 13:25:56,1380.6901209174368,2,9,0.5501165986061096,3.919266939163208,7.368556396781101,7.141955385213899,29.58804952714376,25.796586893864443,3.237724376958795e-05,0.0972511246800422,0,0,0
2422,89392.85523786818,2010-12-14 13:26:26,1410.705314968402,2,9,0.5501165986061096,3.9213714599609375,7.373143544020237,7.141955385213899,29.60603234954723,25.796586893864443,0.0001295089750783,0.0972511246800422,0,0,0
2423,89422.87005485584,2010-12-14 13:26:56,1440.72013191596,2,9,0.5501165986061096,3.922828435897827,7.377730576249689,7.141955385213899,29.62402246725166,25.796586893864443,6.47544875391759e-05,0.0972511246800422,0,0,0
2424,89452.88502287933,2010-12-14 13:27:26,1470.7350999394648,2,9,0.5499359965324402,3.924285411834717,7.382317618084092,7.141955385213899,29.642020343058416,25.796586893864443,0.0,0.0972511246800422,0,0,0
2425,89482.90013421948,2010-12-14 13:27:56,1500.7502112796074,2,9,0.5501165986061096,3.925904273986816,7.386904700311783,7.141955385213899,29.660026121038573,25.796586893864443,0.0,0.0972511246800422,0,0,0
2426,89512.9150416472,2010-12-14 13:28:26,1530.7651187123342,2,9,0.550297200679779,3.927846908569336,7.391491735821384,7.141955385213899,29.678039349780185,25.796586893864443,6.47544875391759e-05,0.0972511246800422,0,0,0
2427,89542.93010714826,2010-12-14 13:28:56,1560.7801842083954,2,9,0.5501165986061096,3.9296276569366455,7.396078807422629,7.141955385213899,29.69606048618084,25.796586893864443,6.47544875391759e-05,0.0972511246800422,0,0,0
2428,89572.94507145754,2010-12-14 13:29:26,1590.79514850262,2,9,0.550297200679779,3.931084632873535,7.40066579864189,7.141955385213899,29.714088999662938,25.796586893864443,0.0,0.0972511246800422,0,0,0
2429,89602.96006446822,2010-12-14 13:29:56,1620.8101415283418,2,9,0.550297200679779,3.9328653812408447,7.405253000202458,7.141955385213899,29.732125993704276,25.796586893864443,9.713172767078504e-05,0.0972511246800422,0,0,0
2430,89632.97507648119,2010-12-14 13:30:26,1650.82515351625,2,9,0.550297200679779,3.9346461296081534,7.40984017071555,7.141955385213899,29.750170540450483,25.796586893864443,3.237724376958795e-05,0.0972511246800422,0,0,0
2431,89662.99011473445,2010-12-14 13:30:56,1680.8401918597433,2,9,0.5501165986061096,3.936103105545044,7.414427290468132,7.141955385213899,29.768222576623938,25.796586893864443,3.237724376958795e-05,0.0972511246800422,0,0,0
2432,89693.00505680338,2010-12-14 13:31:26,1710.8551338634986,2,9,0.5501165986061096,3.9378838539123535,7.41901447137905,7.141955385213899,29.786282436883543,25.796586893864443,6.47544875391759e-05,0.0972511246800422,0,0,0
2433,89723.02001524804,2010-12-14 13:31:56,1740.8700922831044,2,9,0.5501165986061096,3.939664602279663,7.42360163031898,7.141955385213899,29.8043501141399,25.796586893864443,6.47544875391759e-05,0.0972511246800422,0,0,0
2434,89753.03510311978,2010-12-14 13:32:26,1770.8851801849216,2,9,0.5501165986061096,3.9412834644317623,7.428188815555368,7.141955385213899,29.822425637282016,25.796586893864443,6.47544875391759e-05,0.0972511246800422,0,0,0
2435,89783.05012432061,2010-12-14 13:32:57,1800.9002013807435,2,9,0.5501165986061096,3.943064212799072,7.432775994360305,7.141955385213899,29.84050877958682,25.796586893864443,3.237724376958795e-05,0.0972511246800422,0,0,0
2436,89813.06524038251,2010-12-14 13:33:27,1830.9153174326111,2,9,0.5501165986061096,3.944683074951172,7.437363145385342,7.141955385213899,29.858599572002905,25.796586893864443,3.237724376958795e-05,0.0972511246800422,0,0,0
2437,89843.08012094337,2010-12-14 13:33:57,1860.9301980085056,2,9,0.550297200679779,3.9464638233184814,7.441950372510912,7.141955385213899,29.87669846915835,25.796586893864443,6.47544875391759e-05,0.0972511246800422,0,0,0
2438,89873.09526419289,2010-12-14 13:34:27,1890.9453412380035,2,9,0.5501165986061096,3.947920799255371,7.4465375501074,7.141955385213899,29.89480475294997,25.796586893864443,0.0,0.0972511246800422,0,0,0
2439,89903.11014591165,2010-12-14 13:34:57,1920.9602229517293,2,9,0.5501165986061096,3.9497015476226807,7.451124681024099,7.141955385213899,29.91291863580004,25.796586893864443,3.237724376958795e-05,0.0972511246800422,0,0,0
2440,89933.12518856087,2010-12-14 13:35:27,1950.9752656059504,2,9,0.5499359965324402,3.9511585235595694,7.45571182199551,7.141955385213899,29.93104036889587,25.796586893864443,-3.237724376958795e-05,0.0972511246800422,0,0,0
2441,89963.14013399815,2010-12-14 13:35:57,1980.9902110432504,2,9,0.550297200679779,3.95310115814209,7.460299063909972,7.141955385213899,29.94917024710192,25.796586893864443,3.237724376958795e-05,0.0972511246800422,0,0,0
2442,89993.15515073789,2010-12-14 13:36:27,2011.0052278030328,2,9,0.5501165986061096,3.9547200202941895,7.46488624339998,7.141955385213899,29.9673076908796,25.796586893864443,3.237724376958795e-05,0.0972511246800422,0,0,0
2443,90023.17015839001,2010-12-14 13:36:57,2041.0202354501391,2,9,0.5501165986061096,3.956500768661499,7.469473452879297,7.141955385213899,29.985453137446303,25.796586893864443,3.237724376958795e-05,0.0972511246800422,0,0,0
2444,90053.18517505455,2010-12-14 13:37:27,2071.0352521146856,2,9,0.550297200679779,3.9582815170288086,7.474060689836358,7.141955385213899,30.00360641678153,25.796586893864443,6.47544875391759e-05,0.0972511246800422,0,0,0
2445,90083.20018101748,2010-12-14 13:37:57,2101.050258077601,2,9,0.5501165986061096,3.959900379180908,7.478647910717949,7.141955385213899,30.02176753148188,25.796586893864443,3.237724376958795e-05,0.0972511246800422,0,0,0
2446,90113.21516466988,2010-12-14 13:38:27,2131.065241729997,2,9,0.550297200679779,3.9616811275482178,7.483235144595005,7.141955385213899,30.03993663553537,25.796586893864443,3.237724376958795e-05,0.0972511246800422,0,0,0
2447,90143.23017869284,2010-12-14 13:38:57,2161.08025575297,2,9,0.550297200679779,3.9634618759155273,7.487822378638992,7.141955385213899,30.058113606653627,25.796586893864443,3.237724376958795e-05,0.0972511246800422,0,0,0
2448,90173.24516744292,2010-12-14 13:39:27,2191.095244503052,2,9,0.5501165986061096,3.965080738067627,7.492409593590539,7.141955385213899,30.07629844200673,25.796586893864443,3.237724376958795e-05,0.0972511246800422,0,0,0
2449,90203.2601657919,2010-12-14 13:39:57,2221.11024283197,2,9,0.5499359965324402,3.966861486434937,7.496996814009044,7.141955385213899,30.09449129755484,25.796586893864443,3.237724376958795e-05,0.0972511246800422,0,0,0
2450,90233.27529718692,2010-12-14 13:40:27,2251.1253742470685,2,9,0.550297200679779,3.968480348587036,7.501584008189597,7.141955385213899,30.112691974073904,25.796586893864443,3.237724376958795e-05,0.0972511246800422,0,0,0
2451,90263.290191096,2010-12-14 13:40:57,2281.1402681561426,2,9,0.5499359965324402,3.9702610969543457,7.506171250315272,7.141955385213899,30.13090095596229,25.796586893864443,0.0,0.0972511246800422,0,0,0
2452,90293.30519520432,2010-12-14 13:41:27,2311.15527225943,2,9,0.550297200679779,3.9720418453216553,7.510758481464378,7.141955385213899,30.149117998011,25.796586893864443,0.0,0.0972511246800422,0,0,0
2453,90323.3201912676,2010-12-14 13:41:57,2341.170268327723,2,9,0.5501165986061096,3.973822593688965,7.515345685616929,7.141955385213899,30.167343053910187,25.796586893864443,0.0,0.0972511246800422,0,0,0
2454,90353.33539473198,2010-12-14 13:42:27,2371.185471862288,2,9,0.550297200679779,3.9759271144866943,7.51993290838636,7.141955385213899,30.18557637994219,25.796586893864443,6.47544875391759e-05,0.0972511246800422,0,0,0
2455,90383.35023377452,2010-12-14 13:42:57,2401.2003109248785,2,9,0.550297200679779,3.977545976638794,7.524520139917942,7.141955385213899,30.203818064001705,25.796586893864443,6.47544875391759e-05,0.0972511246800422,0,0,0
2456,90413.3652077328,2010-12-14 13:43:27,2431.215284792927,2,9,0.550297200679779,3.9794886112213135,7.529107322011751,7.141955385213899,30.22206737120133,25.796586893864443,6.47544875391759e-05,0.0972511246800422,0,0,0
2457,90443.38020483364,2010-12-14 13:43:57,2461.2302818937897,2,9,0.5501165986061096,3.981107473373413,7.53369445839811,7.141955385213899,30.240325379283355,25.796586893864443,0.0,0.0972511246800422,0,0,0
2458,90473.3952255984,2010-12-14 13:44:27,2491.245302658539,2,9,0.5501165986061096,3.9830501079559326,7.538281567419459,7.141955385213899,30.25859174495184,25.796586893864443,6.47544875391759e-05,0.0972511246800422,0,0,0
2459,90503.41048920748,2010-12-14 13:44:57,2521.26056625256,2,9,0.550297200679779,3.984830856323242,7.542868668988319,7.141955385213899,30.27686653754912,25.796586893864443,3.237724376958795e-05,0.0972511246800422,0,0,0
2460,90533.425219344,2010-12-14 13:45:27,2551.275296389091,2,9,0.550297200679779,3.986935377120972,7.547455722619118,7.141955385213899,30.295149770973456,25.796586893864443,6.47544875391759e-05,0.0972511246800422,0,0,0
2461,90563.44021727692,2010-12-14 13:45:57,2581.290294337062,2,9,0.5501165986061096,3.9885542392730713,7.552042872557077,7.141955385213899,30.31344206655397,25.796586893864443,3.237724376958795e-05,0.0972511246800422,0,0,0
2462,90593.45534546902,2010-12-14 13:46:27,2611.305422584277,2,9,0.5501165986061096,3.990496873855591,7.556630026199616,7.141955385213899,30.33174314425295,25.796586893864443,3.237724376958795e-05,0.0972511246800422,0,0,0
2463,90623.47024928774,2010-12-14 13:46:57,2641.3203263478736,2,9,0.5501165986061096,3.9924395084381104,7.561217077244823,7.141955385213899,30.35005260994181,25.796586893864443,0.0,0.0972511246800422,0,0,0
2464,90653.48524377208,2010-12-14 13:47:27,2671.3353209023994,2,9,0.5501165986061096,3.994381904602051,7.565804158653784,7.141955385213899,30.368371152032875,25.796586893864443,6.47544875391759e-05,0.0972511246800422,0,0,0
2465,90683.50025709331,2010-12-14 13:47:57,2701.350334153451,2,9,0.5501165986061096,3.99648642539978,7.570391242217245,7.141955385213899,30.386698777478937,25.796586893864443,0.0,0.0972511246800422,0,0,0
2466,90713.51526291088,2010-12-14 13:48:27,2731.365339971005,2,9,0.550297200679779,3.9985909461975098,7.574978383179071,7.141955385213899,30.405035762097025,25.796586893864443,9.713172767078504e-05,0.0972511246800422,0,0,0
2467,90743.5303821256,2010-12-14 13:48:57,2761.380459185743,2,9,0.5501165986061096,4.000371932983398,7.579565463282456,7.141955385213899,30.42338156154393,25.796586893864443,3.24249267578125e-05,0.0972511246800422,0,0,0
2468,90773.54537972772,2010-12-14 13:49:27,2791.395456777828,2,9,0.550297200679779,4.002638339996338,7.584152553558256,7.141955385213899,30.441736817993185,25.796586893864443,9.71794142969884e-05,0.0972511246800422,0,0,0
2469,90803.56024821351,2010-12-14 13:49:57,2821.410325258624,2,9,0.550297200679779,4.004580974578857,7.588739658988683,7.141955385213899,30.46010159838612,25.796586893864443,0.0,0.0972511246800422,0,0,0
2470,90833.57526761488,2010-12-14 13:50:27,2851.425344675018,2,9,0.5504778623580933,4.006847381591797,7.593326748791607,7.141955385213899,30.47847586860493,25.796586893864443,6.47544875391759e-05,0.0972511246800422,0,0,0
2471,90863.59029140716,2010-12-14 13:50:57,2881.440368467301,2,9,0.5501165986061096,4.008790016174316,7.597913873944892,7.141955385213899,30.496859948669133,25.796586893864443,3.24249267578125e-05,0.0972511246800422,0,0,0
2472,90893.60549944796,2010-12-14 13:51:27,2911.4555765832665,2,9,0.5499359965324402,4.010732650756836,7.602501087346547,7.141955385213899,30.515254066155595,25.796586893864443,3.24249267578125e-05,0.0972511246800422,0,0,0
2473,90923.62074913236,2010-12-14 13:51:57,2941.470826247624,2,9,0.5501165986061096,4.013160705566406,7.607088220694825,7.141955385213899,30.533657755811344,25.796586893864443,6.47544875391759e-05,0.0972511246800422,0,0,0
2474,90953.63527663966,2010-12-14 13:52:27,2971.485353704796,2,9,0.5501165986061096,4.015265464782715,7.611675290530105,7.141955385213899,30.552071164827197,25.796586893864443,6.47544875391759e-05,0.0972511246800422,0,0,0
2475,90983.65042466109,2010-12-14 13:52:57,3001.500501706169,2,9,0.550297200679779,4.017693519592285,7.616262494633118,7.141955385213899,30.57049530900938,25.796586893864443,9.70840483205393e-05,0.0972511246800422,0,0,0
2476,91013.66528875094,2010-12-14 13:53:27,3031.515365811076,2,9,0.550297200679779,4.019798278808594,7.620849652614787,7.141955385213899,30.58892945089581,25.796586893864443,0.0001295089750783,0.0972511246800422,0,0,0
2477,91043.68029236802,2010-12-14 13:53:57,3061.5303694331665,2,9,0.550297200679779,4.022226333618164,7.625436740598856,7.141955385213899,30.60737373100185,25.796586893864443,9.70840483205393e-05,0.0972511246800422,0,0,0
2478,91073.69532271162,2010-12-14 13:54:27,3091.545399756702,2,9,0.5501165986061096,4.024168968200684,7.630023874385603,7.141955385213899,30.625828771760577,25.796586893864443,0.0,0.0972511246800422,0,0,0
2479,91103.71033498524,2010-12-14 13:54:57,3121.5604121405963,2,9,0.550297200679779,4.026597499847412,7.634611045998245,7.141955385213899,30.644294580874117,25.796586893864443,3.24249267578125e-05,0.0972511246800422,0,0,0
2480,91133.7253362364,2010-12-14 13:55:27,3151.575413291537,2,9,0.5501165986061096,4.029187679290772,7.639198168807981,7.141955385213899,30.662770938484783,25.796586893864443,9.71794142969884e-05,0.0972511246800422,0,0,0
2481,91163.74031275608,2010-12-14 13:55:57,3181.590389801159,2,9,0.550297200679779,4.031291961669922,7.643785258631231,7.141955385213899,30.68125797044068,25.796586893864443,3.23295607813634e-05,0.0972511246800422,0,0,0
2482,91193.75531718016,2010-12-14 13:56:27,3211.6053942954195,2,9,0.550297200679779,4.03404426574707,7.648372411382239,7.141955385213899,30.699756252614776,25.796586893864443,0.0001295089750783,0.0972511246800422,0,0,0
2483,91223.77034984452,2010-12-14 13:56:57,3241.620426909656,2,9,0.5501165986061096,4.036148548126221,7.652959605015012,7.141955385213899,30.718265769694757,25.796586893864443,0.0,0.0972511246800422,0,0,0
2484,91253.78532642432,2010-12-14 13:57:27,3271.63540348444,2,9,0.550297200679779,4.03873872756958,7.657546735250226,7.141955385213899,30.73678617459968,25.796586893864443,6.47544875391759e-05,0.0972511246800422,0,0,0
2485,91283.80033025192,2010-12-14 13:57:57,3301.6504073120423,2,9,0.5501165986061096,4.04116678237915,7.662133929788527,7.141955385213899,30.75531804387504,25.796586893864443,3.23295607813634e-05,0.0972511246800422,0,0,0
2486,91313.81568063187,2010-12-14 13:58:27,3331.665757692026,2,9,0.5499359965324402,4.043595314025879,7.666721087245358,7.141955385213899,30.773861090467808,25.796586893864443,6.47544875391759e-05,0.0972511246800422,0,0,0
2487,91343.8303705634,2010-12-14 13:58:57,3361.680447608472,2,9,0.5501165986061096,4.046185493469238,7.6713081847076,7.141955385213899,30.792415441403403,25.796586893864443,6.47544875391759e-05,0.0972511246800422,0,0,0
2488,91373.84597014348,2010-12-14 13:59:27,3391.696047273793,2,9,0.550297200679779,4.0489373207092285,7.675895409167424,7.141955385213899,30.810982038427607,25.796586893864443,9.70840483205393e-05,0.0972511246800422,0,0,0
2489,91403.86036969235,2010-12-14 13:59:57,3421.7104467524955,2,9,0.5501165986061096,4.051203727722168,7.680482504436879,7.141955385213899,30.829559903358817,25.796586893864443,6.47544875391759e-05,0.0972511246800422,0,0,0
2490,91433.87535875825,2010-12-14 14:00:27,3451.725435803326,2,9,0.5501165986061096,4.053956031799316,7.685069663436459,7.141955385213899,30.848149857254796,25.796586893864443,6.47544875391759e-05,0.0972511246800422,0,0,0
2491,91463.8905217469,2010-12-14 14:00:57,3481.740598812044,2,9,0.5499359965324402,4.056384086608887,7.689656883462725,7.141955385213899,30.866752088473703,25.796586893864443,3.23295607813634e-05,0.0972511246800422,0,0,0
2492,91493.90537368652,2010-12-14 14:01:27,3511.755450731628,2,9,0.5501165986061096,4.059136390686035,7.694243989210837,7.141955385213899,30.885365920823237,25.796586893864443,3.24249267578125e-05,0.0972511246800422,0,0,0
2493,91523.9203873436,2010-12-14 14:01:57,3541.7704644087403,2,9,0.550297200679779,4.061888217926025,7.698831231714036,7.141955385213899,30.90399229563814,25.796586893864443,6.47544875391759e-05,0.0972511246800422,0,0,0
2494,91553.93541284012,2010-12-14 14:02:27,3571.7854899704266,2,9,0.5499359965324402,4.064316749572754,7.703418366287558,7.141955385213899,30.922630421880477,25.796586893864443,3.24249267578125e-05,0.0972511246800422,0,0,0
2495,91583.95053208494,2010-12-14 14:02:57,3601.8006091450648,2,9,0.550297200679779,4.067230701446533,7.708005552284988,7.141955385213899,30.94128121665527,25.796586893864443,9.71794142969884e-05,0.0972511246800422,0,0,0
2496,91613.96539827004,2010-12-14 14:03:27,3631.815475335161,2,9,0.5501165986061096,4.069982528686523,7.712592685196523,7.141955385213899,30.95994438738088,25.796586893864443,6.47544875391759e-05,0.0972511246800422,0,0,0
2497,91643.98052287316,2010-12-14 14:03:57,3661.830599988433,2,9,0.550297200679779,4.072734832763672,7.717179834860611,7.141955385213899,30.978620229917556,25.796586893864443,6.47544875391759e-05,0.0972511246800422,0,0,0
2498,91673.9954063964,2010-12-14 14:04:27,3691.845483451512,2,9,0.5501165986061096,4.075486660003662,7.721766940767058,7.141955385213899,30.99730868092763,25.796586893864443,6.47544875391759e-05,0.0972511246800422,0,0,0
2499,91704.01043074006,2010-12-14 14:04:58,3721.860507785143,2,9,0.550297200679779,4.078562736511231,7.726354129538106,7.141955385213899,31.016010400482,25.796586893864443,0.0001295089750783,0.0972511246800422,0,0,0
2500,91734.02555527804,2010-12-14 14:05:28,3751.8756324083392,2,9,0.5501165986061096,4.08115291595459,7.730941315098214,7.141955385213899,31.03472513009513,25.796586893864443,6.47544875391759e-05,0.0972511246800422,0,0,0
2501,91764.04041965364,2010-12-14 14:05:58,3781.890496698708,2,9,0.5501165986061096,4.084066867828369,7.735528459773888,7.141955385213899,31.053452736787143,25.796586893864443,9.71794142969884e-05,0.0972511246800422,0,0,0
2502,91794.05555230178,2010-12-14 14:06:28,3811.9056293669246,2,9,0.550297200679779,4.087142467498779,7.740115568225598,7.141955385213899,31.0721934561808,25.796586893864443,0.0001618385285837,0.0972511246800422,0,0,0
2503,91824.07038507872,2010-12-14 14:06:58,3841.920462118811,2,9,0.5501165986061096,4.089894771575928,7.744702644665601,7.141955385213899,31.090947515699018,25.796586893864443,9.71794142969884e-05,0.0972511246800422,0,0,0
2504,91854.08549338132,2010-12-14 14:07:28,3871.935570426407,2,9,0.5501165986061096,4.092970371246338,7.749289809078457,7.141955385213899,31.109715525803317,25.796586893864443,9.70840483205393e-05,0.0972511246800422,0,0,0
2505,91884.10059100734,2010-12-14 14:07:58,3901.9506680524223,2,9,0.5501165986061096,4.095884323120117,7.753876958330482,7.141955385213899,31.1284971952995,25.796586893864443,6.47544875391759e-05,0.0972511246800422,0,0,0
2506,91914.11552214906,2010-12-14 14:08:28,3931.9655992141984,2,9,0.5501165986061096,4.0989603996276855,7.758464123020079,7.141955385213899,31.147292657169896,25.796586893864443,9.71794142969884e-05,0.0972511246800422,0,0,0
2507,91944.1305109643,2010-12-14 14:08:58,3961.980588079567,2,9,0.550297200679779,4.102035999298096,7.763051349286142,7.141955385213899,31.16610223824862,25.796586893864443,9.70840483205393e-05,0.0972511246800422,0,0,0
2508,91974.14549568437,2010-12-14 14:09:28,3991.995572749496,2,9,0.550297200679779,4.104949951171875,7.767638550798382,7.141955385213899,31.1849255792625,25.796586893864443,6.47544875391759e-05,0.0972511246800422,0,0,0
2509,92004.16050489536,2010-12-14 14:09:58,4022.0105819554815,2,9,0.550297200679779,4.108026027679443,7.77222577627236,7.141955385213899,31.203763203383016,25.796586893864443,9.71794142969884e-05,0.0972511246800422,0,0,0
2510,92034.1755205624,2010-12-14 14:10:28,4052.025597622546,2,9,0.5501165986061096,4.1111016273498535,7.776812879619246,7.141955385213899,31.22261447538508,25.796586893864443,6.47544875391759e-05,0.0972511246800422,0,0,0
2511,92064.19051296158,2010-12-14 14:10:58,4082.040590021708,2,9,0.5504778623580933,4.114501476287842,7.781400052660302,7.141955385213899,31.24148043317097,25.796586893864443,9.71794142969884e-05,0.0972511246800422,0,0,0
2512,92094.20550529555,2010-12-14 14:11:28,4112.055582345683,2,9,0.5501165986061096,4.117414951324463,7.78598717624367,7.141955385213899,31.26036066561506,25.796586893864443,6.47544875391759e-05,0.0972511246800422,0,0,0
2513,92124.22050884248,2010-12-14 14:11:58,4142.070585877549,2,9,0.5501165986061096,4.120652675628662,7.79057438190893,7.141955385213899,31.27925577211447,25.796586893864443,9.70840483205393e-05,0.0972511246800422,0,0,0
2514,92154.2355449454,2010-12-14 14:12:28,4172.085622095753,2,9,0.5501165986061096,4.123728752136231,7.795161559849057,7.141955385213899,31.29816543700656,25.796586893864443,3.24249267578125e-05,0.0972511246800422,0,0,0
2515,92184.25068270628,2010-12-14 14:12:58,4202.100759781457,2,9,0.5501165986061096,4.1271281242370605,7.799748765201106,7.141955385213899,31.31709000587627,25.796586893864443,6.47544875391759e-05,0.0972511246800422,0,0,0
2516,92214.2655287262,2010-12-14 14:13:28,4232.115605771284,2,9,0.5501165986061096,4.130204200744629,7.80433590698525,7.141955385213899,31.336029216218183,25.796586893864443,6.47544875391759e-05,0.0972511246800422,0,0,0
2517,92244.28065484313,2010-12-14 14:13:58,4262.130731903237,2,9,0.550297200679779,4.133603572845459,7.808923131298874,7.141955385213899,31.35498378657233,25.796586893864443,9.70840483205393e-05,0.0972511246800422,0,0,0
2518,92274.29574230385,2010-12-14 14:14:28,4292.145819363956,2,9,0.550297200679779,4.137003421783447,7.81351033433567,7.141955385213899,31.37395331711878,25.796586893864443,6.47544875391759e-05,0.0972511246800422,0,0,0
2519,92304.31074898354,2010-12-14 14:14:58,4322.160826133879,2,9,0.5501165986061096,4.140241146087647,7.818097484067631,7.141955385213899,31.392937915446552,25.796586893864443,9.71794142969884e-05,0.0972511246800422,0,0,0
2520,92334.32568168914,2010-12-14 14:15:28,4352.1757587342345,2,9,0.550297200679779,4.143640518188477,7.822684663730758,7.141955385213899,31.411938118706235,25.796586893864443,6.47544875391759e-05,0.0972511246800422,0,0,0
2521,92364.34055910718,2010-12-14 14:15:58,4382.19063617232,2,9,0.5501165986061096,4.147202014923096,7.827271805416157,7.141955385213899,31.43095396224736,25.796586893864443,6.47544875391759e-05,0.0972511246800422,0,0,0
2522,92394.35571036668,2010-12-14 14:16:28,4412.205787411751,2,9,0.5501165986061096,4.150601863861084,7.831858976823123,7.141955385213899,31.449985683873443,25.796586893864443,9.71794142969884e-05,0.0972511246800422,0,0,0
2523,92424.37067805431,2010-12-14 14:16:58,4442.2207551144575,2,9,0.550297200679779,4.154001235961914,7.836446063006516,7.141955385213899,31.469032819223628,25.796586893864443,6.47544875391759e-05,0.0972511246800422,0,0,0
2524,92454.38556161264,2010-12-14 14:17:28,4472.235638667761,2,9,0.5499359965324402,4.157401084899902,7.841033189554535,7.141955385213899,31.488096057803645,25.796586893864443,6.47544875391759e-05,0.0972511246800422,0,0,0
2525,92484.40055444789,2010-12-14 14:17:58,4502.250631508022,2,9,0.550297200679779,4.161124229431152,7.845620364702542,7.141955385213899,31.50717557190136,25.796586893864443,9.70840483205393e-05,0.0972511246800422,0,0,0
2526,92514.4155649922,2010-12-14 14:18:28,4532.265642052337,2,9,0.550297200679779,4.164524078369141,7.850207515456642,7.141955385213899,31.52627112065131,25.796586893864443,6.47544875391759e-05,0.0972511246800422,0,0,0
2527,92544.4305899524,2010-12-14 14:18:58,4562.28066701754,2,9,0.5501165986061096,4.16808557510376,7.854794628489056,7.141955385213899,31.54538268568192,25.796586893864443,9.71794142969884e-05,0.0972511246800422,0,0,0
2528,92574.44557852704,2010-12-14 14:19:28,4592.295655587173,2,9,0.5501165986061096,4.171647071838379,7.859381796709409,7.141955385213899,31.564510923657178,25.796586893864443,6.47544875391759e-05,0.0972511246800422,0,0,0
2529,92604.4605801642,2010-12-14 14:19:58,4622.310657229336,2,9,0.550297200679779,4.175532341003418,7.863969017628796,7.141955385213899,31.583655882012536,25.796586893864443,0.0001295089750783,0.0972511246800422,0,0,0
2530,92634.47568816604,2010-12-14 14:20:28,4652.325765231171,2,9,0.550297200679779,4.179093837738037,7.868556231788788,7.141955385213899,31.60281741708246,25.796586893864443,9.71794142969884e-05,0.0972511246800422,0,0,0
2531,92664.49059132813,2010-12-14 14:20:58,4682.340668483495,2,9,0.550297200679779,4.182655334472656,7.873143434027293,7.141955385213899,31.6219955562334,25.796586893864443,0.0001295089750783,0.0972511246800422,0,0,0
2532,92694.50571842246,2010-12-14 14:21:28,4712.355795487617,2,9,0.550297200679779,4.186378479003906,7.877730686233177,7.141955385213899,31.64119069753912,25.796586893864443,9.70840483205393e-05,0.0972511246800422,0,0,0
2533,92724.52058909874,2010-12-14 14:21:58,4742.370666158864,2,9,0.550297200679779,4.1901021003723145,7.882317855415415,7.141955385213899,31.66040244974798,25.796586893864443,0.0001295089750783,0.0972511246800422,0,0,0
2534,92754.53560000897,2010-12-14 14:22:28,4772.385677044029,2,9,0.5501165986061096,4.1938252449035645,7.886905031558812,7.141955385213899,31.679631253890403,25.796586893864443,9.70840483205393e-05,0.0972511246800422,0,0,0
2535,92784.5506144229,2010-12-14 14:22:58,4802.400691473012,2,9,0.550297200679779,4.197548389434815,7.891492242663507,7.141955385213899,31.698877253563765,25.796586893864443,9.70840483205393e-05,0.0972511246800422,0,0,0
2536,92804.34707307386,2010-12-14 14:23:18,4822.197150133987,2,9,0.550297200679779,4.200138568878174,7.894517716156747,7.141955385213899,31.71158026688049,25.796586893864443,0.0001295089750783,0.0972511246800422,0,0,0
2537,92834.36029180312,2010-12-14 14:23:48,30.015163329516145,3,9,0.0,4.106568813323975,7.894517716156747,7.141955385213899,31.71158026688049,25.796586893864443,-0.0003885269106831,0.0972511246800422,0,0,0
2538,92864.3752731598,2010-12-14 14:24:18,60.03014468619989,3,9,0.0,4.094751358032227,7.894517716156747,7.141955385213899,31.71158026688049,25.796586893864443,-0.0002265930233988,0.0972511246800422,0,0,0
2539,92894.3902905361,2010-12-14 14:24:48,90.04516204747969,3,9,0.0,4.087628364562988,7.894517716156747,7.141955385213899,31.71158026688049,25.796586893864443,-0.0001618385285837,0.0972511246800422,0,0,0
2540,92924.35832323284,2010-12-14 14:25:18,120.013194819416,3,9,0.0,4.0827717781066895,7.894517716156747,7.141955385213899,31.71158026688049,25.796586893864443,-9.70840483205393e-05,0.0972511246800422,0,0,0
2541,92924.35881791924,2010-12-14 14:25:18,2.631548507e-06,4,9,1.024396538734436,4.199814796447754,7.894517716905567,7.141955385213899,31.71158027002539,25.796586893864443,0.0,0.0972511246800422,0,0,0
2542,92924.74943546596,2010-12-14 14:25:19,0.390620218389608,4,9,0.9731035232543944,4.199814796447754,7.89462480254129,7.141955385213899,31.71203001545289,25.796586893864443,0.0,0.0972511246800422,0,0,0
2543,92926.39002837832,2010-12-14 14:25:20,2.031213135764769,4,9,0.9230747818946838,4.199814796447754,7.895055699898601,7.141955385213899,31.713839712665727,25.796586893864443,0.0,0.0972511246800422,0,0,0
2544,92929.07746683055,2010-12-14 14:25:23,4.71865156794022,4,9,0.8725041747093201,4.199976921081543,7.895724757403832,7.141955385213899,31.716649631784566,25.796586893864443,-3.23295607813634e-05,0.0972511246800422,0,0,0
2545,92932.84300821544,2010-12-14 14:25:27,8.484192967885468,4,9,0.8224754333496094,4.199814796447754,7.89661007779507,7.141955385213899,31.720367838187865,25.796586893864443,0.0,0.0972511246800422,0,0,0
2546,92937.87416533144,2010-12-14 14:25:32,13.515350088875008,4,9,0.7722660303115845,4.199814796447754,7.897723118563594,7.141955385213899,31.72504243837712,25.796586893864443,-3.24249267578125e-05,0.0972511246800422,0,0,0
2547,92944.4677741584,2010-12-14 14:25:38,20.108958885765738,4,9,0.7220566272735596,4.199976921081543,7.899089670219871,7.141955385213899,31.73078172884843,25.796586893864443,3.24249267578125e-05,0.0972511246800422,0,0,0
2548,92953.04575265796,2010-12-14 14:25:47,28.68693741040204,4,9,0.6720278859138489,4.199976921081543,7.900748002251706,7.141955385213899,31.737746476562528,25.796586893864443,6.47544875391759e-05,0.0972511246800422,0,0,0
2549,92964.84234922982,2010-12-14 14:25:59,40.48353398726832,4,9,0.6219990849494934,4.199976921081543,7.902864217568695,7.141955385213899,31.74663428096822,25.796586893864443,0.0,0.0972511246800422,0,0,0
2550,92982.12326420208,2010-12-14 14:26:16,57.764448954513725,4,9,0.5719703435897827,4.199814796447754,7.905722305018379,7.141955385213899,31.758637849959587,25.796586893864443,0.0,0.0972511246800422,0,0,0
2551,93010.82577847992,2010-12-14 14:26:45,86.46696323736374,4,9,0.5219415426254272,4.199814796447754,7.910064709821183,7.141955385213899,31.77687531832976,25.796586893864443,0.0,0.0972511246800422,0,0,0
2552,93064.30911297577,2010-12-14 14:27:38,139.95029781841737,4,9,0.4719128012657165,4.199814796447754,7.917408704613705,7.141955385213899,31.807719019151676,25.796586893864443,-3.24249267578125e-05,0.0972511246800422,0,0,0
2553,93157.525876291,2010-12-14 14:29:11,233.16706104344271,4,9,0.4218840301036834,4.199814796447754,7.928943351530322,7.141955385213899,31.856162871880567,25.796586893864443,0.0,0.0972511246800422,0,0,0
2554,93281.9921306428,2010-12-14 14:31:16,357.63331551553284,4,9,0.3718552589416504,4.199814796447754,7.942644944149364,7.141955385213899,31.91370749689528,25.796586893864443,-3.24249267578125e-05,0.0972511246800422,0,0,0
2555,93432.39522914872,2010-12-14 14:33:46,508.03641390614337,4,9,0.3218264877796173,4.199814796447754,7.957117730241515,7.141955385213899,31.97449110707877,25.796586893864443,-6.47544875391759e-05,0.0972511246800422,0,0,0
2556,93612.59463830764,2010-12-14 14:36:46,688.235823130251,4,9,0.2717977166175842,4.199653148651123,7.971944199711594,7.141955385213899,32.03675924831723,25.796586893864443,-3.23295607813634e-05,0.0972511246800422,0,0,0
2557,93834.76191517626,2010-12-14 14:40:29,910.4030999988432,4,9,0.2217689454555511,4.199653148651123,7.98714218962575,7.141955385213899,32.100588573799435,25.796586893864443,-3.23295607813634e-05,0.0972511246800422,0,0,0
2558,94118.38120319606,2010-12-14 14:45:12,1194.0223879484718,4,9,0.1715595722198486,4.199653148651123,8.002569264994783,7.141955385213899,32.16538007216317,25.796586893864443,-3.23295607813634e-05,0.0972511246800422,0,0,0
2559,94516.5916410649,2010-12-14 14:51:50,1592.2328258173225,4,9,0.1215308010578155,4.199653148651123,8.01863019145775,7.141955385213899,32.23283363868627,25.796586893864443,-6.47544875391759e-05,0.0972511246800422,0,0,0
2560,95196.65596928436,2010-12-14 15:03:11,2272.2971540117137,4,9,0.0715020298957824,4.199814796447754,8.036424256236915,7.141955385213899,32.30756605065544,25.796586893864443,0.0,0.0972511246800422,0,0,0
2561,95744.33197123572,2010-12-14 15:12:18,2819.973155993184,4,9,0.0498289167881011,4.199814796447754,8.045597221772955,7.141955385213899,32.34609111387442,25.796586893864443,0.0,0.0972511246800422,0,0,0
2562,95774.35070862474,2010-12-14 15:12:48,30.0147979452715,5,9,0.0,4.191397190093994,8.045597221772955,7.141955385213899,32.34609111387442,25.796586893864443,-3.23295607813634e-05,0.0972511246800422,0,0,0
2563,95804.3502023711,2010-12-14 15:13:18,60.01429174676985,5,9,0.0,4.189778327941895,8.045597221772955,7.141955385213899,32.34609111387442,25.796586893864443,-3.23295607813634e-05,0.0972511246800422,0,0,0
2564,95804.53491317238,2010-12-14 15:13:19,0.187487786144753,6,9,-1.9243103452026844e-05,4.189778327941895,8.045597221772955,7.141955386216079,32.34609111387442,25.796586898063357,0.0,0.0988719761371612,0,0,0
2565,95809.36293204666,2010-12-14 15:13:23,5.015506660420354,6,9,0.0008838032954372,4.189778327941895,8.045598314305643,7.141955386383245,32.3460956914325,25.796586898763746,-3.23295607813634e-05,0.0988719761371612,0,0,0
2566,95839.37554252264,2010-12-14 15:13:54,30.01513686365687,7,9,-1.099568486213684,3.995515108108521,8.045598314305643,7.151122679967671,32.3460956914325,25.8334371644875,-0.0010361194144934,0.0988719761371612,0,0,0
2567,95869.39046577472,2010-12-14 15:14:24,60.030060120762045,7,9,-1.099568486213684,3.964271306991577,8.045598314305643,7.160289867382803,32.3460956914325,25.869911503151773,-0.0006799221155233,0.0988719761371612,0,0,0
2568,95899.4055537718,2010-12-14 15:14:54,90.04514809776636,7,9,-1.0993878841400146,3.942416667938232,8.045598314305643,7.169457032013645,32.3460956914325,25.906146680002365,-0.0004856586456298,0.0988719761371612,0,0,0
2569,95929.42043185647,2010-12-14 15:15:24,120.06002626266132,7,9,-1.099568486213684,3.9254186153411865,8.045598314305643,7.178624144402473,32.3460956914325,25.94220600510116,-0.0004209041653666,0.0988719761371612,0,0,0
2570,95959.43559443914,2010-12-14 15:15:54,150.0751887550944,7,9,-1.0993878841400146,3.911334753036499,8.045598314305643,7.187791382595489,32.3460956914325,25.97812470684133,-0.0003561496851034,0.0988719761371612,0,0,0
2571,95989.45045180227,2010-12-14 15:16:24,180.09004614829982,7,9,-1.099568486213684,3.898869514465332,8.045598314305643,7.196958523641484,32.3460956914325,26.013921246073984,-0.0002913951757363,0.0988719761371612,0,0,0
2572,96019.46558884135,2010-12-14 15:16:54,210.1051831823808,7,9,-1.099568486213684,3.887213706970215,8.045598314305643,7.206125704514076,32.3460956914325,26.049608368770382,-0.0003237724304199,0.0988719761371612,0,0,0
2573,96049.48047014906,2010-12-14 15:17:24,240.1200644900965,7,9,-1.099568486213684,3.876367330551148,8.045598314305643,7.215292846163075,32.3460956914325,26.085193378390688,-0.0002590179501567,0.0988719761371612,0,0,0
2574,96079.49549656289,2010-12-14 15:17:54,270.13509089889067,7,9,-1.0997490882873535,3.86600661277771,8.045598314305643,7.224460077195216,32.3460956914325,26.120681668110898,-0.0002590179501567,0.0988719761371612,0,0,0
2575,96109.51055999885,2010-12-14 15:18:24,300.1501544300625,7,9,-1.0997490882873535,3.855969667434693,8.045598314305643,7.233627315777847,32.3460956914325,26.156077033732338,-0.0002913951757363,0.0988719761371612,0,0,0
2576,96139.52561440229,2010-12-14 15:18:54,330.16520872324594,7,9,-1.099568486213684,3.8464183807373047,8.045598314305643,7.242794523674241,32.3460956914325,26.191382003024756,-0.0002590179501567,0.0988719761371612,0,0,0
2577,96169.54062934755,2010-12-14 15:19:24,360.18022366350107,7,9,-1.099568486213684,3.837028980255127,8.045598314305643,7.251961748055834,32.3460956914325,26.226599288885367,-0.0002590179501567,0.0988719761371612,0,0,0
2578,96199.555525813,2010-12-14 15:19:54,390.1951201539986,7,9,-1.0993878841400146,3.8278017044067374,8.045598314305643,7.261128965559741,32.3460956914325,26.261730922958463,-0.0002266406954731,0.0988719761371612,0,0,0
2579,96229.57051573096,2010-12-14 15:20:24,420.2101100719868,7,9,-1.0997490882873535,3.818736076354981,8.045598314305643,7.270296128614515,32.3460956914325,26.296779333182258,-0.0002590179501567,0.0988719761371612,0,0,0
2580,96259.58552454598,2010-12-14 15:20:54,450.2251188869995,7,9,-1.0993878841400146,3.8099942207336426,8.045598314305643,7.279463412440857,32.3460956914325,26.331746604382104,-0.0001942634553415,0.0988719761371612,0,0,0
2581,96289.60077612007,2010-12-14 15:21:24,480.2403705513335,7,9,-1.0993878841400146,3.801414251327514,8.045598314305643,7.288630731666427,32.3460956914325,26.36663400651956,-0.0002266406954731,0.0988719761371612,0,0,0
2582,96319.61560311768,2010-12-14 15:21:54,510.25519752383815,7,9,-1.099568486213684,3.7929961681365967,8.045598314305643,7.297797946109999,32.3460956914325,26.40144341534495,-0.0002266406954731,0.0988719761371612,0,0,0
2583,96349.6306845634,2010-12-14 15:22:24,540.2702789445274,7,9,-1.099568486213684,3.784901857376098,8.045598314305643,7.306965171751884,32.3460956914325,26.43617746615659,-0.0001942634553415,0.0988719761371612,0,0,0
2584,96379.64555205675,2010-12-14 15:22:54,570.2851463827293,7,9,-1.099568486213684,3.7769694328308105,8.045598314305643,7.316132368128782,32.3460956914325,26.470838554741608,-0.0001942634553415,0.0988719761371612,0,0,0
2585,96409.6605882098,2010-12-14 15:23:24,600.3001825508092,7,9,-1.0993878841400146,3.769522666931152,8.045598314305643,7.325299593587433,32.3460956914325,26.50542860765195,-0.0001942634553415,0.0988719761371612,0,0,0
2586,96439.67570154493,2010-12-14 15:23:54,630.3152958859162,7,9,-1.099568486213684,3.761914014816284,8.045598314305643,7.334466837772205,32.3460956914325,26.539949033968853,-0.0001618862152099,0.0988719761371612,0,0,0
2587,96469.69072165804,2010-12-14 15:24:24,660.3303160892683,7,9,-1.0993878841400146,3.754305362701416,8.045598314305643,7.343634045205118,32.3460956914325,26.574400572285253,-0.0002266406954731,0.0988719761371612,0,0,0
2588,96499.70561957208,2010-12-14 15:24:54,690.3452139832583,7,9,-1.099568486213684,3.747344493865967,8.045598314305643,7.35280126513934,32.3460956914325,26.608785052337783,-0.0001942634553415,0.0988719761371612,0,0,0
2589,96529.72071157407,2010-12-14 15:25:24,720.3603060053287,7,9,-1.099568486213684,3.740059614181519,8.045598314305643,7.361968526969596,32.3460956914325,26.64310448828248,-0.0001942634553415,0.0988719761371612,0,0,0
2590,96559.73562437017,2010-12-14 15:25:54,750.3752187111775,7,9,-1.099568486213684,3.73309850692749,8.045598314305643,7.37113574736263,32.3460956914325,26.6773597417869,-0.0001942634553415,0.0988719761371612,0,0,0
2591,96589.750611421,2010-12-14 15:26:24,780.3902057620309,7,9,-1.0993878841400146,3.726623058319092,8.045598314305643,7.380302956420938,32.3460956914325,26.71155257578291,-0.0001942634553415,0.0988719761371612,0,0,0
2592,96619.7656253688,2010-12-14 15:26:54,810.4052197148288,7,9,-1.099568486213684,3.7198238372802734,8.045598314305643,7.389470220664275,32.3460956914325,26.745684989481425,-0.0002266406954731,0.0988719761371612,0,0,0
2593,96649.78062923148,2010-12-14 15:27:24,840.4202235725054,7,9,-1.0993878841400146,3.713672161102295,8.045598314305643,7.398637457472602,32.3460956914325,26.779757705844048,-0.0001618862152099,0.0988719761371612,0,0,0
2594,96679.79565498866,2010-12-14 15:27:54,870.4352493296782,7,9,-1.099568486213684,3.707196712493897,8.045598314305643,7.407804705770355,32.3460956914325,26.813771804327207,-0.0001618862152099,0.0988719761371612,0,0,0
2595,96709.81079197262,2010-12-14 15:28:24,900.4503863136345,7,9,-1.0993878841400146,3.701045036315918,8.045598314305643,7.416972036109817,32.3460956914325,26.84772827954472,-0.0001618862152099,0.0988719761371612,0,0,0
2596,96739.82565495474,2010-12-14 15:28:54,930.4652492957476,7,9,-1.0993878841400146,3.69489336013794,8.045598314305643,7.426139212651703,32.3460956914325,26.881626815101583,-0.0001295089750783,0.0988719761371612,0,0,0
2597,96769.8406644264,2010-12-14 15:29:24,960.4802587673944,7,9,-1.099568486213684,3.688579797744751,8.045598314305643,7.435306470108746,32.3460956914325,26.915469391883427,-0.0001942634553415,0.0988719761371612,0,0,0
2598,96799.85568396808,2010-12-14 15:29:54,990.4952782940624,7,9,-1.099568486213684,3.6825900077819824,8.045598314305643,7.44447372972159,32.3460956914325,26.949256316579945,-0.0001295089750783,0.0988719761371612,0,0,0
2599,96829.8709516974,2010-12-14 15:30:24,1020.510546113598,7,9,-1.099568486213684,3.676923990249634,8.045598314305643,7.453641115044866,32.3460956914325,26.98298912117675,-0.0001618862152099,0.0988719761371612,0,0,0
2600,96859.88570537751,2010-12-14 15:30:54,1050.5252998087549,7,9,-1.099568486213684,3.6710963249206543,8.045598314305643,7.462808296967685,32.3460956914325,27.016668146106337,-0.0001295089750783,0.0988719761371612,0,0,0
2601,96889.90084491285,2010-12-14 15:31:24,1080.5404392939352,7,9,-1.0993878841400146,3.665268421173096,8.045598314305643,7.47197565904214,32.3460956914325,27.05029485069879,-0.0001295089750783,0.0988719761371612,0,0,0
2602,96919.91573748356,2010-12-14 15:31:54,1110.5553318245788,7,9,-1.099568486213684,3.659602403640747,8.045598314305643,7.481142910999758,32.3460956914325,27.083869089516483,-0.0001295089750783,0.0988719761371612,0,0,0
2603,96949.93073161202,2010-12-14 15:32:24,1140.5703259530446,7,9,-1.0993878841400146,3.654098272323608,8.045598314305643,7.490310148351757,32.3460956914325,27.11739198253341,-0.0001618862152099,0.0988719761371612,0,0,0
2604,96979.94572568536,2010-12-14 15:32:54,1170.5853200263732,7,9,-1.099568486213684,3.64875602722168,8.045598314305643,7.499477392789451,32.3460956914325,27.150865106474217,-9.713172767078504e-05,0.0988719761371612,0,0,0
2605,97009.96087020807,2010-12-14 15:33:24,1200.6004645240273,7,9,-1.0993878841400146,3.643413782119751,8.045598314305643,7.508644672625899,32.3460956914325,27.18428893109229,-0.0001295089750783,0.0988719761371612,0,0,0
2606,97039.97581133466,2010-12-14 15:33:54,1230.6154057408244,7,9,-1.099568486213684,3.637909650802612,8.045598314305643,7.517811945932291,32.3460956914325,27.21766413166355,-0.0001618862152099,0.0988719761371612,0,0,0
2607,97069.99088607873,2010-12-14 15:34:24,1260.6304804197368,7,9,-1.0993878841400146,3.6330530643463135,8.045598314305643,7.526979157333364,32.3460956914325,27.250991185472493,-9.713172767078504e-05,0.0988719761371612,0,0,0
2608,97100.00576848918,2010-12-14 15:34:54,1290.6453628301967,7,9,-1.099568486213684,3.6277108192443848,8.045598314305643,7.536146414789201,32.3460956914325,27.284271370560123,-0.0001942634553415,0.0988719761371612,0,0,0
2609,97130.02079103336,2010-12-14 15:35:24,1320.6603853693614,7,9,-1.099568486213684,3.622854232788086,8.045598314305643,7.54531364038048,32.3460956914325,27.31750578168813,-0.0001618862152099,0.0988719761371612,0,0,0
2610,97160.03592444844,2010-12-14 15:35:54,1350.6755187894491,7,9,-1.0993878841400146,3.617997646331787,8.045598314305643,7.554480977896296,32.3460956914325,27.35069553134316,-0.0001618862152099,0.0988719761371612,0,0,0
2611,97190.05079527006,2010-12-14 15:36:24,1380.6903896160832,7,9,-1.099568486213684,3.613141059875488,8.045598314305643,7.563648183335668,32.3460956914325,27.383840465745763,-0.0001295089750783,0.0988719761371612,0,0,0
2612,97220.06589718172,2010-12-14 15:36:54,1410.705491522751,7,9,-1.099568486213684,3.6084463596344,8.045598314305643,7.572815481498809,32.3460956914325,27.41694223681795,-0.0001618862152099,0.0988719761371612,0,0,0
2613,97250.08099292306,2010-12-14 15:37:24,1440.7205872640764,7,9,-1.0993878841400146,3.603913545608521,8.045598314305643,7.581982771279638,32.3460956914325,27.450001011228963,-0.0001295089750783,0.0988719761371612,0,0,0
2614,97280.09585096288,2010-12-14 15:37:54,1470.7354452988784,7,9,-1.099568486213684,3.599218845367432,8.045598314305643,7.591149962948578,32.3460956914325,27.483017802735112,-0.0001295089750783,0.0988719761371612,0,0,0
2615,97310.1108652114,2010-12-14 15:38:24,1500.750459552425,7,9,-1.0997490882873535,3.5950098037719727,8.045598314305643,7.600317173033502,32.3460956914325,27.515993920479133,-9.713172767078504e-05,0.0988719761371612,0,0,0
2616,97340.12588441228,2010-12-14 15:38:54,1530.7654787532822,7,9,-1.099568486213684,3.5908010005950928,8.045598314305643,7.609484281489871,32.3460956914325,27.548930285785904,-9.713172767078504e-05,0.0988719761371612,0,0,0
2617,97370.1410158023,2010-12-14 15:39:24,1560.7806101483309,7,9,-1.0997490882873535,3.586591958999634,8.045598314305643,7.618651457017362,32.3460956914325,27.581828435135545,-0.0001295089750783,0.0988719761371612,0,0,0
2618,97400.15592063357,2010-12-14 15:39:54,1590.7955149745712,7,9,-1.0997490882873535,3.5825448036193848,8.045598314305643,7.627818678141499,32.3460956914325,27.614688969904964,-0.0001295089750783,0.0988719761371612,0,0,0
2619,97430.17089526352,2010-12-14 15:40:24,1620.8104896095283,7,9,-1.0993878841400146,3.5786595344543457,8.045598314305643,7.636985909779154,32.3460956914325,27.64751290016341,-6.47544875391759e-05,0.0988719761371612,0,0,0
2620,97460.1858992866,2010-12-14 15:40:54,1650.825493627604,7,9,-1.0993878841400146,3.5749361515045166,8.045598314305643,7.646153269315569,32.3460956914325,27.680301535230992,-6.47544875391759e-05,0.0988719761371612,0,0,0
2621,97490.20090627708,2010-12-14 15:41:24,1680.8405006180765,7,9,-1.099568486213684,3.571050882339477,8.045598314305643,7.655320539497757,32.3460956914325,27.71305539472568,-0.0001295089750783,0.0988719761371612,0,0,0
2622,97520.21594980848,2010-12-14 15:41:54,1710.8555441544922,7,9,-1.0993878841400146,3.5674893856048584,8.045598314305643,7.664487840940048,32.3460956914325,27.745775738137137,-9.713172767078504e-05,0.0988719761371612,0,0,0
2623,97550.23094899452,2010-12-14 15:42:24,1740.8705433305186,7,9,-1.099568486213684,3.56360411643982,8.045598314305643,7.673655160232008,32.3460956914325,27.778462714066077,-0.0001295089750783,0.0988719761371612,0,0,0
2624,97580.24593476218,2010-12-14 15:42:54,1770.8855291031914,7,9,-1.0993878841400146,3.56052827835083,8.045598314305643,7.6828223986391,32.3460956914325,27.81111697855315,-6.47544875391759e-05,0.0988719761371612,0,0,0
2625,97610.26114806104,2010-12-14 15:43:24,1800.900742472229,7,9,-1.099568486213684,3.556804895401001,8.045598314305643,7.691989701952267,32.3460956914325,27.843739864032813,-9.713172767078504e-05,0.0988719761371612,0,0,0
2626,97640.2761017589,2010-12-14 15:43:55,1830.915696074848,7,9,-1.0993878841400146,3.5535671710968018,8.045598314305643,7.701157005842087,32.3460956914325,27.876331139962744,-6.47544875391759e-05,0.0988719761371612,0,0,0
2627,97670.29112669904,2010-12-14 15:44:25,1860.9307210450625,7,9,-1.099568486213684,3.5501675605773926,8.045598314305643,7.710324282878406,32.3460956914325,27.908891189085395,-3.237724376958795e-05,0.0988719761371612,0,0,0
2628,97700.30610106332,2010-12-14 15:44:55,1890.9456953792708,7,9,-1.0993878841400146,3.5469298362731934,8.045598314305643,7.719491542924374,32.3460956914325,27.94142023242058,-6.47544875391759e-05,0.0988719761371612,0,0,0
2629,97730.32098407028,2010-12-14 15:45:25,1920.9605783962395,7,9,-1.0993878841400146,3.543368339538574,8.045598314305643,7.728658814615679,32.3460956914325,27.973918372131195,-6.47544875391759e-05,0.0988719761371612,0,0,0
2630,97760.3360274964,2010-12-14 15:45:55,1950.975621832406,7,9,-1.0993878841400146,3.539968729019165,8.045598314305643,7.737826013927101,32.3460956914325,28.006386049355516,-6.47544875391759e-05,0.0988719761371612,0,0,0
2631,97790.35125996296,2010-12-14 15:46:25,1980.990854394204,7,9,-1.099568486213684,3.536731004714966,8.045598314305643,7.746993377786322,32.3460956914325,28.038823532853936,-6.47544875391759e-05,0.0988719761371612,0,0,0
2632,97820.36601989865,2010-12-14 15:46:55,2011.0056142396656,7,9,-1.099568486213684,3.5333313941955566,8.045598314305643,7.75616062763361,32.3460956914325,28.07122993258133,-9.713172767078504e-05,0.0988719761371612,0,0,0
2633,97850.38103525492,2010-12-14 15:47:25,2041.020629595956,7,9,-1.099568486213684,3.5299317836761475,8.045598314305643,7.765327910543901,32.3460956914325,28.103606068283053,-0.0001295089750783,0.0988719761371612,0,0,0
2634,97880.39605551845,2010-12-14 15:47:55,2071.0356498644705,7,9,-1.099568486213684,3.526694059371948,8.045598314305643,7.774495178678784,32.3460956914325,28.135951105624525,-3.237724376958795e-05,0.0988719761371612,0,0,0
2635,97910.41105159176,2010-12-14 15:48:25,2101.050646022988,7,9,-1.099568486213684,3.522970676422119,8.045598314305643,7.783662462873454,32.3460956914325,28.16826436549184,-0.0001618862152099,0.0988719761371612,0,0,0
2636,97940.42619634504,2010-12-14 15:48:55,2131.0657906810407,7,9,-1.099568486213684,3.51957106590271,8.045598314305643,7.792829790009114,32.3460956914325,28.200545553880687,-9.713172767078504e-05,0.0988719761371612,0,0,0
2637,97970.44111302578,2010-12-14 15:49:25,2161.0807073667934,7,9,-1.099568486213684,3.516009569168091,8.045598314305643,7.801997081375496,32.3460956914325,28.23279393482873,-9.713172767078504e-05,0.0988719761371612,0,0,0
2638,98000.45610330466,2010-12-14 15:49:55,2191.0956977158544,7,9,-1.0997490882873535,3.512124300003052,8.045598314305643,7.811164400475002,32.3460956914325,28.265009378750023,-0.0001295089750783,0.0988719761371612,0,0,0
2639,98030.47109053595,2010-12-14 15:50:25,2221.1106848769823,7,9,-1.0997490882873535,3.508563041687012,8.045598314305643,7.820331659809138,32.3460956914325,28.297190558528133,-9.713172767078504e-05,0.0988719761371612,0,0,0
2640,98060.4860975866,2010-12-14 15:50:55,2251.1256919276043,7,9,-1.0993878841400146,3.5046777725219727,8.045598314305643,7.829499044995536,32.3460956914325,28.32933730608445,-9.713172767078504e-05,0.0988719761371612,0,0,0
2641,98090.50110944416,2010-12-14 15:51:25,2281.1407037651384,7,9,-1.0997490882873535,3.500630617141724,8.045598314305643,7.838666398866423,32.3460956914325,28.36144739247744,-9.713172767078504e-05,0.0988719761371612,0,0,0
2642,98120.51613644946,2010-12-14 15:51:55,2311.155730790467,7,9,-1.099568486213684,3.4965834617614746,8.045598314305643,7.847833736075103,32.3460956914325,28.393519681372595,-6.47544875391759e-05,0.0988719761371612,0,0,0
2643,98150.53111100924,2010-12-14 15:52:25,2341.170705350237,7,9,-1.099568486213684,3.4918887615203857,8.045598314305643,7.857001112411001,32.3460956914325,28.425552507495578,-0.0001295089750783,0.0988719761371612,0,0,0
2644,98180.5462646797,2010-12-14 15:52:55,2371.185859020717,7,9,-1.099568486213684,3.487355947494507,8.045598314305643,7.866168489263368,32.3460956914325,28.457543863924624,-0.0001295089750783,0.0988719761371612,0,0,0
2645,98210.56138193456,2010-12-14 15:53:25,2401.2009763457527,7,9,-1.099568486213684,3.482337474822998,8.045598314305643,7.875335898093931,32.3460956914325,28.489491075131728,-9.713172767078504e-05,0.0988719761371612,0,0,0
2646,98240.57624707704,2010-12-14 15:53:55,2431.215841508292,7,9,-1.0993878841400146,3.4766714572906494,8.045598314305643,7.884503184645302,32.3460956914325,28.5213886657289,-0.0001618862152099,0.0988719761371612,0,0,0
2647,98270.59132278353,2010-12-14 15:54:25,2461.2309171646366,7,9,-1.0993878841400146,3.470843553543091,8.045598314305643,7.893670952944119,32.3460956914325,28.55323513075116,-0.0001295089750783,0.0988719761371612,0,0,0
2648,98300.6062000612,2010-12-14 15:54:55,2491.245794402224,7,9,-1.0997490882873535,3.4640443325042725,8.045598314305643,7.902838987107924,32.3460956914325,28.585024572657584,-0.0001618862152099,0.0988719761371612,0,0,0
2649,98330.62121217944,2010-12-14 15:55:25,2521.2608064953943,7,9,-1.0997490882873535,3.4564356803894043,8.045598314305643,7.912007142875875,32.3460956914325,28.61674892049996,-0.0002266406954731,0.0988719761371612,0,0,0
2650,98360.6363805916,2010-12-14 15:55:55,2551.275974932621,7,9,-1.0997490882873535,3.4476938247680664,8.045598314305643,7.92117535222774,32.3460956914325,28.648399239678422,-0.0002590179501567,0.0988719761371612,0,0,0
2651,98390.6512813728,2010-12-14 15:56:25,2581.29087578397,7,9,-1.0997490882873535,3.437494993209839,8.045598314305643,7.930343423301511,32.3460956914325,28.679962394613977,-0.0002913951757363,0.0988719761371612,0,0,0
2652,98420.66623509568,2010-12-14 15:56:55,2611.305829436714,7,9,-1.099568486213684,3.425677537918091,8.045598314305643,7.939511529651909,32.3460956914325,28.7114244249422,-0.0003237724304199,0.0988719761371612,0,0,0
2653,98450.6814038036,2010-12-14 15:57:25,2641.3209981295763,7,9,-1.0993878841400146,3.4109458923339844,8.045598314305643,7.948679326295006,32.3460956914325,28.74276469665826,-0.0004209041653666,0.0988719761371612,0,0,0
2654,98480.69630365747,2010-12-14 15:57:55,2671.335897998481,7,9,-1.0993878841400146,3.393300294876098,8.045598314305643,7.957846682404288,32.3460956914325,28.77395631958612,-0.0005180359003134,0.0988719761371612,0,0,0
2655,98510.71129479348,2010-12-14 15:58:25,2701.3508891345,7,9,-1.0997490882873535,3.370798110961914,8.045598314305643,7.967014136900398,32.3460956914325,28.8049655178762,-0.0006799221155233,0.0988719761371612,0,0,0
2656,98540.72630842548,2010-12-14 15:58:55,2731.3659027665,7,9,-1.0997490882873535,3.34230637550354,8.045598314305643,7.976181669457457,32.3460956914325,28.83574296175167,-0.0008418083307333,0.0988719761371612,0,0,0
2657,98570.74131663398,2010-12-14 15:59:25,2761.380910975003,7,9,-1.099568486213684,3.304748773574829,8.045598314305643,7.985349105956009,32.3460956914325,28.866219192664808,-0.0011332035064697,0.0988719761371612,0,0,0
2658,98600.7564697982,2010-12-14 15:59:55,2791.3960641141607,7,9,-1.0997490882873535,3.2547261714935303,8.045598314305643,7.99451658793882,32.3460956914325,28.89629698492737,-0.0015541076427325,0.0988719761371612,0,0,0
2659,98630.7714641823,2010-12-14 16:00:25,2821.4110585133003,7,9,-1.099568486213684,3.186410427093506,8.045598314305643,8.003684033514341,32.3460956914325,28.925838128204138,-0.0021368502639234,0.0988719761371612,0,0,0
2660,98660.78646588964,2010-12-14 16:00:55,2851.426060215613,7,9,-1.0993878841400146,3.088631391525269,8.045598314305643,8.012851468764145,32.3460956914325,28.95462948001828,-0.0030758380889892,0.0988719761371612,0,0,0
2661,98690.80135587898,2010-12-14 16:01:25,2881.4409502199705,7,9,-1.0997490882873535,2.933868646621704,8.045598314305643,8.022018779263291,32.3460956914325,28.98230044727561,-0.0052450657822191,0.0988719761371612,0,0,0
2662,98714.73836356694,2010-12-14 16:01:49,2905.3779578828853,7,9,-1.099568486213684,2.7336158752441406,8.045598314305643,8.029329800326417,32.3460956914325,29.00306281482636,-0.0076086521148681,0.0988719761371612,0,0,0
2663,98718.25393270551,2010-12-14 16:01:53,2908.8935270465354,7,9,-1.0993878841400146,2.699620008468628,8.045598314305643,8.030403552726698,32.3460956914325,29.005979918458458,-0.0077057359740138,0.0988719761371612,0,0,0
2664,98778.27070009784,2010-12-14 16:02:53,60.01438722436217,8,9,0.0,3.43328595161438,8.045598314305643,8.030403552726698,32.3460956914325,29.005979918458458,0.0013274193042889,0.0988719761371612,0,0,0
2665,98778.46197541512,2010-12-14 16:02:53,0.187650962202095,9,9,-1.9243103452026844e-05,3.4336097240448,8.045598318009814,8.030403552726698,32.346095704151175,29.005979918458458,0.0,0.0977081730961799,0,0,0
2666,98783.28991437051,2010-12-14 16:02:58,5.015590027877063,9,9,0.0010644125286489,3.441542148590088,8.045599357666916,8.030403552892896,32.3460992786886,29.00597991902912,0.0011332035064697,0.0977081730961799,0,0,0
