Data_Point,Test_Time(s),Date_Time,Step_Time(s),Step_Index,Cycle_Index,Current(A),Voltage(V),Charge_Capacity(Ah),Discharge_Capacity(Ah),Charge_Energy(Wh),Discharge_Energy(Wh),dV/dt(V/s),Internal_Resistance(Ohm),Is_FC_Data,AC_Impedance(Ohm),ACI_Phase_Angle(Deg)
11132,410245.6390607759,2010-12-18 06:34:37,30.015106157245143,1,39,0.0,3.4565975666046143,33.47020149854411,33.44542500197347,134.47026127389745,120.88133642933384,0.0007770538213662,0.0923885703086853,0,0,0
11133,410275.65413080825,2010-12-18 06:35:07,60.03017618959488,1,39,0.0,3.481528043746948,33.47020149854411,33.44542500197347,134.47026127389745,120.88133642933384,0.0005827903514727,0.0923885703086853,0,0,0
11134,410305.6692262538,2010-12-18 06:35:37,90.04527163518448,1,39,0.0,3.500306844711304,33.47020149854411,33.44542500197347,134.47026127389745,120.88133642933384,0.0004532813909463,0.0923885703086853,0,0,0
11135,410335.6374458607,2010-12-18 06:36:07,120.01349124205234,1,39,0.0,3.515038251876831,33.47020149854411,33.44542500197347,134.47026127389745,120.88133642933384,0.0003885269106831,0.0923885703086853,0,0,0
11136,410365.66453602567,2010-12-18 06:36:38,30.01492742247053,2,39,0.550297200679779,3.661706924438477,33.474788772535256,33.44542500197347,134.48691951887906,120.88133642933384,0.0013274669181555,0.0923885703086853,0,0,0
11137,410395.679637,2010-12-18 06:37:08,60.03002839180576,2,39,0.5501165986061096,3.6997499465942383,33.47937605923014,33.44542500197347,134.50380965444452,120.88133642933384,0.0008418083307333,0.0923885703086853,0,0,0
11138,410425.69473609474,2010-12-18 06:37:38,90.04512747143853,2,39,0.550297200679779,3.726946830749512,33.48396333414587,33.44542500197347,134.52084696746513,120.88133642933384,0.0006475448608398,0.0923885703086853,0,0,0
11139,410455.70995131833,2010-12-18 06:38:08,120.06034272516608,2,39,0.5501165986061096,3.747344493865967,33.48855058255632,33.44542500197347,134.53799218528232,120.88133642933384,0.0004856586456298,0.0923885703086853,0,0,0
11140,410485.7249302589,2010-12-18 06:38:38,150.0753216658377,2,39,0.550297200679779,3.762399673461914,33.493137831619215,33.44542500197347,134.55521847714425,120.88133642933384,0.0003561496851034,0.0923885703086853,0,0,0
11141,410515.7400115444,2010-12-18 06:39:08,180.09040295620255,2,39,0.550297200679779,3.7722747325897217,33.497725133229785,33.44542500197347,134.5725018664027,120.88133642933384,0.0001942634553415,0.0923885703086853,0,0,0
11142,410545.7551357866,2010-12-18 06:39:38,210.10552718341413,2,39,0.550297200679779,3.77923583984375,33.50231237596783,33.44542500197347,134.58982312640055,120.88133642933384,0.0001295089750783,0.0923885703086853,0,0,0
11143,410575.7702299841,2010-12-18 06:40:08,240.1206214711224,2,39,0.550297200679779,3.7850637435913086,33.50689964116703,33.44542500197347,134.6071727868401,120.88133642933384,0.0001942634553415,0.0923885703086853,0,0,0
11144,410605.7853379559,2010-12-18 06:40:38,270.1357293526583,2,39,0.5501165986061096,3.7900822162628174,33.51148692287958,33.44542500197347,134.62454701354554,120.88133642933384,0.0001295089750783,0.0923885703086853,0,0,0
11145,410635.8004089907,2010-12-18 06:41:08,300.1508003875028,2,39,0.5501165986061096,3.794776916503906,33.51607417634454,33.44542500197347,134.6419437277172,120.88133642933384,0.0001295089750783,0.0923885703086853,0,0,0
11146,410665.8156413319,2010-12-18 06:41:38,330.1660327939141,2,39,0.5501165986061096,3.799309730529785,33.52066148839886,33.44542500197347,134.65936203905008,120.88133642933384,0.0001295089750783,0.0923885703086853,0,0,0
11147,410695.8305732657,2010-12-18 06:42:08,360.18096467748586,2,39,0.5501165986061096,3.803680658340454,33.52524870033435,33.44542500197347,134.6768002536639,120.88133642933384,0.0001295089750783,0.0923885703086853,0,0,0
11148,410725.8456646261,2010-12-18 06:42:38,390.1960560379098,2,39,0.550297200679779,3.807727813720703,33.52983598122048,33.44542500197347,134.69425832056532,120.88133642933384,6.47544875391759e-05,0.0923885703086853,0,0,0
11149,410755.8609340195,2010-12-18 06:43:08,420.21132549652407,2,39,0.5501165986061096,3.811936855316162,33.534423344786106,33.44542500197347,134.7117355631715,120.88133642933384,0.0001295089750783,0.0923885703086853,0,0,0
11150,410785.8758720633,2010-12-18 06:43:38,450.2262634401762,2,39,0.550297200679779,3.815984010696411,33.53901073492075,33.44542500197347,134.7292314871283,120.88133642933384,0.0001618862152099,0.0923885703086853,0,0,0
11151,410815.8909538149,2010-12-18 06:44:08,480.241345206726,2,39,0.5501165986061096,3.81970739364624,33.543598105267975,33.44542500197347,134.74674539423816,120.88133642933384,9.713172767078504e-05,0.0923885703086853,0,0,0
11152,410845.9060613506,2010-12-18 06:44:38,510.2564527424013,2,39,0.5501165986061096,3.8235926628112793,33.54818550317639,33.44542500197347,134.7642771052257,120.88133642933384,9.713172767078504e-05,0.0923885703086853,0,0,0
11153,410875.9225283192,2010-12-18 06:45:08,540.2729197961851,2,39,0.5499359965324402,3.827316045761109,33.552773104897305,33.44542500197347,134.78182720207374,120.88133642933384,9.713172767078504e-05,0.0923885703086853,0,0,0
11154,410905.9380463262,2010-12-18 06:45:38,570.2884378233528,2,39,0.5501165986061096,3.831201314926148,33.55736047241688,33.44542500197347,134.79939396793017,120.88133642933384,9.713172767078504e-05,0.0923885703086853,0,0,0
11155,410935.9513430057,2010-12-18 06:46:08,600.3017344125575,2,39,0.5499359965324402,3.8349244594573975,33.561947514074944,33.44542500197347,134.81697704194545,120.88133642933384,6.47544875391759e-05,0.0923885703086853,0,0,0
11156,410965.9665829459,2010-12-18 06:46:38,630.3169744078534,2,39,0.5501165986061096,3.8389716148376474,33.56653491074104,33.44542500197347,134.8345790668062,120.88133642933384,9.713172767078504e-05,0.0923885703086853,0,0,0
11157,410995.98152270407,2010-12-18 06:47:08,660.3319141158961,2,39,0.5504778623580933,3.8428568840026855,33.57112228261962,33.44542500197347,134.85219868630304,120.88133642933384,0.0001295089750783,0.0923885703086853,0,0,0
11158,411025.99675696006,2010-12-18 06:47:38,690.3471483719101,2,39,0.5499359965324402,3.8464183807373047,33.57570966039116,33.44542500197347,134.86983586330257,120.88133642933384,6.47544875391759e-05,0.0923885703086853,0,0,0
11159,411056.0117145927,2010-12-18 06:48:08,720.3621059995451,2,39,0.5501165986061096,3.850303649902344,33.58029708038974,33.44542500197347,134.8874907369054,120.88133642933384,9.713172767078504e-05,0.0923885703086853,0,0,0
11160,411086.02681149193,2010-12-18 06:48:38,750.3772029037643,2,39,0.550297200679779,3.854188919067383,33.58488445133335,33.44542500197347,134.9051627063221,120.88133642933384,0.0001295089750783,0.0923885703086853,0,0,0
11161,411116.04202700633,2010-12-18 06:49:08,780.3924184181404,2,39,0.550297200679779,3.857912302017212,33.58947184803499,33.44542500197347,134.92285190768982,120.88133642933384,9.713172767078504e-05,0.0923885703086853,0,0,0
11162,411146.05701789673,2010-12-18 06:49:38,810.4074093085485,2,39,0.5499359965324402,3.861473798751831,33.59405920008839,33.44542500197347,134.9405576369472,120.88133642933384,6.47544875391759e-05,0.0923885703086853,0,0,0
11163,411176.0722461478,2010-12-18 06:50:08,840.4226375395696,2,39,0.5501165986061096,3.86487340927124,33.59864657568124,33.44542500197347,134.9582797057828,120.88133642933384,9.713172767078504e-05,0.0923885703086853,0,0,0
11164,411206.0871953344,2010-12-18 06:50:38,870.4375867462494,2,39,0.5501165986061096,3.8682730197906494,33.603233871406125,33.44542500197347,134.97601723449034,120.88133642933384,9.713172767078504e-05,0.0923885703086853,0,0,0
11165,411236.102283948,2010-12-18 06:51:08,900.4526753548255,2,39,0.5501165986061096,3.8715107440948486,33.60782117750409,33.44542500197347,134.99376999384333,120.88133642933384,3.237724376958795e-05,0.0923885703086853,0,0,0
11166,411266.117390451,2010-12-18 06:51:38,930.4677818629436,2,39,0.550297200679779,3.874910354614258,33.61240854630622,33.44542500197347,135.01153759372846,120.88133642933384,0.0001618862152099,0.0923885703086853,0,0,0
11167,411296.13263075217,2010-12-18 06:52:08,960.4830222191376,2,39,0.5501165986061096,3.877824306488037,33.61699591128405,33.44542500197347,135.02931918182267,120.88133642933384,9.713172767078504e-05,0.0923885703086853,0,0,0
11168,411326.14757357794,2010-12-18 06:52:38,990.4979649898016,2,39,0.5501165986061096,3.880414485931397,33.62158324831656,33.44542500197347,135.04711395655974,120.88133642933384,6.47544875391759e-05,0.0923885703086853,0,0,0
11169,411356.162671259,2010-12-18 06:53:08,1020.5130626709542,2,39,0.550297200679779,3.883166551589966,33.62617057050027,33.44542500197347,135.0649213120301,120.88133642933384,3.237724376958795e-05,0.0923885703086853,0,0,0
11170,411386.1777935265,2010-12-18 06:53:38,1050.5281849182388,2,39,0.5501165986061096,3.885756731033325,33.63075790349378,33.44542500197347,135.082740618629,120.88133642933384,9.713172767078504e-05,0.0923885703086853,0,0,0
11171,411416.193088669,2010-12-18 06:54:08,1080.5434801560034,2,39,0.5499359965324402,3.8880231380462646,33.6353452629914,33.44542500197347,135.10057128083548,120.88133642933384,3.237724376958795e-05,0.0923885703086853,0,0,0
11172,411446.20795834775,2010-12-18 06:54:38,1110.5583498498186,2,39,0.550297200679779,3.890451431274414,33.63993260016375,33.44542500197347,135.11841256354688,120.88133642933384,6.47544875391759e-05,0.0923885703086853,0,0,0
11173,411476.2230489512,2010-12-18 06:55:08,1140.5734403581218,2,39,0.550297200679779,3.892555952072144,33.6445199636673,33.44542500197347,135.13626413409978,120.88133642933384,6.47544875391759e-05,0.0923885703086853,0,0,0
11174,411506.2399671978,2010-12-18 06:55:38,1170.590358684881,2,39,0.550297200679779,3.894498586654663,33.64910767979752,33.44542500197347,135.15412685197433,120.88133642933384,3.237724376958795e-05,0.0923885703086853,0,0,0
11175,411536.2532529702,2010-12-18 06:56:08,1200.603644366944,2,39,0.550297200679779,3.896441221237183,33.65369482940231,33.44542500197347,135.1719961814436,120.88133642933384,0.0,0.0923885703086853,0,0,0
11176,411566.26833862136,2010-12-18 06:56:38,1230.6187300281856,2,39,0.5501165986061096,3.898383855819702,33.65828222393754,33.44542500197347,135.189875553155,120.88133642933384,3.237724376958795e-05,0.0923885703086853,0,0,0
11177,411596.2834650441,2010-12-18 06:57:08,1260.633856455873,2,39,0.5501165986061096,3.900488376617432,33.662869580883154,33.44542500197347,135.20776350118282,120.88133642933384,6.47544875391759e-05,0.0923885703086853,0,0,0
11178,411626.2985379134,2010-12-18 06:57:38,1290.648929425532,2,39,0.5501165986061096,3.9021072387695312,33.66745688745953,33.44542500197347,135.2256597314037,120.88133642933384,0.0,0.0923885703086853,0,0,0
11179,411656.31366388,2010-12-18 06:58:08,1320.6640552918225,2,39,0.550297200679779,3.903887987136841,33.672044289207975,33.44542500197347,135.24356468732873,120.88133642933384,3.237724376958795e-05,0.0923885703086853,0,0,0
11180,411686.32872466935,2010-12-18 06:58:38,1350.6791160761588,2,39,0.5501165986061096,3.9056687355041504,33.6766317218055,33.44542500197347,135.26147792043446,120.88133642933384,3.237724376958795e-05,0.0923885703086853,0,0,0
11181,411716.34381412494,2010-12-18 06:59:08,1380.6942055318427,2,39,0.5501165986061096,3.90744948387146,33.68121908124178,33.44542500197347,135.27939893804398,120.88133642933384,3.237724376958795e-05,0.0923885703086853,0,0,0
11182,411746.35886624776,2010-12-18 06:59:38,1410.7092576596376,2,39,0.5501165986061096,3.90906834602356,33.68580645903989,33.44542500197347,135.29732805173688,120.88133642933384,0.0,0.0923885703086853,0,0,0
11183,411776.374007362,2010-12-18 07:00:08,1440.7243987738718,2,39,0.5501165986061096,3.910849094390869,33.690393910227584,33.44542500197347,135.3152654519373,120.88133642933384,3.237724376958795e-05,0.0923885703086853,0,0,0
11184,411806.38913476205,2010-12-18 07:00:38,1470.7395261739791,2,39,0.5501165986061096,3.9126298427581783,33.694981357445734,33.44542500197347,135.33321075700502,120.88133642933384,3.237724376958795e-05,0.0923885703086853,0,0,0
11185,411836.4044201905,2010-12-18 07:01:08,1500.7548116674957,2,39,0.5501165986061096,3.914410352706909,33.69956875827388,33.44542500197347,135.35116376643327,120.88133642933384,3.237724376958795e-05,0.0923885703086853,0,0,0
11186,411866.4193593571,2010-12-18 07:01:38,1530.7697508542412,2,39,0.5501165986061096,3.9161911010742183,33.70415614141849,33.44542500197347,135.36912455169096,120.88133642933384,9.713172767078504e-05,0.0923885703086853,0,0,0
11187,411896.4344131943,2010-12-18 07:02:08,1560.7848046010647,2,39,0.5501165986061096,3.9178099632263184,33.708743493174424,33.44542500197347,135.38709309949527,120.88133642933384,3.237724376958795e-05,0.0923885703086853,0,0,0
11188,411926.4495660577,2010-12-18 07:02:38,1590.799957584836,2,39,0.5501165986061096,3.919590711593628,33.71333087083687,33.44542500197347,135.40506958282865,120.88133642933384,6.47544875391759e-05,0.0923885703086853,0,0,0
11189,411956.46458782,2010-12-18 07:03:08,1620.8149792317806,2,39,0.550297200679779,3.9213714599609375,33.71791819159132,33.44542500197347,135.4230537032513,120.88133642933384,3.237724376958795e-05,0.0923885703086853,0,0,0
11190,411986.479833354,2010-12-18 07:03:38,1650.8302247458098,2,39,0.5501165986061096,3.922990322113037,33.72250555627057,33.44542500197347,135.44104588105955,120.88133642933384,3.237724376958795e-05,0.0923885703086853,0,0,0
11191,412016.49481004913,2010-12-18 07:04:08,1680.8452014559307,2,39,0.5501165986061096,3.9246091842651367,33.72709288896824,33.44542500197347,135.45904578247772,120.88133642933384,0.0,0.0923885703086853,0,0,0
11192,412046.5098732394,2010-12-18 07:04:38,1710.8602646462543,2,39,0.550297200679779,3.926228046417236,33.731680264310974,33.44542500197347,135.4770536847457,120.88133642933384,3.237724376958795e-05,0.0923885703086853,0,0,0
11193,412076.52510767593,2010-12-18 07:05:08,1740.8754990877298,2,39,0.5501165986061096,3.928008794784546,33.73626764791385,33.44542500197347,135.4950695255681,120.88133642933384,0.0,0.0923885703086853,0,0,0
11194,412106.541947352,2010-12-18 07:05:38,1770.8923389392064,2,39,0.5501165986061096,3.929789543151856,33.740854557052,33.44542500197347,135.51309124077972,120.88133642933384,0.0,0.0923885703086853,0,0,0
11195,412136.5551691701,2010-12-18 07:06:08,1800.9055605819094,2,39,0.5501165986061096,3.931570291519165,33.745440850475234,33.44542500197347,135.53111838747466,120.88133642933384,6.47544875391759e-05,0.0923885703086853,0,0,0
11196,412166.5702837383,2010-12-18 07:06:38,1830.920675145073,2,39,0.5501165986061096,3.9331891536712646,33.75002810658371,33.44542500197347,135.54915733677518,120.88133642933384,0.0,0.0923885703086853,0,0,0
11197,412196.5853553946,2010-12-18 07:07:08,1860.935746806476,2,39,0.5499359965324402,3.934969902038574,33.75461549228972,33.44542500197347,135.56720473847056,120.88133642933384,3.237724376958795e-05,0.0923885703086853,0,0,0
11198,412226.60048937605,2010-12-18 07:07:39,1890.9508807879608,2,39,0.550297200679779,3.9369125366210938,33.759202890651274,33.44542500197347,135.5852600315202,120.88133642933384,9.713172767078504e-05,0.0923885703086853,0,0,0
11199,412256.6157166999,2010-12-18 07:08:09,1920.9661081818988,2,39,0.550297200679779,3.938531398773194,33.76379033949417,33.44542500197347,135.6033235010132,120.88133642933384,6.47544875391759e-05,0.0923885703086853,0,0,0
11200,412286.6307118659,2010-12-18 07:08:39,1950.981103277772,2,39,0.550297200679779,3.940150260925293,33.76837778542311,33.44542500197347,135.6213948920222,120.88133642933384,3.237724376958795e-05,0.0923885703086853,0,0,0
11201,412316.6457814522,2010-12-18 07:09:09,1980.9961728589992,2,39,0.550297200679779,3.9417691230773926,33.77296515982784,33.44542500197347,135.6394739989967,120.88133642933384,-3.237724376958795e-05,0.0923885703086853,0,0,0
11202,412346.6608919001,2010-12-18 07:09:39,2011.011283311934,2,39,0.5501165986061096,3.943711757659912,33.77755255757796,33.44542500197347,135.65756112098174,120.88133642933384,6.47544875391759e-05,0.0923885703086853,0,0,0
11203,412376.6759750249,2010-12-18 07:10:09,2041.026366436864,2,39,0.550297200679779,3.9454925060272217,33.782139917701734,33.44542500197347,135.6756560292982,120.88133642933384,9.713172767078504e-05,0.0923885703086853,0,0,0
11204,412406.6910801747,2010-12-18 07:10:39,2071.0414715815896,2,39,0.550297200679779,3.947111368179321,33.78672733738034,33.44542500197347,135.6937591557514,120.88133642933384,6.47544875391759e-05,0.0923885703086853,0,0,0
11205,412436.706253384,2010-12-18 07:11:09,2101.0566448658774,2,39,0.5501165986061096,3.948892116546631,33.79131477489881,33.44542500197347,135.71187037946422,120.88133642933384,3.237724376958795e-05,0.0923885703086853,0,0,0
11206,412466.7212712164,2010-12-18 07:11:39,2131.071662623143,2,39,0.5501165986061096,3.9505109786987305,33.79590218952348,33.44542500197347,135.72998958021788,120.88133642933384,3.237724376958795e-05,0.0923885703086853,0,0,0
11207,412496.7363556445,2010-12-18 07:12:09,2161.0867470513163,2,39,0.5501165986061096,3.95229172706604,33.800489617481944,33.44542500197347,135.74811698210914,120.88133642933384,3.237724376958795e-05,0.0923885703086853,0,0,0
11208,412526.751467922,2010-12-18 07:12:39,2191.1018593137537,2,39,0.5501165986061096,3.95423436164856,33.805077027359985,33.44542500197347,135.76625242915776,120.88133642933384,6.47544875391759e-05,0.0923885703086853,0,0,0
11209,412556.7666844488,2010-12-18 07:13:09,2221.1170758406497,2,39,0.550297200679779,3.956176996231079,33.80966450914557,33.44542500197347,135.78439635584408,120.88133642933384,6.47544875391759e-05,0.0923885703086853,0,0,0
11210,412586.7816557255,2010-12-18 07:13:39,2251.1320471172494,2,39,0.550297200679779,3.9577958583831783,33.81425196402772,33.44542500197347,135.80254837661315,120.88133642933384,3.237724376958795e-05,0.0923885703086853,0,0,0
11211,412616.7969320912,2010-12-18 07:14:09,2281.1473235732765,2,39,0.550297200679779,3.959576606750488,33.81883939761026,33.44542500197347,135.82070856714586,120.88133642933384,6.47544875391759e-05,0.0923885703086853,0,0,0
11212,412646.81198431423,2010-12-18 07:14:39,2311.1623757060843,2,39,0.550297200679779,3.961357355117798,33.82342685415929,33.44542500197347,135.83887715505332,120.88133642933384,3.237724376958795e-05,0.0923885703086853,0,0,0
11213,412676.8269493403,2010-12-18 07:15:09,2341.1773408173417,2,39,0.5501165986061096,3.963299989700317,33.82801430699387,33.44542500197347,135.85705410494396,120.88133642933384,6.47544875391759e-05,0.0923885703086853,0,0,0
11214,412706.84399694885,2010-12-18 07:15:39,2371.1943884308257,2,39,0.550297200679779,3.964918851852417,33.83260205020101,33.44542500197347,135.87524062982473,120.88133642933384,3.237724376958795e-05,0.0923885703086853,0,0,0
11215,412736.85713976034,2010-12-18 07:16:09,2401.2075312373486,2,39,0.550297200679779,3.9670233726501465,33.83718920593451,33.44542500197347,135.89343336803185,120.88133642933384,6.47544875391759e-05,0.0923885703086853,0,0,0
11216,412766.8722282838,2010-12-18 07:16:39,2431.2226196905376,2,39,0.5501165986061096,3.968804121017456,33.84177669475,33.44542500197347,135.91163590771544,120.88133642933384,6.47544875391759e-05,0.0923885703086853,0,0,0
11217,412796.89001491625,2010-12-18 07:17:09,2461.240406413267,2,39,0.5499359965324402,3.9705848693847656,33.84636458318381,33.44542500197347,135.92984866034976,120.88133642933384,0.0,0.0923885703086853,0,0,0
11218,412826.9024615103,2010-12-18 07:17:39,2491.2528529070414,2,39,0.550297200679779,3.972689390182495,33.850951640517884,33.44542500197347,135.94806679533875,120.88133642933384,9.713172767078504e-05,0.0923885703086853,0,0,0
11219,412856.9175435023,2010-12-18 07:18:09,2521.2679349091786,2,39,0.5501165986061096,3.9744701385498047,33.85553913628393,33.44542500197347,135.96629542363024,120.88133642933384,6.47544875391759e-05,0.0923885703086853,0,0,0
11220,412886.93261947954,2010-12-18 07:18:39,2551.283010891333,2,39,0.5501165986061096,3.976412773132324,33.86012663668265,33.44542500197347,135.98453294388506,120.88133642933384,3.237724376958795e-05,0.0923885703086853,0,0,0
11221,412916.9477031508,2010-12-18 07:19:09,2581.298094557611,2,39,0.5501165986061096,3.977869749069214,33.86471416516357,33.44542500197347,136.00277922123786,120.88133642933384,0.0,0.0923885703086853,0,0,0
11222,412946.963059255,2010-12-18 07:19:39,2611.313450646802,2,39,0.550297200679779,3.980459928512573,33.86930165328592,33.44542500197347,136.02103470778906,120.88133642933384,3.237724376958795e-05,0.0923885703086853,0,0,0
11223,412976.9778984831,2010-12-18 07:20:09,2641.3282898948537,2,39,0.5504778623580933,3.982564449310303,33.87388901730765,33.44542500197347,136.03929889782813,120.88133642933384,9.713172767078504e-05,0.0923885703086853,0,0,0
11224,413006.9931201728,2010-12-18 07:20:39,2671.3435115795846,2,39,0.5501165986061096,3.984345197677612,33.87847643664931,33.44542500197347,136.05757243415485,120.88133642933384,3.237724376958795e-05,0.0923885703086853,0,0,0
11225,413037.0081030081,2010-12-18 07:21:09,2701.3584945101848,2,39,0.550297200679779,3.986449718475342,33.883063822073815,33.44542500197347,136.0758551691581,120.88133642933384,3.237724376958795e-05,0.0923885703086853,0,0,0
11226,413067.0233634293,2010-12-18 07:21:39,2731.3737548360727,2,39,0.5499359965324402,3.9885542392730713,33.887651214027855,33.44542500197347,136.0941473192868,120.88133642933384,6.47544875391759e-05,0.0923885703086853,0,0,0
11227,413097.03827695217,2010-12-18 07:22:09,2761.388668363968,2,39,0.5501165986061096,3.990496873855591,33.89223852680222,33.44542500197347,136.11244863605387,120.88133642933384,3.237724376958795e-05,0.0923885703086853,0,0,0
11228,413127.0534972584,2010-12-18 07:22:39,2791.403888665256,2,39,0.5501165986061096,3.9927632808685294,33.89682588598203,33.44542500197347,136.1307598155576,120.88133642933384,6.47544875391759e-05,0.0923885703086853,0,0,0
11229,413157.0684670363,2010-12-18 07:23:09,2821.4188585383627,2,39,0.5501165986061096,3.994705677032471,33.901413266065994,33.44542500197347,136.14908083922188,120.88133642933384,6.47544875391759e-05,0.0923885703086853,0,0,0
11230,413187.08358193527,2010-12-18 07:23:39,2851.4339733471365,2,39,0.5501165986061096,3.99697208404541,33.90600064955593,33.44542500197347,136.16741179525022,120.88133642933384,6.47544875391759e-05,0.0923885703086853,0,0,0
11231,413217.09879055753,2010-12-18 07:24:09,2881.449182039537,2,39,0.550297200679779,3.9992384910583496,33.91058812036254,33.44542500197347,136.18575300576703,120.88133642933384,6.47544875391759e-05,0.0923885703086853,0,0,0
11232,413247.1138816623,2010-12-18 07:24:39,2911.4642730591127,2,39,0.5501165986061096,4.001181125640869,33.91517549863455,33.44542500197347,136.20410392797027,120.88133642933384,3.23295607813634e-05,0.0923885703086853,0,0,0
11233,413277.1289278754,2010-12-18 07:25:09,2941.4793193724386,2,39,0.5501165986061096,4.003609657287598,33.91976283995367,33.44542500197347,136.22246491614524,120.88133642933384,6.47544875391759e-05,0.0923885703086853,0,0,0
11234,413307.1458028342,2010-12-18 07:25:39,2971.496194316241,2,39,0.5501165986061096,4.005876064300537,33.92435046680124,33.44542500197347,136.24083731553642,120.88133642933384,6.47544875391759e-05,0.0923885703086853,0,0,0
11235,413337.1593962672,2010-12-18 07:26:09,3001.509787744117,2,39,0.550297200679779,4.008142471313477,33.92893761731623,33.44542500197347,136.2592182710121,120.88133642933384,6.47544875391759e-05,0.0923885703086853,0,0,0
11236,413367.1741453107,2010-12-18 07:26:39,3031.5245368077485,2,39,0.5501165986061096,4.010570526123047,33.93352496582858,33.44542500197347,136.27761050819436,120.88133642933384,6.47544875391759e-05,0.0923885703086853,0,0,0
11237,413397.18923905207,2010-12-18 07:27:09,3061.5396304638853,2,39,0.550297200679779,4.012999057769775,33.93811237009878,33.44542500197347,136.2960136628663,120.88133642933384,9.71794142969884e-05,0.0923885703086853,0,0,0
11238,413427.2043409538,2010-12-18 07:27:39,3091.554732350503,2,39,0.550297200679779,4.015103340148926,33.94269978590712,33.44542500197347,136.31442765609617,120.88133642933384,6.47544875391759e-05,0.0923885703086853,0,0,0
11239,413457.21955545055,2010-12-18 07:28:09,3121.569946847347,2,39,0.550297200679779,4.017693519592285,33.94728725398981,33.44542500197347,136.3328527184116,120.88133642933384,0.0001295089750783,0.0923885703086853,0,0,0
11240,413487.2345450527,2010-12-18 07:28:39,3151.5849364445367,2,39,0.5504778623580933,4.020122051239014,33.95187461635971,33.44542500197347,136.35128824925928,120.88133642933384,6.47544875391759e-05,0.0923885703086853,0,0,0
11241,413517.249616629,2010-12-18 07:29:09,3181.6000080357658,2,39,0.550297200679779,4.022550106048584,33.95646198346762,33.44542500197347,136.369734939173,120.88133642933384,9.70840483205393e-05,0.0923885703086853,0,0,0
11242,413547.26472388895,2010-12-18 07:29:39,3211.615115295755,2,39,0.550297200679779,4.024816513061523,33.96104933003667,33.44542500197347,136.38819280774044,120.88133642933384,3.23295607813634e-05,0.0923885703086853,0,0,0
11243,413577.27992538334,2010-12-18 07:30:09,3241.630316790244,2,39,0.550297200679779,4.027245044708252,33.96563661973307,33.44542500197347,136.40666173370835,120.88133642933384,3.24249267578125e-05,0.0923885703086853,0,0,0
11244,413607.2949096624,2010-12-18 07:30:39,3271.645301074212,2,39,0.5501165986061096,4.029673099517822,33.97022403100306,33.44542500197347,136.4251425843443,120.88133642933384,3.23295607813634e-05,0.0923885703086853,0,0,0
11245,413637.310013534,2010-12-18 07:31:09,3301.6604049457687,2,39,0.5501165986061096,4.032263278961182,33.97481141077637,33.44542500197347,136.44363477554347,120.88133642933384,6.47544875391759e-05,0.0923885703086853,0,0,0
11246,413667.3251318664,2010-12-18 07:31:39,3331.675523278312,2,39,0.5501165986061096,4.034691333770752,33.97939876916728,33.44542500197347,136.46213850616505,120.88133642933384,3.23295607813634e-05,0.0923885703086853,0,0,0
11247,413697.3403561878,2010-12-18 07:32:09,3361.6907475595035,2,39,0.550297200679779,4.0374436378479,33.9839861446784,33.44542500197347,136.4806540676492,120.88133642933384,3.24249267578125e-05,0.0923885703086853,0,0,0
11248,413727.3552981213,2010-12-18 07:32:39,3391.7056895331843,2,39,0.5501165986061096,4.04003381729126,33.98857351253701,33.44542500197347,136.49918144995613,120.88133642933384,3.24249267578125e-05,0.0923885703086853,0,0,0
11249,413757.3705970734,2010-12-18 07:33:09,3421.7209885503544,2,39,0.550297200679779,4.04278564453125,33.993160945021586,33.44542500197347,136.51772099403732,120.88133642933384,6.47544875391759e-05,0.0923885703086853,0,0,0
11250,413787.3855046865,2010-12-18 07:33:39,3451.735896093356,2,39,0.550297200679779,4.045537948608398,33.99774830262097,33.44542500197347,136.53627236485022,120.88133642933384,0.0001295089750783,0.0923885703086853,0,0,0
11251,413817.4006247484,2010-12-18 07:34:09,3481.751016160214,2,39,0.5501165986061096,4.048128128051758,34.0023356611949,33.44542500197347,136.55483587310496,120.88133642933384,9.71794142969884e-05,0.0923885703086853,0,0,0
11252,413847.41568531713,2010-12-18 07:34:39,3511.766076724002,2,39,0.5501165986061096,4.050718307495117,34.0069230324663,33.44542500197347,136.57341170625506,120.88133642933384,0.0001295089750783,0.0923885703086853,0,0,0
11253,413877.4307850434,2010-12-18 07:35:09,3541.781176455256,2,39,0.5501165986061096,4.053470134735107,34.01151043961653,33.44542500197347,136.59200008747163,120.88133642933384,9.70840483205393e-05,0.0923885703086853,0,0,0
11254,413907.44792901166,2010-12-18 07:35:39,3571.79832047364,2,39,0.5501165986061096,4.056060314178467,34.01609818372893,33.44542500197347,136.61060231459712,120.88133642933384,6.47544875391759e-05,0.0923885703086853,0,0,0
11255,413937.4610312673,2010-12-18 07:36:09,3601.8114227643405,2,39,0.5501165986061096,4.058974266052246,34.02068531564498,33.44542500197347,136.62921463790474,120.88133642933384,9.70840483205393e-05,0.0923885703086853,0,0,0
11256,413967.4760757962,2010-12-18 07:36:39,3631.826467203002,2,39,0.5501165986061096,4.0615644454956055,34.025272716564665,33.44542500197347,136.64784060164365,120.88133642933384,9.70840483205393e-05,0.0923885703086853,0,0,0
11257,413997.491297105,2010-12-18 07:37:09,3661.8416885017714,2,39,0.5501165986061096,4.064316749572754,34.02986010818189,33.44542500197347,136.66647922523407,120.88133642933384,6.47544875391759e-05,0.0923885703086853,0,0,0
11258,414027.5062808125,2010-12-18 07:37:39,3691.8566722193295,2,39,0.550297200679779,4.067230701446533,34.03444745795961,33.44542500197347,136.6851306658298,120.88133642933384,6.47544875391759e-05,0.0923885703086853,0,0,0
11259,414057.52138625295,2010-12-18 07:38:09,3721.871777644754,2,39,0.550297200679779,4.0701446533203125,34.03903481024058,33.44542500197347,136.70379527660876,120.88133642933384,9.71794142969884e-05,0.0923885703086853,0,0,0
11260,414087.5364603304,2010-12-18 07:38:39,3751.886851737207,2,39,0.550297200679779,4.073058605194092,34.04362212552288,33.44542500197347,136.7224729356266,120.88133642933384,6.47544875391759e-05,0.0923885703086853,0,0,0
11261,414117.5515764575,2010-12-18 07:39:09,3781.901967854237,2,39,0.550297200679779,4.075972557067871,34.04820946711044,33.44542500197347,136.7411640162214,120.88133642933384,9.71794142969884e-05,0.0923885703086853,0,0,0
11262,414147.5667975758,2010-12-18 07:39:40,3811.917189042733,2,39,0.550297200679779,4.07888650894165,34.052796879685175,33.44542500197347,136.75986873662958,120.88133642933384,6.47544875391759e-05,0.0923885703086853,0,0,0
11263,414177.5818700592,2010-12-18 07:40:10,3841.932261471045,2,39,0.550297200679779,4.08180046081543,34.057384288902846,33.44542500197347,136.77858693090636,120.88133642933384,9.71794142969884e-05,0.0923885703086853,0,0,0
11264,414207.596838193,2010-12-18 07:40:40,3871.947229695049,2,39,0.550297200679779,4.08487606048584,34.06197157713285,33.44542500197347,136.7973182280177,120.88133642933384,6.47544875391759e-05,0.0923885703086853,0,0,0
11265,414237.61193734274,2010-12-18 07:41:10,3901.9623287496192,2,39,0.5501165986061096,4.087790012359619,34.06655890567325,33.44542500197347,136.81606348595264,120.88133642933384,6.47544875391759e-05,0.0923885703086853,0,0,0
11266,414267.62708408607,2010-12-18 07:41:40,3931.977475583085,2,39,0.5501165986061096,4.090866088867188,34.07114628858344,33.44542500197347,136.83482285475904,120.88133642933384,3.24249267578125e-05,0.0923885703086853,0,0,0
11267,414297.6422519368,2010-12-18 07:42:10,3961.9926433987657,2,39,0.550297200679779,4.093941688537598,34.075733668384274,33.44542500197347,136.85359613871412,120.88133642933384,0.0001295089750783,0.0923885703086853,0,0,0
11268,414327.65725203016,2010-12-18 07:42:40,3992.0076434369366,2,39,0.550297200679779,4.097017765045166,34.08032100559916,33.44542500197347,136.87238335292344,120.88133642933384,9.71794142969884e-05,0.0923885703086853,0,0,0
11269,414357.6723224986,2010-12-18 07:43:10,4022.022713905372,2,39,0.5501165986061096,4.100093364715576,34.08490833871455,33.44542500197347,136.89118472951162,120.88133642933384,6.47544875391759e-05,0.0923885703086853,0,0,0
11270,414387.68742612953,2010-12-18 07:43:40,4052.037817541343,2,39,0.550297200679779,4.1031694412231445,34.08949572881438,33.44542500197347,136.9100006529645,120.88133642933384,3.24249267578125e-05,0.0923885703086853,0,0,0
11271,414417.7025134649,2010-12-18 07:44:10,4082.0529048767503,2,39,0.550297200679779,4.106407165527344,34.094083047138014,33.44542500197347,136.9288306888646,120.88133642933384,6.47544875391759e-05,0.0923885703086853,0,0,0
11272,414447.7176085245,2010-12-18 07:44:40,4112.067999931368,2,39,0.5501165986061096,4.109482765197754,34.09867042021419,33.44542500197347,136.947675514964,120.88133642933384,3.23295607813634e-05,0.0923885703086853,0,0,0
11273,414477.7327542402,2010-12-18 07:45:10,4142.0831456520655,2,39,0.550297200679779,4.112882614135742,34.103257858055365,33.44542500197347,136.96653526835607,120.88133642933384,0.0001295089750783,0.0923885703086853,0,0,0
11274,414507.74970025086,2010-12-18 07:45:40,4172.100091767977,2,39,0.550297200679779,4.116119861602783,34.107845554829375,33.44542500197347,136.98541078923893,120.88133642933384,9.70840483205393e-05,0.0923885703086853,0,0,0
11275,414537.76318365,2010-12-18 07:46:10,4202.113575046751,2,39,0.5501165986061096,4.119195938110352,34.11243268850617,33.44542500197347,137.0042989148043,120.88133642933384,6.47544875391759e-05,0.0923885703086853,0,0,0
11276,414567.77819659526,2010-12-18 07:46:40,4232.128588072242,2,39,0.5501165986061096,4.122433662414551,34.11702012465541,33.44542500197347,137.02320335373653,120.88133642933384,9.71794142969884e-05,0.0923885703086853,0,0,0
11277,414597.7930928552,2010-12-18 07:47:10,4262.143484267003,2,39,0.5501165986061096,4.12599515914917,34.12160749098917,33.44542500197347,137.0421225328306,120.88133642933384,0.0001295089750783,0.0923885703086853,0,0,0
11278,414627.80820597976,2010-12-18 07:47:40,4292.158597386573,2,39,0.5501165986061096,4.12907075881958,34.1261948769473,33.44542500197347,137.06105707379822,120.88133642933384,6.47544875391759e-05,0.0923885703086853,0,0,0
11279,414657.8232726186,2010-12-18 07:48:10,4322.173664030492,2,39,0.550297200679779,4.132632255554199,34.13078226739186,33.44542500197347,137.08000699634587,120.88133642933384,9.70840483205393e-05,0.0923885703086853,0,0,0
11280,414687.8383631119,2010-12-18 07:48:40,4352.188754588919,2,39,0.550297200679779,4.136032104492188,34.13536969687392,33.44542500197347,137.0989725303036,120.88133642933384,9.71794142969884e-05,0.0923885703086853,0,0,0
11281,414717.85628008377,2010-12-18 07:49:10,4382.206671610894,2,39,0.5501165986061096,4.139107704162598,34.13995760040379,33.44542500197347,137.11795566535943,120.88133642933384,3.23295607813634e-05,0.0923885703086853,0,0,0
11282,414747.8685988296,2010-12-18 07:49:40,4412.218990221435,2,39,0.550297200679779,4.142831325531006,34.144544595815496,33.44542500197347,137.13695068696305,120.88133642933384,9.71794142969884e-05,0.0923885703086853,0,0,0
11283,414777.8836601502,2010-12-18 07:50:10,4442.234051562156,2,39,0.5504778623580933,4.146392822265625,34.14913199431539,33.44542500197347,137.15596330016768,120.88133642933384,9.71794142969884e-05,0.0923885703086853,0,0,0
11284,414807.8989259047,2010-12-18 07:50:40,4472.249317366678,2,39,0.5501165986061096,4.149792194366455,34.15371944954857,33.44542500197347,137.17499220486565,120.88133642933384,6.47544875391759e-05,0.0923885703086853,0,0,0
11285,414837.9138476781,2010-12-18 07:51:10,4502.2642390899655,2,39,0.550297200679779,4.153353691101074,34.1583068209224,33.44542500197347,137.19403682405266,120.88133642933384,9.70840483205393e-05,0.0923885703086853,0,0,0
11286,414867.9290994929,2010-12-18 07:51:40,4532.279490899661,2,39,0.550297200679779,4.156591415405273,34.16289424840909,33.44542500197347,137.2130977401065,120.88133642933384,3.23295607813634e-05,0.0923885703086853,0,0,0
11287,414897.94419137953,2010-12-18 07:52:10,4562.294582861583,2,39,0.550297200679779,4.1604766845703125,34.16748162938175,33.44542500197347,137.23217470554673,120.88133642933384,0.0001295089750783,0.0923885703086853,0,0,0
11288,414927.9591439696,2010-12-18 07:52:40,4592.309535376495,2,39,0.550297200679779,4.164038181304932,34.1720689732556,33.44542500197347,137.25126784205628,120.88133642933384,0.0001295089750783,0.0923885703086853,0,0,0
11289,414957.9742613348,2010-12-18 07:53:10,4622.32465274163,2,39,0.5501165986061096,4.16743803024292,34.176656344231,33.44542500197347,137.2703773798582,120.88133642933384,0.0001295089750783,0.0923885703086853,0,0,0
11290,414987.98935407365,2010-12-18 07:53:40,4652.339745480484,2,39,0.550297200679779,4.17116117477417,34.181243738294995,33.44542500197347,137.2895035842764,120.88133642933384,9.70840483205393e-05,0.0923885703086853,0,0,0
11291,415018.0044326071,2010-12-18 07:54:10,4682.354824019001,2,39,0.5501165986061096,4.174561023712158,34.18583116583962,33.44542500197347,137.30864657491944,120.88133642933384,3.24249267578125e-05,0.0923885703086853,0,0,0
11292,415048.0195525487,2010-12-18 07:54:40,4712.369944050772,2,39,0.5501165986061096,4.178446292877197,34.190418556406286,33.44542500197347,137.3278060981721,120.88133642933384,0.0001295089750783,0.0923885703086853,0,0,0
11293,415078.0347536823,2010-12-18 07:55:10,4742.385145094138,2,39,0.5501165986061096,4.182007789611816,34.19500595677544,33.44542500197347,137.34698254337508,120.88133642933384,0.0001295089750783,0.0923885703086853,0,0,0
11294,415108.0515616394,2010-12-18 07:55:40,4772.401953121421,2,39,0.5501165986061096,4.185730934143066,34.1995935760871,33.44542500197347,137.36617683297388,120.88133642933384,6.47544875391759e-05,0.0923885703086853,0,0,0
11295,415138.06506931887,2010-12-18 07:56:10,4802.415460780867,2,39,0.550297200679779,4.1896162033081055,34.20418071107601,33.44542500197347,137.38538628809883,120.88133642933384,9.70840483205393e-05,0.0923885703086853,0,0,0
11296,415168.079941534,2010-12-18 07:56:40,4832.430332930793,2,39,0.550297200679779,4.193177700042725,34.20876811669507,33.44542500197347,137.40461413847467,120.88133642933384,6.47544875391759e-05,0.0923885703086853,0,0,0
11297,415198.09505097946,2010-12-18 07:57:10,4862.445442376221,2,39,0.550297200679779,4.1972246170043945,34.213355507138324,33.44542500197347,137.4238592370895,120.88133642933384,0.0001295089750783,0.0923885703086853,0,0,0
11298,415220.8758782218,2010-12-18 07:57:33,4885.226269613615,2,39,0.5504778623580933,4.200300693511963,34.216837245314615,33.44542500197347,137.43847749318795,120.88133642933384,0.0001619339018361,0.0923885703086853,0,0,0
11299,415250.8955578452,2010-12-18 07:58:03,30.015200787729466,3,39,0.0,4.112072944641113,34.216837245314615,33.44542500197347,137.43847749318795,120.88133642933384,-0.0003885269106831,0.0923885703086853,0,0,0
11300,415280.9106513359,2010-12-18 07:58:33,60.03029428346694,3,39,0.0,4.100903034210205,34.216837245314615,33.44542500197347,137.43847749318795,120.88133642933384,-0.0002265930233988,0.0923885703086853,0,0,0
11301,415310.9256263368,2010-12-18 07:59:03,90.04526918909748,3,39,0.0,4.094265460968018,34.216837245314615,33.44542500197347,137.43847749318795,120.88133642933384,-0.0001942634553415,0.0923885703086853,0,0,0
11302,415340.8938951511,2010-12-18 07:59:33,120.01353808862824,3,39,0.0,4.090056419372559,34.216837245314615,33.44542500197347,137.43847749318795,120.88133642933384,-0.0001295089750783,0.0923885703086853,0,0,0
11303,415340.90045249386,2010-12-18 07:59:33,2.811997548e-06,4,39,1.010309100151062,4.199814796447754,34.21683724610378,33.44542500197347,137.43847749650232,120.88133642933384,0.0,0.0923885703086853,0,0,0
11304,415341.7422966056,2010-12-18 07:59:34,0.841847049002711,4,39,0.9593772292137146,4.199976921081543,34.21706616570745,33.44542500197347,137.43943890042124,120.88133642933384,3.24249267578125e-05,0.0923885703086853,0,0,0
11305,415343.5860203813,2010-12-18 07:59:36,2.685570804656202,4,39,0.9091678857803344,4.199814796447754,34.21754366708594,33.44542500197347,137.44144428091056,120.88133642933384,0.0,0.0923885703086853,0,0,0
11306,415346.44535278,2010-12-18 07:59:39,5.544903203356044,4,39,0.859139084815979,4.199653148651123,34.218244771110456,33.44542500197347,137.4443887424868,120.88133642933384,-6.47544875391759e-05,0.0923885703086853,0,0,0
11307,415350.3358912152,2010-12-18 07:59:43,9.435441568441467,4,39,0.8091103434562683,4.199814796447754,34.21914485159601,33.44542500197347,137.44816885602194,120.88133642933384,0.0,0.0923885703086853,0,0,0
11308,415355.4920565444,2010-12-18 07:59:48,14.59160688251148,4,39,0.758720338344574,4.199653148651123,34.22026639771176,33.44542500197347,137.4528790741889,120.88133642933384,-3.23295607813634e-05,0.0923885703086853,0,0,0
11309,415362.24193446094,2010-12-18 07:59:54,21.34148479909621,4,39,0.7085109353065491,4.199653148651123,34.22164046083815,33.44542500197347,137.45864982402782,120.88133642933384,-3.23295607813634e-05,0.0923885703086853,0,0,0
11310,415371.24180176953,2010-12-18 08:00:03,30.34135210774504,4,39,0.6581209897994995,4.199814796447754,34.22334606401459,33.44542500197347,137.4658129682851,120.88133642933384,0.0,0.0923885703086853,0,0,0
11311,415383.52284904337,2010-12-18 08:00:16,42.622399396575325,4,39,0.608092188835144,4.199653148651123,34.22550149306182,33.44542500197347,137.47486530148174,120.88133642933384,-3.23295607813634e-05,0.0923885703086853,0,0,0
11312,415401.9287108876,2010-12-18 08:00:34,61.02826124586953,4,39,0.5580634474754333,4.199653148651123,34.22847408302414,33.44542500197347,137.48734951644948,120.88133642933384,-3.23295607813634e-05,0.0923885703086853,0,0,0
11313,415432.83443534427,2010-12-18 08:01:05,91.93398569748568,4,39,0.5078540444374084,4.199653148651123,34.23303098267565,33.44542500197347,137.50648751501106,120.88133642933384,-3.23295607813634e-05,0.0923885703086853,0,0,0
11314,415490.4428120139,2010-12-18 08:02:03,149.54236236712126,4,39,0.4578252732753753,4.199814796447754,34.24072130878794,33.44542500197347,137.53878524486936,120.88133642933384,0.0,0.0923885703086853,0,0,0
11315,415582.53491334605,2010-12-18 08:03:35,241.63446370429497,4,39,0.4077965021133423,4.199653148651123,34.25176309697574,33.44542500197347,137.58515827195288,120.88133642933384,0.0,0.0923885703086853,0,0,0
11316,415701.4704517088,2010-12-18 08:05:34,360.570002047017,4,39,0.3577677309513092,4.199814796447754,34.26438931411219,33.44542500197347,137.63818551921676,120.88133642933384,3.23295607813634e-05,0.0923885703086853,0,0,0
11317,415843.57725319866,2010-12-18 08:07:56,502.6768036421402,4,39,0.3077389597892761,4.199814796447754,34.2775070408047,33.44542500197347,137.69327716681948,120.88133642933384,3.23295607813634e-05,0.0923885703086853,0,0,0
11318,416013.2462094255,2010-12-18 08:10:45,672.3457597637198,4,39,0.257710188627243,4.199653148651123,34.29081017308415,33.44542500197347,137.74914746497782,120.88133642933384,0.0,0.0923885703086853,0,0,0
11319,416224.2580087373,2010-12-18 08:14:17,883.3575590955184,4,39,0.2076814323663711,4.199653148651123,34.304410032845475,33.44542500197347,137.8062638341919,120.88133642933384,-3.23295607813634e-05,0.0923885703086853,0,0,0
11320,416505.9876008966,2010-12-18 08:18:58,1165.087151304978,4,39,0.157652661204338,4.199653148651123,34.31862265503796,33.44542500197347,137.8659537322075,120.88133642933384,-3.23295607813634e-05,0.0923885703086853,0,0,0
11321,416933.8238961271,2010-12-18 08:26:06,1592.9234465354168,4,39,0.1076238825917244,4.199653148651123,34.33417610504759,33.44542500197347,137.93127472793424,120.88133642933384,0.0,0.0923885703086853,0,0,0
11322,417745.2470998961,2010-12-18 08:39:38,2404.346650254287,4,39,0.0575951151549816,4.199814796447754,34.352164153052435,33.44542500197347,138.0068205427826,120.88133642933384,0.0,0.0923885703086853,0,0,0
11323,417949.29032543,2010-12-18 08:43:02,2608.3898758533737,4,39,0.0498289167881011,4.199814796447754,34.35523060147187,33.44542500197347,138.0196988245062,120.88133642933384,3.23295607813634e-05,0.0923885703086853,0,0,0
11324,417979.3109476602,2010-12-18 08:43:32,30.01519335423149,5,39,0.0,4.191558837890625,34.35523060147187,33.44542500197347,138.0196988245062,120.88133642933384,-6.47544875391759e-05,0.0923885703086853,0,0,0
11325,418009.31042287545,2010-12-18 08:44:02,60.01466855444124,5,39,0.0,4.190425872802734,34.35523060147187,33.44542500197347,138.0196988245062,120.88133642933384,0.0,0.0923885703086853,0,0,0
11326,418009.50444566907,2010-12-18 08:44:02,0.187546808018415,6,39,0.0001613661734154,4.190587520599365,34.355230609878454,33.44542500197347,138.01969885973472,120.88133642933384,0.0,0.0947341993451118,0,0,0
11327,418014.3325044676,2010-12-18 08:44:07,5.015605606644226,6,39,0.0008838032954372,4.190263748168945,34.35523168299188,33.44542500197347,138.01970335646598,120.88133642933384,-3.24249267578125e-05,0.0947341993451118,0,0,0
11328,418044.35418892535,2010-12-18 08:44:37,30.01513082863896,7,39,-1.0997490882873535,4.0084662437438965,34.35523168299188,33.45459364002743,138.01970335646598,120.9182989894996,-0.0009713172912597,0.0947341993451118,0,0,0
11329,418074.3692570279,2010-12-18 08:45:07,60.0301989412114,7,39,-1.099568486213684,3.979812383651733,34.35523168299188,33.46376228870551,138.01970335646598,120.95490992309948,-0.0006151676061563,0.0947341993451118,0,0,0
11330,418104.3846085006,2010-12-18 08:45:37,90.04555048910171,7,39,-1.0997490882873535,3.959738492965698,34.35523168299188,33.472930918522245,138.01970335646598,120.9913025078687,-0.0004856586456298,0.0947341993451118,0,0,0
11331,418134.399443077,2010-12-18 08:46:07,120.0603849953538,7,39,-1.099929690361023,3.943873643875122,34.35523168299188,33.48209940555201,138.01970335646598,121.02753378138972,-0.0004209041653666,0.0947341993451118,0,0,0
11332,418164.414681328,2010-12-18 08:46:37,150.07562324630908,7,39,-1.099568486213684,3.9307608604431152,34.35523168299188,33.4912679948922,138.01970335646598,121.06363314621304,-0.0003237724304199,0.0947341993451118,0,0,0
11333,418194.4297702222,2010-12-18 08:47:07,180.09071213558354,7,39,-1.099568486213684,3.918457508087158,34.35523168299188,33.50043652676246,138.01970335646598,121.09961473722974,-0.0003237724304199,0.0947341993451118,0,0,0
11334,418224.4447175944,2010-12-18 08:47:37,210.105659507698,7,39,-1.099568486213684,3.90728759765625,34.35523168299188,33.50960495175949,138.01970335646598,121.13548802406504,-0.0002590179501567,0.0947341993451118,0,0,0
11335,418254.4598187743,2010-12-18 08:48:07,240.12076068755707,7,39,-1.099568486213684,3.8962793350219727,34.35523168299188,33.51877339802031,138.01970335646598,121.17125971988447,-0.0002590179501567,0.0947341993451118,0,0,0
11336,418284.4749449764,2010-12-18 08:48:37,270.1358869849202,7,39,-1.0997490882873535,3.885756731033325,34.35523168299188,33.527941742704286,138.01970335646598,121.2069341816002,-0.0002913951757363,0.0947341993451118,0,0,0
11337,418314.490260264,2010-12-18 08:49:07,300.1512022324785,7,39,-1.0997490882873535,3.875719785690308,34.35523168299188,33.537110189294445,138.01970335646598,121.24251486347671,-0.0002266406954731,0.0947341993451118,0,0,0
11338,418344.5051129756,2010-12-18 08:49:37,330.1660549791212,7,39,-1.099568486213684,3.8658447265625,34.35523168299188,33.546278681249895,138.01970335646598,121.27800404421124,-0.0002590179501567,0.0947341993451118,0,0,0
11339,418374.52023084194,2010-12-18 08:50:07,360.1811727452545,7,39,-1.099568486213684,3.856293439865112,34.35523168299188,33.55544726456618,138.01970335646598,121.31340437270956,-0.0002590179501567,0.0947341993451118,0,0,0
11340,418404.5353232299,2010-12-18 08:50:37,390.1962651432604,7,39,-1.0997490882873535,3.846904039382935,34.35523168299188,33.56461583987128,138.01970335646598,121.34871780788691,-0.0002266406954731,0.0947341993451118,0,0,0
11341,418434.55040646513,2010-12-18 08:51:07,420.2113483834773,7,39,-1.1001102924346924,3.837514638900757,34.35523168299188,33.5737844301546,138.01970335646598,121.38394614205288,-0.0002590179501567,0.0947341993451118,0,0,0
11342,418464.56550176034,2010-12-18 08:51:37,450.2264436586429,7,39,-1.099568486213684,3.828773021697998,34.35523168299188,33.5829530150578,138.01970335646598,121.4190910860992,-0.0002266406954731,0.0947341993451118,0,0,0
11343,418494.5806270501,2010-12-18 08:52:07,480.2415690387233,7,39,-1.0997490882873535,3.81986927986145,34.35523168299188,33.59212157350113,138.01970335646598,121.45415475009528,-0.0002590179501567,0.0947341993451118,0,0,0
11344,418524.59756603336,2010-12-18 08:52:37,510.2585080268977,7,39,-1.099568486213684,3.811289310455322,34.35523168299188,33.60129072121979,138.01970335646598,121.48914103791654,-0.0001942634553415,0.0947341993451118,0,0,0
11345,418554.61082326464,2010-12-18 08:53:07,540.2717652481367,7,39,-1.099568486213684,3.8030331134796143,34.35523168299188,33.610458754836245,138.01970335646598,121.52404440913335,-0.0001942634553415,0.0947341993451118,0,0,0
11346,418584.6260288945,2010-12-18 08:53:37,570.2869708829279,7,39,-1.0997490882873535,3.794776916503906,34.35523168299188,33.61962734804218,138.01970335646598,121.55887440021073,-0.0002266406954731,0.0947341993451118,0,0,0
11347,418614.6409994793,2010-12-18 08:54:07,600.3019414627939,7,39,-1.0997490882873535,3.786844491958618,34.35523168299188,33.62879591538975,138.01970335646598,121.59363050128316,-0.0001942634553415,0.0947341993451118,0,0,0
11348,418644.6562599205,2010-12-18 08:54:37,630.3172018187566,7,39,-1.099568486213684,3.77907395362854,34.35523168299188,33.63796455837465,138.01970335646598,121.62831451997673,-0.0001942634553415,0.0947341993451118,0,0,0
11349,418674.6711915083,2010-12-18 08:55:07,660.33213342163,7,39,-1.099568486213684,3.771465301513672,34.35523168299188,33.64713310181182,138.01970335646598,121.662927692738,-0.0002266406954731,0.0947341993451118,0,0,0
11350,418704.68628340506,2010-12-18 08:55:37,690.3472254136254,7,39,-1.099568486213684,3.7640185356140137,34.35523168299188,33.65630168220596,138.01970335646598,121.69747204880318,-0.0001942634553415,0.0947341993451118,0,0,0
11351,418734.7016454691,2010-12-18 08:56:07,720.3625874526225,7,39,-1.0997490882873535,3.756895542144776,34.35523168299188,33.66547036727901,138.01970335646598,121.73194983405062,-0.0001618862152099,0.0947341993451118,0,0,0
11352,418764.71649201534,2010-12-18 08:56:37,750.3774339136236,7,39,-1.0997490882873535,3.749610900878906,34.35523168299188,33.67463891933821,138.01970335646598,121.76636167670502,-0.0002266406954731,0.0947341993451118,0,0,0
11353,418794.73160315497,2010-12-18 08:57:07,780.3925450733169,7,39,-1.099568486213684,3.742649793624878,34.35523168299188,33.68380751736348,138.01970335646598,121.80070965860033,-0.0002266406954731,0.0947341993451118,0,0,0
11354,418824.7466808364,2010-12-18 08:57:37,810.4076227396637,7,39,-1.099568486213684,3.73617434501648,34.35523168299188,33.692976152650544,138.01970335646598,121.83499500027422,-0.0001618862152099,0.0947341993451118,0,0,0
11355,418854.761789956,2010-12-18 08:58:07,840.422731874318,7,39,-1.0997490882873535,3.729213237762451,34.35523168299188,33.7021448184066,138.01970335646598,121.86921930914195,-0.0001942634553415,0.0947341993451118,0,0,0
11356,418884.7768896822,2010-12-18 08:58:37,870.4378316005599,7,39,-1.0997490882873535,3.7230615615844727,34.35523168299188,33.71131333939178,138.01970335646598,121.90338353767818,-0.0001618862152099,0.0947341993451118,0,0,0
11357,418914.7920999135,2010-12-18 08:59:07,900.4530418167517,7,39,-1.099568486213684,3.716747999191284,34.35523168299188,33.72048193250809,138.01970335646598,121.93748921120525,-0.0001942634553415,0.0947341993451118,0,0,0
11358,418944.8075258164,2010-12-18 08:59:37,930.4684677848336,7,39,-1.099568486213684,3.710434436798096,34.35523168299188,33.729650668242726,138.01970335646598,121.97153770901888,-0.0001618862152099,0.0947341993451118,0,0,0
11359,418974.82222227415,2010-12-18 09:00:07,960.4831642776448,7,39,-1.0997490882873535,3.704282760620117,34.35523168299188,33.73881917687924,138.01970335646598,122.00552881068076,-0.0001618862152099,0.0947341993451118,0,0,0
11360,419004.837290141,2010-12-18 09:00:37,990.4982320543816,7,39,-1.099929690361023,3.6982929706573486,34.35523168299188,33.747987845372826,138.01970335646598,122.03946491824702,-0.0001618862152099,0.0947341993451118,0,0,0
11361,419034.85251031705,2010-12-18 09:01:07,1020.5134522353704,7,39,-1.099568486213684,3.69230318069458,34.35523168299188,33.757156509909905,138.01970335646598,122.0733463122384,-0.0001618862152099,0.0947341993451118,0,0,0
11362,419064.8674626316,2010-12-18 09:01:37,1050.5284045297335,7,39,-1.099568486213684,3.6864752769470215,34.35523168299188,33.766325039794765,138.01970335646598,122.10717320809424,-0.0001942634553415,0.0947341993451118,0,0,0
11363,419094.8825728087,2010-12-18 09:02:07,1080.5435147220198,7,39,-1.0997490882873535,3.680809259414673,34.35523168299188,33.775493667014615,138.01970335646598,122.14094741800568,-0.0001618862152099,0.0947341993451118,0,0,0
11364,419124.89948770194,2010-12-18 09:02:38,1110.5604296954343,7,39,-1.0997490882873535,3.675143241882324,34.35523168299188,33.78466290187868,138.01970335646598,122.1746718762584,-0.0001295089750783,0.0947341993451118,0,0,0
11365,419154.9129434021,2010-12-18 09:03:08,1140.5738854457054,7,39,-1.0997490882873535,3.6696393489837646,34.35523168299188,33.793831040032,138.01970335646598,122.20834123400805,-0.0001618862152099,0.0947341993451118,0,0,0
11366,419184.9278591956,2010-12-18 09:03:38,1170.588801113926,7,39,-1.0997490882873535,3.664297103881836,34.35523168299188,33.8029996130354,138.01970335646598,122.24196201344456,-0.0001295089750783,0.0947341993451118,0,0,0
11367,419214.9428571686,2010-12-18 09:04:08,1200.6037990819464,7,39,-1.0997490882873535,3.6589548587799072,34.35523168299188,33.81216826365349,138.01970335646598,122.27553381305212,-0.0001618862152099,0.0947341993451118,0,0,0
11368,419244.9580366283,2010-12-18 09:04:38,1230.618978526564,7,39,-1.0997490882873535,3.6536126136779785,34.35523168299188,33.82133700261811,138.01970335646598,122.3090574513803,-0.0001295089750783,0.0947341993451118,0,0,0
11369,419274.9730760194,2010-12-18 09:05:08,1260.6340179176643,7,39,-1.0997490882873535,3.64843225479126,34.35523168299188,33.830505654090246,138.01970335646598,122.3425329786824,-0.0001295089750783,0.0947341993451118,0,0,0
11370,419304.9882693335,2010-12-18 09:05:38,1290.6492112468334,7,39,-1.099568486213684,3.643251895904541,34.35523168299188,33.83967433481484,138.01970335646598,122.37596122031093,-0.0001295089750783,0.0947341993451118,0,0,0
11371,419335.00349498313,2010-12-18 09:06:08,1320.6644369014432,7,39,-1.099568486213684,3.638395309448242,34.35523168299188,33.848843035448354,138.01970335646598,122.40934363915969,-0.0001618862152099,0.0947341993451118,0,0,0
11372,419365.01864312985,2010-12-18 09:06:38,1350.6795850130902,7,39,-1.099568486213684,3.633700609207153,34.35523168299188,33.858011688433926,138.01970335646598,122.44268083505496,-9.713172767078504e-05,0.0947341993451118,0,0,0
11373,419395.0336908618,2010-12-18 09:07:08,1380.6946327599835,7,39,-1.0997490882873535,3.629005908966065,34.35523168299188,33.86718035896085,138.01970335646598,122.4759738830324,-0.0001295089750783,0.0947341993451118,0,0,0
11374,419425.04865950166,2010-12-18 09:07:38,1410.7096014050348,7,39,-1.099929690361023,3.6241493225097656,34.35523168299188,33.876348985227004,138.01970335646598,122.5092234646866,-0.0001295089750783,0.0947341993451118,0,0,0
11375,419455.0637874182,2010-12-18 09:08:08,1440.7247293164144,7,39,-1.099568486213684,3.619616508483887,34.35523168299188,33.88551764966207,138.01970335646598,122.54243097694128,-9.713172767078504e-05,0.0947341993451118,0,0,0
11376,419485.0788924476,2010-12-18 09:08:38,1470.7398343508653,7,39,-1.099568486213684,3.6152455806732178,34.35523168299188,33.8946863483424,138.01970335646598,122.5755971088518,-6.47544875391759e-05,0.0947341993451118,0,0,0
11377,419515.09396873554,2010-12-18 09:09:08,1500.754910703944,7,39,-1.099929690361023,3.610712766647339,34.35523168299188,33.903855073448845,138.01970335646598,122.60872299984842,-0.0001295089750783,0.0947341993451118,0,0,0
11378,419545.1090513642,2010-12-18 09:09:38,1530.769993277502,7,39,-1.099568486213684,3.60666561126709,34.35523168299188,33.91302371930448,138.01970335646598,122.64180904245472,-6.47544875391759e-05,0.0947341993451118,0,0,0
11379,419575.12416898,2010-12-18 09:10:08,1560.7851108932614,7,39,-1.0997490882873535,3.602456569671631,34.35523168299188,33.922192311339565,138.01970335646598,122.67485639855208,-9.713172767078504e-05,0.0947341993451118,0,0,0
11380,419605.13926482655,2010-12-18 09:10:38,1590.8002067448613,7,39,-1.1001102924346924,3.598247528076172,34.35523168299188,33.93136094026875,138.01970335646598,122.7078666640616,-0.0001295089750783,0.0947341993451118,0,0,0
11381,419635.1543856553,2010-12-18 09:11:08,1620.815327658828,7,39,-1.099568486213684,3.5945241451263428,34.35523168299188,33.940529595131764,138.01970335646598,122.74084088381056,-9.713172767078504e-05,0.0947341993451118,0,0,0
11382,419665.1694475523,2010-12-18 09:11:38,1650.8303894707217,7,39,-1.099568486213684,3.590639114379883,34.35523168299188,33.94969828787248,138.01970335646598,122.7737800349558,-0.0001295089750783,0.0947341993451118,0,0,0
11383,419695.188572811,2010-12-18 09:12:08,1680.8495147995204,7,39,-1.099568486213684,3.587077617645264,34.35523168299188,33.9588682392239,138.01970335646598,122.80668920335548,-6.47544875391759e-05,0.0947341993451118,0,0,0
11384,419725.2014113554,2010-12-18 09:12:38,1710.8623533890102,7,39,-1.0997490882873535,3.5833542346954346,34.35523168299188,33.96803626745908,138.01970335646598,122.83955772402624,-9.713172767078504e-05,0.0947341993451118,0,0,0
11385,419755.2147835076,2010-12-18 09:13:08,1740.8757255161884,7,39,-1.0997490882873535,3.5797927379608154,34.35523168299188,33.97720439012295,138.01970335646598,122.8723938539102,-9.713172767078504e-05,0.0947341993451118,0,0,0
11386,419785.22988259234,2010-12-18 09:13:38,1770.890824510609,7,39,-1.0997490882873535,3.5763931274414062,34.35523168299188,33.986373104434776,138.01970335646598,122.90519988009508,-6.47544875391759e-05,0.0947341993451118,0,0,0
11387,419815.2449416422,2010-12-18 09:14:08,1800.9058835556173,7,39,-1.099568486213684,3.572993516921997,34.35523168299188,33.99554182631373,138.01970335646598,122.9379743046742,-6.47544875391759e-05,0.0947341993451118,0,0,0
11388,419845.2601789159,2010-12-18 09:14:38,1830.9211208291404,7,39,-1.099929690361023,3.569593906402588,34.35523168299188,34.00471056007131,138.01970335646598,122.97071766150678,-6.47544875391759e-05,0.0947341993451118,0,0,0
11389,419875.2751554956,2010-12-18 09:15:08,1860.9360974089368,7,39,-1.099568486213684,3.5660324096679688,34.35523168299188,34.01387920517588,138.01970335646598,123.00342958034932,-9.713172767078504e-05,0.0947341993451118,0,0,0
11390,419905.2902429112,2010-12-18 09:15:38,1890.9511848245445,7,39,-1.0993878841400146,3.562794685363769,34.35523168299188,34.023047885847724,138.01970335646598,123.03611088027746,-9.713172767078504e-05,0.0947341993451118,0,0,0
11391,419935.30534081295,2010-12-18 09:16:08,1920.9662827262457,7,39,-1.099568486213684,3.5595569610595703,34.35523168299188,34.03221649569355,138.01970335646598,123.06876211684065,-6.47544875391759e-05,0.0947341993451118,0,0,0
11392,419965.3204624186,2010-12-18 09:16:38,1950.9814043319336,7,39,-1.0997490882873535,3.556157350540161,34.35523168299188,34.041385204829695,138.01970335646598,123.10138305521426,-9.713172767078504e-05,0.0947341993451118,0,0,0
11393,419995.3355372629,2010-12-18 09:17:08,1980.9964791762577,7,39,-1.0997490882873535,3.552757740020752,34.35523168299188,34.0505538686224,138.01970335646598,123.1339730498182,-9.713172767078504e-05,0.0947341993451118,0,0,0
11394,420025.3506259717,2010-12-18 09:17:38,2011.0115678850832,7,39,-1.099568486213684,3.5496819019317627,34.35523168299188,34.05972253088829,138.01970335646598,123.16653231647048,-6.47544875391759e-05,0.0947341993451118,0,0,0
11395,420055.3657131368,2010-12-18 09:18:08,2041.0266550350293,7,39,-1.099929690361023,3.5459585189819336,34.35523168299188,34.06889126520555,138.01970335646598,123.19906093820296,-0.0001295089750783,0.0947341993451118,0,0,0
11396,420085.380828136,2010-12-18 09:18:38,2071.0417700342778,7,39,-1.099568486213684,3.5425589084625244,34.35523168299188,34.07805992327787,138.01970335646598,123.23155788081128,-9.713172767078504e-05,0.0947341993451118,0,0,0
11397,420115.396045069,2010-12-18 09:19:08,2101.056987057408,7,39,-1.099568486213684,3.5389974117279053,34.35523168299188,34.08722865089181,138.01970335646598,123.26402341696776,-9.713172767078504e-05,0.0947341993451118,0,0,0
11398,420145.411010922,2010-12-18 09:19:38,2131.0719528403374,7,39,-1.099568486213684,3.535597801208496,34.35523168299188,34.09639737731523,138.01970335646598,123.2964565608248,-9.713172767078504e-05,0.0947341993451118,0,0,0
11399,420175.4262432332,2010-12-18 09:20:08,2161.087185146499,7,39,-1.0997490882873535,3.532036304473877,34.35523168299188,34.10556619765193,138.01970335646598,123.3288568663683,-6.47544875391759e-05,0.0947341993451118,0,0,0
11400,420205.4413641522,2010-12-18 09:20:38,2191.102306055453,7,39,-1.0997490882873535,3.528151035308838,34.35523168299188,34.11473490064155,138.01970335646598,123.3612229380565,-9.713172767078504e-05,0.0947341993451118,0,0,0
11401,420235.4565430354,2010-12-18 09:21:08,2221.117485028899,7,39,-1.0997490882873535,3.524265766143799,34.35523168299188,34.123903607097226,138.01970335646598,123.39355432661628,-9.713172767078504e-05,0.0947341993451118,0,0,0
11402,420265.4715421814,2010-12-18 09:21:38,2251.1324841648257,7,39,-1.099568486213684,3.52038049697876,34.35523168299188,34.133072306459724,138.01970335646598,123.42584960039828,-9.713172767078504e-05,0.0947341993451118,0,0,0
11403,420295.4865076635,2010-12-18 09:22:08,2281.1474495668067,7,39,-1.0997490882873535,3.516009569168091,34.35523168299188,34.142240946959056,138.01970335646598,123.45810731038206,-9.713172767078504e-05,0.0947341993451118,0,0,0
11404,420325.50342391006,2010-12-18 09:22:38,2311.164365903614,7,39,-1.0997490882873535,3.511800527572632,34.35523168299188,34.15141025952421,138.01970335646598,123.4903286388144,-0.0001295089750783,0.0947341993451118,0,0,0
11405,420355.5168681116,2010-12-18 09:23:08,2341.17781002996,7,39,-1.099568486213684,3.507429838180542,34.35523168299188,34.16057854406616,138.01970335646598,123.52250607978554,-0.0001295089750783,0.0947341993451118,0,0,0
11406,420385.53180869686,2010-12-18 09:23:38,2371.1927506151847,7,39,-1.099929690361023,3.502411365509033,34.35523168299188,34.16974726514362,138.01970335646598,123.55464252547648,-0.0001942634553415,0.0947341993451118,0,0,0
11407,420415.54706108297,2010-12-18 09:24:08,2401.208002996302,7,39,-1.099568486213684,3.4975547790527344,34.35523168299188,34.17891601390004,138.01970335646598,123.58673399426728,-0.0001618862152099,0.0947341993451118,0,0,0
11408,420445.5621429498,2010-12-18 09:24:38,2431.223084868114,7,39,-1.0997490882873535,3.492050647735596,34.35523168299188,34.18808476791239,138.01970335646598,123.61877696501628,-0.0001295089750783,0.0947341993451118,0,0,0
11409,420475.5771620654,2010-12-18 09:25:08,2461.238103978747,7,39,-1.099568486213684,3.486060857772827,34.35523168299188,34.19725351592602,138.01970335646598,123.65076728007598,-0.0001618862152099,0.0947341993451118,0,0,0
11410,420505.5777916784,2010-12-18 09:25:38,2491.2387336668558,7,39,-1.0997490882873535,3.479261636734009,34.35523168299188,34.206417809524055,138.01970335646598,123.6826835246351,-0.0001942634553415,0.0947341993451118,0,0,0
11411,420535.59180003376,2010-12-18 09:26:08,2521.252741947076,7,39,-1.099568486213684,3.4716529846191406,34.35523168299188,34.21558614654089,138.01970335646598,123.71454801907318,-0.0001618862152099,0.0947341993451118,0,0,0
11412,420565.60706449486,2010-12-18 09:26:38,2551.268006478429,7,39,-1.099929690361023,3.462587356567383,34.35523168299188,34.22475491732734,138.01970335646598,123.74633907620486,-0.0003237724304199,0.0947341993451118,0,0,0
11413,420595.6219008458,2010-12-18 09:27:08,2581.2828427590966,7,39,-1.099568486213684,3.452550411224365,34.35523168299188,34.23392359611363,138.01970335646598,123.77804241894948,-0.0002590179501567,0.0947341993451118,0,0,0
11414,420625.63711383386,2010-12-18 09:27:38,2611.2980557471865,7,39,-1.099568486213684,3.440247058868408,34.35523168299188,34.24309235214862,138.01970335646598,123.80964299263924,-0.0003561496851034,0.0947341993451118,0,0,0
11415,420655.652196648,2010-12-18 09:28:08,2641.3131386315176,7,39,-1.0997490882873535,3.425191879272461,34.35523168299188,34.252261105312435,138.01970335646598,123.84111923022562,-0.0004532813909463,0.0947341993451118,0,0,0
11416,420685.66738657374,2010-12-18 09:28:38,2671.328328472005,7,39,-1.099568486213684,3.4065749645233154,34.35523168299188,34.26142979370349,138.01970335646598,123.87244210570188,-0.0005504131549969,0.0947341993451118,0,0,0
11417,420715.6823004374,2010-12-18 09:29:08,2701.343242420948,7,39,-1.0997490882873535,3.382615804672241,34.35523168299188,34.27059841104319,138.01970335646598,123.90357122121308,-0.0007446765666827,0.0947341993451118,0,0,0
11418,420745.6973822842,2010-12-18 09:29:38,2731.358324287747,7,39,-1.0993878841400146,3.3513717651367188,34.35523168299188,34.27976718820596,138.01970335646598,123.9344488100103,-0.0008741855854168,0.0947341993451118,0,0,0
11419,420775.71250067686,2010-12-18 09:30:08,2761.3734426603896,7,39,-1.099929690361023,3.308634042739868,34.35523168299188,34.28893589762749,138.01970335646598,123.96499045130436,-0.0013274669181555,0.0947341993451118,0,0,0
11420,420805.7275722881,2010-12-18 09:30:38,2791.3885142967306,7,39,-1.099568486213684,3.251326560974121,34.35523168299188,34.298104555890994,138.01970335646598,123.99507830518662,-0.0017483711708337,0.0947341993451118,0,0,0
11421,420835.742682325,2010-12-18 09:31:08,2821.40362431358,7,39,-1.0997490882873535,3.17038369178772,34.35523168299188,34.30727324980155,138.01970335646598,124.02453971371725,-0.0025254250504076,0.0947341993451118,0,0,0
11422,420865.757895654,2010-12-18 09:31:38,2851.4188376575557,7,39,-1.0997490882873535,3.051397562026977,34.35523168299188,34.31644204935634,138.01970335646598,124.05310269668576,-0.0037881373427808,0.0947341993451118,0,0,0
11423,420895.2728571455,2010-12-18 09:32:08,2880.933799058812,7,39,-1.099568486213684,2.851145029067993,34.35523168299188,34.32545797291328,138.01970335646598,124.07980198708395,-0.006896304897964,0.0947341993451118,0,0,0
11424,420911.2414624907,2010-12-18 09:32:24,2896.9024043889985,7,39,-1.099929690361023,2.699943780899048,34.35523168299188,34.330335916598905,138.01970335646598,124.09334618325762,-0.0077381134033203,0.0947341993451118,0,0,0
11425,420971.2510978119,2010-12-18 09:33:24,60.01471111535243,8,39,0.0,3.4114315509796143,34.35523168299188,34.330335916598905,138.01970335646598,124.09334618325762,0.0013922214275225,0.0947341993451118,0,0,0
11426,420971.4501218855,2010-12-18 09:33:24,0.187443977127699,9,39,-1.9243103452026844e-05,3.411755323410034,34.35523168299188,34.33033591760085,138.01970335646598,124.09334618667602,0.0,0.0939245000481605,0,0,0
11427,420976.27827233216,2010-12-18 09:33:29,5.015594428828662,9,39,0.0008838032954372,3.420011520385742,34.355232687674864,34.33033591760085,138.01970678895404,124.09334618667602,0.0011979580158367,0.0939245000481605,0,0,0
