Data_Point,Test_Time(s),Date_Time,Step_Time(s),Step_Index,Cycle_Index,Current(A),Voltage(V),Charge_Capacity(Ah),Discharge_Capacity(Ah),Charge_Energy(Wh),Discharge_Energy(Wh),dV/dt(V/s),Internal_Resistance(Ohm),Is_FC_Data,AC_Impedance(Ohm),ACI_Phase_Angle(Deg)
14099,517686.2794819554,2010-12-19 12:25:31,30.01511252308629,1,49,0.0,3.454978704452514,42.32003287257304,42.29126032879773,169.95347826167765,153.00227608218373,0.0008094310760498,0.0939245000481605,0,0,0
14100,517716.2945931903,2010-12-19 12:26:01,60.030223773004366,1,49,0.0,3.4800710678100586,42.32003287257304,42.29126032879773,169.95347826167765,153.00227608218373,0.0005827903514727,0.0939245000481605,0,0,0
14101,517746.3097659733,2010-12-19 12:26:31,90.04539663123234,1,49,0.0,3.499011754989624,42.32003287257304,42.29126032879773,169.95347826167765,153.00227608218373,0.0004209041653666,0.0939245000481605,0,0,0
14102,517776.2780020612,2010-12-19 12:27:01,120.01363264392546,1,49,0.0,3.5140669345855717,42.32003287257304,42.29126032879773,169.95347826167765,153.00227608218373,0.0003885269106831,0.0939245000481605,0,0,0
14103,517806.285975244,2010-12-19 12:27:31,30.015129725894823,2,49,0.550297200679779,3.659764289855957,42.32462037519642,42.29126032879773,169.9701291675057,153.00227608218373,0.0013274669181555,0.0939245000481605,0,0,0
14104,517836.3012708226,2010-12-19 12:28:01,60.03042537468238,2,49,0.550297200679779,3.6981310844421382,42.329207868480616,42.29126032879773,169.98701208247223,153.00227608218373,0.0008741855854168,0.0939245000481605,0,0,0
14105,517866.3162071573,2010-12-19 12:28:31,90.04536162411848,2,49,0.5501165986061096,3.725166082382202,42.33379533270852,42.29126032879773,170.0040423244792,153.00227608218373,0.0006151676061563,0.0939245000481605,0,0,0
14106,517896.33132650726,2010-12-19 12:29:01,120.0604809892309,2,49,0.5501165986061096,3.745563745498657,42.33838278128811,42.29126032879773,170.0211805055005,153.00227608218373,0.0004856586456298,0.0939245000481605,0,0,0
14107,517926.3465734499,2010-12-19 12:29:31,150.07572793181492,2,49,0.5501165986061096,3.7604570388793945,42.34297022736973,42.29126032879773,170.03839968509075,153.00227608218373,0.0003237724304199,0.0939245000481605,0,0,0
14108,517956.36352683394,2010-12-19 12:30:01,180.09268137095,2,49,0.5501165986061096,3.770493984222412,42.347557934352686,42.29126032879773,170.05567675068568,153.00227608218373,0.0002266406954731,0.0939245000481605,0,0,0
14109,517986.3767108982,2010-12-19 12:30:31,210.10586536997835,2,49,0.5504778623580933,3.7776169776916495,42.35214504107029,42.29126032879773,170.0729897141247,153.00227608218373,0.0001618862152099,0.0939245000481605,0,0,0
14110,518016.3918270351,2010-12-19 12:31:01,240.12098150204548,2,49,0.550297200679779,3.783121109008789,42.35673250692477,42.29126032879773,170.09033248316655,153.00227608218373,0.0001295089750783,0.0939245000481605,0,0,0
14111,518046.4069410319,2010-12-19 12:31:31,270.1360955138364,2,49,0.550297200679779,3.7884633541107178,42.36131996032913,42.29126032879773,170.10769970918813,153.00227608218373,0.0001295089750783,0.0939245000481605,0,0,0
14112,518076.42207820126,2010-12-19 12:32:01,300.15123268325414,2,49,0.550297200679779,3.793158054351807,42.36590741387285,42.29126032879773,170.12508939954216,153.00227608218373,0.0001295089750783,0.0939245000481605,0,0,0
14113,518106.4373160261,2010-12-19 12:32:31,330.16647048308675,2,49,0.550297200679779,3.7976908683776855,42.370494912619165,42.29126032879773,170.14250053536543,153.00227608218373,0.0001295089750783,0.0939245000481605,0,0,0
14114,518136.4523171471,2010-12-19 12:33:01,360.18147161397786,2,49,0.5504778623580933,3.8020617961883545,42.37508234240868,42.29126032879773,170.15993161928995,153.00227608218373,0.0001618862152099,0.0939245000481605,0,0,0
14115,518166.46743638185,2010-12-19 12:33:31,390.196590848766,2,49,0.5501165986061096,3.806108951568604,42.37966980755872,42.29126032879773,170.17738228651203,153.00227608218373,0.0001295089750783,0.0939245000481605,0,0,0
14116,518196.4825459025,2010-12-19 12:34:01,420.2117003743932,2,49,0.5504778623580933,3.810156106948853,42.38425719582933,42.29126032879773,170.19485150070113,153.00227608218373,0.0001295089750783,0.0939245000481605,0,0,0
14117,518226.4978742376,2010-12-19 12:34:31,450.227028799744,2,49,0.550297200679779,3.8142032623291016,42.38884471031578,42.29126032879773,170.212339653731,153.00227608218373,9.713172767078504e-05,0.0939245000481605,0,0,0
14118,518256.5128020862,2010-12-19 12:35:01,480.2419565580502,2,49,0.5501165986061096,3.8180885314941406,42.39343218922911,42.29126032879773,170.22984585033475,153.00227608218373,9.713172767078504e-05,0.0939245000481605,0,0,0
14119,518286.5278987298,2010-12-19 12:35:31,510.25705321665833,2,49,0.550297200679779,3.8218119144439697,42.39801963856559,42.29126032879773,170.24736963895427,153.00227608218373,6.47544875391759e-05,0.0939245000481605,0,0,0
14120,518316.543154785,2010-12-19 12:36:01,540.2723092468566,2,49,0.5499359965324402,3.825535297393799,42.40260709904874,42.29126032879773,170.26491102336726,153.00227608218373,9.713172767078504e-05,0.0939245000481605,0,0,0
14121,518346.5581472343,2010-12-19 12:36:31,570.2873017011563,2,49,0.550297200679779,3.829582452774048,42.4071944861757,42.29126032879773,170.2824697093296,153.00227608218373,9.713172767078504e-05,0.0939245000481605,0,0,0
14122,518376.57329092,2010-12-19 12:37:01,600.3024453867894,2,49,0.5501165986061096,3.833305597305298,42.41178193680479,42.29126032879773,170.30004624134307,153.00227608218373,9.70840483205393e-05,0.0939245000481605,0,0,0
14123,518406.5884095431,2010-12-19 12:37:31,630.3175640100558,2,49,0.5501165986061096,3.837190866470337,42.41636925884711,42.29126032879773,170.3176398696379,153.00227608218373,9.713172767078504e-05,0.0939245000481605,0,0,0
14124,518436.6035248933,2010-12-19 12:38:01,660.3326793752145,2,49,0.550297200679779,3.841076135635376,42.42095669769056,42.29126032879773,170.3352516248542,153.00227608218373,9.713172767078504e-05,0.0939245000481605,0,0,0
14125,518466.61863446905,2010-12-19 12:38:31,690.3477889559789,2,49,0.550297200679779,3.844799518585205,42.425544198282566,42.29126032879773,170.35288128837573,153.00227608218373,9.713172767078504e-05,0.0939245000481605,0,0,0
14126,518496.6337685608,2010-12-19 12:39:01,720.3629231129003,2,49,0.550297200679779,3.848846673965454,42.43013157822421,42.29126032879773,170.37052798780883,153.00227608218373,0.0001295089750783,0.0939245000481605,0,0,0
14127,518526.6489023919,2010-12-19 12:39:31,750.3780568587986,2,49,0.5501165986061096,3.852408170700073,42.43471905264381,42.29126032879773,170.38819238953954,153.00227608218373,6.47544875391759e-05,0.0939245000481605,0,0,0
14128,518556.6659003067,2010-12-19 12:40:01,780.3950548638343,2,49,0.550297200679779,3.855969667434693,42.43930678780036,42.29126032879773,170.4058748140195,153.00227608218373,3.237724376958795e-05,0.0939245000481605,0,0,0
14129,518586.67915955296,2010-12-19 12:40:31,810.408314019888,2,49,0.550297200679779,3.8596930503845215,42.44389397277034,42.29126032879773,170.4235718239045,153.00227608218373,9.713172767078504e-05,0.0939245000481605,0,0,0
14130,518616.6942452142,2010-12-19 12:41:01,840.423399686142,2,49,0.5501165986061096,3.86309266090393,42.44848140870269,42.29126032879773,170.44128601379967,153.00227608218373,6.47544875391759e-05,0.0939245000481605,0,0,0
14131,518646.7095757198,2010-12-19 12:41:31,870.4387302768814,2,49,0.550297200679779,3.86649227142334,42.45306892746538,42.29126032879773,170.45901621416786,153.00227608218373,6.47544875391759e-05,0.0939245000481605,0,0,0
14132,518676.7246316971,2010-12-19 12:42:01,900.453786234206,2,49,0.550297200679779,3.869891881942749,42.45765635018097,42.29126032879773,170.47676123293877,153.00227608218373,9.713172767078504e-05,0.0939245000481605,0,0,0
14133,518706.73960877815,2010-12-19 12:42:31,930.4687632651252,2,49,0.550297200679779,3.8729677200317374,42.46224378809872,42.29126032879773,170.4945208680533,153.00227608218373,9.713172767078504e-05,0.0939245000481605,0,0,0
14134,518736.75472459954,2010-12-19 12:43:01,960.4838790864188,2,49,0.5501165986061096,3.8758816719055176,42.46683130935721,42.29126032879773,170.51229464678346,153.00227608218373,9.713172767078504e-05,0.0939245000481605,0,0,0
14135,518766.7698448318,2010-12-19 12:43:31,990.4989993186892,2,49,0.5501165986061096,3.878633737564087,42.47141881766549,42.29126032879773,170.5300816056838,153.00227608218373,6.47544875391759e-05,0.0939245000481605,0,0,0
14136,518796.784998422,2010-12-19 12:44:01,1020.5141528939322,2,49,0.550297200679779,3.881547689437866,42.47600636215206,42.29126032879773,170.54788118726626,153.00227608218373,9.713172767078504e-05,0.0939245000481605,0,0,0
14137,518826.80023948,2010-12-19 12:44:31,1050.5293939518726,2,49,0.550297200679779,3.883975982666016,42.48059392373705,42.29126032879773,170.5656926597362,153.00227608218373,9.713172767078504e-05,0.0939245000481605,0,0,0
14138,518856.8153369255,2010-12-19 12:45:01,1080.5444914124764,2,49,0.550297200679779,3.886242389678955,42.4851814421868,42.29126032879773,170.58351512067466,153.00227608218373,6.47544875391759e-05,0.0939245000481605,0,0,0
14139,518886.83032956027,2010-12-19 12:45:31,1110.5594840321878,2,49,0.5501165986061096,3.888346910476685,42.48976895886314,42.29126032879773,170.6013482130635,153.00227608218373,6.47544875391759e-05,0.0939245000481605,0,0,0
14140,518916.8455981768,2010-12-19 12:46:01,1140.574752663744,2,49,0.550297200679779,3.890775203704834,42.49435648657613,42.29126032879773,170.61919143224685,153.00227608218373,9.713172767078504e-05,0.0939245000481605,0,0,0
14141,518946.8606738181,2010-12-19 12:46:31,1170.5898283902634,2,49,0.550297200679779,3.892555952072144,42.49894409838856,42.29126032879773,170.63704461255887,153.00227608218373,0.0,0.0939245000481605,0,0,0
14142,518976.8756964826,2010-12-19 12:47:01,1200.6048509544908,2,49,0.550297200679779,3.894660472869873,42.50353164202412,42.29126032879773,170.65490683734373,153.00227608218373,6.47544875391759e-05,0.0939245000481605,0,0,0
14143,519006.8908421431,2010-12-19 12:47:31,1230.6199966100255,2,49,0.550297200679779,3.8966031074523926,42.5081191906386,42.29126032879773,170.67277758806236,153.00227608218373,6.47544875391759e-05,0.0939245000481605,0,0,0
14144,519036.9059448919,2010-12-19 12:48:02,1260.6350993738265,2,49,0.5501165986061096,3.898383855819702,42.5127067494716,42.29126032879773,170.69065722598225,153.00227608218373,3.237724376958795e-05,0.0939245000481605,0,0,0
14145,519066.921304565,2010-12-19 12:48:32,1290.6504591020732,2,49,0.5501165986061096,3.900164604187012,42.51729427898963,42.29126032879773,170.70854523316737,153.00227608218373,3.237724376958795e-05,0.0939245000481605,0,0,0
14146,519096.9361808352,2010-12-19 12:49:02,1320.6653353221286,2,49,0.5501165986061096,3.901945352554321,42.52188174061254,42.29126032879773,170.72644127848065,153.00227608218373,3.237724376958795e-05,0.0939245000481605,0,0,0
14147,519126.95129898726,2010-12-19 12:49:32,1350.6804534641974,2,49,0.5501165986061096,3.903887987136841,42.526469267118095,42.29126032879773,170.744345817715,153.00227608218373,9.713172767078504e-05,0.0939245000481605,0,0,0
14148,519156.96831733285,2010-12-19 12:50:02,1380.697471920124,2,49,0.550297200679779,3.905506849288941,42.53105708334932,42.29126032879773,170.7622596096192,153.00227608218373,6.47544875391759e-05,0.0939245000481605,0,0,0
14149,519186.9815601433,2010-12-19 12:50:32,1410.7107146152157,2,49,0.550297200679779,3.90728759765625,42.53564430840108,42.29126032879773,170.78017909200867,153.00227608218373,3.237724376958795e-05,0.0939245000481605,0,0,0
14150,519216.9966911374,2010-12-19 12:51:02,1440.725845609266,2,49,0.5501165986061096,3.90906834602356,42.54023178922847,42.29126032879773,170.7981075764982,153.00227608218373,6.47544875391759e-05,0.0939245000481605,0,0,0
14151,519247.0117877308,2010-12-19 12:51:32,1470.7409422177495,2,49,0.5501165986061096,3.910525321960449,42.54481927268131,42.29126032879773,170.8160440266255,153.00227608218373,0.0,0.0939245000481605,0,0,0
14152,519277.0269200381,2010-12-19 12:52:02,1500.7560745200556,2,49,0.550297200679779,3.9127917289733887,42.54940676053756,42.29126032879773,170.83398842846063,153.00227608218373,0.0001295089750783,0.0939245000481605,0,0,0
14153,519307.0420394784,2010-12-19 12:52:32,1530.7711939453177,2,49,0.550297200679779,3.914248466491699,42.55399429453498,42.29126032879773,170.85194093712917,153.00227608218373,3.237724376958795e-05,0.0939245000481605,0,0,0
14154,519337.05715016194,2010-12-19 12:53:02,1560.7863046438638,2,49,0.550297200679779,3.915867328643799,42.55858184855767,42.29126032879773,170.86990144518447,153.00227608218373,6.47544875391759e-05,0.0939245000481605,0,0,0
14155,519367.07227863965,2010-12-19 12:53:32,1590.8014331116278,2,49,0.550297200679779,3.9174861907958975,42.56316933995895,42.29126032879773,170.8878695747476,153.00227608218373,3.237724376958795e-05,0.0939245000481605,0,0,0
14156,519397.0875523639,2010-12-19 12:54:02,1620.8167068308446,2,49,0.5501165986061096,3.919266939163208,42.56775688763465,42.29126032879773,170.90584580049511,153.00227608218373,0.0,0.0939245000481605,0,0,0
14157,519427.1025321517,2010-12-19 12:54:32,1650.831686618624,2,49,0.5501165986061096,3.920885801315308,42.57234437613207,42.29126032879773,170.92382965991732,153.00227608218373,6.47544875391759e-05,0.0939245000481605,0,0,0
14158,519457.1176325597,2010-12-19 12:55:02,1680.8467870466122,2,49,0.550297200679779,3.922828435897827,42.576931940869365,42.29126032879773,170.94182165989903,153.00227608218373,3.237724376958795e-05,0.0939245000481605,0,0,0
14159,519487.1332732971,2010-12-19 12:55:32,1710.8624278342645,2,49,0.550297200679779,3.924447298049927,42.5815195428892,42.29126032879773,170.95982166255732,153.00227608218373,3.237724376958795e-05,0.0939245000481605,0,0,0
14160,519517.1478922922,2010-12-19 12:56:02,1740.8770467791005,2,49,0.550297200679779,3.9260661602020255,42.586106991983925,42.29126032879773,170.97782894246367,153.00227608218373,3.237724376958795e-05,0.0939245000481605,0,0,0
14161,519547.1631284479,2010-12-19 12:56:32,1770.8922830000038,2,49,0.5501165986061096,3.928008794784546,42.59069446647754,42.29126032879773,170.99584410936944,153.00227608218373,6.47544875391759e-05,0.0939245000481605,0,0,0
14162,519577.178122842,2010-12-19 12:57:02,1800.9072773089188,2,49,0.5501165986061096,3.929465770721436,42.59528196611138,42.29126032879773,171.01386729473506,153.00227608218373,0.0,0.0939245000481605,0,0,0
14163,519607.1960697483,2010-12-19 12:57:32,1830.9252243505955,2,49,0.550297200679779,3.931246519088745,42.599869447764014,42.29126032879773,171.0318982630357,153.00227608218373,3.237724376958795e-05,0.0939245000481605,0,0,0
14164,519637.208404464,2010-12-19 12:58:02,1860.9375589459155,2,49,0.550297200679779,3.933027267456055,42.60445582613419,42.29126032879773,171.0499327340702,153.00227608218373,6.47544875391759e-05,0.0939245000481605,0,0,0
14165,519667.2235325006,2010-12-19 12:58:32,1890.9526871530309,2,49,0.5501165986061096,3.934808015823364,42.60904308869294,42.29126032879773,171.0679787157214,153.00227608218373,3.237724376958795e-05,0.0939245000481605,0,0,0
14166,519697.23863681336,2010-12-19 12:59:02,1920.967791280224,2,49,0.550297200679779,3.936426877975464,42.61363068121208,42.29126032879773,171.08603399442745,153.00227608218373,3.237724376958795e-05,0.0939245000481605,0,0,0
14167,519727.253780464,2010-12-19 12:59:32,1950.9829350209943,2,49,0.550297200679779,3.938207626342773,42.618218231116415,42.29126032879773,171.104097000745,153.00227608218373,3.237724376958795e-05,0.0939245000481605,0,0,0
14168,519757.27083168126,2010-12-19 13:00:02,1980.9999862384475,2,49,0.5501165986061096,3.939988374710083,42.622806068396365,42.29126032879773,171.12216914610886,153.00227608218373,3.237724376958795e-05,0.0939245000481605,0,0,0
14169,519787.2840189385,2010-12-19 13:00:32,2011.013173410371,2,49,0.550297200679779,3.9417691230773926,42.62739328352512,42.29126032879773,171.1402468120622,153.00227608218373,3.237724376958795e-05,0.0939245000481605,0,0,0
14170,519817.2991064793,2010-12-19 13:01:02,2041.028260966328,2,49,0.5501165986061096,3.943549871444702,42.63198071994479,42.29126032879773,171.1583333114748,153.00227608218373,6.47544875391759e-05,0.0939245000481605,0,0,0
14171,519847.3142590622,2010-12-19 13:01:32,2071.043413529051,2,49,0.5501165986061096,3.945330619812012,42.63656819798635,42.29126032879773,171.17642804953897,153.00227608218373,3.237724376958795e-05,0.0939245000481605,0,0,0
14172,519877.3293713196,2010-12-19 13:02:02,2101.058525806526,2,49,0.550297200679779,3.947111368179321,42.64115561896504,42.29126032879773,171.19453058572068,153.00227608218373,9.713172767078504e-05,0.0939245000481605,0,0,0
14173,519907.34446943685,2010-12-19 13:02:32,2131.0736239087264,2,49,0.550297200679779,3.948730230331421,42.64574303723899,42.29126032879773,171.21264120168405,153.00227608218373,3.237724376958795e-05,0.0939245000481605,0,0,0
14174,519937.3596094382,2010-12-19 13:03:02,2161.088763920217,2,49,0.5501165986061096,3.9505109786987305,42.65033041161226,42.29126032879773,171.23075972175187,153.00227608218373,6.47544875391759e-05,0.0939245000481605,0,0,0
14175,519967.374717786,2010-12-19 13:03:32,2191.103872257888,2,49,0.550297200679779,3.95245361328125,42.65491796096874,42.29126032879773,171.248887088837,153.00227608218373,0.0001295089750783,0.0939245000481605,0,0,0
14176,519997.38985078,2010-12-19 13:04:02,2221.119005246903,2,49,0.550297200679779,3.9540724754333496,42.65950544332316,42.29126032879773,171.26702237426537,153.00227608218373,3.237724376958795e-05,0.0939245000481605,0,0,0
14177,520027.4052075258,2010-12-19 13:04:32,2251.1343620629027,2,49,0.5504778623580933,3.956015110015869,42.6640929783992,42.29126032879773,171.28516607139375,153.00227608218373,6.47544875391759e-05,0.0939245000481605,0,0,0
14178,520057.42019449646,2010-12-19 13:05:02,2281.149349068644,2,49,0.5501165986061096,3.9576339721679688,42.66868048813488,42.29126032879773,171.30331795420986,153.00227608218373,3.237724376958795e-05,0.0939245000481605,0,0,0
14179,520087.4352052363,2010-12-19 13:05:32,2311.1643597232346,2,49,0.550297200679779,3.959576606750488,42.67326794496184,42.29126032879773,171.32147797984786,153.00227608218373,6.47544875391759e-05,0.0939245000481605,0,0,0
14180,520117.4503560546,2010-12-19 13:06:02,2341.179510631842,2,49,0.5501165986061096,3.961357355117798,42.67785541135283,42.29126032879773,171.33964642476258,153.00227608218373,6.47544875391759e-05,0.0939245000481605,0,0,0
14181,520147.4656797182,2010-12-19 13:06:32,2371.1948342752926,2,49,0.550297200679779,3.9631381034851074,42.682442965328136,42.29126032879773,171.35782368768616,153.00227608218373,0.0,0.0939245000481605,0,0,0
14182,520177.48061577714,2010-12-19 13:07:02,2401.2097703192176,2,49,0.5501165986061096,3.965080738067627,42.68703033704448,42.29126032879773,171.37600874970784,153.00227608218373,6.47544875391759e-05,0.0939245000481605,0,0,0
14183,520207.49569346354,2010-12-19 13:07:32,2431.2248479304267,2,49,0.550297200679779,3.9670233726501465,42.691617813355855,42.29126032879773,171.39420282548593,153.00227608218373,6.47544875391759e-05,0.0939245000481605,0,0,0
14184,520237.510834282,2010-12-19 13:08:02,2461.239988748925,2,49,0.550297200679779,3.968804121017456,42.696205334791685,42.29126032879773,171.4124056393879,153.00227608218373,6.47544875391759e-05,0.0939245000481605,0,0,0
14185,520267.52596931614,2010-12-19 13:08:32,2491.2551237830294,2,49,0.5501165986061096,3.9705848693847656,42.70079282945436,42.29126032879773,171.43061713764695,153.00227608218373,0.0,0.0939245000481605,0,0,0
14186,520297.5410657191,2010-12-19 13:09:02,2521.2702202010387,2,49,0.550297200679779,3.972689390182495,42.7053803181435,42.29126032879773,171.44883746596392,153.00227608218373,6.47544875391759e-05,0.0939245000481605,0,0,0
14187,520327.5561827384,2010-12-19 13:09:32,2551.2853372052764,2,49,0.550297200679779,3.974632024765015,42.70996779470812,42.29126032879773,171.46706664796503,153.00227608218373,0.0,0.0939245000481605,0,0,0
14188,520357.5731772448,2010-12-19 13:10:02,2581.30233178178,2,49,0.550297200679779,3.976736545562744,42.71455559975252,42.29126032879773,171.48530617858685,153.00227608218373,6.47544875391759e-05,0.0939245000481605,0,0,0
14189,520387.5864567013,2010-12-19 13:10:32,2611.3156111832136,2,49,0.5504778623580933,3.9788410663604736,42.71914289541901,42.29126032879773,171.50355243802446,153.00227608218373,0.0001295089750783,0.0939245000481605,0,0,0
14190,520417.6015609588,2010-12-19 13:11:02,2641.330715440732,2,49,0.5501165986061096,3.980621814727783,42.72373034812552,42.29126032879773,171.52180888664665,153.00227608218373,3.237724376958795e-05,0.0939245000481605,0,0,0
14191,520447.61667292553,2010-12-19 13:11:32,2671.3458273773585,2,49,0.550297200679779,3.982564449310303,42.7283177772222,42.29126032879773,171.5400745266121,153.00227608218373,3.237724376958795e-05,0.0939245000481605,0,0,0
14192,520477.63195471984,2010-12-19 13:12:02,2701.361109186707,2,49,0.550297200679779,3.984668970108032,42.73290528287964,42.29126032879773,171.5583498190683,153.00227608218373,6.47544875391759e-05,0.0939245000481605,0,0,0
14193,520507.64691540005,2010-12-19 13:12:32,2731.376069886988,2,49,0.5501165986061096,3.9867734909057617,42.7374926856995,42.29126032879773,171.57663416397355,153.00227608218373,3.237724376958795e-05,0.0939245000481605,0,0,0
14194,520537.6621629943,2010-12-19 13:13:02,2761.391317476181,2,49,0.550297200679779,3.988878011703491,42.74208018424503,42.29126032879773,171.59492840836694,153.00227608218373,3.237724376958795e-05,0.0939245000481605,0,0,0
14195,520567.67749540455,2010-12-19 13:13:32,2791.4066499566225,2,49,0.550297200679779,3.9909825325012207,42.74666768051574,42.29126032879773,171.61323229540832,153.00227608218373,3.237724376958795e-05,0.0939245000481605,0,0,0
14196,520597.692305896,2010-12-19 13:14:02,2821.421460367916,2,49,0.5499359965324402,3.99308705329895,42.75125501468121,42.29126032879773,171.63154536015273,153.00227608218373,3.237724376958795e-05,0.0939245000481605,0,0,0
14197,520627.7074057977,2010-12-19 13:14:32,2851.4365602846315,2,49,0.5501165986061096,3.995353221893311,42.75584241519661,42.29126032879773,171.64986859913145,153.00227608218373,6.47544875391759e-05,0.0939245000481605,0,0,0
14198,520657.7225345312,2010-12-19 13:15:02,2881.451689018056,2,49,0.5504778623580933,3.99761962890625,42.76042986362248,42.29126032879773,171.6682021093429,153.00227608218373,3.237724376958795e-05,0.0939245000481605,0,0,0
14199,520687.7376868031,2010-12-19 13:15:32,2911.466841380281,2,49,0.5499359965324402,3.99972414970398,42.76501733034892,42.29126032879773,171.6865457599922,153.00227608218373,3.237724376958795e-05,0.0939245000481605,0,0,0
14200,520717.752781557,2010-12-19 13:16:02,2941.481936023875,2,49,0.5501165986061096,4.001990795135498,42.769604704953146,42.29126032879773,171.70489928115848,153.00227608218373,6.47544875391759e-05,0.0939245000481605,0,0,0
14201,520747.76801652974,2010-12-19 13:16:32,2971.49717101171,2,49,0.550297200679779,4.0042572021484375,42.77419206021814,42.29126032879773,171.72326307062937,153.00227608218373,6.47544875391759e-05,0.0939245000481605,0,0,0
14202,520777.7830196907,2010-12-19 13:17:02,3001.512174172653,2,49,0.550297200679779,4.006685256958008,42.7787794144529,42.29126032879773,171.74163735594863,153.00227608218373,6.47544875391759e-05,0.0939245000481605,0,0,0
14203,520807.7981387852,2010-12-19 13:17:32,3031.5272932620787,2,49,0.5501165986061096,4.008790016174316,42.78336678867908,42.29126032879773,171.76002233107604,153.00227608218373,3.24249267578125e-05,0.0939245000481605,0,0,0
14204,520837.8133507357,2010-12-19 13:18:02,3061.542505307824,2,49,0.5501165986061096,4.011218070983887,42.78795424984824,42.29126032879773,171.77841834665995,153.00227608218373,9.70840483205393e-05,0.0939245000481605,0,0,0
14205,520867.8283810041,2010-12-19 13:18:32,3091.5575354709604,2,49,0.550297200679779,4.013484477996826,42.792541653041496,42.29126032879773,171.79682501407186,153.00227608218373,0.0,0.0939245000481605,0,0,0
14206,520897.8435543384,2010-12-19 13:19:02,3121.5727089006105,2,49,0.5501165986061096,4.0160746574401855,42.797129149482295,42.29126032879773,171.81524302880337,153.00227608218373,6.47544875391759e-05,0.0939245000481605,0,0,0
14207,520927.8586518392,2010-12-19 13:19:32,3151.5878063060773,2,49,0.550297200679779,4.018503189086914,42.801716576747886,42.29126032879773,171.83367188022015,153.00227608218373,9.71794142969884e-05,0.0939245000481605,0,0,0
14208,520957.8755871482,2010-12-19 13:20:03,3181.604741705321,2,49,0.5501165986061096,4.020931243896484,42.806304311281714,42.29126032879773,171.85211305393727,153.00227608218373,9.70840483205393e-05,0.0939245000481605,0,0,0
14209,520987.88900667336,2010-12-19 13:20:33,3211.618161140222,2,49,0.550297200679779,4.023521423339844,42.81089143461914,42.29126032879773,171.8705631490102,153.00227608218373,9.70840483205393e-05,0.0939245000481605,0,0,0
14210,521017.903993644,2010-12-19 13:21:03,3241.633148110876,2,49,0.5501165986061096,4.025949954986572,42.81547877786032,42.29126032879773,171.8890254838162,153.00227608218373,9.71794142969884e-05,0.0939245000481605,0,0,0
14211,521047.91910676856,2010-12-19 13:21:33,3271.648261240472,2,49,0.550297200679779,4.028378009796143,42.82006615081364,42.29126032879773,171.90749946972548,153.00227608218373,6.47544875391759e-05,0.0939245000481605,0,0,0
14212,521077.9342440583,2010-12-19 13:22:03,3301.6633985402136,2,49,0.550297200679779,4.030968189239502,42.82465353813096,42.29126032879773,171.9259850570756,153.00227608218373,9.70840483205393e-05,0.0939245000481605,0,0,0
14213,521107.949379759,2010-12-19 13:22:33,3331.678534296114,2,49,0.5501165986061096,4.033558368682861,42.82924096224746,42.29126032879773,171.94448247734917,153.00227608218373,9.70840483205393e-05,0.0939245000481605,0,0,0
14214,521137.9644762272,2010-12-19 13:23:03,3361.693630709111,2,49,0.5504778623580933,4.035986423492432,42.83382832256256,42.29126032879773,171.96299141087366,153.00227608218373,6.47544875391759e-05,0.0939245000481605,0,0,0
14215,521167.97984067205,2010-12-19 13:23:33,3391.7089952292818,2,49,0.5501165986061096,4.03873872756958,42.83841573437117,42.29126032879773,171.9815124139514,153.00227608218373,9.71794142969884e-05,0.0939245000481605,0,0,0
14216,521197.9947243307,2010-12-19 13:24:03,3421.7238787875986,2,49,0.5501165986061096,4.04132890701294,42.8430031325163,42.29126032879773,172.00004532703508,153.00227608218373,9.71794142969884e-05,0.0939245000481605,0,0,0
14217,521228.0099670679,2010-12-19 13:24:33,3451.73912154978,2,49,0.550297200679779,4.043919086456299,42.84759054549652,42.29126032879773,172.01859044414948,153.00227608218373,6.47544875391759e-05,0.0939245000481605,0,0,0
14218,521258.0249590008,2010-12-19 13:25:03,3481.754113482782,2,49,0.550297200679779,4.046833038330078,42.85217792078475,42.29126032879773,172.03714764580775,153.00227608218373,0.0001295089750783,0.0939245000481605,0,0,0
14219,521288.0400915087,2010-12-19 13:25:33,3511.7692459956124,2,49,0.5501165986061096,4.049261093139648,42.85676529953044,42.29126032879773,172.05571722699236,153.00227608218373,6.47544875391759e-05,0.0939245000481605,0,0,0
14220,521318.05522507406,2010-12-19 13:26:03,3541.7843795560493,2,49,0.5501165986061096,4.052013397216797,42.86135274817799,42.29126032879773,172.074299491848,153.00227608218373,9.71794142969884e-05,0.0939245000481605,0,0,0
14221,521348.0703253968,2010-12-19 13:26:33,3571.799479883788,2,49,0.550297200679779,4.054765224456787,42.86594013642086,42.29126032879773,172.09289403441224,153.00227608218373,6.47544875391759e-05,0.0939245000481605,0,0,0
14222,521378.08547120274,2010-12-19 13:27:03,3601.81462567466,2,49,0.5501165986061096,4.057517528533936,42.87052749031757,42.29126032879773,172.1115010698128,153.00227608218373,3.24249267578125e-05,0.0939245000481605,0,0,0
14223,521408.1005716909,2010-12-19 13:27:33,3631.8297261778353,2,49,0.550297200679779,4.060269355773926,42.875114988109495,42.29126032879773,172.1301215053585,153.00227608218373,0.0,0.0939245000481605,0,0,0
14224,521438.11570437416,2010-12-19 13:28:03,3661.844858856077,2,49,0.550297200679779,4.063183307647705,42.87970247593423,42.29126032879773,172.148754360378,153.00227608218373,9.70840483205393e-05,0.0939245000481605,0,0,0
14225,521468.1308169624,2010-12-19 13:28:33,3691.8599714493375,2,49,0.550297200679779,4.066097259521484,42.88428987377281,42.29126032879773,172.16739994243085,153.00227608218373,9.70840483205393e-05,0.0939245000481605,0,0,0
14226,521498.1459321221,2010-12-19 13:29:03,3721.875086608985,2,49,0.550297200679779,4.068687438964844,42.8888772570331,42.29126032879773,172.18605853136808,153.00227608218373,6.47544875391759e-05,0.0939245000481605,0,0,0
14227,521528.163907414,2010-12-19 13:29:33,3751.8930619861735,2,49,0.550297200679779,4.071763515472412,42.89346517121621,42.29126032879773,172.20473254313114,153.00227608218373,9.71794142969884e-05,0.0939245000481605,0,0,0
14228,521558.1779867711,2010-12-19 13:30:03,3781.907141323216,2,49,0.550297200679779,4.074677467346191,42.898052477203294,42.29126032879773,172.22341744956222,153.00227608218373,6.47544875391759e-05,0.0939245000481605,0,0,0
14229,521588.1913130592,2010-12-19 13:30:33,3811.9204675311257,2,49,0.5501165986061096,4.077591419219971,42.90263959165278,42.29126032879773,172.24211501929747,153.00227608218373,9.71794142969884e-05,0.0939245000481605,0,0,0
14230,521618.20652698464,2010-12-19 13:31:03,3841.9356814715848,2,49,0.5501165986061096,4.080343246459961,42.90722702932086,42.29126032879773,172.26082745307352,153.00227608218373,6.47544875391759e-05,0.0939245000481605,0,0,0
14231,521648.2215429373,2010-12-19 13:31:33,3871.95069740431,2,49,0.5501165986061096,4.08358097076416,42.91181451843306,42.29126032879773,172.27955365077906,153.00227608218373,9.70840483205393e-05,0.0939245000481605,0,0,0
14232,521678.23680484726,2010-12-19 13:32:03,3901.9659593291767,2,49,0.550297200679779,4.08649492263794,42.916401932050135,42.29126032879773,172.29829330956247,153.00227608218373,6.47544875391759e-05,0.0939245000481605,0,0,0
14233,521708.2517925197,2010-12-19 13:32:33,3931.9809470015766,2,49,0.5501165986061096,4.089570999145508,42.92098937312644,42.29126032879773,172.31704696443194,153.00227608218373,6.47544875391759e-05,0.0939245000481605,0,0,0
14234,521738.2669382604,2010-12-19 13:33:03,3961.996092742325,2,49,0.550297200679779,4.092808723449707,42.92557692756762,42.29126032879773,172.335815246565,153.00227608218373,0.0001295089750783,0.0939245000481605,0,0,0
14235,521768.2820408789,2010-12-19 13:33:33,3992.0111953607634,2,49,0.5501165986061096,4.095722675323486,42.93016433024527,42.29126032879773,172.35459700047264,153.00227608218373,9.71794142969884e-05,0.0939245000481605,0,0,0
14236,521798.29718013847,2010-12-19 13:34:03,4022.0263346203824,2,49,0.550297200679779,4.0989603996276855,42.93475178703613,42.29126032879773,172.37339328669634,153.00227608218373,0.0001295089750783,0.0939245000481605,0,0,0
14237,521828.3122782056,2010-12-19 13:34:33,4052.041432692508,2,49,0.550297200679779,4.102035999298096,42.93933929254032,42.29126032879773,172.39220411438177,153.00227608218373,9.70840483205393e-05,0.0939245000481605,0,0,0
14238,521858.32740939007,2010-12-19 13:35:03,4082.05656387202,2,49,0.550297200679779,4.105273723602295,42.94392674872899,42.29126032879773,172.41102906727295,153.00227608218373,9.70840483205393e-05,0.0939245000481605,0,0,0
14239,521888.34252599336,2010-12-19 13:35:33,4112.071680480272,2,49,0.5501165986061096,4.108349800109863,42.94851421571646,42.29126032879773,172.42986869267403,153.00227608218373,9.71794142969884e-05,0.0939245000481605,0,0,0
14240,521918.3576687868,2010-12-19 13:36:03,4142.086823268673,2,49,0.550297200679779,4.111425399780273,42.953101711737546,42.29126032879773,172.44872311680464,153.00227608218373,6.47544875391759e-05,0.0939245000481605,0,0,0
14241,521948.3729115239,2010-12-19 13:36:33,4172.102066075966,2,49,0.550297200679779,4.114824771881104,42.95768917413222,42.29126032879773,172.46759214614792,153.00227608218373,9.70840483205393e-05,0.0939245000481605,0,0,0
14242,521978.38793552166,2010-12-19 13:37:03,4202.117090098823,2,49,0.550297200679779,4.118062496185303,42.962276596788136,42.29126032879773,172.48647591050852,153.00227608218373,9.70840483205393e-05,0.0939245000481605,0,0,0
14243,522008.4030134436,2010-12-19 13:37:33,4232.132167930581,2,49,0.550297200679779,4.121462345123291,42.96686402105204,42.29126032879773,172.505374739872,153.00227608218373,9.71794142969884e-05,0.0939245000481605,0,0,0
14244,522038.4181428237,2010-12-19 13:38:03,4262.1472973056025,2,49,0.550297200679779,4.12470006942749,42.971451486372686,42.29126032879773,172.5242888616654,153.00227608218373,9.71794142969884e-05,0.0939245000481605,0,0,0
14245,522068.4334706475,2010-12-19 13:38:33,4292.162625199632,2,49,0.550297200679779,4.12809944152832,42.9760389727843,42.29126032879773,172.54321839394356,153.00227608218373,9.70840483205393e-05,0.0939245000481605,0,0,0
14246,522098.44839290215,2010-12-19 13:39:03,4322.177547474292,2,49,0.550297200679779,4.13133716583252,42.98062637816723,42.29126032879773,172.5621629483434,153.00227608218373,6.47544875391759e-05,0.0939245000481605,0,0,0
14247,522128.4634957512,2010-12-19 13:39:33,4352.192650238092,2,49,0.550297200679779,4.134737014770508,42.98521381493597,42.29126032879773,172.58112307548004,153.00227608218373,6.47544875391759e-05,0.0939245000481605,0,0,0
14248,522158.4805416805,2010-12-19 13:40:03,4382.209696267636,2,49,0.550297200679779,4.138298511505127,42.989801520651525,42.29126032879773,172.60009986089628,153.00227608218373,0.0001295089750783,0.0939245000481605,0,0,0
14249,522188.4937491228,2010-12-19 13:40:33,4412.222903604739,2,49,0.550297200679779,4.141697883605957,42.99438872262207,42.29126032879773,172.61909022143598,153.00227608218373,9.70840483205393e-05,0.0939245000481605,0,0,0
14250,522218.5088933148,2010-12-19 13:41:03,4442.238047781595,2,49,0.5501165986061096,4.144935607910156,42.99897622256281,42.29126032879773,172.63809767073144,153.00227608218373,6.47544875391759e-05,0.0939245000481605,0,0,0
14251,522248.5242062414,2010-12-19 13:41:33,4472.253360778553,2,49,0.5501165986061096,4.1486592292785645,43.00356365130866,42.29126032879773,172.65712101589222,153.00227608218373,6.47544875391759e-05,0.0939245000481605,0,0,0
14252,522278.53915228025,2010-12-19 13:42:03,4502.268306832387,2,49,0.550297200679779,4.1520586013793945,43.00815109702442,42.29126032879773,172.6761604170267,153.00227608218373,9.70840483205393e-05,0.0939245000481605,0,0,0
14253,522308.5542235156,2010-12-19 13:42:33,4532.283377982518,2,49,0.5501165986061096,4.155620098114014,43.012738593107805,42.29126032879773,172.6952161881711,153.00227608218373,0.0001295089750783,0.0939245000481605,0,0,0
14254,522338.5693540084,2010-12-19 13:43:03,4562.298508490359,2,49,0.5501165986061096,4.159181594848633,43.01732608549223,42.29126032879773,172.71428826380745,153.00227608218373,0.0001295089750783,0.0939245000481605,0,0,0
14255,522368.5845246862,2010-12-19 13:43:33,4592.313679168161,2,49,0.550297200679779,4.162905216217041,43.02191358018272,42.29126032879773,172.7333767461302,153.00227608218373,0.0001619339018361,0.0939245000481605,0,0,0
14256,522398.59960151545,2010-12-19 13:44:03,4622.328755982387,2,49,0.5501165986061096,4.166304588317871,43.02650110219172,42.29126032879773,172.7524817712049,153.00227608218373,6.47544875391759e-05,0.0939245000481605,0,0,0
14257,522428.6147121939,2010-12-19 13:44:33,4652.343866675921,2,49,0.5501165986061096,4.16986608505249,43.03108850854319,42.29126032879773,172.7716029059137,153.00227608218373,9.70840483205393e-05,0.0939245000481605,0,0,0
14258,522458.6298329376,2010-12-19 13:45:03,4682.358987409438,2,49,0.550297200679779,4.173589706420898,43.03567597287808,42.29126032879773,172.7907409471537,153.00227608218373,9.71794142969884e-05,0.0939245000481605,0,0,0
14259,522488.64515022014,2010-12-19 13:45:33,4712.374304772261,2,49,0.5501165986061096,4.177151203155518,43.040263456191255,42.29126032879773,172.8098958209604,153.00227608218373,6.47544875391759e-05,0.0939245000481605,0,0,0
14260,522518.660103878,2010-12-19 13:46:03,4742.389258359842,2,49,0.550297200679779,4.180874347686768,43.04485084822494,42.29126032879773,172.82906719454235,153.00227608218373,9.70840483205393e-05,0.0939245000481605,0,0,0
14261,522548.67521837086,2010-12-19 13:46:33,4772.404372857843,2,49,0.5499359965324402,4.184597969055176,43.04943833033384,42.29126032879773,172.84825594618434,153.00227608218373,6.47544875391759e-05,0.0939245000481605,0,0,0
14262,522578.6903565528,2010-12-19 13:47:03,4802.419511034767,2,49,0.5501165986061096,4.188321113586426,43.05402581277782,42.29126032879773,172.8674617677935,153.00227608218373,6.47544875391759e-05,0.0939245000481605,0,0,0
14263,522608.7054428907,2010-12-19 13:47:33,4832.434597372693,2,49,0.5499359965324402,4.192044734954834,43.05861330891341,42.29126032879773,172.8866849394157,153.00227608218373,3.24249267578125e-05,0.0939245000481605,0,0,0
14264,522638.72059674666,2010-12-19 13:48:03,4862.449751233647,2,49,0.550297200679779,4.196091651916504,43.06320072011228,42.29126032879773,172.90592506010904,153.00227608218373,0.0001295089750783,0.0939245000481605,0,0,0
14265,522668.73581318336,2010-12-19 13:48:33,4892.4649676703175,2,49,0.550297200679779,4.199976921081543,43.06778824016899,42.29126032879773,172.925183150647,153.00227608218373,0.0001295089750783,0.0939245000481605,0,0,0
14266,522669.45464194106,2010-12-19 13:48:34,4893.183796478159,2,49,0.5504778623580933,4.200138568878174,43.067898105222895,42.29126032879773,172.9256445764784,153.00227608218373,0.0001618385285837,0.0939245000481605,0,0,0
14267,522699.46638552,2010-12-19 13:49:04,30.015152923621475,3,49,0.0,4.113044261932373,43.067898105222895,42.29126032879773,172.9256445764784,153.00227608218373,-0.0003885269106831,0.0939245000481605,0,0,0
14268,522729.48165588576,2010-12-19 13:49:34,60.03042339475541,3,49,0.0,4.102035999298096,43.067898105222895,42.29126032879773,172.9256445764784,153.00227608218373,-0.0002266883820993,0.0939245000481605,0,0,0
14269,522759.49649451725,2010-12-19 13:50:04,90.04526192602361,3,49,0.0,4.095560550689697,43.067898105222895,42.29126032879773,172.9256445764784,153.00227608218373,-0.0001619339018361,0.0939245000481605,0,0,0
14270,522789.46481315553,2010-12-19 13:50:34,120.01358064452695,3,49,0.0,4.091513633728027,43.067898105222895,42.29126032879773,172.9256445764784,153.00227608218373,-6.47544875391759e-05,0.0939245000481605,0,0,0
14271,522819.4773911835,2010-12-19 13:51:05,30.01499668983972,5,49,0.0,4.088761329650879,43.067898105223016,42.29126032879773,172.92564457647887,153.00227608218373,-3.24249267578125e-05,0.0939245000481605,0,0,0
14272,522849.4768820978,2010-12-19 13:51:35,60.01448760916589,5,49,0.0,4.08617115020752,43.067898105223016,42.29126032879773,172.92564457647887,153.00227608218373,-6.47544875391759e-05,0.0939245000481605,0,0,0
14273,522849.67977831984,2010-12-19 13:51:35,0.187438277945503,6,49,-1.9243103452026844e-05,4.08617115020752,43.067898105223016,42.29126032979965,172.92564457647887,153.00227608627773,0.0,0.0962666198611259,0,0,0
14274,522854.5079496786,2010-12-19 13:51:40,5.015609636672797,6,49,0.0003419754502829,4.0858473777771,43.0678991605241,42.291260329967365,172.9256488887024,153.0022760869631,-9.71794142969884e-05,0.0962666198611259,0,0,0
14275,522884.522832992,2010-12-19 13:52:10,30.01510845295794,7,49,-1.0997490882873535,3.910525321960449,43.0678991605241,42.30042925977075,172.9256488887024,153.0383302605565,-0.0009065151098184,0.0962666198611259,0,0,0
14276,522914.5379728381,2010-12-19 13:52:40,60.03024831407387,7,49,-1.099929690361023,3.8838140964508057,43.0678991605241,42.30959815680101,172.9256488887024,153.07405546723206,-0.0006151676061563,0.0962666198611259,0,0,0
14277,522944.55343428446,2010-12-19 13:53:10,90.04570983562942,7,49,-1.0997490882873535,3.86519718170166,43.0678991605241,42.31876715625554,172.9256488887024,153.10957753171022,-0.0004532813909463,0.0962666198611259,0,0,0
14278,522974.55540103983,2010-12-19 13:53:40,120.04767660601574,7,49,-1.099929690361023,3.850303649902344,43.0678991605241,42.32793200811423,172.9256488887024,153.14493204881947,-0.0004209041653666,0.0962666198611259,0,0,0
14279,523004.5678819442,2010-12-19 13:54:10,150.06015754550748,7,49,-1.099929690361023,3.8378384113311768,43.0678991605241,42.33710008722536,172.9256488887024,153.1801748340893,-0.0003237724304199,0.0962666198611259,0,0,0
14280,523034.5828041086,2010-12-19 13:54:40,180.07507956954422,7,49,-1.099568486213684,3.8268303871154794,43.0678991605241,42.34626888160113,172.9256488887024,153.21531171541713,-0.0002266406954731,0.0962666198611259,0,0,0
14281,523064.598166308,2010-12-19 13:55:10,210.09044187420236,7,49,-1.0997490882873535,3.816307783126831,43.0678991605241,42.355437835422926,172.9256488887024,153.2503497550185,-0.0002590179501567,0.0962666198611259,0,0,0
14282,523094.613172301,2010-12-19 13:55:40,240.10544778198053,7,49,-1.0997490882873535,3.8062708377838135,43.0678991605241,42.364606605599874,172.9256488887024,153.2852935742387,-0.0002590179501567,0.0962666198611259,0,0,0
14283,523124.6283006635,2010-12-19 13:56:10,270.1205761444826,7,49,-1.099568486213684,3.796881437301636,43.0678991605241,42.37377545929687,172.9256488887024,153.32014895893195,-0.0002590179501567,0.0962666198611259,0,0,0
14284,523154.64328996,2010-12-19 13:56:40,300.1355654409241,7,49,-1.0997490882873535,3.787653923034668,43.0678991605241,42.38294426037229,172.9256488887024,153.35491896820005,-0.0002266406954731,0.0962666198611259,0,0,0
14285,523184.6584119466,2010-12-19 13:57:10,330.1506874275601,7,49,-1.099929690361023,3.77875018119812,43.0678991605241,42.392113126615065,172.9256488887024,153.38960711967775,-0.0002590179501567,0.0962666198611259,0,0,0
14286,523214.6735322591,2010-12-19 13:57:40,360.1658077350175,7,49,-1.099929690361023,3.770170211791992,43.0678991605241,42.40128198991539,172.9256488887024,153.42421557904368,-0.0002913951757363,0.0962666198611259,0,0,0
14287,523244.688675639,2010-12-19 13:58:10,390.18095111488975,7,49,-1.099568486213684,3.762075901031494,43.0678991605241,42.4104508932419,172.9256488887024,153.4587470299513,-0.0001942634553415,0.0962666198611259,0,0,0
14288,523274.70379671326,2010-12-19 13:58:40,420.19607217421816,7,49,-1.099568486213684,3.754143476486206,43.0678991605241,42.4196198589013,172.9256488887024,153.49320388762754,-0.0001618862152099,0.0962666198611259,0,0,0
14289,523304.7190262576,2010-12-19 13:59:10,450.2113017385571,7,49,-1.0997490882873535,3.746211290359497,43.0678991605241,42.42878872664815,172.9256488887024,153.52758767442825,-0.0001942634553415,0.0962666198611259,0,0,0
14290,523334.7340207069,2010-12-19 13:59:40,480.2262961828088,7,49,-1.0997490882873535,3.738602638244629,43.0678991605241,42.437957563473056,172.9256488887024,153.56190113042186,-0.0001942634553415,0.0962666198611259,0,0,0
14291,523364.7510533982,2010-12-19 14:00:10,510.243328949347,7,49,-1.099568486213684,3.731479644775391,43.0678991605241,42.44712702917314,172.9256488887024,153.596149049055,-0.0001295089750783,0.0962666198611259,0,0,0
14292,523394.76439834776,2010-12-19 14:00:40,540.256673883857,7,49,-1.099568486213684,3.724356651306152,43.0678991605241,42.45629535063132,172.9256488887024,153.63032699774874,-0.0001942634553415,0.0962666198611259,0,0,0
14293,523424.77950939216,2010-12-19 14:01:10,570.2717849433012,7,49,-1.0997490882873535,3.717395544052124,43.0678991605241,42.46546421533713,172.9256488887024,153.6644432648197,-0.0002266406954731,0.0962666198611259,0,0,0
14294,523454.79444024817,2010-12-19 14:01:40,600.2867157291414,7,49,-1.099568486213684,3.7109200954437256,43.0678991605241,42.47463312708276,172.9256488887024,153.69849765047272,-0.0001618862152099,0.0962666198611259,0,0,0
14295,523484.80963607854,2010-12-19 14:02:10,630.3019115394848,7,49,-1.0997490882873535,3.704282760620117,43.0678991605241,42.48380209162851,172.9256488887024,153.73249151967505,-0.0001942634553415,0.0962666198611259,0,0,0
14296,523514.8249196322,2010-12-19 14:02:40,660.3171952034485,7,49,-1.099568486213684,3.697807312011719,43.0678991605241,42.492971179027535,172.9256488887024,153.76642663189048,-0.0001942634553415,0.0962666198611259,0,0,0
14297,523544.8405388262,2010-12-19 14:03:10,690.3328143723035,7,49,-1.099929690361023,3.69165563583374,43.0678991605241,42.50214022705374,172.9256488887024,153.80030415861245,-0.0001942634553415,0.0962666198611259,0,0,0
14298,523574.8560700161,2010-12-19 14:03:40,720.3483455672385,7,49,-1.099568486213684,3.6858277320861816,43.0678991605241,42.51130930136504,172.9256488887024,153.834125750314,-9.713172767078504e-05,0.0962666198611259,0,0,0
14299,523604.8701604357,2010-12-19 14:04:10,750.3624359166852,7,49,-1.099568486213684,3.679837942123413,43.0678991605241,42.52047798726738,172.9256488887024,153.86789110976366,-0.0001618862152099,0.0962666198611259,0,0,0
14300,523634.8852590692,2010-12-19 14:04:40,780.3775345502077,7,49,-1.0997490882873535,3.6740100383758554,43.0678991605241,42.5296469655459,172.9256488887024,153.90160387242616,-0.0001295089750783,0.0962666198611259,0,0,0
14301,523664.9003890657,2010-12-19 14:05:10,810.392664546776,7,49,-1.0997490882873535,3.668182373046875,43.0678991605241,42.538816035321645,172.9256488887024,153.93526459097828,-0.0001618862152099,0.0962666198611259,0,0,0
14302,523694.9155172479,2010-12-19 14:05:40,840.4077927087791,7,49,-1.099929690361023,3.662678241729736,43.0678991605241,42.54798505469248,172.9256488887024,153.96887367931114,-0.0001618862152099,0.0962666198611259,0,0,0
14303,523724.93064006657,2010-12-19 14:06:10,870.4229155425232,7,49,-1.0997490882873535,3.657335996627808,43.0678991605241,42.55715403582472,172.9256488887024,154.00243219958608,-0.0001295089750783,0.0962666198611259,0,0,0
14304,523754.94574114616,2010-12-19 14:06:40,900.4380166271452,7,49,-1.099929690361023,3.651831865310669,43.0678991605241,42.56632299973927,172.9256488887024,154.03594102087604,-0.0001295089750783,0.0962666198611259,0,0,0
14305,523784.96086837584,2010-12-19 14:07:10,930.4531438267536,7,49,-1.0997490882873535,3.6463277339935294,43.0678991605241,42.57549200643635,172.9256488887024,154.06940084077542,-0.0001942634553415,0.0962666198611259,0,0,0
14306,523814.97598817205,2010-12-19 14:07:40,960.468263648001,7,49,-1.0997490882873535,3.641471147537232,43.0678991605241,42.584660898873885,172.9256488887024,154.10281179149848,-0.0001295089750783,0.0962666198611259,0,0,0
14307,523844.99115749646,2010-12-19 14:08:10,990.4834329724353,7,49,-1.099568486213684,3.6362907886505127,43.0678991605241,42.59382991321792,172.9256488887024,154.1361759569013,-0.0001295089750783,0.0962666198611259,0,0,0
14308,523875.0063844443,2010-12-19 14:08:40,1020.4986599052256,7,49,-1.099929690361023,3.631272315979004,43.0678991605241,42.60299889460567,172.9256488887024,154.16949384950016,-0.0001295089750783,0.0962666198611259,0,0,0
14309,523905.0213878208,2010-12-19 14:09:10,1050.5136633869668,7,49,-1.099929690361023,3.626253843307495,43.0678991605241,42.61216787969805,172.9256488887024,154.2027664533507,-0.0001295089750783,0.0962666198611259,0,0,0
14310,523935.036485116,2010-12-19 14:09:40,1080.5287605919343,7,49,-1.0997490882873535,3.6215591430664062,43.0678991605241,42.62133683635828,172.9256488887024,154.23599449208277,-0.0001295089750783,0.0962666198611259,0,0,0
14311,523965.05350543646,2010-12-19 14:10:10,1110.545780897464,7,49,-1.0997490882873535,3.616864442825317,43.0678991605241,42.6305064036774,172.9256488887024,154.26918126136897,-9.713172767078504e-05,0.0962666198611259,0,0,0
14312,523995.0667219214,2010-12-19 14:10:40,1140.558997382332,7,49,-1.0997490882873535,3.6123316287994394,43.0678991605241,42.63967476174093,172.9256488887024,154.30232130250886,-0.0001295089750783,0.0962666198611259,0,0,0
14313,524025.0818497877,2010-12-19 14:11:10,1170.5741252686494,7,49,-1.0997490882873535,3.6079607009887695,43.0678991605241,42.64884374622359,172.9256488887024,154.3354226085233,-9.713172767078504e-05,0.0962666198611259,0,0,0
14314,524055.09698960365,2010-12-19 14:11:40,1200.5892650846529,7,49,-1.099568486213684,3.6035897731781006,43.0678991605241,42.65801272927975,172.9256488887024,154.36848369916282,-0.0001295089750783,0.0962666198611259,0,0,0
14315,524085.112095796,2010-12-19 14:12:10,1230.6043712719727,7,49,-1.099568486213684,3.599542617797852,43.0678991605241,42.667181709343296,172.9256488887024,154.4015061368498,-9.713172767078504e-05,0.0962666198611259,0,0,0
14316,524115.1272337925,2010-12-19 14:12:40,1260.6195092684486,7,49,-1.0993878841400146,3.5954954624176025,43.0678991605241,42.6763507083488,172.9256488887024,154.43449110063997,-9.713172767078504e-05,0.0962666198611259,0,0,0
14317,524145.1423285263,2010-12-19 14:13:10,1290.6346040022672,7,49,-1.0997490882873535,3.5914485454559326,43.0678991605241,42.68551971586271,172.9256488887024,154.46743944846895,-0.0001295089750783,0.0962666198611259,0,0,0
14318,524175.1574448389,2010-12-19 14:13:40,1320.649720319796,7,49,-1.099568486213684,3.5875632762908936,43.0678991605241,42.694688790792014,172.9256488887024,154.50035230509053,-0.0001618862152099,0.0962666198611259,0,0,0
14319,524205.1725865044,2010-12-19 14:14:10,1350.6648619803896,7,49,-1.0997490882873535,3.5840017795562744,43.0678991605241,42.703857790705634,172.9256488887024,154.53323017851656,-6.47544875391759e-05,0.0962666198611259,0,0,0
14320,524235.1876856843,2010-12-19 14:14:40,1380.6799611652843,7,49,-1.0997490882873535,3.5802783966064453,43.0678991605241,42.7130268063715,172.9256488887024,154.56607429248606,-9.713172767078504e-05,0.0962666198611259,0,0,0
14321,524265.2028126634,2010-12-19 14:15:10,1410.6950881443438,7,49,-1.099568486213684,3.576555013656616,43.0678991605241,42.722195806348765,172.9256488887024,154.59888466832007,-9.713172767078504e-05,0.0962666198611259,0,0,0
14322,524295.2183301792,2010-12-19 14:15:40,1440.7106057304136,7,49,-1.0997490882873535,3.573155403137207,43.0678991605241,42.73136495395138,172.9256488887024,154.63166237829702,-6.47544875391759e-05,0.0962666198611259,0,0,0
14323,524325.2331108565,2010-12-19 14:16:11,1470.7253863325277,7,49,-1.0997490882873535,3.569432020187378,43.0678991605241,42.74053388298437,172.9256488887024,154.66440672146803,-9.713172767078504e-05,0.0962666198611259,0,0,0
14324,524355.2483065065,2010-12-19 14:16:41,1500.740582037609,7,49,-1.0997490882873535,3.5660324096679688,43.0678991605241,42.74970292059311,172.9256488887024,154.6971190759845,-9.713172767078504e-05,0.0962666198611259,0,0,0
14325,524385.2634232551,2010-12-19 14:17:11,1530.7556987360856,7,49,-1.0997490882873535,3.5624709129333496,43.0678991605241,42.75887190059021,172.9256488887024,154.72979913575296,-0.0001295089750783,0.0962666198611259,0,0,0
14326,524415.2784176192,2010-12-19 14:17:41,1560.7706930951254,7,49,-1.0997490882873535,3.5589094161987305,43.0678991605241,42.76804083460204,172.9256488887024,154.76244757970107,-9.713172767078504e-05,0.0962666198611259,0,0,0
14327,524445.2936827621,2010-12-19 14:18:11,1590.7859582229626,7,49,-1.0997490882873535,3.5555098056793213,43.0678991605241,42.77720989657489,172.9256488887024,154.79506409734103,-6.47544875391759e-05,0.0962666198611259,0,0,0
14328,524475.308658996,2010-12-19 14:18:41,1620.800934471936,7,49,-1.0997490882873535,3.551948308944702,43.0678991605241,42.78637887037496,172.9256488887024,154.82764792572402,-0.0001295089750783,0.0962666198611259,0,0,0
14329,524505.3237862306,2010-12-19 14:19:11,1650.8160617066314,7,49,-1.0997490882873535,3.548386812210083,43.0678991605241,42.79554793270492,172.9256488887024,154.8601995282343,-9.713172767078504e-05,0.0962666198611259,0,0,0
14330,524535.3389279864,2010-12-19 14:19:41,1680.8312034624623,7,49,-1.0997490882873535,3.544663429260254,43.0678991605241,42.80471702733548,172.9256488887024,154.8927181558883,-9.713172767078504e-05,0.0962666198611259,0,0,0
14331,524565.3558550049,2010-12-19 14:20:11,1710.84813056105,7,49,-1.0997490882873535,3.5411019325256348,43.0678991605241,42.81388657584634,172.9256488887024,154.9252047729984,-6.47544875391759e-05,0.0962666198611259,0,0,0
14332,524595.3691782103,2010-12-19 14:20:41,1740.861453691301,7,49,-1.0993878841400146,3.5373785495758057,43.0678991605241,42.82305502200732,172.9256488887024,154.95765321191152,-6.47544875391759e-05,0.0962666198611259,0,0,0
14333,524625.3842759215,2010-12-19 14:21:11,1770.8765514025283,7,49,-1.0997490882873535,3.5334932804107666,43.0678991605241,42.83222406400478,172.9256488887024,154.99006881048462,-6.47544875391759e-05,0.0962666198611259,0,0,0
14334,524655.399409512,2010-12-19 14:21:41,1800.8916849930404,7,49,-1.0997490882873535,3.5294461250305176,43.0678991605241,42.8413931280026,172.9256488887024,155.0224487056297,-0.0001295089750783,0.0962666198611259,0,0,0
14335,524685.414880848,2010-12-19 14:22:11,1830.9071563991936,7,49,-1.0997490882873535,3.525398969650269,43.0678991605241,42.85056232097419,172.9256488887024,155.05479231753327,-9.713172767078504e-05,0.0962666198611259,0,0,0
14336,524715.4296400218,2010-12-19 14:22:41,1860.921915487772,7,49,-1.099568486213684,3.5211899280548096,43.0678991605241,42.85973127683164,172.9256488887024,155.08709694593418,-9.713172767078504e-05,0.0962666198611259,0,0,0
14337,524745.4449147235,2010-12-19 14:23:11,1890.9371901844204,7,49,-1.0997490882873535,3.5168190002441406,43.0678991605241,42.86890035503151,172.9256488887024,155.11936285419495,-9.713172767078504e-05,0.0962666198611259,0,0,0
14338,524775.459883549,2010-12-19 14:23:41,1920.9521590299707,7,49,-1.0997490882873535,3.5122861862182617,43.0678991605241,42.878069402575576,172.9256488887024,155.15158812747575,-0.0001295089750783,0.0962666198611259,0,0,0
14339,524805.475018949,2010-12-19 14:24:11,1950.9672944299853,7,49,-1.0997490882873535,3.507753610610962,43.0678991605241,42.887238508325645,172.9256488887024,155.18377154070038,-9.713172767078504e-05,0.0962666198611259,0,0,0
14340,524835.4902569894,2010-12-19 14:24:41,1980.982532440342,7,49,-1.0997490882873535,3.502573251724243,43.0678991605241,42.89640763271231,172.9256488887024,155.21591076229527,-0.0001618862152099,0.0962666198611259,0,0,0
14341,524865.5052488373,2010-12-19 14:25:11,2010.9975243182075,7,49,-1.099568486213684,3.4975547790527344,43.0678991605241,42.90557669656842,172.9256488887024,155.2480031412525,-0.0001295089750783,0.0962666198611259,0,0,0
14342,524895.5231927863,2010-12-19 14:25:41,2041.0154683524,7,49,-1.0997490882873535,3.491726875305176,43.0678991605241,42.914746625644014,172.9256488887024,155.28004883332272,-0.0001618862152099,0.0962666198611259,0,0,0
14343,524925.5355618122,2010-12-19 14:26:11,2071.027837363362,7,49,-1.0997490882873535,3.4855751991271973,43.0678991605241,42.92391482276792,172.9256488887024,155.3120340421201,-0.0001295089750783,0.0962666198611259,0,0,0
14344,524955.5506659595,2010-12-19 14:26:41,2101.0429414404307,7,49,-1.099568486213684,3.478452205657959,43.0678991605241,42.9330838951616,172.9256488887024,155.34396164428884,-0.0001618862152099,0.0962666198611259,0,0,0
14345,524985.5657415707,2010-12-19 14:27:11,2131.058017046651,7,49,-1.0997490882873535,3.470357894897461,43.0678991605241,42.94225285842697,172.9256488887024,155.37582009590383,-0.0002266406954731,0.0962666198611259,0,0,0
14346,525015.5809126394,2010-12-19 14:27:41,2161.073188210663,7,49,-1.099568486213684,3.461292266845703,43.0678991605241,42.95142194041797,172.9256488887024,155.40760007733434,-0.0002266406954731,0.0962666198611259,0,0,0
14347,525045.5961462739,2010-12-19 14:28:11,2191.0884217498933,7,49,-1.1001102924346924,3.450122117996216,43.0678991605241,42.96059100242758,172.9256488887024,155.43928748727262,-0.0003561496851034,0.0962666198611259,0,0,0
14348,525075.6111094053,2010-12-19 14:28:41,2221.103384886236,7,49,-1.0997490882873535,3.436847448348999,43.0678991605241,42.96976005706576,172.9256488887024,155.4708638619094,-0.0003885269106831,0.0962666198611259,0,0,0
14349,525105.6262312665,2010-12-19 14:29:11,2251.1185067475603,7,49,-1.099568486213684,3.420335292816162,43.0678991605241,42.97892916489466,172.9256488887024,155.50230425148482,-0.0004856586456298,0.0962666198611259,0,0,0
14350,525135.6413493485,2010-12-19 14:29:41,2281.13362482948,7,49,-1.0997490882873535,3.3989663124084477,43.0678991605241,42.98809824242246,172.9256488887024,155.53357206712147,-0.0006475448608398,0.0962666198611259,0,0,0
14351,525165.6583358048,2010-12-19 14:30:11,2311.150611386026,7,49,-1.0997490882873535,3.370959997177124,43.0678991605241,42.99726786962692,172.9256488887024,155.56461728611785,-0.0008094310760498,0.0962666198611259,0,0,0
14352,525195.6716044494,2010-12-19 14:30:41,2341.1638799304424,7,49,-1.0997490882873535,3.3319456577301025,43.0678991605241,43.00643637819349,172.9256488887024,155.59535433234197,-0.0011979580158367,0.0962666198611259,0,0,0
14353,525225.6867224061,2010-12-19 14:31:11,2371.1789978870497,7,49,-1.0997490882873535,3.2773900032043457,43.0678991605241,43.0156054563425,172.9256488887024,155.62567017374252,-0.0016836166614666,0.0962666198611259,0,0,0
14354,525255.7018430694,2010-12-19 14:31:41,2401.194118550393,7,49,-1.0997490882873535,3.199684858322144,43.0678991605241,43.02477444976883,172.9256488887024,155.6553870396719,-0.0024282932281494,0.0962666198611259,0,0,0
14355,525285.7169596476,2010-12-19 14:32:11,2431.2092351235574,7,49,-1.0997490882873535,3.0853936672210693,43.0678991605241,43.033943512736194,172.9256488887024,155.68423761874655,-0.003593873931095,0.0962666198611259,0,0,0
14356,525315.7321577737,2010-12-19 14:32:41,2461.224433249663,7,49,-1.099929690361023,2.8908069133758545,43.0678991605241,43.04311307029715,172.9256488887024,155.71173488664647,-0.00686397543177,0.0962666198611259,0,0,0
14357,525334.4348879585,2010-12-19 14:33:00,2479.927163434392,7,49,-1.099929690361023,2.699943780899048,43.0678991605241,43.04882687748851,172.9256488887024,155.7277267831228,-0.0086770532652735,0.0962666198611259,0,0,0
14358,525394.4454480285,2010-12-19 14:34:00,60.01594682035681,8,49,0.0,3.3983187675476074,43.0678991605241,43.04882687748851,172.9256488887024,155.7277267831228,0.0012627125252038,0.0962666198611259,0,0,0
14359,525394.6269909027,2010-12-19 14:34:00,0.187292951305749,9,49,-1.9243103452026844e-05,3.398642539978028,43.0678991605241,43.04882687848965,172.9256488887024,155.7277267865253,0.0,0.0947341993451118,0,0,0
14360,525399.4568867779,2010-12-19 14:34:05,5.01718891665028,9,49,0.0005225847125984,3.406413078308105,43.0678998360638,43.04882687857588,172.9256511877204,155.72772678681838,0.0011008263099938,0.0947341993451118,0,0,0
