Data_Point,Test_Time(s),Date_Time,Step_Time(s),Step_Index,Cycle_Index,Current(A),Voltage(V),Charge_Capacity(Ah),Discharge_Capacity(Ah),Charge_Energy(Wh),Discharge_Energy(Wh),dV/dt(V/s),Internal_Resistance(Ohm),Is_FC_Data,AC_Impedance(Ohm),ACI_Phase_Angle(Deg)
13505,496243.08757447154,2010-12-19 06:28:05,30.01330939607408,1,47,0.0,3.4544930458068848,40.55153762763472,40.52407422067665,162.86386249015484,146.58396193793126,0.0008094310760498,0.0931989923119545,0,0,0
13506,496273.1025608707,2010-12-19 06:28:35,60.02829580533096,1,47,0.0,3.4795854091644287,40.55153762763472,40.52407422067665,162.86386249015484,146.58396193793126,0.0006151676061563,0.0931989923119545,0,0,0
13507,496303.11770065664,2010-12-19 06:29:05,90.04343559125978,1,47,0.0,3.498364210128784,40.55153762763472,40.52407422067665,162.86386249015484,146.58396193793126,0.0004532813909463,0.0931989923119545,0,0,0
13508,496333.0860512495,2010-12-19 06:29:35,120.01178616904376,1,47,0.0,3.5134193897247314,40.55153762763472,40.52407422067665,162.86386249015484,146.58396193793126,0.0003884792386088,0.0931989923119545,0,0,0
13509,496363.0931889585,2010-12-19 06:30:05,30.0151470891025,2,47,0.5504778623580933,3.659278631210327,40.55612508250571,40.52407422067665,162.88051104560634,146.58396193793126,0.0012950897216796,0.0931989923119545,0,0,0
13510,496393.1081588568,2010-12-19 06:30:35,60.03011700732206,2,47,0.5499359965324402,3.697807312011719,40.56071249594537,40.52407422067665,162.89739190338446,146.58396193793126,0.0008741855854168,0.0931989923119545,0,0,0
13511,496423.1232968382,2010-12-19 06:31:05,90.04525498876052,2,47,0.550297200679779,3.7248423099517822,40.56529985803592,40.52407422067665,162.914420220968,146.58396193793126,0.0006151676061563,0.0931989923119545,0,0,0
13512,496453.13839840406,2010-12-19 06:31:35,120.060356564605,2,47,0.550297200679779,3.745563745498657,40.56988725996953,40.52407422067665,162.9315569398601,146.58396193793126,0.0004856586456298,0.0931989923119545,0,0,0
13513,496483.1535572925,2010-12-19 06:32:05,150.0755154430448,2,47,0.5501165986061096,3.760295152664185,40.57447465404061,40.52407422067665,162.94877486181718,146.58396193793126,0.0003237724304199,0.0931989923119545,0,0,0
13514,496513.1686803568,2010-12-19 06:32:35,180.0906385023501,2,47,0.5501165986061096,3.770493984222412,40.57906205579015,40.52407422067665,162.96605006008568,146.58396193793126,0.0002266406954731,0.0931989923119545,0,0,0
13515,496543.1837724892,2010-12-19 06:33:05,210.1057306346948,2,47,0.550297200679779,3.77745509147644,40.58364939008504,40.52407422067665,162.98336332297913,146.58396193793126,0.0001618862152099,0.0931989923119545,0,0,0
13516,496573.199089867,2010-12-19 06:33:35,240.1210480977664,2,47,0.5501165986061096,3.783121109008789,40.58823682915857,40.52407422067665,163.00070549221476,146.58396193793126,0.0001618862152099,0.0931989923119545,0,0,0
13517,496603.21590957337,2010-12-19 06:34:05,270.1378677890752,2,47,0.550297200679779,3.788139581680298,40.59282442190574,40.52407422067665,163.01807279410292,146.58396193793126,9.713172767078504e-05,0.0931989923119545,0,0,0
13518,496633.2291583837,2010-12-19 06:34:35,300.1511165292093,2,47,0.5501165986061096,3.7929961681365967,40.59741155935711,40.52407422067665,163.03546086571444,146.58396193793126,0.0001295089750783,0.0931989923119545,0,0,0
13519,496663.2442389522,2010-12-19 06:35:05,330.1661970977779,2,47,0.550297200679779,3.797528982162476,40.601998864271465,40.52407422067665,163.05287077650038,146.58396193793126,0.0001295089750783,0.0931989923119545,0,0,0
13520,496693.25936068327,2010-12-19 06:35:35,360.1813188488277,2,47,0.550297200679779,3.801738023757935,40.60658614611038,40.52407422067665,163.07030083219385,146.58396193793126,9.713172767078504e-05,0.0931989923119545,0,0,0
13521,496723.27448844427,2010-12-19 06:36:05,390.1964465947954,2,47,0.5501165986061096,3.8059470653533936,40.61117341835564,40.52407422067665,163.0877502148036,146.58396193793126,9.713172767078504e-05,0.0931989923119545,0,0,0
13522,496753.2895986165,2010-12-19 06:36:35,420.2115567770568,2,47,0.5501165986061096,3.810156106948853,40.61576075755762,40.52407422067665,163.10521872308405,146.58396193793126,0.0001295089750783,0.0931989923119545,0,0,0
13523,496783.3048453687,2010-12-19 06:37:05,450.22680351412936,2,47,0.5501165986061096,3.814041376113892,40.62034819592266,40.52407422067665,163.12270604403295,146.58396193793126,0.0001295089750783,0.0931989923119545,0,0,0
13524,496813.3198323693,2010-12-19 06:37:35,480.2417905298956,2,47,0.550297200679779,3.81792664527893,40.624935621716254,40.52407422067665,163.1402115419951,146.58396193793126,9.713172767078504e-05,0.0931989923119545,0,0,0
13525,496843.3349929721,2010-12-19 06:38:05,510.2569511326262,2,47,0.550297200679779,3.82165002822876,40.62952304636567,40.52407422067665,163.15773476661622,146.58396193793126,9.713172767078504e-05,0.0931989923119545,0,0,0
13526,496873.3500800769,2010-12-19 06:38:35,540.2720382374602,2,47,0.5501165986061096,3.825373411178589,40.63411043104928,40.52407422067665,163.17527530005495,146.58396193793126,9.713172767078504e-05,0.0931989923119545,0,0,0
13527,496903.365197437,2010-12-19 06:39:05,570.2871555975833,2,47,0.5501165986061096,3.829420566558838,40.63869784829794,40.52407422067665,163.19283351082046,146.58396193793126,0.0001295089750783,0.0931989923119545,0,0,0
13528,496933.3803236191,2010-12-19 06:39:35,600.3022817796593,2,47,0.550297200679779,3.833305597305298,40.64328529172779,40.52407422067665,163.21040936406567,146.58396193793126,0.0001294612884521,0.0931989923119545,0,0,0
13529,496963.3954791191,2010-12-19 06:40:06,630.3174372696672,2,47,0.5501165986061096,3.837028980255127,40.647872667486986,40.52407422067665,163.22800254232516,146.58396193793126,9.713172767078504e-05,0.0931989923119545,0,0,0
13530,496993.4108113239,2010-12-19 06:40:36,660.3327695546225,2,47,0.5501165986061096,3.840914249420166,40.65246011183629,40.52407422067665,163.2456137235289,146.58396193793126,9.713172767078504e-05,0.0931989923119545,0,0,0
13531,497023.4257796933,2010-12-19 06:41:06,690.3477378588256,2,47,0.550297200679779,3.844799518585205,40.65704747837798,40.52407422067665,163.2632422460369,146.58396193793126,9.713172767078504e-05,0.0931989923119545,0,0,0
13532,497053.4409567018,2010-12-19 06:41:36,720.362914862369,2,47,0.5501165986061096,3.848522901535034,40.66163488659075,40.52407422067665,163.2808885265343,146.58396193793126,9.713172767078504e-05,0.0931989923119545,0,0,0
13533,497083.4559425597,2010-12-19 06:42:06,750.3779007252663,2,47,0.5504778623580933,3.852408170700073,40.66622226026293,40.52407422067665,163.2985520213736,146.58396193793126,9.713172767078504e-05,0.0931989923119545,0,0,0
13534,497113.4710478347,2010-12-19 06:42:36,780.393006000316,2,47,0.5501165986061096,3.855969667434693,40.67080972380866,40.52407422067665,163.3162329204476,146.58396193793126,9.713172767078504e-05,0.0931989923119545,0,0,0
13535,497143.4861696158,2010-12-19 06:43:06,810.4081277764283,2,47,0.550297200679779,3.8596930503845215,40.67539713807253,40.52407422067665,163.3339303263299,146.58396193793126,9.713172767078504e-05,0.0931989923119545,0,0,0
13536,497173.50141452334,2010-12-19 06:43:36,840.4233726689107,2,47,0.5501165986061096,3.86309266090393,40.67998459213266,40.52407422067665,163.35164412122322,146.58396193793126,6.47544875391759e-05,0.0931989923119545,0,0,0
13537,497203.516423975,2010-12-19 06:44:06,870.438382135545,2,47,0.550297200679779,3.86633038520813,40.684571967327095,40.52407422067665,163.3693732501015,146.58396193793126,3.237724376958795e-05,0.0931989923119545,0,0,0
13538,497233.5177450435,2010-12-19 06:44:36,900.4397032793144,2,47,0.550297200679779,3.869729995727539,40.68915728347911,40.52407422067665,163.3871095866984,146.58396193793126,0.0001295089750783,0.0931989923119545,0,0,0
13539,497263.5310596075,2010-12-19 06:45:06,930.4530178733232,2,47,0.550297200679779,3.8726439476013184,40.6937444833039,40.52407422067665,163.40486780456263,146.58396193793126,3.237724376958795e-05,0.0931989923119545,0,0,0
13540,497293.5461465469,2010-12-19 06:45:36,960.4681046974588,2,47,0.5501165986061096,3.8755578994750977,40.6983319318963,40.52407422067665,163.42264084868287,146.58396193793126,6.47544875391759e-05,0.0931989923119545,0,0,0
13541,497323.56128999696,2010-12-19 06:46:06,990.4832481475056,2,47,0.550297200679779,3.878795623779297,40.7029193346478,40.52407422067665,163.44042697166657,146.58396193793126,0.0001295089750783,0.0931989923119545,0,0,0
13542,497353.5763962845,2010-12-19 06:46:36,1020.4983544501124,2,47,0.550297200679779,3.881385803222656,40.707506758599095,40.52407422067665,163.45822572771087,146.58396193793126,9.713172767078504e-05,0.0931989923119545,0,0,0
13543,497383.59151026624,2010-12-19 06:47:06,1050.5134684318286,2,47,0.5501165986061096,3.8838140964508057,40.712094211955296,40.52407422067665,163.47603651099777,146.58396193793126,6.47544875391759e-05,0.0931989923119545,0,0,0
13544,497413.60665158107,2010-12-19 06:47:36,1080.5286097265116,2,47,0.550297200679779,3.886080503463745,40.71668169401933,40.52407422067665,163.49385859060465,146.58396193793126,6.47544875391759e-05,0.0931989923119545,0,0,0
13545,497443.6219607935,2010-12-19 06:48:06,1110.5439190543393,2,47,0.5499359965324402,3.8880231380462646,40.72126914209696,40.52407422067665,163.51169117579553,146.58396193793126,0.0,0.0931989923119545,0,0,0
13546,497473.6368736447,2010-12-19 06:48:36,1140.5588317952752,2,47,0.550297200679779,3.890613317489624,40.72585658541433,40.52407422067665,163.52953388215172,146.58396193793126,3.237724376958795e-05,0.0931989923119545,0,0,0
13547,497503.6521091389,2010-12-19 06:49:06,1170.5740673044074,2,47,0.5501165986061096,3.8927178382873535,40.730444034468,40.52407422067665,163.5473862827996,146.58396193793126,6.47544875391759e-05,0.0931989923119545,0,0,0
13548,497533.66722614807,2010-12-19 06:49:36,1200.5891843136574,2,47,0.5501165986061096,3.894660472869873,40.73503147578958,40.52407422067665,163.5652479582309,146.58396193793126,6.47544875391759e-05,0.0931989923119545,0,0,0
13549,497563.6850004549,2010-12-19 06:50:06,1230.6069587057025,2,47,0.5497553944587708,3.896441221237183,40.73961930196972,40.52407422067665,163.58311965869694,146.58396193793126,3.237724376958795e-05,0.0931989923119545,0,0,0
13550,497593.6973842076,2010-12-19 06:50:36,1260.6193423430614,2,47,0.550297200679779,3.898221969604492,40.74420630310912,40.52407422067665,163.60099691666346,146.58396193793126,3.237724376958795e-05,0.0931989923119545,0,0,0
13551,497623.7124943849,2010-12-19 06:51:06,1290.6344525303352,2,47,0.550297200679779,3.900164604187012,40.74879360909376,40.52407422067665,163.6188838433824,146.58396193793126,6.47544875391759e-05,0.0931989923119545,0,0,0
13552,497653.7275921762,2010-12-19 06:51:36,1320.6495503217625,2,47,0.5501165986061096,3.9017834663391113,40.75338101241029,40.52407422067665,163.63677942469516,146.58396193793126,0.0,0.0931989923119545,0,0,0
13553,497683.7427060176,2010-12-19 06:52:06,1350.6646641631287,2,47,0.550297200679779,3.903726100921631,40.75796845643738,40.52407422067665,163.65468338838406,146.58396193793126,3.237724376958795e-05,0.0931989923119545,0,0,0
13554,497713.7579569602,2010-12-19 06:52:36,1380.6799151207042,2,47,0.5501165986061096,3.9053449630737305,40.76255587699374,40.52407422067665,163.67259536138494,146.58396193793126,3.237724376958795e-05,0.0931989923119545,0,0,0
13555,497743.77294540446,2010-12-19 06:53:06,1410.694903549988,2,47,0.5501165986061096,3.90712571144104,40.76714325106568,40.52407422067665,163.69051519405008,146.58396193793126,3.237724376958795e-05,0.0931989923119545,0,0,0
13556,497773.7880694512,2010-12-19 06:53:36,1440.7100276017627,2,47,0.5501165986061096,3.9089064598083496,40.771730586904965,40.52407422067665,163.70844283984837,146.58396193793126,6.47544875391759e-05,0.0931989923119545,0,0,0
13557,497803.8031833026,2010-12-19 06:54:06,1470.7251414531547,2,47,0.5501165986061096,3.910687208175659,40.77631794906174,40.52407422067665,163.72637854772168,146.58396193793126,3.237724376958795e-05,0.0931989923119545,0,0,0
13558,497833.82015577913,2010-12-19 06:54:36,1500.7421140148754,2,47,0.550297200679779,3.9124679565429688,40.78090566467419,40.52407422067665,163.74432357577473,146.58396193793126,6.47544875391759e-05,0.0931989923119545,0,0,0
13559,497863.8334445388,2010-12-19 06:55:06,1530.7554026893847,2,47,0.5501165986061096,3.914248466491699,40.7854927656603,40.52407422067665,163.76227413243402,146.58396193793126,6.47544875391759e-05,0.0931989923119545,0,0,0
13560,497893.8485465407,2010-12-19 06:55:36,1560.7705046862768,2,47,0.5501165986061096,3.915705442428589,40.7900801608497,40.52407422067665,163.78023372399247,146.58396193793126,3.237724376958795e-05,0.0931989923119545,0,0,0
13561,497923.863785313,2010-12-19 06:56:06,1590.7857434735668,2,47,0.5501165986061096,3.917648077011109,40.79466757011596,40.52407422067665,163.7982012146375,146.58396193793126,6.47544875391759e-05,0.0931989923119545,0,0,0
13562,497953.87888235255,2010-12-19 06:56:36,1620.80084058831,2,47,0.550297200679779,3.919428825378418,40.79925496499609,40.52407422067665,163.8161765511256,146.58396193793126,6.47544875391759e-05,0.0931989923119545,0,0,0
13563,497983.89414552046,2010-12-19 06:57:06,1650.8161037412333,2,47,0.5501165986061096,3.920885801315308,40.803842380947465,40.52407422067665,163.83415985859173,146.58396193793126,3.237724376958795e-05,0.0931989923119545,0,0,0
13564,498013.9090196855,2010-12-19 06:57:36,1680.8309778309872,2,47,0.550297200679779,3.922666549682617,40.808429788834445,40.52407422067665,163.85215098274827,146.58396193793126,6.47544875391759e-05,0.0931989923119545,0,0,0
13565,498043.92418906005,2010-12-19 06:58:06,1710.8461472205836,2,47,0.550297200679779,3.924447298049927,40.81301724952359,40.52407422067665,163.87015019549543,146.58396193793126,3.237724376958795e-05,0.0931989923119545,0,0,0
13566,498073.93927708216,2010-12-19 06:58:36,1740.8612352326752,2,47,0.5499359965324402,3.9260661602020255,40.81760467241562,40.52407422067665,163.88815710605758,146.58396193793126,3.237724376958795e-05,0.0931989923119545,0,0,0
13567,498103.9546090764,2010-12-19 06:59:06,1770.8765673321689,2,47,0.550297200679779,3.928008794784546,40.822192128926254,40.52407422067665,163.90617194808985,146.58396193793126,3.237724376958795e-05,0.0931989923119545,0,0,0
13568,498133.9695790698,2010-12-19 06:59:36,1800.891537215301,2,47,0.5501165986061096,3.929465770721436,40.82677950094519,40.52407422067665,163.92419434004802,146.58396193793126,6.47544875391759e-05,0.0931989923119545,0,0,0
13569,498163.9846348466,2010-12-19 07:00:06,1830.906592992177,2,47,0.5501165986061096,3.931246519088745,40.83136692480428,40.52407422067665,163.94222484252228,146.58396193793126,3.237724376958795e-05,0.0931989923119545,0,0,0
13570,498193.99975821166,2010-12-19 07:00:36,1860.92171637228,2,47,0.550297200679779,3.933027267456055,40.83595436313716,40.52407422067665,163.9602632771148,146.58396193793126,6.47544875391759e-05,0.0931989923119545,0,0,0
13571,498224.0148706696,2010-12-19 07:01:06,1890.9368288352168,2,47,0.550297200679779,3.934808015823364,40.84054185549289,40.52407422067665,163.97830982413993,146.58396193793126,6.47544875391759e-05,0.0931989923119545,0,0,0
13572,498254.0300084706,2010-12-19 07:01:36,1920.951966631194,2,47,0.5501165986061096,3.936103105545044,40.84512924020612,40.52407422067665,163.99636387706178,146.58396193793126,-3.237724376958795e-05,0.0931989923119545,0,0,0
13573,498284.0451010541,2010-12-19 07:02:06,1950.967059214661,2,47,0.550297200679779,3.938207626342773,40.8497166331752,40.52407422067665,164.01442582187389,146.58396193793126,6.47544875391759e-05,0.0931989923119545,0,0,0
13574,498314.06025268446,2010-12-19 07:02:36,1980.9822108450644,2,47,0.5501165986061096,3.939988374710083,40.85430406948077,40.52407422067665,164.03249594501844,146.58396193793126,3.237724376958795e-05,0.0931989923119545,0,0,0
13575,498344.0753232982,2010-12-19 07:03:06,2010.9972814638736,2,47,0.550297200679779,3.941607236862183,40.858891465832656,40.52407422067665,164.05057390927433,146.58396193793126,3.237724376958795e-05,0.0931989923119545,0,0,0
13576,498374.09056001046,2010-12-19 07:03:36,2041.012518160962,2,47,0.5501165986061096,3.943387985229492,40.86347887191595,40.52407422067665,164.06865981030666,146.58396193793126,3.237724376958795e-05,0.0931989923119545,0,0,0
13577,498404.1055544947,2010-12-19 07:04:06,2071.027512640301,2,47,0.5501165986061096,3.945006847381592,40.86806623430796,40.52407422067665,164.0867535581246,146.58396193793126,3.237724376958795e-05,0.0931989923119545,0,0,0
13578,498434.1227296758,2010-12-19 07:04:36,2101.044687916469,2,47,0.550297200679779,3.9469494819641113,40.87265386290193,40.52407422067665,164.10485639119048,146.58396193793126,6.47544875391759e-05,0.0931989923119545,0,0,0
13579,498464.135828177,2010-12-19 07:05:06,2131.057786327515,2,47,0.550297200679779,3.948730230331421,40.87724087247616,40.52407422067665,164.1229647731437,146.58396193793126,3.237724376958795e-05,0.0931989923119545,0,0,0
13580,498494.15087591886,2010-12-19 07:05:36,2161.0728340794208,2,47,0.5501165986061096,3.950349092483521,40.881827669776285,40.52407422067665,164.14108040419794,146.58396193793126,3.237724376958795e-05,0.0931989923119545,0,0,0
13581,498524.1662196122,2010-12-19 07:06:06,2191.088177772765,2,47,0.5499359965324402,3.95212984085083,40.88641435262189,40.52407422067665,164.15920371634326,146.58396193793126,6.47544875391759e-05,0.0931989923119545,0,0,0
13582,498554.18139439024,2010-12-19 07:06:36,2221.103352646008,2,47,0.5501165986061096,3.95391058921814,40.8910011384787,40.52407422067665,164.1773356282538,146.58396193793126,6.47544875391759e-05,0.0931989923119545,0,0,0
13583,498584.1962665702,2010-12-19 07:07:06,2251.1182247307725,2,47,0.5501165986061096,3.955691337585449,40.89558773993316,40.52407422067665,164.19547498638528,146.58396193793126,3.237724376958795e-05,0.0931989923119545,0,0,0
13584,498614.211381399,2010-12-19 07:07:36,2281.1333395595966,2,47,0.5499359965324402,3.957472085952759,40.90017445612691,40.52407422067665,164.213623016637,146.58396193793126,3.237724376958795e-05,0.0931989923119545,0,0,0
13585,498644.2265049596,2010-12-19 07:08:06,2311.148463120149,2,47,0.5501165986061096,3.9594147205352783,40.904761151930266,40.52407422067665,164.23177931058447,146.58396193793126,6.47544875391759e-05,0.0931989923119545,0,0,0
13586,498674.2416518231,2010-12-19 07:08:36,2341.16360998369,2,47,0.550297200679779,3.961195468902588,40.9093482776945,40.52407422067665,164.2499457260639,146.58396193793126,3.237724376958795e-05,0.0931989923119545,0,0,0
13587,498704.2567588174,2010-12-19 07:09:06,2371.178716978018,2,47,0.550297200679779,3.9631381034851074,40.91393583634328,40.52407422067665,164.26812236665677,146.58396193793126,3.237724376958795e-05,0.0931989923119545,0,0,0
13588,498734.2719825974,2010-12-19 07:09:36,2401.193940757963,2,47,0.550297200679779,3.964918851852417,40.918523323051424,40.52407422067665,164.28630718649185,146.58396193793126,6.47544875391759e-05,0.0931989923119545,0,0,0
13589,498764.28698141256,2010-12-19 07:10:06,2431.208939573092,2,47,0.5501165986061096,3.966861486434937,40.92311076711847,40.52407422067665,164.3045003975321,146.58396193793126,3.237724376958795e-05,0.0931989923119545,0,0,0
13590,498794.3021199704,2010-12-19 07:10:36,2461.224078135977,2,47,0.5501165986061096,3.968642234802246,40.92769825451303,40.52407422067665,164.32270232123,146.58396193793126,6.47544875391759e-05,0.0931989923119545,0,0,0
13591,498824.3172308745,2010-12-19 07:11:06,2491.2391890199847,2,47,0.550297200679779,3.9705848693847656,40.93228574217728,40.52407422067665,164.34091293162243,146.58396193793126,6.47544875391759e-05,0.0931989923119545,0,0,0
13592,498854.3323352272,2010-12-19 07:11:36,2521.2542933777518,2,47,0.550297200679779,3.972527503967285,40.93687324435832,40.52407422067665,164.3591324435004,146.58396193793126,3.237724376958795e-05,0.0931989923119545,0,0,0
13593,498884.34745762986,2010-12-19 07:12:06,2551.269415790448,2,47,0.5501165986061096,3.9744701385498047,40.94146074125918,40.52407422067665,164.37736074882196,146.58396193793126,9.713172767078504e-05,0.0931989923119545,0,0,0
13594,498914.3625849498,2010-12-19 07:12:37,2581.284543110355,2,47,0.550297200679779,3.976412773132324,40.94604825257146,40.52407422067665,164.3955981181231,146.58396193793126,6.47544875391759e-05,0.0931989923119545,0,0,0
13595,498944.3778250704,2010-12-19 07:13:07,2611.2997832159253,2,47,0.5501165986061096,3.978031635284424,40.95063578958892,40.52407422067665,164.4138443813026,146.58396193793126,3.237724376958795e-05,0.0931989923119545,0,0,0
13596,498974.3929302151,2010-12-19 07:13:37,2641.314888360652,2,47,0.5501165986061096,3.980459928512573,40.9552232414235,40.52407422067665,164.43209982612507,146.58396193793126,3.237724376958795e-05,0.0931989923119545,0,0,0
13597,499004.40792144137,2010-12-19 07:14:07,2671.3298796019326,2,47,0.550297200679779,3.9824025630950928,40.959810696560886,40.52407422067665,164.45036461401693,146.58396193793126,3.237724376958795e-05,0.0931989923119545,0,0,0
13598,499034.4249311606,2010-12-19 07:14:37,2701.3468893963054,2,47,0.550297200679779,3.9845070838928223,40.96439843099842,40.52407422067665,164.46863982843857,146.58396193793126,6.47544875391759e-05,0.0931989923119545,0,0,0
13599,499064.4381914394,2010-12-19 07:15:07,2731.360149599966,2,47,0.550297200679779,3.9867734909057617,40.96898557831315,40.52407422067665,164.48692221209524,146.58396193793126,6.47544875391759e-05,0.0931989923119545,0,0,0
13600,499094.45332619786,2010-12-19 07:15:37,2761.3752843583843,2,47,0.5501165986061096,3.9885542392730713,40.97357302847484,40.52407422067665,164.50521534309905,146.58396193793126,3.237724376958795e-05,0.0931989923119545,0,0,0
13601,499124.46844610426,2010-12-19 07:16:07,2791.3904043550683,2,47,0.550297200679779,3.9908206462860103,40.97816039442029,40.52407422067665,164.52351778115835,146.58396193793126,6.47544875391759e-05,0.0931989923119545,0,0,0
13602,499154.483567324,2010-12-19 07:16:37,2821.405525484571,2,47,0.5501165986061096,3.99292516708374,40.98274786158137,40.52407422067665,164.54183041740518,146.58396193793126,6.47544875391759e-05,0.0931989923119545,0,0,0
13603,499184.49866565166,2010-12-19 07:17:07,2851.4206238173456,2,47,0.550297200679779,3.995353221893311,40.98733529857217,40.52407422067665,164.56015273682416,146.58396193793126,0.0001295089750783,0.0931989923119545,0,0,0
13604,499214.5137829668,2010-12-19 07:17:37,2881.435741127344,2,47,0.550297200679779,3.99729585647583,40.99192271166349,40.52407422067665,164.57848499141244,146.58396193793126,3.237724376958795e-05,0.0931989923119545,0,0,0
13605,499244.529045027,2010-12-19 07:18:07,2911.4510031875475,2,47,0.550297200679779,3.9995622634887695,40.996510146616615,40.52407422067665,164.59682739939134,146.58396193793126,6.47544875391759e-05,0.0931989923119545,0,0,0
13606,499274.5440333009,2010-12-19 07:18:37,2941.4659914614444,2,47,0.5501165986061096,4.001828670501709,41.00109749661695,40.52407422067665,164.61517972733873,146.58396193793126,6.47544875391759e-05,0.0931989923119545,0,0,0
13607,499304.5591619492,2010-12-19 07:19:07,2971.481120109657,2,47,0.5501165986061096,4.004095077514648,41.005684911000735,40.52407422067665,164.63354273377382,146.58396193793126,6.47544875391759e-05,0.0931989923119545,0,0,0
13608,499334.5742605676,2010-12-19 07:19:37,3001.4962187281426,2,47,0.5501165986061096,4.006199836730957,41.01027231781341,40.52407422067665,164.65191623425628,146.58396193793126,3.24249267578125e-05,0.0931989923119545,0,0,0
13609,499364.5895344422,2010-12-19 07:20:07,3031.5114926829456,2,47,0.5499359965324402,4.008627891540527,41.014859757101405,40.52407422067665,164.67030049056777,146.58396193793126,6.47544875391759e-05,0.0931989923119545,0,0,0
13610,499394.6046358075,2010-12-19 07:20:37,3061.5265939680667,2,47,0.5501165986061096,4.011056423187256,41.01944717434211,40.52407422067665,164.68869528674668,146.58396193793126,3.24249267578125e-05,0.0931989923119545,0,0,0
13611,499424.61962710886,2010-12-19 07:21:07,3091.541585269498,2,47,0.5499359965324402,4.013322830200195,41.02403453551976,40.52407422067665,164.70710075934417,146.58396193793126,3.24249267578125e-05,0.0931989923119545,0,0,0
13612,499454.6348650892,2010-12-19 07:21:37,3121.556823254792,2,47,0.550297200679779,4.015913009643555,41.02862195429988,40.52407422067665,164.7255173421325,146.58396193793126,9.71794142969884e-05,0.0931989923119545,0,0,0
13613,499484.6526761074,2010-12-19 07:22:07,3151.574634358192,2,47,0.5501165986061096,4.018179416656494,41.03320980310236,40.52407422067665,164.74394677903868,146.58396193793126,3.24249267578125e-05,0.0931989923119545,0,0,0
13614,499514.6650208279,2010-12-19 07:22:37,3181.586978988483,2,47,0.550297200679779,4.0207695960998535,41.03779679442066,40.52407422067665,164.76238383140284,146.58396193793126,9.71794142969884e-05,0.0931989923119545,0,0,0
13615,499544.6802301168,2010-12-19 07:23:07,3211.60218826233,2,47,0.550297200679779,4.023197650909424,41.04238420308497,40.52407422067665,164.7808338316866,146.58396193793126,6.47544875391759e-05,0.0931989923119545,0,0,0
13616,499574.6952385458,2010-12-19 07:23:37,3241.617196691382,2,47,0.5501165986061096,4.025626182556152,41.046971579123465,40.52407422067665,164.79929500658343,146.58396193793126,9.71794142969884e-05,0.0931989923119545,0,0,0
13617,499604.7104902503,2010-12-19 07:24:07,3271.632448410853,2,47,0.5501165986061096,4.028054237365723,41.051558950128914,40.52407422067665,164.81776758813302,146.58396193793126,6.47544875391759e-05,0.0931989923119545,0,0,0
13618,499634.7275272925,2010-12-19 07:24:37,3301.649485528218,2,47,0.5501165986061096,4.030644416809082,41.056146658006426,40.52407422067665,164.83625301121603,146.58396193793126,6.47544875391759e-05,0.0931989923119545,0,0,0
13619,499664.7407644989,2010-12-19 07:25:07,3331.6627227146014,2,47,0.5501165986061096,4.0330729484558105,41.06073379251466,40.52407422067665,164.85474777285364,146.58396193793126,3.24249267578125e-05,0.0931989923119545,0,0,0
13620,499694.7557042921,2010-12-19 07:25:37,3361.677662452719,2,47,0.5501165986061096,4.035662651062012,41.065321232092366,40.52407422067665,164.87325555727438,146.58396193793126,3.23295607813634e-05,0.0931989923119545,0,0,0
13621,499724.7708516369,2010-12-19 07:26:07,3391.692809797458,2,47,0.5501165986061096,4.038252830505371,41.06990865195285,40.52407422067665,164.89177513235754,146.58396193793126,3.23295607813634e-05,0.0931989923119545,0,0,0
13622,499754.7859699243,2010-12-19 07:26:37,3421.7079280899006,2,47,0.550297200679779,4.04100513458252,41.07449602255732,40.52407422067665,164.91030646149798,146.58396193793126,6.47544875391759e-05,0.0931989923119545,0,0,0
13623,499784.8010681719,2010-12-19 07:27:07,3451.723026337463,2,47,0.550297200679779,4.043595314025879,41.07908343880749,40.52407422067665,164.92885014266693,146.58396193793126,6.47544875391759e-05,0.0931989923119545,0,0,0
13624,499814.81618725625,2010-12-19 07:27:37,3481.738145416864,2,47,0.550297200679779,4.046347141265869,41.08367085954891,40.52407422067665,164.94740606334514,146.58396193793126,9.70840483205393e-05,0.0931989923119545,0,0,0
13625,499844.8313067718,2010-12-19 07:28:07,3511.7532649323507,2,47,0.550297200679779,4.0489373207092285,41.088258281825226,40.52407422067665,164.96597424232277,146.58396193793126,6.47544875391759e-05,0.0931989923119545,0,0,0
13626,499874.8464445477,2010-12-19 07:28:37,3541.768402683216,2,47,0.5501165986061096,4.051689624786377,41.09284575658658,40.52407422067665,164.98455500627696,146.58396193793126,9.71794142969884e-05,0.0931989923119545,0,0,0
13627,499904.8616864077,2010-12-19 07:29:07,3571.7836446584383,2,47,0.550297200679779,4.054603576660156,41.097433225828375,40.52407422067665,165.0031482874328,146.58396193793126,9.71794142969884e-05,0.0931989923119545,0,0,0
13628,499934.87669346825,2010-12-19 07:29:37,3601.7986516338738,2,47,0.550297200679779,4.057193756103516,41.10202072575479,40.52407422067665,165.02175436683376,146.58396193793126,6.47544875391759e-05,0.0931989923119545,0,0,0
13629,499964.89179019706,2010-12-19 07:30:07,3631.813748357644,2,47,0.5504778623580933,4.060107707977295,41.10660820647063,40.52407422067665,165.0403731809667,146.58396193793126,6.47544875391759e-05,0.0931989923119545,0,0,0
13630,499994.90692079015,2010-12-19 07:30:37,3661.8288789557087,2,47,0.550297200679779,4.062697887420654,41.11119565918626,40.52407422067665,165.0590043755805,146.58396193793126,6.47544875391759e-05,0.0931989923119545,0,0,0
13631,500024.9222802176,2010-12-19 07:31:07,3691.8442384583946,2,47,0.5499359965324402,4.0654497146606445,41.11578315524896,40.52407422067665,165.07764879595965,146.58396193793126,6.47544875391759e-05,0.0931989923119545,0,0,0
13632,500054.9373327413,2010-12-19 07:31:37,3721.859290997212,2,47,0.550297200679779,4.068525791168213,41.120370528608056,40.52407422067665,165.09630575720612,146.58396193793126,9.71794142969884e-05,0.0931989923119545,0,0,0
13633,500084.95227621385,2010-12-19 07:32:07,3751.8742343743857,2,47,0.5501165986061096,4.071277618408203,41.12495793778999,40.52407422067665,165.11497608322372,146.58396193793126,3.23295607813634e-05,0.0931989923119545,0,0,0
13634,500114.9675630707,2010-12-19 07:32:37,3781.8895213114943,2,47,0.550297200679779,4.074353694915772,41.12954534073823,40.52407422067665,165.13365962566726,146.58396193793126,0.0001295089750783,0.0931989923119545,0,0,0
13635,500144.98254367046,2010-12-19 07:33:07,3811.904501836107,2,47,0.550297200679779,4.077105522155762,41.13413271633092,40.52407422067665,165.15235648052715,146.58396193793126,6.47544875391759e-05,0.0931989923119545,0,0,0
13636,500174.9977661623,2010-12-19 07:33:37,3841.9197243278463,2,47,0.5501165986061096,4.08018159866333,41.13872014433413,40.52407422067665,165.17106712244762,146.58396193793126,0.0001295089750783,0.0931989923119545,0,0,0
13637,500205.01275836094,2010-12-19 07:34:07,3871.9347165214976,2,47,0.5501165986061096,4.083095550537109,41.14330759006022,40.52407422067665,165.18979146769544,146.58396193793126,9.71794142969884e-05,0.0931989923119545,0,0,0
13638,500235.0297625564,2010-12-19 07:34:37,3901.951720792125,2,47,0.550297200679779,4.08617115020752,41.14789530011619,40.52407422067665,165.20853070192211,146.58396193793126,9.70840483205393e-05,0.0931989923119545,0,0,0
13639,500265.0430128704,2010-12-19 07:35:07,3931.9649710309886,2,47,0.5501165986061096,4.089247226715088,41.15248245986397,40.52407422067665,165.22728157698705,146.58396193793126,6.47544875391759e-05,0.0931989923119545,0,0,0
13640,500295.0580979853,2010-12-19 07:35:37,3961.980056145871,2,47,0.550297200679779,4.092322826385498,41.15706989866089,40.52407422067665,165.24604763361407,146.58396193793126,9.70840483205393e-05,0.0931989923119545,0,0,0
13641,500325.0733428377,2010-12-19 07:36:07,3991.995300998253,2,47,0.5501165986061096,4.095398902893066,41.16165733987499,40.52407422067665,165.26482787062892,146.58396193793126,6.47544875391759e-05,0.0931989923119545,0,0,0
13642,500355.0885434901,2010-12-19 07:36:37,4022.0105016356088,2,47,0.5501165986061096,4.098474502563477,41.166244766004425,40.52407422067665,165.28362220921616,146.58396193793126,6.47544875391759e-05,0.0931989923119545,0,0,0
13643,500385.1035052079,2010-12-19 07:37:07,4052.025463373472,2,47,0.5501165986061096,4.101550579071045,41.17083219060153,40.52407422067665,165.30243086405267,146.58396193793126,6.47544875391759e-05,0.0931989923119545,0,0,0
13644,500415.1186378762,2010-12-19 07:37:37,4082.040596036676,2,47,0.550297200679779,4.104949951171875,41.17541964412002,40.52407422067665,165.32125403696884,146.58396193793126,9.70840483205393e-05,0.0931989923119545,0,0,0
13645,500445.1339674643,2010-12-19 07:38:07,4112.055925695096,2,47,0.550297200679779,4.108026027679443,41.18000707768344,40.52407422067665,165.34009177868572,146.58396193793126,9.71794142969884e-05,0.0931989923119545,0,0,0
13646,500475.1488830874,2010-12-19 07:38:37,4142.070841248029,2,47,0.550297200679779,4.1111016273498535,41.184594524569846,40.52407422067665,165.3589442848636,146.58396193793126,9.70840483205393e-05,0.0931989923119545,0,0,0
13647,500505.1639997859,2010-12-19 07:39:07,4172.085957931467,2,47,0.550297200679779,4.114339351654053,41.18918194047713,40.52407422067665,165.3778113787626,146.58396193793126,6.47544875391759e-05,0.0931989923119545,0,0,0
13648,500535.1791090008,2010-12-19 07:39:37,4202.101067166372,2,47,0.550297200679779,4.117577075958252,41.19376929214431,40.52407422067665,165.39669308219456,146.58396193793126,9.71794142969884e-05,0.0931989923119545,0,0,0
13649,500565.1944040832,2010-12-19 07:40:07,4232.1163622287,2,47,0.5501165986061096,4.120814800262451,41.19835668888594,40.52407422067665,165.4155898832566,146.58396193793126,6.47544875391759e-05,0.0931989923119545,0,0,0
13650,500595.20937143,2010-12-19 07:40:37,4262.131329590558,2,47,0.5501165986061096,4.124214172363281,41.20294409738719,40.52407422067665,165.43450183854773,146.58396193793126,9.70840483205393e-05,0.0931989923119545,0,0,0
13651,500625.2244856774,2010-12-19 07:41:07,4292.146443837935,2,47,0.5501165986061096,4.1276140213012695,41.20753151162216,40.52407422067665,165.45342905069867,146.58396193793126,9.71794142969884e-05,0.0931989923119545,0,0,0
13652,500655.2395958346,2010-12-19 07:41:37,4322.161553995134,2,47,0.550297200679779,4.130851745605469,41.212118941067295,40.52407422067665,165.4723716315866,146.58396193793126,6.47544875391759e-05,0.0931989923119545,0,0,0
13653,500685.2547188186,2010-12-19 07:42:07,4352.176677069477,2,47,0.5501165986061096,4.134251117706299,41.21670641527762,40.52407422067665,165.49132987470955,146.58396193793126,6.47544875391759e-05,0.0931989923119545,0,0,0
13654,500715.2698547249,2010-12-19 07:42:37,4382.191812890539,2,47,0.550297200679779,4.137812614440918,41.221293874967095,40.52407422067665,165.5103036237983,146.58396193793126,9.70840483205393e-05,0.0931989923119545,0,0,0
13655,500745.2849603509,2010-12-19 07:43:07,4412.206918496412,2,47,0.5504778623580933,4.141050338745117,41.22588135942812,40.52407422067665,165.5292931087091,146.58396193793126,9.70840483205393e-05,0.0931989923119545,0,0,0
13656,500775.30015053216,2010-12-19 07:43:37,4442.222108788023,2,47,0.550297200679779,4.144611835479736,41.230468883876085,40.52407422067665,165.5482985439448,146.58396193793126,9.70840483205393e-05,0.0931989923119545,0,0,0
13657,500805.3153304881,2010-12-19 07:44:07,4472.237288648676,2,47,0.5501165986061096,4.148011684417725,41.23505622415203,40.52407422067665,165.567319468926,146.58396193793126,6.47544875391759e-05,0.0931989923119545,0,0,0
13658,500835.33233745047,2010-12-19 07:44:38,4502.254295731301,2,47,0.5501165986061096,4.151573181152344,41.23964383245222,40.52407422067665,165.58635746926902,146.58396193793126,6.47544875391759e-05,0.0931989923119545,0,0,0
13659,500865.3455712283,2010-12-19 07:45:08,4532.267529388902,2,47,0.5501165986061096,4.155134677886963,41.24423093809756,40.52407422067665,165.60540949403787,146.58396193793126,9.71794142969884e-05,0.0931989923119545,0,0,0
13660,500895.3605662741,2010-12-19 07:45:38,4562.282524434651,2,47,0.5501165986061096,4.158696174621582,41.24881833146564,40.52407422067665,165.62447895488867,146.58396193793126,9.71794142969884e-05,0.0931989923119545,0,0,0
13661,500925.3756889124,2010-12-19 07:46:08,4592.297647072908,2,47,0.5501165986061096,4.162257671356201,41.25340574594673,40.52407422067665,165.64356476963158,146.58396193793126,9.71794142969884e-05,0.0931989923119545,0,0,0
13662,500955.39083493885,2010-12-19 07:46:38,4622.312793189591,2,47,0.550297200679779,4.165980815887451,41.2579931200233,40.52407422067665,165.66266678709567,146.58396193793126,0.0001295089750783,0.0931989923119545,0,0,0
13663,500985.40595690033,2010-12-19 07:47:08,4652.3279150609405,2,47,0.550297200679779,4.16954231262207,41.26258047183005,40.52407422067665,165.68178525925322,146.58396193793126,0.0001295089750783,0.0931989923119545,0,0,0
13664,501015.4210740048,2010-12-19 07:47:38,4682.343032160415,2,47,0.5501165986061096,4.1731038093566895,41.267167828481085,40.52407422067665,165.70092037990852,146.58396193793126,0.0001295089750783,0.0931989923119545,0,0,0
13665,501045.4362951733,2010-12-19 07:48:08,4712.358253338885,2,47,0.5501165986061096,4.176827430725098,41.271755322751495,40.52407422067665,165.72007286503404,146.58396193793126,9.71794142969884e-05,0.0931989923119545,0,0,0
13666,501075.4514554202,2010-12-19 07:48:38,4742.373413570693,2,47,0.550297200679779,4.180550575256348,41.27634279576152,40.52407422067665,165.73924212924584,146.58396193793126,0.0001295089750783,0.0931989923119545,0,0,0
13667,501105.4665402093,2010-12-19 07:49:08,4772.3884983597645,2,47,0.5501165986061096,4.184112071990967,41.28093021970605,40.52407422067665,165.75842820606073,146.58396193793126,9.70840483205393e-05,0.0931989923119545,0,0,0
13668,501135.48153268354,2010-12-19 07:49:38,4802.403490844139,2,47,0.550297200679779,4.187997341156006,41.28551763208824,40.52407422067665,165.77763119427394,146.58396193793126,0.0001295089750783,0.0931989923119545,0,0,0
13669,501165.49666153226,2010-12-19 07:50:08,4832.418619692851,2,47,0.5501165986061096,4.191558837890625,41.29010508026224,40.52407422067665,165.7968515761927,146.58396193793126,9.70840483205393e-05,0.0931989923119545,0,0,0
13670,501195.51179823553,2010-12-19 07:50:38,4862.433756381071,2,47,0.550297200679779,4.195281982421875,41.29469254613876,40.52407422067665,165.81608940436206,146.58396193793126,6.47544875391759e-05,0.0931989923119545,0,0,0
13671,501225.5270166221,2010-12-19 07:51:08,4892.448974782632,2,47,0.5499359965324402,4.199167251586914,41.299279943050976,40.52407422067665,165.83534434563552,146.58396193793126,3.23295607813634e-05,0.0931989923119545,0,0,0
13672,501230.7299609138,2010-12-19 07:51:13,4897.651919074389,2,47,0.550297200679779,4.200138568878174,41.300075139034014,40.52407422067665,165.83868385638362,146.58396193793126,0.0001618385285837,0.0931989923119545,0,0,0
13673,501260.7416857616,2010-12-19 07:51:43,30.015341618180628,3,47,0.0,4.113044261932373,41.300075139034014,40.52407422067665,165.83868385638362,146.58396193793126,-0.0003885269106831,0.0931989923119545,0,0,0
13674,501290.7565573401,2010-12-19 07:52:13,60.03021312651098,3,47,0.0,4.101874351501465,41.300075139034014,40.52407422067665,165.83868385638362,146.58396193793126,-0.0002590179501567,0.0931989923119545,0,0,0
13675,501320.7716816325,2010-12-19 07:52:43,90.04533741888469,3,47,0.0,4.095722675323486,41.300075139034014,40.52407422067665,165.83868385638362,146.58396193793126,-0.0001295089750783,0.0931989923119545,0,0,0
13676,501350.7400664856,2010-12-19 07:53:13,120.01372227196138,3,47,0.0,4.091513633728027,41.300075139034014,40.52407422067665,165.83868385638362,146.58396193793126,-3.23295607813634e-05,0.0931989923119545,0,0,0
13677,501350.7539880537,2010-12-19 07:53:13,2.571398827e-06,4,47,1.015907883644104,4.199814796447754,41.300075139759656,40.52407422067665,165.83868385943117,146.58396193793126,0.0,0.0931989923119545,0,0,0
13678,501351.410212508,2010-12-19 07:53:14,0.656227050776355,4,47,0.965337336063385,4.199653148651123,41.30025435392428,40.52407422067665,165.8394365039955,146.58396193793126,-3.23295607813634e-05,0.0931989923119545,0,0,0
13679,501353.1447858721,2010-12-19 07:53:16,2.390800434928456,4,47,0.91512793302536,4.199653148651123,41.30070641067643,40.52407422067665,165.8413350183692,146.58396193793126,-3.23295607813634e-05,0.0931989923119545,0,0,0
13680,501355.8321346913,2010-12-19 07:53:18,5.078149254105409,4,47,0.86491858959198,4.199814796447754,41.301369660770014,40.52407422067665,165.8441204865034,146.58396193793126,0.0,0.0931989923119545,0,0,0
13681,501359.58209351456,2010-12-19 07:53:22,8.828108077408011,4,47,0.8147091865539551,4.199653148651123,41.30224327457397,40.52407422067665,165.84778942744893,146.58396193793126,0.0,0.0931989923119545,0,0,0
13682,501364.5349858668,2010-12-19 07:53:27,13.781000424517936,4,47,0.7646804451942444,4.199814796447754,41.30332854584884,40.52407422067665,165.85234728342675,146.58396193793126,0.0,0.0931989923119545,0,0,0
13683,501371.0036727853,2010-12-19 07:53:33,20.249687343119227,4,47,0.7146516442298889,4.199814796447754,41.30465598906032,40.52407422067665,165.8579222120748,146.58396193793126,6.47544875391759e-05,0.0931989923119545,0,0,0
13684,501379.47223895154,2010-12-19 07:53:42,28.718253509309708,4,47,0.6646229028701782,4.199653148651123,41.3062759432461,40.52407422067665,165.86472561121815,146.58396193793126,0.0,0.0931989923119545,0,0,0
13685,501391.15954978,2010-12-19 07:53:54,40.40556433779444,4,47,0.6145941019058228,4.199653148651123,41.30834843338345,40.52407422067665,165.87342955202504,146.58396193793126,-6.47544875391759e-05,0.0931989923119545,0,0,0
13686,501408.349541027,2010-12-19 07:54:11,57.595555675083766,4,47,0.5645653605461121,4.199653148651123,41.31115566261425,40.52407422067665,165.88521920305428,146.58396193793126,0.0,0.0931989923119545,0,0,0
13687,501436.8150285579,2010-12-19 07:54:39,86.06104311575344,4,47,0.5145365595817566,4.199653148651123,41.31540499837628,40.52407422067665,165.90306537297658,146.58396193793126,0.0,0.0931989923119545,0,0,0
13688,501488.9547718688,2010-12-19 07:55:31,138.20078642660775,4,47,0.4645078182220459,4.199653148651123,41.32246091724935,40.52407422067665,165.93269849287196,146.58396193793126,-3.23295607813634e-05,0.0931989923119545,0,0,0
13689,501575.64085442113,2010-12-19 07:56:58,224.88686904913385,4,47,0.4144790470600128,4.199653148651123,41.33301037510245,40.52407422067665,165.97700362494925,146.58396193793126,-3.23295607813634e-05,0.0931989923119545,0,0,0
13690,501689.045169282,2010-12-19 07:58:52,338.2911838447984,4,47,0.3644502758979797,4.199814796447754,41.34525817009338,40.52407422067665,166.02844141070713,146.58396193793126,0.0,0.0931989923119545,0,0,0
13691,501825.0430184589,2010-12-19 08:01:08,474.2890330217888,4,47,0.3144215047359466,4.199653148651123,41.35806412451657,40.52407422067665,166.0822234612875,146.58396193793126,-3.23295607813634e-05,0.0931989923119545,0,0,0
13692,501987.50890091376,2010-12-19 08:03:50,636.7549154765898,4,47,0.2643927335739136,4.199814796447754,41.37109923216234,40.52407422067665,166.13696784035375,146.58396193793126,3.23295607813634e-05,0.0931989923119545,0,0,0
13693,502187.2087043237,2010-12-19 08:07:10,836.4547188665641,4,47,0.214183360338211,4.199653148651123,41.38434241068746,40.52407422067665,166.1925860298674,146.58396193793126,-3.23295607813634e-05,0.0931989923119545,0,0,0
13694,502451.9855910426,2010-12-19 08:11:34,1101.2316056054874,4,47,0.1641545891761779,4.199814796447754,41.398195394217005,40.52407422067665,166.25076527248365,146.58396193793126,3.23295607813634e-05,0.0931989923119545,0,0,0
13695,502844.01013556885,2010-12-19 08:18:06,1493.2561501266614,4,47,0.1141258180141449,4.199491024017334,41.413179032300576,40.52407422067665,166.31369304331906,146.58396193793126,-6.47544875391759e-05,0.0931989923119545,0,0,0
13696,503562.7013426206,2010-12-19 08:30:05,2211.94735717844,4,47,0.0640970468521118,4.199653148651123,41.43042670019464,40.52407422067665,166.38612909427502,146.58396193793126,0.0,0.0931989923119545,0,0,0
13697,503912.5703672269,2010-12-19 08:35:55,2561.8163817696345,4,47,0.0498289167881011,4.199653148651123,41.435972080802806,40.52407422067665,166.40941840968532,146.58396193793126,0.0,0.0931989923119545,0,0,0
13698,503942.59568427154,2010-12-19 08:36:25,30.01514795124791,5,47,0.0,4.191882610321045,41.435972080802806,40.52407422067665,166.40941840968532,146.58396193793126,0.0,0.0931989923119545,0,0,0
13699,503972.59513369255,2010-12-19 08:36:55,60.01459727205778,5,47,0.0,4.190425872802734,41.435972080802806,40.52407422067665,166.40941840968532,146.58396193793126,-3.23295607813634e-05,0.0931989923119545,0,0,0
13700,503972.7933925106,2010-12-19 08:36:56,0.202686622865361,6,47,-1.9243103452026844e-05,4.190425872802734,41.435972080802806,40.52407422167994,166.40941840968532,146.58396194213543,0.0,0.0970755815505981,0,0,0
13701,503977.5907877089,2010-12-19 08:37:00,5.000081826313942,6,47,0.0008838032954372,4.190425872802734,41.43597311402469,40.52407422167994,166.40942273940396,146.58396194213543,0.0,0.0970755815505981,0,0,0
13702,504007.60133492295,2010-12-19 08:37:30,30.015088022116576,7,47,-1.099929690361023,4.010246753692627,41.43597311409557,40.53324318126114,166.409422739701,146.62094191720692,-0.0009713172912597,0.0970755815505981,0,0,0
13703,504037.6165987325,2010-12-19 08:38:00,60.03035182666096,7,47,-1.099568486213684,3.982078790664673,41.43597311409557,40.54241218401681,166.409422739701,146.65757308985937,-0.0005827903514727,0.0970755815505981,0,0,0
13704,504067.6315779088,2010-12-19 08:38:30,90.04533102296871,7,47,-1.0997490882873535,3.962166786193848,41.43597311409557,40.55158100890416,166.409422739701,146.69398726909915,-0.0004856586456298,0.0970755815505981,0,0,0
13705,504097.6466975847,2010-12-19 08:39:00,120.060450693842,7,47,-1.0997490882873535,3.9466257095336914,41.43597311409557,40.560749902847725,166.409422739701,146.7302426380242,-0.0003885269106831,0.0970755815505981,0,0,0
13706,504127.6618213106,2010-12-19 08:39:30,150.0755744047688,7,47,-1.099568486213684,3.933512926101685,41.43597311409557,40.5699187032082,166.409422739701,146.76636686754642,-0.0003237724304199,0.0970755815505981,0,0,0
13707,504157.6769561894,2010-12-19 08:40:01,180.09070929852365,7,47,-1.0993878841400146,3.921533346176148,41.43597311409557,40.57908750642719,166.409422739701,146.80237494158646,-0.0002913951757363,0.0970755815505981,0,0,0
13708,504187.6924278762,2010-12-19 08:40:31,210.10618104051235,7,47,-1.0997490882873535,3.9100396633148193,41.43597311409557,40.5882564659226,166.409422739701,146.83827692832568,-0.0003237724304199,0.0970755815505981,0,0,0
13709,504217.7073195046,2010-12-19 08:41:01,240.1210725987361,7,47,-1.099568486213684,3.899355173110962,41.43597311409557,40.59742520949023,166.409422739701,146.8740772826727,-0.0002266406954731,0.0970755815505981,0,0,0
13710,504247.7223675122,2010-12-19 08:41:31,270.13612069149,7,47,-1.099568486213684,3.888994455337525,41.43597311409557,40.60659404189483,166.409422739701,146.9097818006053,-0.0002590179501567,0.0970755815505981,0,0,0
13711,504277.73744792526,2010-12-19 08:42:01,300.15120101946,7,47,-1.0997490882873535,3.878957509994507,41.43597311409557,40.61576290540595,166.409422739701,146.94539297463928,-0.0002590179501567,0.0970755815505981,0,0,0
13712,504307.7526184828,2010-12-19 08:42:31,330.1663716471373,7,47,-1.0997490882873535,3.868920564651489,41.43597311409557,40.62493175133334,166.409422739701,146.98091304413907,-0.0002913951757363,0.0970755815505981,0,0,0
13713,504337.7676653575,2010-12-19 08:43:01,360.1814184717354,7,47,-1.0997490882873535,3.8593692779541016,41.43597311409557,40.634100572131366,166.409422739701,147.01634362231692,-0.0002590179501567,0.0970755815505981,0,0,0
13714,504367.78298765264,2010-12-19 08:43:31,390.196740816956,7,47,-1.0997490882873535,3.850141763687134,41.43597311409557,40.64326949958856,166.409422739701,147.05168747161483,-0.0001942634553415,0.0970755815505981,0,0,0
13715,504397.7997436604,2010-12-19 08:44:01,420.2134968448408,7,47,-1.099568486213684,3.841076135635376,41.43597311409557,40.65243885889013,166.409422739701,147.08694793941547,-0.0001942634553415,0.0970755815505981,0,0,0
13716,504427.8131729649,2010-12-19 08:44:31,450.2269260590778,7,47,-1.099568486213684,3.832010746002197,41.43597311409557,40.66160719297273,166.409422739701,147.12212136217127,-0.0002266406954731,0.0970755815505981,0,0,0
13717,504457.82828179386,2010-12-19 08:45:01,480.2420349030088,7,47,-1.099568486213684,3.8231070041656494,41.43597311409557,40.670775999208864,166.409422739701,147.1572153339947,-0.0002590179501567,0.0970755815505981,0,0,0
13718,504487.84329682926,2010-12-19 08:45:31,510.2570499234634,7,47,-1.0997490882873535,3.8145270347595215,41.43597311409557,40.67994476149098,166.409422739701,147.19222943302825,-0.0002590179501567,0.0970755815505981,0,0,0
13719,504517.8584121143,2010-12-19 08:46:01,540.2721652284724,7,47,-1.0997490882873535,3.806108951568604,41.43597311409557,40.68911357193255,166.409422739701,147.22716501779277,-0.0001942634553415,0.0970755815505981,0,0,0
13720,504547.87351857725,2010-12-19 08:46:31,570.2872716864659,7,47,-1.0997490882873535,3.797852754592896,41.43597311409557,40.69828241687345,166.409422739701,147.2620240309714,-0.0001942634553415,0.0970755815505981,0,0,0
13721,504577.8886399123,2010-12-19 08:47:01,600.3023930064429,7,47,-1.0997490882873535,3.7897584438323975,41.43597311409557,40.707451282165984,166.409422739701,147.29680827524837,-0.0002266406954731,0.0970755815505981,0,0,0
13722,504607.9039141478,2010-12-19 08:47:31,630.3176672419444,7,47,-1.099568486213684,3.7819879055023193,41.43597311409557,40.7166202302608,166.409422739701,147.33151989389964,-0.0001942634553415,0.0970755815505981,0,0,0
13723,504637.9188922514,2010-12-19 08:48:01,660.3326453605703,7,47,-1.099568486213684,3.774379253387451,41.43597311409557,40.72578915236168,166.409422739701,147.36616046536128,-0.0001942634553415,0.0970755815505981,0,0,0
13724,504667.93412885326,2010-12-19 08:48:31,690.347881952397,7,47,-1.099568486213684,3.766770601272583,41.43597311409557,40.734958086177535,166.409422739701,147.40073215437206,-0.0001942634553415,0.0970755815505981,0,0,0
13725,504697.94915330206,2010-12-19 08:49:01,720.3629063963016,7,47,-1.099568486213684,3.7596476078033447,41.43597311409557,40.74412697780149,166.409422739701,147.43523626596962,-0.0001942634553415,0.0970755815505981,0,0,0
13726,504727.9672315503,2010-12-19 08:49:31,750.38098476478,7,47,-1.099568486213684,3.7525248527526855,41.43597311409557,40.75329681672043,166.409422739701,147.4696779583808,-0.0001618385285837,0.0970755815505981,0,0,0
13727,504757.97939165146,2010-12-19 08:50:01,780.3931447606159,7,47,-1.0997490882873535,3.745563745498657,41.43597311409557,40.76246490326119,166.409422739701,147.50404851416442,-0.0001942634553415,0.0970755815505981,0,0,0
13728,504787.9945277883,2010-12-19 08:50:31,810.4082809526013,7,47,-1.0997490882873535,3.738926410675049,41.43597311409557,40.77163381381125,166.409422739701,147.53835926700123,-0.0001295089750783,0.0970755815505981,0,0,0
13729,504818.0096525267,2010-12-19 08:51:01,840.423405625923,7,47,-1.0997490882873535,3.731965303421021,41.43597311409557,40.78080272227001,166.409422739701,147.57260845175645,-0.0001942634553415,0.0970755815505981,0,0,0
13730,504848.02503959805,2010-12-19 08:51:31,870.4387927824239,7,47,-1.099568486213684,3.725813627243042,41.43597311409557,40.78997166882646,166.409422739701,147.6067974653794,-9.713172767078504e-05,0.0970755815505981,0,0,0
13731,504878.0399834914,2010-12-19 08:52:01,900.4537365856572,7,47,-1.099568486213684,3.7191762924194336,41.43597311409557,40.79914049125705,166.409422739701,147.64092731717196,-0.0001942634553415,0.0970755815505981,0,0,0
13732,504908.0549700712,2010-12-19 08:52:31,930.4687231853884,7,47,-1.0997490882873535,3.712862730026245,41.43597311409557,40.80830938401136,166.409422739701,147.67499937296682,-0.0001618862152099,0.0970755815505981,0,0,0
13733,504938.070091336,2010-12-19 08:53:01,960.4838444452156,7,47,-1.099929690361023,3.7067110538482666,41.43597311409557,40.81747831638683,166.409422739701,147.70901447443777,-0.0001618862152099,0.0970755815505981,0,0,0
13734,504968.0852097387,2010-12-19 08:53:31,990.4989628479332,7,47,-1.0997490882873535,3.700721263885498,41.43597311409557,40.82664724455841,166.409422739701,147.74297399737534,-0.0001618862152099,0.0970755815505981,0,0,0
13735,504998.1021752128,2010-12-19 08:54:01,1020.5159283069792,7,47,-1.0997490882873535,3.6947314739227295,41.43597311409557,40.83581679150065,166.409422739701,147.77688102786368,-0.0001618862152099,0.0970755815505981,0,0,0
13736,505028.11548747605,2010-12-19 08:54:31,1050.529240560163,7,47,-1.0997490882873535,3.688903570175171,41.43597311409557,40.8449851757588,166.409422739701,147.8107298126249,-0.0001618862152099,0.0970755815505981,0,0,0
13737,505058.1307066847,2010-12-19 08:55:01,1080.5444597787573,7,47,-1.0997490882873535,3.6832375526428223,41.43597311409557,40.854154140008085,166.409422739701,147.844527411896,-0.0001618862152099,0.0970755815505981,0,0,0
13738,505088.1456960864,2010-12-19 08:55:31,1110.5594491804604,7,47,-1.0997490882873535,3.6775715351104736,41.43597311409557,40.86332309281887,166.409422739701,147.87827263912996,-0.0001618862152099,0.0970755815505981,0,0,0
13739,505118.16083305527,2010-12-19 08:56:01,1140.574586154392,7,47,-1.0997490882873535,3.671905755996704,41.43597311409557,40.8724920897853,166.409422739701,147.91196658926594,-0.0001618385285837,0.0970755815505981,0,0,0
13740,505148.17606491526,2010-12-19 08:56:31,1170.5898180094312,7,47,-1.0997490882873535,3.666563510894776,41.43597311409557,40.88166113460828,166.409422739701,147.94560987664275,-9.713172767078504e-05,0.0970755815505981,0,0,0
13741,505178.1910642968,2010-12-19 08:57:01,1200.6048173959816,7,47,-1.0997490882873535,3.6610593795776367,41.43597311409557,40.890829977742285,166.409422739701,147.9792028784749,-0.0001295089750783,0.0970755815505981,0,0,0
13742,505208.2061901581,2010-12-19 08:57:31,1230.619943252247,7,47,-1.0997490882873535,3.655879020690918,41.43597311409557,40.899998895811535,166.409422739701,148.01274753020698,-0.0001618862152099,0.0970755815505981,0,0,0
13743,505238.2214578422,2010-12-19 08:58:01,1260.6352109364457,7,47,-1.0997490882873535,3.650698661804199,41.43597311409557,40.90916792139504,166.409422739701,148.04624482153483,-0.0001295089750783,0.0970755815505981,0,0,0
13744,505268.236773516,2010-12-19 08:58:31,1290.650526680239,7,47,-1.0997490882873535,3.6456801891326895,41.43597311409557,40.91833688883622,166.409422739701,148.07969469984317,-9.713172767078504e-05,0.0970755815505981,0,0,0
13745,505298.2517082816,2010-12-19 08:59:01,1320.6654614459828,7,47,-1.0997490882873535,3.6406617164611816,41.43597311409557,40.92750576492604,166.409422739701,148.1130978051864,-9.713172767078504e-05,0.0970755815505981,0,0,0
13746,505328.26667128765,2010-12-19 08:59:31,1350.6804243818267,7,47,-1.099568486213684,3.635643243789673,41.43597311409557,40.936674635521314,166.409422739701,148.14645540983176,-0.0001295089750783,0.0970755815505981,0,0,0
13747,505358.2818312338,2010-12-19 09:00:01,1380.6955843479736,7,47,-1.099568486213684,3.630948543548584,41.43597311409557,40.94584357228044,166.409422739701,148.17976885022142,-9.713172767078504e-05,0.0970755815505981,0,0,0
13748,505388.2969166845,2010-12-19 09:00:31,1410.710669793679,7,47,-1.0997490882873535,3.626253843307495,41.43597311409557,40.9550124273892,166.409422739701,148.2130386357374,-0.0001295089750783,0.0970755815505981,0,0,0
13749,505418.3121666847,2010-12-19 09:01:01,1440.7259197788344,7,47,-1.0997490882873535,3.6215591430664062,41.43597311409557,40.96418139456553,166.409422739701,148.24626624634467,-0.0001295089750783,0.0970755815505981,0,0,0
13750,505448.32715355005,2010-12-19 09:01:31,1470.7409066592636,7,47,-1.0997490882873535,3.617188215255737,41.43597311409557,40.97335029479974,166.409422739701,148.27945199517976,-9.713172767078504e-05,0.0970755815505981,0,0,0
13751,505478.3422784089,2010-12-19 09:02:01,1500.7560316132838,7,47,-1.099568486213684,3.612817287445069,41.43597311409557,40.98251912844301,166.409422739701,148.31259709786903,-0.0001295089750783,0.0970755815505981,0,0,0
13752,505508.35737656616,2010-12-19 09:02:31,1530.7711296753846,7,47,-1.099929690361023,3.6084463596344,41.43597311409557,40.99168795974782,166.409422739701,148.34570242264994,-9.713172767078504e-05,0.0970755815505981,0,0,0
13753,505538.3724942321,2010-12-19 09:03:01,1560.7862473412686,7,47,-1.099929690361023,3.6043992042541504,41.43597311409557,41.00085679446556,166.409422739701,148.37876900267898,-9.713172767078504e-05,0.0970755815505981,0,0,0
13754,505568.38762076,2010-12-19 09:03:31,1590.8013738692057,7,47,-1.0997490882873535,3.6003520488739014,41.43597311409557,41.01002567354908,166.409422739701,148.4117985183574,-9.713172767078504e-05,0.0970755815505981,0,0,0
13755,505598.40461074514,2010-12-19 09:04:01,1620.8183639344832,7,47,-1.0997490882873535,3.5964667797088623,41.43597311409557,41.01919515767879,166.409422739701,148.4447937996575,-9.713172767078504e-05,0.0970755815505981,0,0,0
13756,505628.41788370046,2010-12-19 09:04:31,1650.8316367996515,7,47,-1.0997490882873535,3.592743396759033,41.43597311409557,41.02836348897477,166.409422739701,148.47774963691987,-6.47544875391759e-05,0.0970755815505981,0,0,0
13757,505658.4330146094,2010-12-19 09:05:01,1680.8467677034776,7,47,-1.099929690361023,3.588858366012573,41.43597311409557,41.0375324499595,166.409422739701,148.51067321313917,-9.713172767078504e-05,0.0970755815505981,0,0,0
13758,505688.4483339069,2010-12-19 09:05:31,1710.8620870863265,7,47,-1.0997490882873535,3.585296869277954,41.43597311409557,41.04670147453721,166.409422739701,148.54356338140784,-9.713172767078504e-05,0.0970755815505981,0,0,0
13759,505718.46326038206,2010-12-19 09:06:01,1740.8770134912647,7,47,-1.099929690361023,3.581573486328125,41.43597311409557,41.05587029347681,166.409422739701,148.5764200290721,-0.0001295089750783,0.0970755815505981,0,0,0
13760,505748.4784426587,2010-12-19 09:06:31,1770.8921958431174,7,47,-1.099568486213684,3.578335762023926,41.43597311409557,41.06503929121289,166.409422739701,148.60924513531398,-6.47544875391759e-05,0.0970755815505981,0,0,0
13761,505778.4934239303,2010-12-19 09:07:01,1800.9071770243645,7,47,-1.0997490882873535,3.5749361515045166,41.43597311409557,41.07420820258378,166.409422739701,148.64203840051297,-9.713172767078504e-05,0.0970755815505981,0,0,0
13762,505808.50866942416,2010-12-19 09:07:31,1830.922422603556,7,47,-1.0997490882873535,3.571374654769897,41.43597311409557,41.083377183390354,166.409422739701,148.67480071589807,-9.713172767078504e-05,0.0970755815505981,0,0,0
13763,505838.5237124694,2010-12-19 09:08:01,1860.9374655785743,7,47,-1.099568486213684,3.5681369304656982,41.43597311409557,41.092546053325,166.409422739701,148.70753164398684,-6.47544875391759e-05,0.0970755815505981,0,0,0
13764,505868.53893324186,2010-12-19 09:08:31,1890.9526864212096,7,47,-1.099568486213684,3.565061092376709,41.43597311409557,41.10171505482255,166.409422739701,148.74023243319525,-6.47544875391759e-05,0.0970755815505981,0,0,0
13765,505898.5539501971,2010-12-19 09:09:01,1920.9677033113169,7,47,-1.099568486213684,3.56149959564209,41.43597311409557,41.11088394623503,166.409422739701,148.77290274854337,-0.0001295089750783,0.0970755815505981,0,0,0
13766,505928.5691561026,2010-12-19 09:09:31,1950.982909201744,7,47,-1.099929690361023,3.55826187133789,41.43597311409557,41.12005285764806,166.409422739701,148.805543170021,-6.47544875391759e-05,0.0970755815505981,0,0,0
13767,505958.5845791233,2010-12-19 09:10:01,1980.99833221748,7,47,-1.0997490882873535,3.554862260818481,41.43597311409557,41.12922182747572,166.409422739701,148.838153268355,-6.47544875391759e-05,0.0970755815505981,0,0,0
13768,505988.59942407056,2010-12-19 09:10:31,2011.013177269976,7,47,-1.0997490882873535,3.5514626502990723,41.43597311409557,41.13839066000693,166.409422739701,148.87073193201746,-0.0001295089750783,0.0970755815505981,0,0,0
13769,506018.614463216,2010-12-19 09:11:01,2041.02821632524,7,47,-1.0997490882873535,3.548063039779663,41.43597311409557,41.14755956525224,166.409422739701,148.90327977043313,-6.47544875391759e-05,0.0970755815505981,0,0,0
13770,506048.6296193727,2010-12-19 09:11:31,2071.0433725420567,7,47,-1.099568486213684,3.544825315475464,41.43597311409557,41.15672844519906,166.409422739701,148.93579592647606,-3.237724376958795e-05,0.0970755815505981,0,0,0
13771,506078.6447045728,2010-12-19 09:12:02,2101.0584576669635,7,47,-1.099568486213684,3.5411019325256348,41.43597311409557,41.165897291219125,166.409422739701,148.96827991145489,-9.713172767078504e-05,0.0970755815505981,0,0,0
13772,506108.6599934748,2010-12-19 09:12:32,2131.0737466391365,7,47,-1.0997490882873535,3.5373785495758057,41.43597311409557,41.17506620460535,166.409422739701,149.0007314776668,-9.713172767078504e-05,0.0970755815505981,0,0,0
13773,506138.675050565,2010-12-19 09:13:02,2161.0888036741426,7,47,-1.0997490882873535,3.533655166625977,41.43597311409557,41.18423508241207,166.409422739701,149.0331493046345,-0.0001295089750783,0.0970755815505981,0,0,0
13774,506168.6901134094,2010-12-19 09:13:32,2191.103866583768,7,47,-1.099568486213684,3.5300936698913574,41.43597311409557,41.19340392715076,166.409422739701,149.06553273932306,-6.47544875391759e-05,0.0970755815505981,0,0,0
13775,506198.7070324479,2010-12-19 09:14:02,2221.120785637336,7,47,-1.099929690361023,3.5258846282958984,41.43597311409557,41.20257398353584,166.409422739701,149.09788483734474,-0.0001618862152099,0.0970755815505981,0,0,0
13776,506228.7203791318,2010-12-19 09:14:32,2251.1341322409994,7,47,-1.099568486213684,3.52199935913086,41.43597311409557,41.211743040205626,166.409422739701,149.13019679345874,-9.713172767078504e-05,0.0970755815505981,0,0,0
13777,506258.7354406078,2010-12-19 09:15:02,2281.149193717057,7,47,-1.0997490882873535,3.5177903175354004,41.43597311409557,41.220912001685065,166.409422739701,149.16247096556506,-0.0001295089750783,0.0970755815505981,0,0,0
13778,506288.750599376,2010-12-19 09:15:32,2311.164352470186,7,47,-1.0997490882873535,3.5135812759399414,41.43597311409557,41.23008091241088,166.409422739701,149.19470574546818,-9.713172767078504e-05,0.0970755815505981,0,0,0
13779,506318.7657020496,2010-12-19 09:16:02,2341.179455163812,7,47,-1.0997490882873535,3.508886814117432,41.43597311409557,41.23924972732924,166.409422739701,149.2268993918538,-0.0001295089750783,0.0970755815505981,0,0,0
13780,506348.780902692,2010-12-19 09:16:32,2371.1946558713416,7,47,-1.0997490882873535,3.5041921138763428,41.43597311409557,41.24841860925935,166.409422739701,149.25905030519078,-9.713172767078504e-05,0.0970755815505981,0,0,0
13781,506378.79590048455,2010-12-19 09:17:02,2401.209653578713,7,47,-1.099568486213684,3.499173641204834,41.43597311409557,41.25758746224607,166.409422739701,149.2911557280444,-9.713172767078504e-05,0.0970755815505981,0,0,0
13782,506408.8111158036,2010-12-19 09:17:32,2431.224868987827,7,47,-1.0997490882873535,3.493183851242065,41.43597311409557,41.26675638089943,166.409422739701,149.32321246505762,-0.0002266406954731,0.0970755815505981,0,0,0
13783,506438.8261582672,2010-12-19 09:18:02,2461.239911366362,7,47,-1.0997490882873535,3.487355947494507,41.43597311409557,41.27592523459811,166.409422739701,149.35521592726164,-0.0001618862152099,0.0970755815505981,0,0,0
13784,506468.8413310753,2010-12-19 09:18:32,2491.255084239627,7,47,-1.099568486213684,3.4805567264556885,41.43597311409557,41.28509414478235,166.409422739701,149.38716066522198,-0.0001618862152099,0.0970755815505981,0,0,0
13785,506498.8564185511,2010-12-19 09:19:02,2521.270171650222,7,47,-1.0997490882873535,3.4727861881256104,41.43597311409557,41.29426298407381,166.409422739701,149.4190382792623,-0.0001942634553415,0.0970755815505981,0,0,0
13786,506528.8715840259,2010-12-19 09:19:32,2551.285337120064,7,47,-1.099929690361023,3.4637205600738525,41.43597311409557,41.3034318183044,166.409422739701,149.45083994338685,-0.0002590179501567,0.0970755815505981,0,0,0
13787,506558.8866491561,2010-12-19 09:20:02,2581.3004022652526,7,47,-1.0997490882873535,3.453359842300415,41.43597311409557,41.312600686824894,166.409422739701,149.4825531663707,-0.0002590179501567,0.0970755815505981,0,0,0
13788,506588.9018400191,2010-12-19 09:20:32,2611.3155931834226,7,47,-1.099568486213684,3.441056489944458,41.43597311409557,41.32176962656756,166.409422739701,149.51416147438758,-0.0002913951757363,0.0970755815505981,0,0,0
13789,506618.9168731145,2010-12-19 09:21:02,2641.3306262237184,7,47,-1.0997490882873535,3.425353765487671,41.43597311409557,41.33093847517464,166.409422739701,149.5456420734645,-0.0004856586456298,0.0970755815505981,0,0,0
13790,506648.9330010895,2010-12-19 09:21:32,2671.3467542739045,7,47,-1.099929690361023,3.406089305877685,41.43597311409557,41.34010767556576,166.409422739701,149.57696591422638,-0.0005827903514727,0.0970755815505981,0,0,0
13791,506678.93450968975,2010-12-19 09:22:02,2701.3482628891898,7,47,-1.0997490882873535,3.381158828735352,41.43597311409557,41.34927239692844,166.409422739701,149.60807317118835,-0.0007446765666827,0.0970755815505981,0,0,0
13792,506708.94671393576,2010-12-19 09:22:32,2731.3604671351404,7,47,-1.099568486213684,3.3479723930358887,41.43597311409557,41.35844042834314,166.409422739701,149.6389276119755,-0.0010360240703448,0.0970755815505981,0,0,0
13793,506738.9618908441,2010-12-19 09:23:02,2761.37564400836,7,47,-1.099568486213684,3.3034536838531494,41.43597311409557,41.36760934464528,166.409422739701,149.66943137609763,-0.0013274669181555,0.0970755815505981,0,0,0
13794,506768.9769490971,2010-12-19 09:23:32,2791.390702296484,7,47,-1.099568486213684,3.2422609329223637,41.43597311409557,41.37677823225185,166.409422739701,149.69945410235266,-0.0018455028766766,0.0970755815505981,0,0,0
13795,506798.9920082223,2010-12-19 09:24:02,2821.40576131643,7,47,-1.0997490882873535,3.156623363494873,41.43597311409557,41.38594715231565,166.409422739701,149.728812996567,-0.0026225566398352,0.0970755815505981,0,0,0
13796,506829.009173674,2010-12-19 09:24:32,2851.4229268583745,7,47,-1.099929690361023,3.0300285816192627,41.43597311409557,41.39511669033845,166.409422739701,149.75722048630303,-0.0041119097732007,0.0970755815505981,0,0,0
13797,506857.006770953,2010-12-19 09:25:00,2879.420524047148,7,47,-1.0997490882873535,2.8299379348754883,41.43597311409557,41.40366918691898,166.409422739701,149.7823564427778,-0.00702586164698,0.0970755815505981,0,0,0
13798,506870.89715573634,2010-12-19 09:25:14,2893.310908845473,7,47,-1.099568486213684,2.699781894683838,41.43597311409557,41.40791234608726,166.409422739701,149.79409016525275,-0.0075762271881103,0.0970755815505981,0,0,0
13799,506930.924605976,2010-12-19 09:26:14,60.01461071049882,8,47,0.0,3.409165143966675,41.43597311409557,41.40791242015341,166.409422739701,149.7940903652152,0.0013922214275225,0.0970755815505981,0,0,0
13800,506931.1258806007,2010-12-19 09:26:14,0.1874275211777,9,47,-1.9243103452026844e-05,3.4093270301818848,41.43597311409557,41.40791242115527,166.409422739701,149.79409036863086,0.0,0.0946486890316009,0,0,0
13801,506935.9539250134,2010-12-19 09:26:19,5.015471934005005,9,47,0.0007031940040178,3.4177451133728027,41.43597406741266,41.40791242123908,166.40942599461218,149.7940903689166,0.0011655807029455,0.0946486890316009,0,0,0
