Data_Point,Test_Time(s),Date_Time,Step_Time(s),Step_Index,Cycle_Index,Current(A),Voltage(V),Charge_Capacity(Ah),Discharge_Capacity(Ah),Charge_Energy(Wh),Discharge_Energy(Wh),dV/dt(V/s),Internal_Resistance(Ohm),Is_FC_Data,AC_Impedance(Ohm),ACI_Phase_Angle(Deg)
592,22186.92269579426,2010-12-13 18:46:12,30.01479147918088,1,3,0.0,3.481689929962158,1.796503509150384,1.786116358155228,7.234837828643505,6.4432816032175,0.0007770538213662,0.0949056595563888,0,0,0
593,22216.93765876519,2010-12-13 18:46:42,60.02975439497519,1,3,0.0,3.5059728622436523,1.796503509150384,1.786116358155228,7.234837828643505,6.4432816032175,0.0005180359003134,0.0949056595563888,0,0,0
594,22246.952780295687,2010-12-13 18:47:12,90.04487592547609,1,3,0.0,3.523941993713379,1.796503509150384,1.786116358155228,7.234837828643505,6.4432816032175,0.0003885269106831,0.0949056595563888,0,0,0
595,22276.92078472209,2010-12-13 18:47:42,120.01288035187564,1,3,0.0,3.5385117530822754,1.796503509150384,1.786116358155228,7.234837828643505,6.4432816032175,0.0003561496851034,0.0949056595563888,0,0,0
596,22306.935788968556,2010-12-13 18:48:13,30.01515207651348,2,3,0.5501165986061096,3.684694528579712,1.801090635758107,1.786116358155228,7.251611289378876,6.4432816032175,0.0012303352123126,0.0949056595563888,0,0,0
597,22336.950633735338,2010-12-13 18:48:43,60.02999677312389,2,3,0.550297200679779,3.720795154571533,1.805677585887922,1.786116358155228,7.268600785009189,6.4432816032175,0.0008418083307333,0.0949056595563888,0,0,0
598,22366.965641968905,2010-12-13 18:49:13,90.04500499165229,2,3,0.5499359965324402,3.745725631713867,1.810264621627298,1.786116358155228,7.285727961884248,6.4432816032175,0.0005827903514727,0.0949056595563888,0,0,0
599,22396.980683570506,2010-12-13 18:49:43,120.06004669851517,2,3,0.5501165986061096,3.764504194259644,1.814851619765482,1.786116358155228,7.302955287098821,6.4432816032175,0.0004209041653666,0.0949056595563888,0,0,0
600,22426.99563388995,2010-12-13 18:50:13,150.07499693275187,2,3,0.5501165986061096,3.77810263633728,1.819438640541448,1.786116358155228,7.320256545188247,6.4432816032175,0.0003237724304199,0.0949056595563888,0,0,0
601,22457.010627832955,2010-12-13 18:50:43,180.08999087074372,2,3,0.5501165986061096,3.786844491958618,1.824025642911491,1.786116358155228,7.337608126076081,6.4432816032175,0.0001618862152099,0.0949056595563888,0,0,0
602,22487.025646783197,2010-12-13 18:51:13,210.1050098209776,2,3,0.550297200679779,3.7934818267822266,1.828612685409081,1.786116358155228,7.354994177208323,6.4432816032175,0.0001618862152099,0.0949056595563888,0,0,0
603,22517.040673392483,2010-12-13 18:51:43,240.1200364152333,2,3,0.5501165986061096,3.798662185668945,1.833199656892255,1.786116358155228,7.372406574697743,6.4432816032175,0.0001618862152099,0.0949056595563888,0,0,0
604,22547.05576731929,2010-12-13 18:52:13,270.1351303620934,2,3,0.5499359965324402,3.803518772125244,1.837786678615857,1.786116358155228,7.389842912739953,6.4432816032175,9.713172767078504e-05,0.0949056595563888,0,0,0
605,22577.07069866152,2010-12-13 18:52:43,300.15006178953007,2,3,0.5501165986061096,3.808375358581543,1.842373679574819,1.786116358155228,7.407301464785049,6.4432816032175,9.713172767078504e-05,0.0949056595563888,0,0,0
606,22607.085656414463,2010-12-13 18:53:13,330.1650194472399,2,3,0.5501165986061096,3.813070058822632,1.846960713922445,1.786116358155228,7.424781470799784,6.4432816032175,9.713172767078504e-05,0.0949056595563888,0,0,0
607,22637.1006239267,2010-12-13 18:53:43,360.17998696448467,2,3,0.5501165986061096,3.817440986633301,1.851547641098037,1.786116358155228,7.442281955879714,6.4432816032175,0.0001295089750783,0.0949056595563888,0,0,0
608,22667.115632014906,2010-12-13 18:54:13,390.1949950526888,2,3,0.5501165986061096,3.8218119144439697,1.856134621838954,1.786116358155228,7.459802604632824,6.4432816032175,0.0001295089750783,0.0949056595563888,0,0,0
609,22697.13063255933,2010-12-13 18:54:43,420.20999559712055,2,3,0.5501165986061096,3.8258590698242183,1.860721588006127,1.786116358155228,7.477342612006141,6.4432816032175,9.713172767078504e-05,0.0949056595563888,0,0,0
610,22727.145613525045,2010-12-13 18:55:13,450.2249765628314,2,3,0.550297200679779,3.829906225204468,1.86530863495318,1.786116358155228,7.494901879350328,6.4432816032175,6.47544875391759e-05,0.0949056595563888,0,0,0
611,22757.160816523272,2010-12-13 18:55:43,480.2401795610615,2,3,0.5501165986061096,3.8339531421661377,1.869895673007304,1.786116358155228,7.512479620868469,6.4432816032175,9.713172767078504e-05,0.0949056595563888,0,0,0
612,22787.17581379957,2010-12-13 18:56:13,510.2551769275852,2,3,0.550297200679779,3.8380002975463863,1.874482589276701,1.786116358155228,7.530075147242016,6.4432816032175,9.713172767078504e-05,0.0949056595563888,0,0,0
613,22817.190643353504,2010-12-13 18:56:43,540.270006391289,2,3,0.5501165986061096,3.841885566711426,1.879069505531034,1.786116358155228,7.547688630066329,6.4432816032175,9.713172767078504e-05,0.0949056595563888,0,0,0
614,22847.205631577275,2010-12-13 18:57:13,570.284994600024,2,3,0.5501165986061096,3.845770835876465,1.883656554612275,1.786116358155228,7.565320515653446,6.4432816032175,9.713172767078504e-05,0.0949056595563888,0,0,0
615,22877.22062024716,2010-12-13 18:57:43,600.2999832899561,2,3,0.5497553944587708,3.849332332611084,1.88824353722585,1.786116358155228,7.582969914650234,6.4432816032175,3.237724376958795e-05,0.0949056595563888,0,0,0
616,22907.235754594552,2010-12-13 18:58:13,630.3151176323389,2,3,0.5501165986061096,3.853379487991333,1.892830589199628,1.786116358155228,7.600637295681833,6.4432816032175,9.713172767078504e-05,0.0949056595563888,0,0,0
617,22937.250742402288,2010-12-13 18:58:43,660.3301054250385,2,3,0.5501165986061096,3.857264757156372,1.89741756468979,1.786116358155228,7.618321903188152,6.4432816032175,6.47544875391759e-05,0.0949056595563888,0,0,0
618,22967.265646611995,2010-12-13 18:59:13,690.3450096497824,2,3,0.5501165986061096,3.861150026321411,1.902004552425612,1.786116358155228,7.636024202359931,6.4432816032175,0.0001295089750783,0.0949056595563888,0,0,0
619,22997.28060783357,2010-12-13 18:59:43,720.3599708713606,2,3,0.5499359965324402,3.86487340927124,1.906591560282797,1.786116358155228,7.653744139202502,6.4432816032175,9.713172767078504e-05,0.0949056595563888,0,0,0
620,23027.29577278212,2010-12-13 19:00:13,750.3751358048684,2,3,0.5504778623580933,3.868920564651489,1.911178545316068,1.786116358155228,7.671481324150806,6.4432816032175,0.0001295089750783,0.0949056595563888,0,0,0
621,23057.310608240743,2010-12-13 19:00:43,780.3899712785277,2,3,0.550297200679779,3.872482061386109,1.915765570699738,1.786116358155228,7.689235773450251,6.4432816032175,9.713172767078504e-05,0.0949056595563888,0,0,0
622,23087.325626875187,2010-12-13 19:01:13,810.4049898979382,2,3,0.5501165986061096,3.876043558120728,1.92035255201652,1.786116358155228,7.707006921820859,6.4432816032175,6.47544875391759e-05,0.0949056595563888,0,0,0
623,23117.340726100185,2010-12-13 19:01:43,840.4200891279454,2,3,0.550297200679779,3.8797669410705566,1.924939523089072,1.786116358155228,7.724794510988309,6.4432816032175,0.0001295089750783,0.0949056595563888,0,0,0
624,23147.355615482997,2010-12-13 19:02:13,870.434978515768,2,3,0.5504778623580933,3.883166551589966,1.929526544307056,1.786116358155228,7.742598379174284,6.4432816032175,0.0001295089750783,0.0949056595563888,0,0,0
625,23177.37084441576,2010-12-13 19:02:43,900.4502075086849,2,3,0.5501165986061096,3.886404275894165,1.934113629612101,1.786116358155228,7.760418021814799,6.4432816032175,9.713172767078504e-05,0.0949056595563888,0,0,0
626,23207.38559888785,2010-12-13 19:03:13,930.464961915613,2,3,0.5501165986061096,3.8894801139831534,1.938700672957499,1.786116358155228,7.778252412444235,6.4432816032175,6.47544875391759e-05,0.0949056595563888,0,0,0
627,23237.4006195724,2010-12-13 19:03:43,960.4799827004122,2,3,0.5501165986061096,3.892555952072144,1.943287751851777,1.786116358155228,7.796101182475421,6.4432816032175,6.47544875391759e-05,0.0949056595563888,0,0,0
628,23267.4157322208,2010-12-13 19:04:13,990.4950952635984,2,3,0.550297200679779,3.895308017730713,1.947874826822702,1.786116358155228,7.813963499827056,6.4432816032175,6.47544875391759e-05,0.0949056595563888,0,0,0
629,23297.43084557596,2010-12-13 19:04:43,1020.5102086688798,2,3,0.5501165986061096,3.898383855819702,1.95246188429267,1.786116358155228,7.831838472336702,6.4432816032175,9.713172767078504e-05,0.0949056595563888,0,0,0
630,23327.44561214816,2010-12-13 19:05:13,1050.524975266143,2,3,0.5501165986061096,3.9006502628326416,1.957048883300935,1.786116358155228,7.849725572351342,6.4432816032175,3.237724376958795e-05,0.0949056595563888,0,0,0
631,23357.46056695878,2010-12-13 19:05:43,1080.5399299965684,2,3,0.5501165986061096,3.903240442276001,1.961635799509189,1.786116358155228,7.867624032493945,6.4432816032175,6.47544875391759e-05,0.0949056595563888,0,0,0
632,23387.475579412847,2010-12-13 19:06:13,1110.554942455649,2,3,0.5499359965324402,3.905506849288941,1.966222807180577,1.786116358155228,7.885533966478488,6.4432816032175,6.47544875391759e-05,0.0949056595563888,0,0,0
633,23417.49057384708,2010-12-13 19:06:43,1140.569936889876,2,3,0.5504778623580933,3.9080970287323,1.970809757119602,1.786116358155228,7.903454178300254,6.4432816032175,0.0001295089750783,0.0949056595563888,0,0,0
634,23447.50564676661,2010-12-13 19:07:13,1170.58500988961,2,3,0.550297200679779,3.9100396633148193,1.975396759248617,1.786116358155228,7.92138463739817,6.4432816032175,3.237724376958795e-05,0.0949056595563888,0,0,0
635,23477.52053788875,2010-12-13 19:07:43,1200.5999009265363,2,3,0.550297200679779,3.911982297897339,1.979983745744446,1.786116358155228,7.939324533678418,6.4432816032175,3.237724376958795e-05,0.0949056595563888,0,0,0
636,23507.535548994463,2010-12-13 19:08:13,1230.614912032249,2,3,0.5501165986061096,3.9139246940612793,1.98457082870131,1.786116358155228,7.957273874379756,6.4432816032175,3.237724376958795e-05,0.0949056595563888,0,0,0
637,23537.55054076205,2010-12-13 19:08:43,1260.629903794828,2,3,0.5501165986061096,3.915705442428589,1.989157956089953,1.786116358155228,7.975232096413779,6.4432816032175,3.237724376958795e-05,0.0949056595563888,0,0,0
638,23567.56553387299,2010-12-13 19:09:13,1290.6448969107742,2,3,0.5501165986061096,3.917648077011109,1.993745035776616,1.786116358155228,7.993198630406248,6.4432816032175,3.237724376958795e-05,0.0949056595563888,0,0,0
639,23597.580538447448,2010-12-13 19:09:43,1320.6599014701967,2,3,0.5501165986061096,3.919590711593628,1.998332058652878,1.786116358155228,8.01117331406742,6.4432816032175,9.713172767078504e-05,0.0949056595563888,0,0,0
640,23627.59555274109,2010-12-13 19:10:13,1350.6749157788804,2,3,0.5501165986061096,3.9213714599609375,2.00291917705009,1.786116358155228,8.029156612579309,6.4432816032175,6.47544875391759e-05,0.0949056595563888,0,0,0
641,23657.610559084955,2010-12-13 19:10:43,1380.6899221227438,2,3,0.550297200679779,3.922990322113037,2.007506245825506,1.786116358155228,8.047147780376669,6.4432816032175,6.47544875391759e-05,0.0949056595563888,0,0,0
642,23687.625547073145,2010-12-13 19:11:13,1410.7049100958925,2,3,0.5501165986061096,3.9246091842651367,2.012093301783729,1.786116358155228,8.065146776895993,6.4432816032175,3.237724376958795e-05,0.0949056595563888,0,0,0
643,23717.640751249302,2010-12-13 19:11:43,1440.7201142870915,2,3,0.5504778623580933,3.926551818847656,2.01668042424174,1.786116358155228,8.083153945754558,6.4432816032175,9.713172767078504e-05,0.0949056595563888,0,0,0
644,23747.65567847127,2010-12-13 19:12:13,1470.7350414940256,2,3,0.550297200679779,3.928170680999756,2.021267450275671,1.786116358155228,8.101168592138178,6.4432816032175,3.237724376958795e-05,0.0949056595563888,0,0,0
645,23777.670563287724,2010-12-13 19:12:43,1500.749926420747,2,3,0.5501165986061096,3.929789543151856,2.025854427057289,1.786116358155228,8.11919080575047,6.4432816032175,3.237724376958795e-05,0.0949056595563888,0,0,0
646,23807.68567320432,2010-12-13 19:13:13,1530.7650362270729,2,3,0.5501165986061096,3.931570291519165,2.030441431698574,1.786116358155228,8.137220886748986,6.4432816032175,6.47544875391759e-05,0.0949056595563888,0,0,0
647,23837.70052607627,2010-12-13 19:13:43,1560.7798892093017,2,3,0.5501165986061096,3.9331891536712646,2.035028470511913,1.786116358155228,8.155258861298469,6.4432816032175,3.237724376958795e-05,0.0949056595563888,0,0,0
648,23867.71565383227,2010-12-13 19:14:13,1590.7950169251944,2,3,0.5499359965324402,3.9346461296081534,2.039615502201661,1.786116358155228,8.173304485861305,6.4432816032175,-3.237724376958795e-05,0.0949056595563888,0,0,0
649,23897.730519836907,2010-12-13 19:14:43,1620.809882959904,2,3,0.5501165986061096,3.936588764190674,2.044202574545627,1.786116358155228,8.19135801421905,6.4432816032175,6.47544875391759e-05,0.0949056595563888,0,0,0
650,23927.745504937902,2010-12-13 19:15:13,1650.824867980706,2,3,0.5501165986061096,3.938207626342773,2.048789543197534,1.786116358155228,8.209418870967635,6.4432816032175,3.237724376958795e-05,0.0949056595563888,0,0,0
651,23957.76051069531,2010-12-13 19:15:43,1680.8398737330974,2,3,0.5501165986061096,3.939826488494873,2.0533765676154,1.786116358155228,8.22748773558715,6.4432816032175,3.237724376958795e-05,0.0949056595563888,0,0,0
652,23987.775527966365,2010-12-13 19:16:13,1710.8548910041527,2,3,0.550297200679779,3.9417691230773926,2.057963626055951,1.786116358155228,8.245564550442117,6.4432816032175,6.47544875391759e-05,0.0949056595563888,0,0,0
653,24017.79051964373,2010-12-13 19:16:43,1740.869882691544,2,3,0.550297200679779,3.943549871444702,2.062550663058754,1.786116358155228,8.263649015604713,6.4432816032175,9.713172767078504e-05,0.0949056595563888,0,0,0
654,24047.805630663075,2010-12-13 19:17:13,1770.884993700863,2,3,0.550297200679779,3.9451687335968018,2.067137687754876,1.786116358155228,8.28174119515418,6.4432816032175,9.713172767078504e-05,0.0949056595563888,0,0,0
655,24077.82067824456,2010-12-13 19:17:43,1800.9000413525196,2,3,0.5501165986061096,3.946787595748901,2.071724644405656,1.786116358155228,8.299840890169857,6.4432816032175,3.237724376958795e-05,0.0949056595563888,0,0,0
656,24107.835514189388,2010-12-13 19:18:14,1830.9148772271767,2,3,0.550297200679779,3.948568344116211,2.076311575082982,1.786116358155228,8.317948167619646,6.4432816032175,6.47544875391759e-05,0.0949056595563888,0,0,0
657,24137.85063291792,2010-12-13 19:18:44,1860.9299959557047,2,3,0.5501165986061096,3.950187206268311,2.080898504669775,1.786116358155228,8.336063302319989,6.4432816032175,3.237724376958795e-05,0.0949056595563888,0,0,0
658,24167.86550176964,2010-12-13 19:19:14,1890.9448647973995,2,3,0.5501165986061096,3.95180606842041,2.085485443963551,1.786116358155228,8.3541862750097,6.4432816032175,3.237724376958795e-05,0.0949056595563888,0,0,0
659,24197.880503181223,2010-12-13 19:19:44,1920.9598662190144,2,3,0.5497553944587708,3.9534249305725098,2.090072514120731,1.786116358155228,8.372317536436968,6.4432816032175,0.0,0.0949056595563888,0,0,0
660,24227.895584391397,2010-12-13 19:20:14,1950.974947519404,2,3,0.550297200679779,3.9552056789398193,2.09465962348105,1.786116358155228,8.390456842726648,6.4432816032175,3.237724376958795e-05,0.0949056595563888,0,0,0
661,24257.910507332712,2010-12-13 19:20:44,1980.9898703704987,2,3,0.550297200679779,3.956986427307129,2.099246651239079,1.786116358155228,8.4086037191866,6.4432816032175,3.237724376958795e-05,0.0949056595563888,0,0,0
662,24287.92554812229,2010-12-13 19:21:14,2011.0049111550668,2,3,0.5501165986061096,3.9587671756744394,2.103833699435288,1.786116358155228,8.426758377355561,6.4432816032175,9.713172767078504e-05,0.0949056595563888,0,0,0
663,24317.94054430587,2010-12-13 19:21:44,2041.0199074138336,2,3,0.5501165986061096,3.960224151611328,2.108420756960527,1.786116358155228,8.444921031603739,6.4432816032175,0.0,0.0949056595563888,0,0,0
664,24347.955507637704,2010-12-13 19:22:14,2071.034870660452,2,3,0.5501165986061096,3.9620048999786377,2.113007775696421,1.786116358155228,8.463091471128767,6.4432816032175,3.237724376958795e-05,0.0949056595563888,0,0,0
665,24377.97050388644,2010-12-13 19:22:44,2101.04986692423,2,3,0.5501165986061096,3.9637856483459473,2.117594823804736,1.786116358155228,8.48126976626955,6.4432816032175,6.47544875391759e-05,0.0949056595563888,0,0,0
666,24407.98549730815,2010-12-13 19:23:14,2131.0648603309,2,3,0.550297200679779,3.965404510498047,2.122181859137157,1.786116358155228,8.499455972061021,6.4432816032175,0.0,0.0949056595563888,0,0,0
667,24438.00050181745,2010-12-13 19:23:44,2161.0798648401983,2,3,0.5501165986061096,3.9673471450805664,2.126768943268778,1.786116358155228,8.517650380275846,6.4432816032175,9.713172767078504e-05,0.0949056595563888,0,0,0
668,24468.015697532555,2010-12-13 19:24:14,2191.09506062548,2,3,0.5501165986061096,3.969127893447876,2.131356083081825,1.786116358155228,8.53585289420637,6.4432816032175,6.47544875391759e-05,0.0949056595563888,0,0,0
669,24498.030507793475,2010-12-13 19:24:44,2221.1098708412856,2,3,0.550297200679779,3.9709086418151855,2.135943142416324,1.786116358155228,8.554063162216686,6.4432816032175,6.47544875391759e-05,0.0949056595563888,0,0,0
670,24528.04561546949,2010-12-13 19:25:14,2251.124978507285,2,3,0.5501165986061096,3.972365617752075,2.140530281971571,1.786116358155228,8.57228182174342,6.4432816032175,3.237724376958795e-05,0.0949056595563888,0,0,0
671,24558.06049054671,2010-12-13 19:25:44,2281.139853584497,2,3,0.5501165986061096,3.9743082523345943,2.145117320788992,1.786116358155228,8.590508068772007,6.4432816032175,6.47544875391759e-05,0.0949056595563888,0,0,0
672,24588.075497331676,2010-12-13 19:26:14,2311.1548603694578,2,3,0.5499359965324402,3.9759271144866943,2.149704447888304,1.786116358155228,8.608742783738856,6.4432816032175,3.237724376958795e-05,0.0949056595563888,0,0,0
673,24618.090495394925,2010-12-13 19:26:44,2341.1698584327155,2,3,0.5501165986061096,3.977707862854004,2.154291572848767,1.786116358155228,8.626985608293566,6.4432816032175,0.0,0.0949056595563888,0,0,0
674,24648.10548873644,2010-12-13 19:27:14,2371.184851774223,2,3,0.550297200679779,3.979650497436523,2.158878639546958,1.786116358155228,8.645235868588077,6.4432816032175,6.47544875391759e-05,0.0949056595563888,0,0,0
675,24678.12069117327,2010-12-13 19:27:44,2401.200054191006,2,3,0.5499359965324402,3.981269359588623,2.163465647960281,1.786116358155228,8.663494548576393,6.4432816032175,3.237724376958795e-05,0.0949056595563888,0,0,0
676,24708.135712860312,2010-12-13 19:28:14,2431.215075973287,2,3,0.5501165986061096,3.983211994171143,2.168052674481874,1.786116358155228,8.681761536277472,6.4432816032175,3.237724376958795e-05,0.0949056595563888,0,0,0
677,24738.15050521668,2010-12-13 19:28:44,2461.229868324639,2,3,0.5499359965324402,3.984830856323242,2.172639610271868,1.786116358155228,8.700036470380395,6.4432816032175,0.0,0.0949056595563888,0,0,0
678,24768.165512678323,2010-12-13 19:29:14,2491.2448757211214,2,3,0.5501165986061096,3.9867734909057617,2.177226564293183,1.786116358155228,8.71831979542961,6.4432816032175,0.0,0.0949056595563888,0,0,0
679,24798.180620379408,2010-12-13 19:29:44,2521.2599834723333,2,3,0.5501165986061096,3.988716125488281,2.181813568240825,1.786116358155228,8.736611697458091,6.4432816032175,9.713172767078504e-05,0.0949056595563888,0,0,0
680,24828.195669569897,2010-12-13 19:30:14,2551.2750326778564,2,3,0.550297200679779,3.990658760070801,2.186400577601251,1.786116358155228,8.75491218026584,6.4432816032175,6.47544875391759e-05,0.0949056595563888,0,0,0
681,24858.210490216657,2010-12-13 19:30:44,2581.289853254445,2,3,0.5501165986061096,3.99260139465332,2.190987511367119,1.786116358155228,8.773220820273893,6.4432816032175,9.713172767078504e-05,0.0949056595563888,0,0,0
682,24888.22550133741,2010-12-13 19:31:14,2611.304864380208,2,3,0.5501165986061096,3.994220018386841,2.195574538632352,1.786116358155228,8.791538503056941,6.4432816032175,3.237724376958795e-05,0.0949056595563888,0,0,0
683,24918.24050188184,2010-12-13 19:31:44,2641.319864929652,2,3,0.5501165986061096,3.99616265296936,2.200161484822718,1.786116358155228,8.809864570792836,6.4432816032175,6.47544875391759e-05,0.0949056595563888,0,0,0
684,24948.255514972498,2010-12-13 19:32:14,2671.33487801028,2,3,0.5501165986061096,3.99826717376709,2.204748441215874,1.786116358155228,8.828199519957293,6.4432816032175,6.47544875391759e-05,0.0949056595563888,0,0,0
685,24978.27049002349,2010-12-13 19:32:44,2701.3498530462343,2,3,0.5501165986061096,4.0000481605529785,2.209335369157301,1.786116358155228,8.846543132868302,6.4432816032175,6.480216688942164e-05,0.0949056595563888,0,0,0
686,25008.285635633907,2010-12-13 19:33:14,2731.3649986666824,2,3,0.5504778623580933,4.002314567565918,2.213922342871899,1.786116358155228,8.864896019369771,6.4432816032175,9.71794142969884e-05,0.0949056595563888,0,0,0
687,25038.30048997452,2010-12-13 19:33:44,2761.3798529972664,2,3,0.5497553944587708,4.003933429718018,2.218509283721154,1.786116358155228,8.88325789305186,6.4432816032175,3.24249267578125e-05,0.0949056595563888,0,0,0
688,25068.315491987603,2010-12-13 19:34:14,2791.3948550253904,2,3,0.550297200679779,4.006199836730957,2.22309623362356,1.786116358155228,8.901629022931408,6.4432816032175,6.47544875391759e-05,0.0949056595563888,0,0,0
689,25098.330611167257,2010-12-13 19:34:44,2821.409974190004,2,3,0.550297200679779,4.008142471313477,2.227683179811137,1.786116358155228,8.920009414548737,6.4432816032175,9.71794142969884e-05,0.0949056595563888,0,0,0
690,25128.345494550136,2010-12-13 19:35:14,2851.4248575879205,2,3,0.550297200679779,4.010246753692627,2.232270103636334,1.786116358155228,8.93839906327962,6.4432816032175,6.47544875391759e-05,0.0949056595563888,0,0,0
691,25158.36047220761,2010-12-13 19:35:44,2881.439835250412,2,3,0.5499359965324402,4.0121893882751465,2.236857022633525,1.786116358155228,8.956798247316963,6.4432816032175,6.47544875391759e-05,0.0949056595563888,0,0,0
692,25188.375730959586,2010-12-13 19:36:14,2911.4550941026323,2,3,0.550297200679779,4.014455795288086,2.241443963447976,1.786116358155228,8.975207193000221,6.4432816032175,6.47544875391759e-05,0.0949056595563888,0,0,0
693,25218.39069511346,2010-12-13 19:36:44,2941.4700582264327,2,3,0.5501165986061096,4.0165605545043945,2.246030892156249,1.786116358155228,8.993625859554895,6.4432816032175,3.24249267578125e-05,0.0949056595563888,0,0,0
694,25248.40559408513,2010-12-13 19:37:14,2971.4849571229174,2,3,0.5501165986061096,4.018664836883545,2.250617872018704,1.786116358155228,9.0120546130599,6.4432816032175,0.0,0.0949056595563888,0,0,0
695,25278.42037155946,2010-12-13 19:37:44,3001.499734602261,2,3,0.5499359965324402,4.0207695960998535,2.255204717240087,1.786116358155228,9.030492636391164,6.4432816032175,6.47544875391759e-05,0.0949056595563888,0,0,0
696,25308.43543789762,2010-12-13 19:38:14,3031.514800940417,2,3,0.5501165986061096,4.023197650909424,2.259790925042643,1.786116358155228,9.048938137907976,6.4432816032175,9.70840483205393e-05,0.0949056595563888,0,0,0
697,25338.450364848915,2010-12-13 19:38:44,3061.529727886703,2,3,0.5499359965324402,4.025140285491943,2.264377196849449,1.786116358155228,9.067394161589007,6.4432816032175,3.23295607813634e-05,0.0949056595563888,0,0,0
698,25368.46543953284,2010-12-13 19:39:14,3091.544802570628,2,3,0.5499359965324402,4.027568817138672,2.268963536385971,1.786116358155228,9.085860780872192,6.4432816032175,6.47544875391759e-05,0.0949056595563888,0,0,0
699,25398.480439550964,2010-12-13 19:39:44,3121.55980258875,2,3,0.5501165986061096,4.029673099517822,2.273549789515571,1.786116358155228,9.104337458194015,6.4432816032175,3.23295607813634e-05,0.0949056595563888,0,0,0
700,25428.49557410387,2010-12-13 19:40:14,3151.5749371416564,2,3,0.5501165986061096,4.032101631164551,2.278135979105952,1.786116358155228,9.122824356390774,6.4432816032175,3.24249267578125e-05,0.0949056595563888,0,0,0
701,25458.51043792808,2010-12-13 19:40:44,3181.589800965865,2,3,0.5499359965324402,4.034529685974121,2.282722154753805,1.786116358155228,9.141321903299678,6.4432816032175,9.70840483205393e-05,0.0949056595563888,0,0,0
702,25488.525442276976,2010-12-13 19:41:14,3211.604805299726,2,3,0.550297200679779,4.036957740783691,2.287308998281887,1.786116358155228,9.159833062171526,6.4432816032175,6.47544875391759e-05,0.0949056595563888,0,0,0
703,25518.54045305688,2010-12-13 19:41:44,3241.6198160946665,2,3,0.5501165986061096,4.039224147796631,2.291896120910225,1.786116358155228,9.178356290539496,6.4432816032175,3.23295607813634e-05,0.0949056595563888,0,0,0
704,25548.55545536069,2010-12-13 19:42:14,3271.634818408502,2,3,0.550297200679779,4.04181432723999,2.296483088733226,1.786116358155228,9.196889729768332,6.4432816032175,9.70840483205393e-05,0.0949056595563888,0,0,0
705,25578.57043959453,2010-12-13 19:42:44,3301.64980263232,2,3,0.5499359965324402,4.04408073425293,2.301070127772428,1.786116358155228,9.215434643968406,6.4432816032175,6.47544875391759e-05,0.0949056595563888,0,0,0
706,25608.585435858316,2010-12-13 19:43:14,3331.664798896099,2,3,0.550297200679779,4.046670913696289,2.30565718302656,1.786116358155228,9.233990911924987,6.4432816032175,6.47544875391759e-05,0.0949056595563888,0,0,0
707,25638.600666906343,2010-12-13 19:43:44,3361.680030014305,2,3,0.550297200679779,4.049261093139648,2.310244188083748,1.786116358155228,9.252558339591213,6.4432816032175,9.70840483205393e-05,0.0949056595563888,0,0,0
708,25668.61545325275,2010-12-13 19:44:14,3391.6948162905383,2,3,0.5499359965324402,4.051527500152588,2.314831160921437,1.786116358155228,9.27113705015622,6.4432816032175,3.23295607813634e-05,0.0949056595563888,0,0,0
709,25698.63043023856,2010-12-13 19:44:44,3421.7097932763454,2,3,0.5499359965324402,4.054117679595947,2.319418149703669,1.786116358155228,9.289727402629026,6.4432816032175,6.47544875391759e-05,0.0949056595563888,0,0,0
710,25728.64542892336,2010-12-13 19:45:14,3451.724791961149,2,3,0.5501165986061096,4.056546211242676,2.324005220812416,1.786116358155228,9.308329842081411,6.4432816032175,6.47544875391759e-05,0.0949056595563888,0,0,0
711,25758.660473838205,2010-12-13 19:45:44,3481.739836875995,2,3,0.5501165986061096,4.059298038482666,2.328592263296503,1.786116358155228,9.326944005594006,6.4432816032175,6.47544875391759e-05,0.0949056595563888,0,0,0
712,25788.675469144604,2010-12-13 19:46:14,3511.7548321823924,2,3,0.550297200679779,4.061888217926025,2.333179385407644,1.786116358155228,9.345570206129509,6.4432816032175,9.70840483205393e-05,0.0949056595563888,0,0,0
713,25818.69044362417,2010-12-13 19:46:44,3541.769806666975,2,3,0.5501165986061096,4.064640522003174,2.337766433066663,1.786116358155228,9.364208144316011,6.4432816032175,9.71794142969884e-05,0.0949056595563888,0,0,0
714,25848.70541969269,2010-12-13 19:47:14,3571.784782730487,2,3,0.5501165986061096,4.067068576812744,2.342353406712506,1.786116358155228,9.382858008051462,6.4432816032175,6.47544875391759e-05,0.0949056595563888,0,0,0
715,25878.720552170445,2010-12-13 19:47:44,3601.79991520823,2,3,0.5501165986061096,4.069982528686523,2.346940402396199,1.786116358155228,9.401520365098174,6.4432816032175,6.47544875391759e-05,0.0949056595563888,0,0,0
716,25908.73543615482,2010-12-13 19:48:14,3631.814799192606,2,3,0.5501165986061096,4.072572708129883,2.35152740910156,1.786116358155228,9.420195163229456,6.4432816032175,6.47544875391759e-05,0.0949056595563888,0,0,0
717,25938.750418514,2010-12-13 19:48:44,3661.8297815567967,2,3,0.5501165986061096,4.075325012207031,2.356114435506729,1.786116358155228,9.438882657673457,6.4432816032175,6.47544875391759e-05,0.0949056595563888,0,0,0
718,25968.76544391027,2010-12-13 19:49:14,3691.844807018234,2,3,0.550297200679779,4.0780768394470215,2.360701483053634,1.786116358155228,9.457582984448443,6.4432816032175,6.47544875391759e-05,0.0949056595563888,0,0,0
719,25998.78041370819,2010-12-13 19:49:44,3721.859776745979,2,3,0.550297200679779,4.080990791320801,2.365288528612925,1.786116358155228,9.476296236723767,6.4432816032175,6.47544875391759e-05,0.0949056595563888,0,0,0
720,26028.79542350064,2010-12-13 19:50:15,3751.874786538424,2,3,0.5501165986061096,4.083743095397949,2.369875531893172,1.786116358155228,9.495022118194925,6.4432816032175,6.47544875391759e-05,0.0949056595563888,0,0,0
721,26058.81060542643,2010-12-13 19:50:45,3781.889968559454,2,3,0.5501165986061096,4.0866570472717285,2.37446254941705,1.786116358155228,9.513761119451203,6.4432816032175,6.47544875391759e-05,0.0949056595563888,0,0,0
722,26088.825420118377,2010-12-13 19:51:15,3811.9047831561616,2,3,0.5501165986061096,4.089570999145508,2.379049541915737,1.786116358155228,9.532513144769029,6.4432816032175,6.47544875391759e-05,0.0949056595563888,0,0,0
723,26118.84040932459,2010-12-13 19:51:45,3841.9197723623793,2,3,0.5501165986061096,4.092322826385498,2.383636570564842,1.786116358155228,9.551278532235742,6.4432816032175,9.70840483205393e-05,0.0949056595563888,0,0,0
724,26148.855435979,2010-12-13 19:52:15,3871.934799021796,2,3,0.550297200679779,4.095398902893066,2.388223637080189,1.786116358155228,9.570057420878014,6.4432816032175,9.71794142969884e-05,0.0949056595563888,0,0,0
725,26178.870419385785,2010-12-13 19:52:45,3901.9497824235696,2,3,0.5501165986061096,4.098312854766846,2.392810660841535,1.786116358155228,9.588849680798996,6.4432816032175,9.71794142969884e-05,0.0949056595563888,0,0,0
726,26208.885400607127,2010-12-13 19:53:15,3931.964763649929,2,3,0.5499359965324402,4.101226806640625,2.397397712556049,1.786116358155228,9.607655780079265,6.4432816032175,6.47544875391759e-05,0.0949056595563888,0,0,0
727,26238.90039910145,2010-12-13 19:53:45,3961.9797621392463,2,3,0.550297200679779,4.104302406311035,2.401984755032892,1.786116358155228,9.626475575890492,6.4432816032175,6.47544875391759e-05,0.0949056595563888,0,0,0
728,26268.91543235228,2010-12-13 19:54:15,3991.9947953900673,2,3,0.550297200679779,4.107378482818604,2.406571791494745,1.786116358155228,9.645309299249812,6.4432816032175,9.71794142969884e-05,0.0949056595563888,0,0,0
729,26298.93039666154,2010-12-13 19:54:45,4022.0097596993287,2,3,0.550297200679779,4.110454082489014,2.411158851901784,1.786116358155228,9.664157164872927,6.4432816032175,6.47544875391759e-05,0.0949056595563888,0,0,0
730,26328.94551737501,2010-12-13 19:55:15,4052.024880412797,2,3,0.5499359965324402,4.113530158996582,2.415745960933371,1.786116358155228,9.683019325185608,6.4432816032175,6.47544875391759e-05,0.0949056595563888,0,0,0
731,26358.96041481788,2010-12-13 19:55:45,4082.0397779258383,2,3,0.5501165986061096,4.116605758666992,2.420332928230552,1.786116358155228,9.701895082420002,6.4432816032175,9.71794142969884e-05,0.0949056595563888,0,0,0
732,26388.975437582605,2010-12-13 19:56:15,4112.05480062039,2,3,0.5501165986061096,4.119843482971191,2.424919957569192,1.786116358155228,9.720785522118346,6.4432816032175,9.71794142969884e-05,0.0949056595563888,0,0,0
733,26418.990390989737,2010-12-13 19:56:45,4142.069754027522,2,3,0.5501165986061096,4.122757434844971,2.429507011752111,1.786116358155228,9.73969051002024,6.4432816032175,3.24249267578125e-05,0.0949056595563888,0,0,0
734,26449.005513963828,2010-12-13 19:57:15,4172.084877006628,2,3,0.5501165986061096,4.126156806945801,2.434094092136292,1.786116358155228,9.758610132670952,6.4432816032175,9.70840483205393e-05,0.0949056595563888,0,0,0
735,26479.020385507243,2010-12-13 19:57:45,4202.0997485450325,2,3,0.5501165986061096,4.12939453125,2.438681124952881,1.786116358155228,9.777544391990295,6.4432816032175,9.70840483205393e-05,0.0949056595563888,0,0,0
736,26509.03539560044,2010-12-13 19:58:15,4232.114758643239,2,3,0.5501165986061096,4.132794380187988,2.443268238317881,1.786116358155228,9.796493934025708,6.4432816032175,0.0001295089750783,0.0949056595563888,0,0,0
737,26539.050386992098,2010-12-13 19:58:45,4262.129750029882,2,3,0.5501165986061096,4.135869979858398,2.447855331790175,1.786116358155228,9.815458204073996,6.4432816032175,6.47544875391759e-05,0.0949056595563888,0,0,0
738,26569.065389120467,2010-12-13 19:59:15,4292.144752158255,2,3,0.5501165986061096,4.139269828796387,2.452442420015374,1.786116358155228,9.834437612769316,6.4432816032175,9.71794142969884e-05,0.0949056595563888,0,0,0
739,26599.081334721635,2010-12-13 19:59:45,4322.160697849649,2,3,0.5501165986061096,4.142507553100586,2.457029680541916,1.786116358155228,9.853432995945528,6.4432816032175,9.71794142969884e-05,0.0949056595563888,0,0,0
740,26629.09557620217,2010-12-13 20:00:15,4352.174939325167,2,3,0.5499359965324402,4.145906925201416,2.461616622929419,1.786116358155228,9.872442625340572,6.4432816032175,6.47544875391759e-05,0.0949056595563888,0,0,0
741,26659.11039946043,2010-12-13 20:00:45,4382.189762478167,2,3,0.5499359965324402,4.149468421936035,2.466203648161701,1.786116358155228,9.891468431041524,6.4432816032175,9.70840483205393e-05,0.0949056595563888,0,0,0
742,26689.12550933192,2010-12-13 20:01:15,4412.204872354668,2,3,0.550297200679779,4.152706146240234,2.470790660591042,1.786116358155228,9.910509897544369,6.4432816032175,6.47544875391759e-05,0.0949056595563888,0,0,0
743,26719.14038546676,2010-12-13 20:01:45,4442.219748504547,2,3,0.550297200679779,4.156429767608643,2.475377679344687,1.786116358155228,9.929567233041324,6.4432816032175,9.71794142969884e-05,0.0949056595563888,0,0,0
744,26749.15553923749,2010-12-13 20:02:15,4472.234902365502,2,3,0.5501165986061096,4.159829139709473,2.47996476518095,1.786116358155228,9.948640813487884,6.4432816032175,6.47544875391759e-05,0.0949056595563888,0,0,0
745,26779.170334666505,2010-12-13 20:02:45,4502.249697704287,2,3,0.5501165986061096,4.163390636444092,2.484551791162028,1.786116358155228,9.96773022404299,6.4432816032175,0.0001295089750783,0.0949056595563888,0,0,0
746,26809.18538461888,2010-12-13 20:03:15,4532.264747646644,2,3,0.5499359965324402,4.166952133178711,2.489138802387324,1.786116358155228,9.986835679836371,6.4432816032175,9.70840483205393e-05,0.0949056595563888,0,0,0
747,26839.20034837677,2010-12-13 20:03:45,4562.279711424583,2,3,0.5501165986061096,4.17051362991333,2.493725747884988,1.786116358155228,10.005957187384375,6.4432816032175,6.47544875391759e-05,0.0949056595563888,0,0,0
748,26869.21552756074,2010-12-13 20:04:15,4592.294890603541,2,3,0.5501165986061096,4.174075126647949,2.49831272588941,1.786116358155228,10.025095265983788,6.4432816032175,9.70840483205393e-05,0.0949056595563888,0,0,0
749,26899.23035455831,2010-12-13 20:04:45,4622.309717596095,2,3,0.5501165986061096,4.177636623382568,2.502899685154692,1.786116358155228,10.044249721664892,6.4432816032175,6.47544875391759e-05,0.0949056595563888,0,0,0
750,26929.24539444063,2010-12-13 20:05:15,4652.324757548592,2,3,0.550297200679779,4.181198120117188,2.507486718163844,1.786116358155228,10.063421134512453,6.4432816032175,9.70840483205393e-05,0.0949056595563888,0,0,0
751,26959.26036150174,2010-12-13 20:05:45,4682.33972452449,2,3,0.550297200679779,4.185083389282227,2.512073840710238,1.786116358155228,10.082609732060927,6.4432816032175,0.0001295089750783,0.0949056595563888,0,0,0
752,26989.275365519818,2010-12-13 20:06:15,4712.354728557602,2,3,0.550297200679779,4.188644886016846,2.516660877436763,1.786116358155228,10.101814717872935,6.4432816032175,0.0001295089750783,0.0949056595563888,0,0,0
753,27019.2905001429,2010-12-13 20:06:45,4742.369863175672,2,3,0.5499359965324402,4.192368507385254,2.521247877686184,1.786116358155228,10.121036582531696,6.4432816032175,9.71794142969884e-05,0.0949056595563888,0,0,0
754,27049.30547839185,2010-12-13 20:07:15,4772.384841419609,2,3,0.550297200679779,4.196091651916504,2.525834972139426,1.786116358155228,10.140275948735113,6.4432816032175,0.0001619339018361,0.0949056595563888,0,0,0
755,27079.25785340004,2010-12-13 20:07:45,4802.337216513015,2,3,0.550297200679779,4.200138568878174,2.530412395846056,1.786116358155228,10.159491918916103,6.4432816032175,0.0001618385285837,0.0949056595563888,0,0,0
756,27109.273184522368,2010-12-13 20:08:15,30.014801333703485,3,3,0.0,4.103978633880615,2.530412395846056,1.786116358155228,10.159491918916103,6.4432816032175,-0.0004532813909463,0.0949056595563888,0,0,0
757,27139.288170330125,2010-12-13 20:08:45,60.02978705123904,3,3,0.0,4.091837406158447,2.530412395846056,1.786116358155228,10.159491918916103,6.4432816032175,-0.0002913475036621,0.0949056595563888,0,0,0
758,27169.303162939817,2010-12-13 20:09:15,90.04477966092546,3,3,0.0,4.08455228805542,2.530412395846056,1.786116358155228,10.159491918916103,6.4432816032175,-0.0001619339018361,0.0949056595563888,0,0,0
759,27199.27127765065,2010-12-13 20:09:45,120.0128944419382,3,3,0.0,4.07953405380249,2.530412395846056,1.786116358155228,10.159491918916103,6.4432816032175,-0.0001295089750783,0.0949056595563888,0,0,0
760,27199.272369044145,2010-12-13 20:09:45,2.636560981e-06,4,3,1.017714023590088,4.199976921081543,2.530412396591407,1.786116358155228,10.159491922046564,6.4432816032175,0.0,0.0949056595563888,0,0,0
761,27199.74110080009,2010-12-13 20:09:46,0.468734437619769,4,3,0.9669628143310548,4.199814796447754,2.530540166947049,1.786116358155228,10.16002854045686,6.4432816032175,-3.24249267578125e-05,0.0949056595563888,0,0,0
762,27201.506818936763,2010-12-13 20:09:47,2.234452559253219,4,3,0.916934072971344,4.199653148651123,2.531000967235153,1.786116358155228,10.161963842440972,6.4432816032175,-6.47544875391759e-05,0.0949056595563888,0,0,0
763,27204.35050161674,2010-12-13 20:09:50,5.078135319429504,4,3,0.8667246699333191,4.200138568878174,2.531704266863162,1.786116358155228,10.164917605780248,6.4432816032175,6.47544875391759e-05,0.0949056595563888,0,0,0
764,27208.319244781465,2010-12-13 20:09:54,9.046878484150945,4,3,0.816515326499939,4.199976921081543,2.532630877610721,1.786116358155228,10.168809276736972,6.4432816032175,0.0,0.0949056595563888,0,0,0
765,27213.6001786974,2010-12-13 20:10:00,14.327812334925756,4,3,0.7664865255355835,4.199976921081543,2.533790370878833,1.786116358155228,10.173679024166663,6.4432816032175,3.24249267578125e-05,0.0949056595563888,0,0,0
766,27220.38128588683,2010-12-13 20:10:06,21.10891952435484,4,3,0.7162771224975586,4.199814796447754,2.535185228712532,1.786116358155228,10.179537283662242,6.4432816032175,-3.24249267578125e-05,0.0949056595563888,0,0,0
767,27229.459239004005,2010-12-13 20:10:15,30.186872636522423,4,3,0.6662483811378479,4.199814796447754,2.536926393257403,1.786116358155228,10.186849989770062,6.4432816032175,0.0,0.0949056595563888,0,0,0
768,27241.974593111343,2010-12-13 20:10:28,42.70222674385876,4,3,0.6162195801734924,4.199976921081543,2.539151368574502,1.786116358155228,10.196194646856672,6.4432816032175,0.0,0.0949056595563888,0,0,0
769,27260.53684808892,2010-12-13 20:10:47,61.26448172645005,4,3,0.5661908388137817,4.200138568878174,2.54219075590358,1.786116358155228,10.208959772932388,6.4432816032175,3.23295607813634e-05,0.0949056595563888,0,0,0
770,27291.676677757365,2010-12-13 20:11:18,92.40431138988174,4,3,0.5159814357757568,4.199491024017334,2.546851161238683,1.786116358155228,10.228533003836343,6.4432816032175,-9.71794142969884e-05,0.0949056595563888,0,0,0
771,27351.73810392132,2010-12-13 20:12:18,152.4657375387985,4,3,0.4659526944160461,4.199976921081543,2.55499974113711,1.786116358155228,10.262756178739334,6.4432816032175,0.0,0.0949056595563888,0,0,0
772,27452.954604966228,2010-12-13 20:13:59,253.6822386939808,4,3,0.415923923254013,4.199814796447754,2.567361331378773,1.786116358155228,10.314673598357349,6.4432816032175,0.0,0.0949056595563888,0,0,0
773,27585.983035469057,2010-12-13 20:16:12,386.710669101572,4,3,0.36589515209198,4.199814796447754,2.581789158656028,1.786116358155228,10.375269034140212,6.4432816032175,0.0,0.0949056595563888,0,0,0
774,27746.651548063088,2010-12-13 20:18:53,547.3791816956041,4,3,0.3158663809299469,4.199814796447754,2.596978209457543,1.786116358155228,10.439061538333169,6.4432816032175,-3.24249267578125e-05,0.0949056595563888,0,0,0
775,27940.05376380842,2010-12-13 20:22:06,740.7813974259022,4,3,0.2658376097679138,4.199653148651123,2.612571064395881,1.786116358155228,10.504549867032184,6.4432816032175,-3.23295607813634e-05,0.0949056595563888,0,0,0
776,28180.70512935075,2010-12-13 20:26:07,981.4327629682324,4,3,0.2158088386058807,4.199814796447754,2.628623986393428,1.786116358155228,10.571970334615257,6.4432816032175,0.0,0.0949056595563888,0,0,0
777,28492.08913337345,2010-12-13 20:31:18,1292.8167669809102,4,3,0.1657800674438476,4.199814796447754,2.645048148935559,1.786116358155228,10.64094999588334,6.4432816032175,0.0,0.0949056595563888,0,0,0
778,28927.51755537937,2010-12-13 20:38:34,1728.2451890068749,4,3,0.1157513037323951,4.199814796447754,2.661910843707474,1.786116358155228,10.711771513735131,6.4432816032175,-3.24249267578125e-05,0.0949056595563888,0,0,0
779,29678.00192462245,2010-12-13 20:51:04,2478.729558249953,4,3,0.065722532570362,4.199976921081543,2.680291633624215,1.786116358155228,10.78896883134628,6.4432816032175,0.0,0.0949056595563888,0,0,0
780,30084.212230018955,2010-12-13 20:57:50,2884.939863726658,4,3,0.0498289167881011,4.199814796447754,2.686816971213678,1.786116358155228,10.816374447091984,6.4432816032175,0.0,0.0949056595563888,0,0,0
781,30114.22789908347,2010-12-13 20:58:20,30.014997978045365,5,3,0.0,4.190749645233154,2.686816971213678,1.786116358155228,10.816374447091984,6.4432816032175,-6.47544875391759e-05,0.0949056595563888,0,0,0
782,30144.22728049529,2010-12-13 20:58:50,60.01437936480396,5,3,0.0,4.189454555511475,2.686816971213678,1.786116358155228,10.816374447091984,6.4432816032175,-3.23295607813634e-05,0.0949056595563888,0,0,0
783,30144.41492163385,2010-12-13 20:58:51,0.187629939888877,6,3,-1.9243103452026844e-05,4.1892924308776855,2.686816974917428,1.786116358155228,10.816374462608378,6.4432816032175,-3.24249267578125e-05,0.1011203974485397,0,0,0
784,30149.242918588578,2010-12-13 20:58:56,5.015626914668426,6,3,0.0007031940040178,4.189130783081055,2.686818114243293,1.786116358488618,10.81637923569593,6.443281604614171,-6.47544875391759e-05,0.1011203974485397,0,0,0
785,30177.539202998567,2010-12-13 20:59:24,28.296293031890897,7,3,-1.0993878841400146,3.989039897918701,2.686818114243293,1.794758145295658,10.81637923569593,6.477964361393035,-0.0011655330890789,0.1011203974485397,0,0,0
786,30207.554383961964,2010-12-13 20:59:54,58.311474065462896,7,3,-1.099568486213684,3.955367565155029,2.686818114243293,1.803924763817139,10.81637923569593,6.514365885839925,-0.0007770538213662,0.1011203974485397,0,0,0
787,30237.56921287931,2010-12-13 21:00:24,88.32630290260764,7,3,-1.0993878841400146,3.931894063949585,2.686818114243293,1.813091249387137,10.81637923569593,6.550509379646114,-0.0005180359003134,0.1011203974485397,0,0,0
788,30267.58435686569,2010-12-13 21:00:54,118.3414468789642,7,3,-1.0993878841400146,3.914086580276489,2.686818114243293,1.822257868964901,10.81637923569593,6.586466315323849,-0.0004209041653666,0.1011203974485397,0,0,0
789,30297.59919748716,2010-12-13 21:01:24,148.3562875154712,7,3,-1.0993878841400146,3.899517059326172,2.686818114243293,1.831424387741008,10.81637923569593,6.622275904715679,-0.0003237724304199,0.1011203974485397,0,0,0
790,30327.61434782936,2010-12-13 21:01:54,178.37143784263148,7,3,-1.0993878841400146,3.886889934539795,2.686818114243293,1.840591046019072,10.81637923569593,6.657962347118379,-0.0003237724304199,0.1011203974485397,0,0,0
791,30357.62919245078,2010-12-13 21:02:24,208.3862824590423,7,3,-1.099568486213684,3.875396013259888,2.686818114243293,1.849757623582833,10.81637923569593,6.693538792924909,-0.0002913951757363,0.1011203974485397,0,0,0
792,30387.644356893063,2010-12-13 21:02:54,238.40144697651465,7,3,-1.0992072820663452,3.86503529548645,2.686818114243293,1.858924323311909,10.81637923569593,6.72901463097864,-0.0002266406954731,0.1011203974485397,0,0,0
793,30417.65933169343,2010-12-13 21:03:24,268.4164217067086,7,3,-1.099568486213684,3.8546745777130127,2.686818114243293,1.868091053560938,10.81637923569593,6.764395904732715,-0.0002266406954731,0.1011203974485397,0,0,0
794,30447.674230890665,2010-12-13 21:03:54,298.4313209239916,7,3,-1.099568486213684,3.845123291015625,2.686818114243293,1.877257760684477,10.81637923569593,6.799687405531762,-0.0002590179501567,0.1011203974485397,0,0,0
795,30477.689200854,2010-12-13 21:04:24,328.446290977548,7,3,-1.0993878841400146,3.835895776748657,2.686818114243293,1.886424529462257,10.81637923569593,6.834892557410977,-0.0002590179501567,0.1011203974485397,0,0,0
796,30507.70421072664,2010-12-13 21:04:54,358.4613007349057,7,3,-1.099568486213684,3.826992273330689,2.686818114243293,1.895591397452688,10.81637923569593,6.870014473491825,-0.0002266406954731,0.1011203974485397,0,0,0
797,30537.719428586857,2010-12-13 21:05:24,388.4765187104063,7,3,-1.0992072820663452,3.818250417709351,2.686818114243293,1.904758351169879,10.81637923569593,6.905055633556649,-0.0002266406954731,0.1011203974485397,0,0,0
798,30567.734207514804,2010-12-13 21:05:54,418.4912976132915,7,3,-1.0993878841400146,3.809670448303223,2.686818114243293,1.913925114929374,10.81637923569593,6.940016584848896,-0.0002266406954731,0.1011203974485397,0,0,0
799,30597.74920683118,2010-12-13 21:06:24,448.50629685949264,7,3,-1.099568486213684,3.801414251327514,2.686818114243293,1.923091910706241,10.81637923569593,6.974900691431185,-0.0001942634553415,0.1011203974485397,0,0,0
800,30627.76422352079,2010-12-13 21:06:54,478.521313549101,7,3,-1.0993878841400146,3.7933199405670166,2.686818114243293,1.932258810808843,10.81637923569593,7.009710850741499,-0.0002266406954731,0.1011203974485397,0,0,0
801,30657.779265067253,2010-12-13 21:07:24,508.5363551607269,7,3,-1.099568486213684,3.7855494022369385,2.686818114243293,1.94142572385678,10.81637923569593,7.044448159155933,-0.0001942634553415,0.1011203974485397,0,0,0
802,30687.79434190654,2010-12-13 21:07:54,538.5514319348533,7,3,-1.099568486213684,3.777778863906861,2.686818114243293,1.950592695935457,10.81637923569593,7.079114529025096,-0.0002266406954731,0.1011203974485397,0,0,0
803,30717.80922411149,2010-12-13 21:08:24,568.566314194939,7,3,-1.0997490882873535,3.770332098007202,2.686818114243293,1.959759625289358,10.81637923569593,7.113711107891204,-0.0001942634553415,0.1011203974485397,0,0,0
804,30747.824256129243,2010-12-13 21:08:54,598.5813461976535,7,3,-1.099568486213684,3.762885332107544,2.686818114243293,1.968926608817156,10.81637923569593,7.148240145797447,-0.0001942634553415,0.1011203974485397,0,0,0
805,30777.83922952612,2010-12-13 21:09:24,628.5963195544298,7,3,-1.0993878841400146,3.7557623386383057,2.686818114243293,1.978093613784671,10.81637923569593,7.182702316523934,-0.0001942634553415,0.1011203974485397,0,0,0
806,30807.85423434619,2010-12-13 21:09:54,658.6113243544513,7,3,-1.099929690361023,3.748477697372437,2.686818114243293,1.987260676407051,10.81637923569593,7.217099209470871,-0.0002266406954731,0.1011203974485397,0,0,0
807,30837.86936430767,2010-12-13 21:10:24,688.6264543209448,7,3,-1.099568486213684,3.741840362548828,2.686818114243293,1.996427705522145,10.81637923569593,7.251432382161593,-0.0002266406954731,0.1011203974485397,0,0,0
808,30867.884295855405,2010-12-13 21:10:54,718.6413858787059,7,3,-1.099568486213684,3.73520302772522,2.686818114243293,2.005594745144965,10.81637923569593,7.285703533045142,-0.0001942634553415,0.1011203974485397,0,0,0
809,30897.89925156828,2010-12-13 21:11:24,748.6563415865635,7,3,-1.099568486213684,3.7288894653320312,2.686818114243293,2.014761861207734,10.81637923569593,7.319913899866323,-9.713172767078504e-05,0.1011203974485397,0,0,0
810,30927.91425703496,2010-12-13 21:11:54,778.671347063269,7,3,-1.0993878841400146,3.722252130508423,2.686818114243293,2.023928926977277,10.81637923569593,7.35406528430347,-0.0001942634553415,0.1011203974485397,0,0,0
811,30957.92946357701,2010-12-13 21:12:24,808.6865536103303,7,3,-1.0993878841400146,3.7159385681152335,2.686818114243293,2.033096068058038,10.81637923569593,7.388158652612544,-0.0001618862152099,0.1011203974485397,0,0,0
812,30987.944286424245,2010-12-13 21:12:54,838.7013764274946,7,3,-1.0993878841400146,3.709786891937256,2.686818114243293,2.042263139594263,10.81637923569593,7.422194569921775,-0.0001942634553415,0.1011203974485397,0,0,0
813,31017.959271274623,2010-12-13 21:13:24,868.7163612828847,7,3,-1.0992072820663452,3.7037971019744873,2.686818114243293,2.051430224921156,10.81637923569593,7.456174347005126,-0.0001295089750783,0.1011203974485397,0,0,0
814,31047.974264726403,2010-12-13 21:13:54,898.7313547497041,7,3,-1.099568486213684,3.697645425796509,2.686818114243293,2.060597393503586,10.81637923569593,7.490098660546241,-0.0001618862152099,0.1011203974485397,0,0,0
815,31077.989285295665,2010-12-13 21:14:24,928.7463753189668,7,3,-1.099568486213684,3.69165563583374,2.686818114243293,2.069764529761514,10.81637923569593,7.523968377390562,-0.0001942634553415,0.1011203974485397,0,0,0
816,31108.00469124393,2010-12-13 21:14:54,958.76178132738,7,3,-1.099568486213684,3.6858277320861816,2.686818114243293,2.078931809159257,10.81637923569593,7.557784505288666,-0.0001618862152099,0.1011203974485397,0,0,0
817,31138.019282560013,2010-12-13 21:15:24,988.7763725833132,7,3,-1.099568486213684,3.680161714553833,2.686818114243293,2.088098866644612,10.81637923569593,7.591546707316762,-0.0001618862152099,0.1011203974485397,0,0,0
818,31168.034454350585,2010-12-13 21:15:54,1018.7915444540838,7,3,-1.099568486213684,3.6743338108062735,2.686818114243293,2.097266020424732,10.81637923569593,7.625256994235755,-0.0001618862152099,0.1011203974485397,0,0,0
819,31198.04930355842,2010-12-13 21:16:24,1048.8063935867333,7,3,-1.0997490882873535,3.668668031692505,2.686818114243293,2.106433039963457,10.81637923569593,7.65891512423804,-0.0001942634553415,0.1011203974485397,0,0,0
820,31228.06444413632,2010-12-13 21:16:54,1078.8215341696452,7,3,-1.099568486213684,3.663487672805786,2.686818114243293,2.115600130569819,10.81637923569593,7.692522733639091,-9.713172767078504e-05,0.1011203974485397,0,0,0
821,31258.079316075724,2010-12-13 21:17:24,1108.8364060839858,7,3,-1.099568486213684,3.6578216552734375,2.686818114243293,2.124767183309142,10.81637923569593,7.726080198443269,-0.0001618862152099,0.1011203974485397,0,0,0
822,31288.09446214228,2010-12-13 21:17:54,1138.8515521555564,7,3,-1.099568486213684,3.652641296386719,2.686818114243293,2.133934351111851,10.81637923569593,7.759589055791391,-0.0001295089750783,0.1011203974485397,0,0,0
823,31318.109326793547,2010-12-13 21:18:24,1168.866416796798,7,3,-1.099568486213684,3.64729905128479,2.686818114243293,2.143101370936703,10.81637923569593,7.793048728482897,-0.0001295089750783,0.1011203974485397,0,0,0
824,31348.12434461096,2010-12-13 21:18:55,1198.881434614213,7,3,-1.099568486213684,3.641956806182861,2.686818114243293,2.152268394651131,10.81637923569593,7.826460083188028,-0.0001942634553415,0.1011203974485397,0,0,0
825,31378.139476171425,2010-12-13 21:19:25,1228.8965661746731,7,3,-1.099568486213684,3.636938333511353,2.686818114243293,2.161435445231294,10.81637923569593,7.859824453543787,-0.0001295089750783,0.1011203974485397,0,0,0
826,31408.154358381384,2010-12-13 21:19:55,1258.9114484096965,7,3,-1.099568486213684,3.6320817470550537,2.686818114243293,2.170602454305464,10.81637923569593,7.893142389051019,-9.713172767078504e-05,0.1011203974485397,0,0,0
827,31438.16944771677,2010-12-13 21:20:25,1288.9265378353057,7,3,-1.0997490882873535,3.627063274383545,2.686818114243293,2.179769505698908,10.81637923569593,7.926415122609608,-0.0001295089750783,0.1011203974485397,0,0,0
828,31468.18440198103,2010-12-13 21:20:55,1318.941491994309,7,3,-1.099568486213684,3.622368574142456,2.686818114243293,2.188936552523995,10.81637923569593,7.959643019341388,-9.713172767078504e-05,0.1011203974485397,0,0,0
829,31498.19939947287,2010-12-13 21:21:25,1348.9564894961693,7,3,-1.0993878841400146,3.6173501014709473,2.686818114243293,2.198103730249346,10.81637923569593,7.992827044595685,-0.0001295089750783,0.1011203974485397,0,0,0
830,31528.21451596082,2010-12-13 21:21:55,1378.971605974097,7,3,-1.099568486213684,3.6126554012298575,2.686818114243293,2.207270875311439,10.81637923569593,8.025967430365489,-0.0001618862152099,0.1011203974485397,0,0,0
831,31558.229403789766,2010-12-13 21:22:25,1408.9864937930156,7,3,-1.0997490882873535,3.60812258720398,2.686818114243293,2.216437992967983,10.81637923569593,8.059065217191598,-9.713172767078504e-05,0.1011203974485397,0,0,0
832,31588.24442392294,2010-12-13 21:22:55,1439.0015139512557,7,3,-1.099568486213684,3.603751659393311,2.686818114243293,2.225605096126617,10.81637923569593,8.092121214739485,-9.713172767078504e-05,0.1011203974485397,0,0,0
833,31618.259424422264,2010-12-13 21:23:25,1469.0165144355376,7,3,-1.099568486213684,3.5993807315826416,2.686818114243293,2.234772241394269,10.81637923569593,8.125136670471772,-9.713172767078504e-05,0.1011203974485397,0,0,0
834,31648.274458810916,2010-12-13 21:23:55,1499.0315488191768,7,3,-1.099568486213684,3.5950098037719727,2.686818114243293,2.243939354804265,10.81637923569593,8.158112584315825,-0.0001295089750783,0.1011203974485397,0,0,0
835,31678.28946940535,2010-12-13 21:24:25,1529.0465594086054,7,3,-1.0993878841400146,3.5911247730255127,2.686818114243293,2.253106449450065,10.81637923569593,8.191049881414262,-9.713172767078504e-05,0.1011203974485397,0,0,0
836,31708.304480826853,2010-12-13 21:24:55,1559.061570920329,7,3,-1.099568486213684,3.5869157314300537,2.686818114243293,2.262273635342322,10.81637923569593,8.223949859533416,-9.713172767078504e-05,0.1011203974485397,0,0,0
837,31738.31946198304,2010-12-13 21:25:25,1589.076551996314,7,3,-1.0993878841400146,3.5828685760498047,2.686818114243293,2.271440772048547,10.81637923569593,8.256812960170784,-0.0001295089750783,0.1011203974485397,0,0,0
838,31768.33447972025,2010-12-13 21:25:55,1619.0915697235043,7,3,-1.0997490882873535,3.578821420669556,2.686818114243293,2.280607891467489,10.81637923569593,8.289639953340076,-0.0001618862152099,0.1011203974485397,0,0,0
839,31798.3494798286,2010-12-13 21:26:25,1649.1065698418756,7,3,-1.0997490882873535,3.5752599239349365,2.686818114243293,2.289775031187871,10.81637923569593,8.322432003181373,-9.713172767078504e-05,0.1011203974485397,0,0,0
840,31828.364525570505,2010-12-13 21:26:55,1679.1216155837794,7,3,-1.099568486213684,3.5715365409851074,2.686818114243293,2.29894214776584,10.81637923569593,8.355189527523397,-9.713172767078504e-05,0.1011203974485397,0,0,0
841,31858.37950649612,2010-12-13 21:27:25,1709.136596504378,7,3,-1.099568486213684,3.5679750442504883,2.686818114243293,2.308109331831477,10.81637923569593,8.387913490955814,-6.47544875391759e-05,0.1011203974485397,0,0,0
842,31888.39452917062,2010-12-13 21:27:55,1739.1516192640918,7,3,-1.0993878841400146,3.564413547515869,2.686818114243293,2.31727651334722,10.81637923569593,8.420604315163201,-6.47544875391759e-05,0.1011203974485397,0,0,0
843,31918.409726494727,2010-12-13 21:28:25,1769.1668165029903,7,3,-1.0993878841400146,3.56101393699646,2.686818114243293,2.326443637306166,10.81637923569593,8.453263301610098,-9.713172767078504e-05,0.1011203974485397,0,0,0
844,31948.4246065794,2010-12-13 21:28:55,1799.1816966979368,7,3,-1.0993878841400146,3.557614326477051,2.686818114243293,2.335610652199485,10.81637923569593,8.48589060689688,-9.713172767078504e-05,0.1011203974485397,0,0,0
845,31978.43957509413,2010-12-13 21:29:25,1829.196665192614,7,3,-1.099568486213684,3.554052829742432,2.686818114243293,2.344777810643562,10.81637923569593,8.518487194725168,-0.0001618862152099,0.1011203974485397,0,0,0
846,32008.45454077681,2010-12-13 21:29:55,1859.2116307900817,7,3,-1.0993878841400146,3.5508151054382324,2.686818114243293,2.353944900087875,10.81637923569593,8.5510527861054,-9.713172767078504e-05,0.1011203974485397,0,0,0
847,32038.469556383723,2010-12-13 21:30:25,1889.2266464170457,7,3,-1.099568486213684,3.547577381134033,2.686818114243293,2.363112044918103,10.81637923569593,8.583588259213558,-3.237724376958795e-05,0.1011203974485397,0,0,0
848,32068.48467796936,2010-12-13 21:30:55,1919.2417679776213,7,3,-1.099568486213684,3.544177770614624,2.686818114243293,2.37227929286953,10.81637923569593,8.616094016772903,-9.713172767078504e-05,0.1011203974485397,0,0,0
849,32098.499620429247,2010-12-13 21:31:25,1949.2567104324992,7,3,-1.099568486213684,3.540778160095215,2.686818114243293,2.381446444556784,10.81637923569593,8.648569165122403,-0.0001295089750783,0.1011203974485397,0,0,0
850,32128.51465078787,2010-12-13 21:31:55,1979.2717408111723,7,3,-1.099568486213684,3.5377023220062256,2.686818114243293,2.390613686716407,10.81637923569593,8.681014857013237,-9.713172767078504e-05,0.1011203974485397,0,0,0
851,32158.52963556808,2010-12-13 21:32:25,2009.286725576338,7,3,-1.099568486213684,3.5346264839172363,2.686818114243293,2.399780848240942,10.81637923569593,8.71343055045335,-6.47544875391759e-05,0.1011203974485397,0,0,0
852,32188.544647746457,2010-12-13 21:32:55,2039.301737759733,7,3,-1.099568486213684,3.531226873397827,2.686818114243293,2.408947987825676,10.81637923569593,8.745816723012329,-9.713172767078504e-05,0.1011203974485397,0,0,0
853,32218.559647749546,2010-12-13 21:33:25,2069.316737832992,7,3,-1.0993878841400146,3.527989149093628,2.686818114243293,2.418115129601218,10.81637923569593,8.778173199489695,-6.47544875391759e-05,0.1011203974485397,0,0,0
854,32248.574755565915,2010-12-13 21:33:55,2099.331845579191,7,3,-1.099929690361023,3.5245895385742188,2.686818114243293,2.427282263031652,10.81637923569593,8.810499183967512,-9.713172767078504e-05,0.1011203974485397,0,0,0
855,32278.5897024418,2010-12-13 21:34:25,2129.346792455071,7,3,-1.099568486213684,3.5213518142700195,2.686818114243293,2.436449388563513,10.81637923569593,8.842794277500278,-6.47544875391759e-05,0.1011203974485397,0,0,0
856,32308.604858478164,2010-12-13 21:34:55,2159.361948511488,7,3,-1.099568486213684,3.5177903175354004,2.686818114243293,2.445616638808812,10.81637923569593,8.875058750343719,-9.713172767078504e-05,0.1011203974485397,0,0,0
857,32338.61988495212,2010-12-13 21:35:25,2189.376974970407,7,3,-1.099568486213684,3.514228820800781,2.686818114243293,2.454783851373203,10.81637923569593,8.907291121648957,-9.713172767078504e-05,0.1011203974485397,0,0,0
858,32368.63474374881,2010-12-13 21:35:55,2219.3918337570803,7,3,-1.099568486213684,3.510667562484741,2.686818114243293,2.463951047318663,10.81637923569593,8.939490874675414,-0.0001295089750783,0.1011203974485397,0,0,0
859,32398.64975635827,2010-12-13 21:36:25,2249.406846391598,7,3,-1.0993878841400146,3.507106065750122,2.686818114243293,2.473118293716107,10.81637923569593,8.971657499340813,-6.47544875391759e-05,0.1011203974485397,0,0,0
860,32428.6649076378,2010-12-13 21:36:55,2279.4219976560903,7,3,-1.099568486213684,3.503058910369873,2.686818114243293,2.482285598668094,10.81637923569593,9.003789665054772,-0.0001295089750783,0.1011203974485397,0,0,0
861,32458.68000300319,2010-12-13 21:37:25,2309.4370931066924,7,3,-1.0993878841400146,3.499011754989624,2.686818114243293,2.491452932387916,10.81637923569593,9.03588583640687,-0.0001618862152099,0.1011203974485397,0,0,0
862,32488.694798467288,2010-12-13 21:37:55,2339.451888565777,7,3,-1.0993878841400146,3.494964599609375,2.686818114243293,2.50062007989556,10.81637923569593,9.067943503085566,-6.47544875391759e-05,0.1011203974485397,0,0,0
863,32518.70980532744,2010-12-13 21:38:25,2369.4668953607634,7,3,-1.0993878841400146,3.490431785583496,2.686818114243293,2.509787397937031,10.81637923569593,9.099961568892892,-9.713172767078504e-05,0.1011203974485397,0,0,0
864,32548.724845540582,2010-12-13 21:38:55,2399.481935573909,7,3,-1.0993878841400146,3.4857370853424072,2.686818114243293,2.518954709361502,10.81637923569593,9.131937393057502,-9.713172767078504e-05,0.1011203974485397,0,0,0
865,32578.73995721155,2010-12-13 21:39:25,2429.4970472198124,7,3,-1.099568486213684,3.480232954025269,2.686818114243293,2.528122039888706,10.81637923569593,9.163867562043482,-0.0001942634553415,0.1011203974485397,0,0,0
866,32608.75487461909,2010-12-13 21:39:55,2459.5119647175857,7,3,-1.099568486213684,3.47472882270813,2.686818114243293,2.537289221911327,10.81637923569593,9.195747343735192,-0.0001295089750783,0.1011203974485397,0,0,0
867,32638.769850737743,2010-12-13 21:40:25,2489.5269407510227,7,3,-1.099568486213684,3.4684152603149414,2.686818114243293,2.546456467858916,10.81637923569593,9.227572965241237,-0.0001618862152099,0.1011203974485397,0,0,0
868,32668.78485904149,2010-12-13 21:40:55,2519.5419490447384,7,3,-1.0993878841400146,3.461616039276123,2.686818114243293,2.555623756601206,10.81637923569593,9.25933789180654,-0.0001618862152099,0.1011203974485397,0,0,0
869,32698.799905279626,2010-12-13 21:41:25,2549.5569952828773,7,3,-1.099568486213684,3.453359842300415,2.686818114243293,2.564791039990116,10.81637923569593,9.291034254040644,-0.0002266406954731,0.1011203974485397,0,0,0
870,32728.81492051562,2010-12-13 21:41:55,2579.57201052388,7,3,-1.099568486213684,3.4441323280334477,2.686818114243293,2.573958303913723,10.81637923569593,9.322651748371191,-0.0002913951757363,0.1011203974485397,0,0,0
871,32758.829948999577,2010-12-13 21:42:25,2609.587039022876,7,3,-1.099568486213684,3.43344783782959,2.686818114243293,2.583125591018685,10.81637923569593,9.354177790805824,-0.0002913951757363,0.1011203974485397,0,0,0
872,32788.84495218558,2010-12-13 21:42:55,2639.6020421888315,7,3,-1.099568486213684,3.420497179031372,2.686818114243293,2.592292946495898,10.81637923569593,9.385595442390288,-0.0003561496851034,0.1011203974485397,0,0,0
873,32818.85996086526,2010-12-13 21:43:25,2669.6170508935697,7,3,-1.099568486213684,3.404632329940796,2.686818114243293,2.601460268417325,10.81637923569593,9.416881681193296,-0.0004532813909463,0.1011203974485397,0,0,0
874,32848.87497185568,2010-12-13 21:43:55,2699.632061883996,7,3,-1.099568486213684,3.38504409790039,2.686818114243293,2.610627507490598,10.81637923569593,9.448006579602508,-0.0005827903514727,0.1011203974485397,0,0,0
875,32878.89018324981,2010-12-13 21:44:25,2729.647273318219,7,3,-1.099568486213684,3.3602755069732666,2.686818114243293,2.619794914787598,10.81637923569593,9.478929301785206,-0.0007122993702068,0.1011203974485397,0,0,0
876,32908.9050276206,2010-12-13 21:44:55,2759.6621176238564,7,3,-1.0993878841400146,3.327736616134644,2.686818114243293,2.628962210307395,10.81637923569593,9.509591136074688,-0.0009713172912597,0.1011203974485397,0,0,0
877,32938.92001989446,2010-12-13 21:45:25,2789.677109922769,7,3,-1.099568486213684,3.284998655319214,2.686818114243293,2.638129490046292,10.81637923569593,9.539910615100602,-0.0012627125252038,0.1011203974485397,0,0,0
878,32968.93507163128,2010-12-13 21:45:55,2819.6921617147286,7,3,-1.0993878841400146,3.226719856262207,2.686818114243293,2.647296803396178,10.81637923569593,9.56977201325276,-0.0017807483673095,0.1011203974485397,0,0,0
879,32998.950036211216,2010-12-13 21:46:25,2849.707126214465,7,3,-1.099568486213684,3.145615100860596,2.686818114243293,2.656464057907021,10.81637923569593,9.599004187106914,-0.0025578022468835,0.1011203974485397,0,0,0
880,33028.96517806228,2010-12-13 21:46:55,2879.7222680655323,7,3,-1.0993878841400146,3.024848461151123,2.686818114243293,2.665631452962284,10.81637923569593,9.627331705716731,-0.0039823530241847,0.1011203974485397,0,0,0
881,33057.87072261816,2010-12-13 21:47:24,2908.627812621408,7,3,-1.0993878841400146,2.82459568977356,2.686818114243293,2.674459951112339,10.81637923569593,9.653237328510375,-0.0069287298247218,0.1011203974485397,0,0,0
882,33070.854838260544,2010-12-13 21:47:37,2921.611928268808,7,3,-1.099568486213684,2.699943780899048,2.686818114243293,2.678425618071158,10.81637923569593,9.66419561585578,-0.0078999996185302,0.1011203974485397,0,0,0
883,33130.86892409212,2010-12-13 21:48:37,60.014562320081126,8,3,0.0,3.425515651702881,2.686818114243293,2.678425618071158,10.81637923569593,9.66419561585578,0.0013598442310467,0.1011203974485397,0,0,0
884,33131.056872499496,2010-12-13 21:48:38,0.187348419335809,9,3,-1.9243103452026844e-05,3.4268107414245605,2.686818114243293,2.678425619072593,10.81637923569593,9.664195619287508,0.0,0.0956302732229232,0,0,0
885,33135.88490550393,2010-12-13 21:48:43,5.015381423773775,9,3,0.0008838032954372,3.43393349647522,2.686819221349268,2.678425619072593,10.816383033679296,9.664195619287508,0.0011655330890789,0.0956302732229232,0,0,0
