Data_Point,Test_Time(s),Date_Time,Step_Time(s),Step_Index,Cycle_Index,Current(A),Voltage(V),Charge_Capacity(Ah),Discharge_Capacity(Ah),Charge_Energy(Wh),Discharge_Energy(Wh),dV/dt(V/s),Internal_Resistance(Ohm),Is_FC_Data,AC_Impedance(Ohm),ACI_Phase_Angle(Deg)
6495,240516.43741476795,2010-12-16 07:25:28,30.015059295631826,1,23,0.0,3.4933457374572754,19.573274479647125,19.5461356845166,78.6586794257801,70.63964841130782,0.0007770538213662,0.0956302732229232,0,0,0
6496,240546.454219487,2010-12-16 07:25:58,60.03186415503195,1,23,0.0,3.5164952278137207,19.573274479647125,19.5461356845166,78.6586794257801,70.63964841130782,0.0005504131549969,0.0956302732229232,0,0,0
6497,240576.4675358304,2010-12-16 07:26:28,90.0451803831072,1,23,0.0,3.5334932804107666,19.573274479647125,19.5461356845166,78.6586794257801,70.63964841130782,0.0003237724304199,0.0956302732229232,0,0,0
6498,240606.43563119308,2010-12-16 07:26:58,120.01327580594788,1,23,0.0,3.5472536087036133,19.573274479647125,19.5461356845166,78.6586794257801,70.63964841130782,0.0003237724304199,0.0956302732229232,0,0,0
6499,240636.4524812473,2010-12-16 07:27:28,30.0150248649524,2,23,0.550297200679779,3.6911699771881104,19.57786167804248,19.5461356845166,78.67548661534462,70.63964841130782,0.0011979580158367,0.0956302732229232,0,0,0
6500,240666.4674655012,2010-12-16 07:27:58,60.03000902862122,2,23,0.5501165986061096,3.725327968597412,19.58244883385414,19.5461356845166,78.6925023554432,70.63964841130782,0.0007446765666827,0.0956302732229232,0,0,0
6501,240696.48248156425,2010-12-16 07:28:28,90.04502509167042,2,23,0.5504778623580933,3.749610900878906,19.58703607427856,19.5461356845166,78.70964980785347,70.63964841130782,0.0005504131549969,0.0956302732229232,0,0,0
6502,240726.497793684,2010-12-16 07:28:58,120.060337196408,2,23,0.550297200679779,3.767094373703003,19.59162336167955,19.5461356845166,78.72689244049097,70.63964841130782,0.0004209041653666,0.0956302732229232,0,0,0
6503,240756.51252286817,2010-12-16 07:29:28,150.07506639560754,2,23,0.550297200679779,3.77923583984375,19.59621053133084,19.5461356845166,78.74420228987425,70.63964841130782,0.0002913951757363,0.0956302732229232,0,0,0
6504,240786.5275430966,2010-12-16 07:29:58,180.0900866240221,2,23,0.5499359965324402,3.787330150604248,19.600797740034952,19.5461356845166,78.76155815259553,70.63964841130782,0.0001618862152099,0.0956302732229232,0,0,0
6505,240816.5426886669,2010-12-16 07:30:28,210.10523217930773,2,23,0.5501165986061096,3.7938055992126474,19.60538503173469,19.5461356845166,78.77894724445581,70.63964841130782,0.0001618862152099,0.0956302732229232,0,0,0
6506,240846.5576205004,2010-12-16 07:30:58,240.1201640277922,2,23,0.5501165986061096,3.799309730529785,19.60997222778673,19.5461356845166,78.7963631015165,70.63964841130782,0.0001295089750783,0.0956302732229232,0,0,0
6507,240876.5726123833,2010-12-16 07:31:28,270.13515591067,2,23,0.550297200679779,3.804651975631714,19.614559462303912,19.5461356845166,78.81380383004807,70.63964841130782,0.0001295089750783,0.0956302732229232,0,0,0
6508,240906.5876830171,2010-12-16 07:31:58,300.15022663474105,2,23,0.5501165986061096,3.8095085620880127,19.61914675759849,19.5461356845166,78.83126813753275,70.63964841130782,9.713172767078504e-05,0.0956302732229232,0,0,0
6509,240936.602693792,2010-12-16 07:32:28,330.16523731940634,2,23,0.550297200679779,3.814365148544312,19.62373409911455,19.5461356845166,78.84875498502677,70.63964841130782,9.713172767078504e-05,0.0956302732229232,0,0,0
6510,240966.61960612884,2010-12-16 07:32:58,360.1821497314471,2,23,0.5501165986061096,3.8188979625701904,19.628321658786344,19.5461356845166,78.86626434911446,70.63964841130782,0.0001295089750783,0.0956302732229232,0,0,0
6511,240996.63283199703,2010-12-16 07:33:28,390.1953755946528,2,23,0.5501165986061096,3.8232688903808594,19.63290865129517,19.5461356845166,78.88379223457895,70.63964841130782,6.47544875391759e-05,0.0956302732229232,0,0,0
6512,241026.6478481804,2010-12-16 07:33:58,420.2103916927894,2,23,0.550297200679779,3.827639818191528,19.63749582520488,19.5461356845166,78.90134062734788,70.63964841130782,9.713172767078504e-05,0.0956302732229232,0,0,0
6513,241056.6628728599,2010-12-16 07:34:28,450.22541637228034,2,23,0.550297200679779,3.8318488597869873,19.642083063948785,19.5461356845166,78.91890860528164,70.63964841130782,0.0001295089750783,0.0956302732229232,0,0,0
6514,241086.67776891432,2010-12-16 07:34:58,480.24031244173,2,23,0.5501165986061096,3.835895776748657,19.64667023978212,19.5461356845166,78.93649515648582,70.63964841130782,9.713172767078504e-05,0.0956302732229232,0,0,0
6515,241116.69300193223,2010-12-16 07:35:28,510.2555455148003,2,23,0.550297200679779,3.840104818344116,19.6512574734008,19.5461356845166,78.95410046093967,70.63964841130782,0.0001618862152099,0.0956302732229232,0,0,0
6516,241146.70797016125,2010-12-16 07:35:58,540.2705137688788,2,23,0.5501165986061096,3.843828201293945,19.65584462077669,19.5461356845166,78.97172371898654,70.63964841130782,9.713172767078504e-05,0.0956302732229232,0,0,0
6517,241176.72283361453,2010-12-16 07:36:28,570.2853772171519,2,23,0.5499359965324402,3.847713470458984,19.660431751697477,19.5461356845166,78.98936511829217,70.63964841130782,9.713172767078504e-05,0.0956302732229232,0,0,0
6518,241206.73797399196,2010-12-16 07:36:58,600.300517504328,2,23,0.550297200679779,3.8517606258392334,19.66501891064204,19.5461356845166,79.00702456820899,70.63964841130782,0.0001295089750783,0.0956302732229232,0,0,0
6519,241236.75286223693,2010-12-16 07:37:28,630.3154057643444,2,23,0.550297200679779,3.855645895004273,19.66960596060592,19.5461356845166,79.02470145929003,70.63964841130782,9.713172767078504e-05,0.0956302732229232,0,0,0
6520,241266.76800315568,2010-12-16 07:37:58,660.3305466680548,2,23,0.5499359965324402,3.859531164169312,19.6741931268348,19.5461356845166,79.04239675768497,70.63964841130782,9.713172767078504e-05,0.0956302732229232,0,0,0
6521,241296.78301236164,2010-12-16 07:38:28,690.3455558991028,2,23,0.550297200679779,3.863416433334351,19.67878032142216,19.5461356845166,79.0601098572905,70.63964841130782,9.713172767078504e-05,0.0956302732229232,0,0,0
6522,241326.7979459244,2010-12-16 07:38:58,720.3604895420527,2,23,0.5501165986061096,3.8669779300689697,19.683367562507843,19.5461356845166,79.07784055583116,70.63964841130782,6.47544875391759e-05,0.0956302732229232,0,0,0
6523,241356.812952955,2010-12-16 07:39:28,750.3754964824005,2,23,0.5501165986061096,3.870863199234009,19.687954780402087,19.5461356845166,79.09558836738653,70.63964841130782,9.713172767078504e-05,0.0956302732229232,0,0,0
6524,241386.82793969507,2010-12-16 07:39:58,780.3904832274931,2,23,0.5501165986061096,3.874262809753418,19.69254200807734,19.5461356845166,79.11335306047427,70.63964841130782,6.47544875391759e-05,0.0956302732229232,0,0,0
6525,241416.84295388343,2010-12-16 07:40:28,810.4054974108647,2,23,0.5499359965324402,3.877824306488037,19.697129163902037,19.5461356845166,79.13113379357303,70.63964841130782,6.47544875391759e-05,0.0956302732229232,0,0,0
6526,241446.85798271827,2010-12-16 07:40:58,840.420526245696,2,23,0.550297200679779,3.881385803222656,19.701716364732743,19.5461356845166,79.14893063358815,70.63964841130782,6.47544875391759e-05,0.0956302732229232,0,0,0
6527,241476.8730026309,2010-12-16 07:41:28,870.4355461633373,2,23,0.550297200679779,3.8844616413116455,19.706303543657064,19.5461356845166,79.1667427339521,70.63964841130782,6.47544875391759e-05,0.0956302732229232,0,0,0
6528,241506.8880571196,2010-12-16 07:41:58,900.4506007372192,2,23,0.5501165986061096,3.8876993656158447,19.71089073185304,19.5461356845166,79.18456950691647,70.63964841130782,6.47544875391759e-05,0.0956302732229232,0,0,0
6529,241536.9033559112,2010-12-16 07:42:28,930.4658995087776,2,23,0.5499359965324402,3.890775203704834,19.71547802225925,19.5461356845166,79.20241078033132,70.63964841130782,9.713172767078504e-05,0.0956302732229232,0,0,0
6530,241566.9198249198,2010-12-16 07:42:58,960.482368537476,2,23,0.550297200679779,3.893689155578613,19.720065440396528,19.5461356845166,79.22026586544695,70.63964841130782,9.713172767078504e-05,0.0956302732229232,0,0,0
6531,241596.9330588732,2010-12-16 07:43:28,990.4956024005892,2,23,0.5499359965324402,3.8962793350219727,19.724652358765123,19.5461356845166,79.23813153350578,70.63964841130782,3.237724376958795e-05,0.0956302732229232,0,0,0
6532,241626.94810102112,2010-12-16 07:43:58,1020.5106446387742,2,23,0.5501165986061096,3.898869514465332,19.729239560546432,19.5461356845166,79.25601031062854,70.63964841130782,3.237724376958795e-05,0.0956302732229232,0,0,0
6533,241656.96304212263,2010-12-16 07:44:28,1050.5255856350225,2,23,0.5499359965324402,3.901135921478272,19.733826719809844,19.5461356845166,79.27390035880836,70.63964841130782,3.237724376958795e-05,0.0956302732229232,0,0,0
6534,241686.9780742306,2010-12-16 07:44:58,1080.540617753024,2,23,0.5499359965324402,3.903402328491211,19.73841385551139,19.5461356845166,79.29180112072277,70.63964841130782,3.237724376958795e-05,0.0956302732229232,0,0,0
6535,241716.9930863087,2010-12-16 07:45:28,1110.5556298361694,2,23,0.550297200679779,3.9056687355041504,19.74300101946215,19.5461356845166,79.30971224177856,70.63964841130782,6.47544875391759e-05,0.0956302732229232,0,0,0
6536,241747.0080892692,2010-12-16 07:45:58,1140.5706327916007,2,23,0.5501165986061096,3.90761137008667,19.747588098338635,19.5461356845166,79.32763286346915,70.63964841130782,6.47544875391759e-05,0.0956302732229232,0,0,0
6537,241777.02326327527,2010-12-16 07:46:28,1170.5858067926724,2,23,0.550297200679779,3.9097158908844,19.75217523793496,19.5461356845166,79.34556311707388,70.63964841130782,3.237724376958795e-05,0.0956302732229232,0,0,0
6538,241807.038128919,2010-12-16 07:46:58,1200.6006724313966,2,23,0.550297200679779,3.911820411682129,19.756762402459817,19.5461356845166,79.36350253662089,70.63964841130782,6.47544875391759e-05,0.0956302732229232,0,0,0
6539,241837.0531350724,2010-12-16 07:47:28,1230.6156785998237,2,23,0.5501165986061096,3.913762807846069,19.761349520213702,19.5461356845166,79.3814505447332,70.63964841130782,9.70840483205393e-05,0.0956302732229232,0,0,0
6540,241867.06829504852,2010-12-16 07:47:58,1260.6308385609575,2,23,0.550297200679779,3.915543556213379,19.76593674711942,19.5461356845166,79.39940758915336,70.63964841130782,3.237724376958795e-05,0.0956302732229232,0,0,0
6541,241897.0831501461,2010-12-16 07:48:28,1290.6456936784998,2,23,0.5501165986061096,3.917324304580689,19.77052392307927,19.5461356845166,79.41737266472398,70.63964841130782,6.47544875391759e-05,0.0956302732229232,0,0,0
6542,241927.0983198715,2010-12-16 07:48:59,1320.6608633989197,2,23,0.5501165986061096,3.919105052947998,19.775111113157525,19.5461356845166,79.43534608431801,70.63964841130782,6.47544875391759e-05,0.0956302732229232,0,0,0
6543,241957.11330256148,2010-12-16 07:49:29,1350.6758460939338,2,23,0.550297200679779,3.920885801315308,19.779698308972662,19.5461356845166,79.45332770664288,70.63964841130782,6.47544875391759e-05,0.0956302732229232,0,0,0
6544,241987.1281991171,2010-12-16 07:49:59,1380.6907426495934,2,23,0.5501165986061096,3.922666549682617,19.784285452523697,19.5461356845166,79.47131715663829,70.63964841130782,3.237724376958795e-05,0.0956302732229232,0,0,0
6545,242017.14323174645,2010-12-16 07:50:29,1410.705775273855,2,23,0.5501165986061096,3.924285411834717,19.788872604928837,19.5461356845166,79.48931471320732,70.63964841130782,3.237724376958795e-05,0.0956302732229232,0,0,0
6546,242047.15821223092,2010-12-16 07:50:59,1440.7207557433303,2,23,0.5501165986061096,3.9260661602020255,19.793459851864785,19.5461356845166,79.50732061151139,70.63964841130782,6.47544875391759e-05,0.0956302732229232,0,0,0
6547,242077.17321363752,2010-12-16 07:51:29,1470.7357571649452,2,23,0.550297200679779,3.927846908569336,19.79804706736113,19.5461356845166,79.52533424496383,70.63964841130782,3.237724376958795e-05,0.0956302732229232,0,0,0
6548,242107.1882239613,2010-12-16 07:51:59,1500.7507674887122,2,23,0.5497553944587708,3.929465770721436,19.80263422276617,19.5461356845166,79.54335563481732,70.63964841130782,0.0,0.0956302732229232,0,0,0
6549,242137.20323252067,2010-12-16 07:52:29,1530.7657760480888,2,23,0.5504778623580933,3.931246519088745,19.80722137658152,19.5461356845166,79.56138495483103,70.63964841130782,3.237724376958795e-05,0.0956302732229232,0,0,0
6550,242167.2200095057,2010-12-16 07:52:59,1560.782553123349,2,23,0.550297200679779,3.9328653812408447,19.811808846010663,19.5461356845166,79.57942343617424,70.63964841130782,3.237724376958795e-05,0.0956302732229232,0,0,0
6551,242197.23328798983,2010-12-16 07:53:29,1590.7958315172757,2,23,0.5501165986061096,3.9346461296081534,19.816395738510156,19.5461356845166,79.59746751692937,70.63964841130782,6.47544875391759e-05,0.0956302732229232,0,0,0
6552,242227.2482721886,2010-12-16 07:53:59,1620.8108157160318,2,23,0.5501165986061096,3.936264991760254,19.82098301340193,19.5461356845166,79.61552102942623,70.63964841130782,0.0,0.0956302732229232,0,0,0
6553,242257.26341029536,2010-12-16 07:54:29,1650.8259538077446,2,23,0.5501165986061096,3.938045740127564,19.825570246889196,19.5461356845166,79.63358217980173,70.63964841130782,3.237724376958795e-05,0.0956302732229232,0,0,0
6554,242287.2782993624,2010-12-16 07:54:59,1680.8408428948192,2,23,0.5501165986061096,3.939826488494873,19.830157380988997,19.5461356845166,79.65165089540226,70.63964841130782,3.237724376958795e-05,0.0956302732229232,0,0,0
6555,242317.29331176632,2010-12-16 07:55:29,1710.855855298763,2,23,0.550297200679779,3.941607236862183,19.8347444973228,19.5461356845166,79.66972747433252,70.63964841130782,6.47544875391759e-05,0.0956302732229232,0,0,0
6556,242347.30831587463,2010-12-16 07:55:59,1740.8708594020504,2,23,0.550297200679779,3.943387985229492,19.839331692353287,19.5461356845166,79.687812152016,70.63964841130782,6.47544875391759e-05,0.0956302732229232,0,0,0
6557,242377.32338304483,2010-12-16 07:56:29,1770.8859266625022,2,23,0.550297200679779,3.945006847381592,19.84391893586487,19.5461356845166,79.7059049005551,70.63964841130782,3.237724376958795e-05,0.0956302732229232,0,0,0
6558,242407.3383567926,2010-12-16 07:56:59,1800.9009003200272,2,23,0.5501165986061096,3.9466257095336914,19.84850605274331,19.5461356845166,79.72400507208116,70.63964841130782,0.0,0.0956302732229232,0,0,0
6559,242437.3533623796,2010-12-16 07:57:29,1830.9159059070075,2,23,0.550297200679779,3.948406457901001,19.85309323500069,19.5461356845166,79.74211330307742,70.63964841130782,3.237724376958795e-05,0.0956302732229232,0,0,0
6560,242467.3683611295,2010-12-16 07:57:59,1860.930904656973,2,23,0.5501165986061096,3.950187206268311,19.857680461433077,19.5461356845166,79.76022967874277,70.63964841130782,6.47544875391759e-05,0.0956302732229232,0,0,0
6561,242497.38614617308,2010-12-16 07:58:29,1890.9486897907489,2,23,0.550297200679779,3.95196795463562,19.8622680022694,19.5461356845166,79.77835525839093,70.63964841130782,6.47544875391759e-05,0.0956302732229232,0,0,0
6562,242527.3983914512,2010-12-16 07:58:59,1920.9609349785808,2,23,0.5499359965324402,3.95358681678772,19.866854735422216,19.5461356845166,79.79648557827974,70.63964841130782,3.237724376958795e-05,0.0956302732229232,0,0,0
6563,242557.413378076,2010-12-16 07:59:29,1950.975921603375,2,23,0.550297200679779,3.9555294513702393,19.871441920699823,19.5461356845166,79.81462573905492,70.63964841130782,6.47544875391759e-05,0.0956302732229232,0,0,0
6564,242587.4283856629,2010-12-16 07:59:59,1980.990929195344,2,23,0.5499359965324402,3.957148313522339,19.876029188276604,19.5461356845166,79.83277424680288,70.63964841130782,3.237724376958795e-05,0.0956302732229232,0,0,0
6565,242617.44341803656,2010-12-16 08:00:29,2011.0059615589564,2,23,0.550297200679779,3.958929061889648,19.880616401985232,19.5461356845166,79.85093046835266,70.63964841130782,6.47544875391759e-05,0.0956302732229232,0,0,0
6566,242647.45866649796,2010-12-16 08:00:59,2041.0212100253325,2,23,0.550297200679779,3.960709810256958,19.88520359965367,19.5461356845166,79.86909468413866,70.63964841130782,6.47544875391759e-05,0.0956302732229232,0,0,0
6567,242677.4734102884,2010-12-16 08:01:29,2071.035953815842,2,23,0.5501165986061096,3.962490558624268,19.88979074674221,19.5461356845166,79.88726678786783,70.63964841130782,6.47544875391759e-05,0.0956302732229232,0,0,0
6568,242707.48855096652,2010-12-16 08:01:59,2101.0510944889784,2,23,0.5501165986061096,3.964109420776367,19.89437794952624,19.5461356845166,79.90544713012848,70.63964841130782,0.0,0.0956302732229232,0,0,0
6569,242737.5035713203,2010-12-16 08:02:29,2131.06611483268,2,23,0.550297200679779,3.9658901691436768,19.89896516601022,19.5461356845166,79.92363560939837,70.63964841130782,6.47544875391759e-05,0.0956302732229232,0,0,0
6570,242767.52030181463,2010-12-16 08:02:59,2161.0828454673747,2,23,0.5499359965324402,3.967509031295776,19.903552698537265,19.5461356845166,79.94183345890204,70.63964841130782,0.0,0.0956302732229232,0,0,0
6571,242797.53346131268,2010-12-16 08:03:29,2191.0960048401216,2,23,0.5501165986061096,3.969451665878296,19.90813959034967,19.5461356845166,79.96003689204015,70.63964841130782,3.237724376958795e-05,0.0956302732229232,0,0,0
6572,242827.54854711427,2010-12-16 08:03:59,2221.1110907820616,2,23,0.5501165986061096,3.9712324142456055,19.91272681906129,19.5461356845166,79.97824991171763,70.63964841130782,3.237724376958795e-05,0.0956302732229232,0,0,0
6573,242857.5634672787,2010-12-16 08:04:29,2251.1260108111337,2,23,0.5501165986061096,3.973013162612915,19.91731404618384,19.5461356845166,79.99647122884042,70.63964841130782,3.237724376958795e-05,0.0956302732229232,0,0,0
6574,242887.57862125497,2010-12-16 08:04:59,2281.141164767325,2,23,0.5501165986061096,3.9749557971954346,19.921901278320508,19.5461356845166,80.01470091293281,70.63964841130782,6.47544875391759e-05,0.0956302732229232,0,0,0
6575,242917.5937553066,2010-12-16 08:05:29,2311.156298818984,2,23,0.5501165986061096,3.976574659347534,19.92648853524943,19.5461356845166,80.03293895822371,70.63964841130782,3.237724376958795e-05,0.0956302732229232,0,0,0
6576,242947.60850004948,2010-12-16 08:05:59,2341.171043561864,2,23,0.5501165986061096,3.978193521499634,19.931075784641525,19.5461356845166,80.05118488726019,70.63964841130782,3.237724376958795e-05,0.0956302732229232,0,0,0
6577,242977.62353351584,2010-12-16 08:06:29,2371.1860770432577,2,23,0.5501165986061096,3.9802980422973633,19.93566290322449,19.5461356845166,80.06943908176174,70.63964841130782,6.47544875391759e-05,0.0956302732229232,0,0,0
6578,243007.6385304763,2010-12-16 08:06:59,2401.2010740087835,2,23,0.5501165986061096,3.982240676879883,19.9402500419408,19.5461356845166,80.0877018492793,70.63964841130782,3.237724376958795e-05,0.0956302732229232,0,0,0
6579,243037.65394294084,2010-12-16 08:07:29,2431.216486533412,2,23,0.550297200679779,3.9841833114624015,19.94483722281873,19.5461356845166,80.1059733690518,70.63964841130782,6.47544875391759e-05,0.0956302732229232,0,0,0
6580,243067.66854070293,2010-12-16 08:07:59,2461.231084320598,2,23,0.550297200679779,3.986125946044922,19.949424263873617,19.5461356845166,80.12425302016118,70.63964841130782,9.713172767078504e-05,0.0956302732229232,0,0,0
6581,243097.6835464453,2010-12-16 08:08:29,2491.2460899727403,2,23,0.550297200679779,3.987906694412232,19.954011457049983,19.5461356845166,80.14254210325198,70.63964841130782,3.237724376958795e-05,0.0956302732229232,0,0,0
6582,243127.6987189276,2010-12-16 08:08:59,2521.2612624249573,2,23,0.550297200679779,3.989849328994751,19.95859867331712,19.5461356845166,80.16083992747704,70.63964841130782,6.47544875391759e-05,0.0956302732229232,0,0,0
6583,243157.7135633084,2010-12-16 08:09:29,2551.276106835857,2,23,0.5501165986061096,3.9917919635772714,19.963185765617357,19.5461356845166,80.17914613203725,70.63964841130782,6.47544875391759e-05,0.0956302732229232,0,0,0
6584,243187.72856822377,2010-12-16 08:09:59,2581.291111756178,2,23,0.5501165986061096,3.99373459815979,19.967772848570693,19.5461356845166,80.19746126417124,70.63964841130782,6.47544875391759e-05,0.0956302732229232,0,0,0
6585,243217.743584352,2010-12-16 08:10:29,2611.3061278843893,2,23,0.5501165986061096,3.995515108108521,19.972359989040505,19.5461356845166,80.21578575348947,70.63964841130782,-3.237724376958795e-05,0.0956302732229232,0,0,0
6586,243247.75869686503,2010-12-16 08:10:59,2641.3212404826627,2,23,0.5501165986061096,3.99794340133667,19.97694719108704,19.5461356845166,80.234119632636,70.63964841130782,9.713172767078504e-05,0.0956302732229232,0,0,0
6587,243277.77360615737,2010-12-16 08:11:29,2671.3361496847924,2,23,0.5501165986061096,3.99972414970398,19.98153433096728,19.5461356845166,80.25246244421665,70.63964841130782,6.47544875391759e-05,0.0956302732229232,0,0,0
6588,243307.78861633572,2010-12-16 08:11:59,2701.351159863198,2,23,0.5501165986061096,4.001828670501709,19.986121449692607,19.5461356845166,80.27081458991883,70.63964841130782,6.47544875391759e-05,0.0956302732229232,0,0,0
6589,243337.80362329612,2010-12-16 08:12:29,2731.366166828608,2,23,0.5501165986061096,4.003933429718018,19.99070851186807,19.5461356845166,80.2891759513638,70.63964841130782,6.47544875391759e-05,0.0956302732229232,0,0,0
6590,243367.8186477902,2010-12-16 08:12:59,2761.3811913226373,2,23,0.5501165986061096,4.006037712097168,19.995295588186547,19.5461356845166,80.30754695845508,70.63964841130782,6.47544875391759e-05,0.0956302732229232,0,0,0
6591,243397.8336728005,2010-12-16 08:13:29,2791.396216418164,2,23,0.550297200679779,4.007980346679688,19.999882724466183,19.5461356845166,80.32592786086525,70.63964841130782,3.23295607813634e-05,0.0956302732229232,0,0,0
6592,243427.8486508189,2010-12-16 08:13:59,2821.411194351328,2,23,0.5501165986061096,4.010246753692627,20.004469817877595,19.5461356845166,80.34431828619338,70.63964841130782,3.23295607813634e-05,0.0956302732229232,0,0,0
6593,243457.86381981752,2010-12-16 08:14:29,2851.426363334914,2,23,0.550297200679779,4.012513160705566,20.00905694150278,19.5461356845166,80.36271880497753,70.63964841130782,6.47544875391759e-05,0.0956302732229232,0,0,0
6594,243487.87868318052,2010-12-16 08:14:59,2881.4412267080006,2,23,0.5499359965324402,4.014617919921875,20.01364405143703,19.5461356845166,80.3811294150745,70.63964841130782,3.24249267578125e-05,0.0956302732229232,0,0,0
6595,243517.8936909931,2010-12-16 08:15:29,2911.456234520518,2,23,0.550297200679779,4.016884326934815,20.018231228804304,19.5461356845166,80.39955048189613,70.63964841130782,6.47544875391759e-05,0.0956302732229232,0,0,0
6596,243547.90868677065,2010-12-16 08:15:59,2941.471230298088,2,23,0.5501165986061096,4.018988609313965,20.02281842568603,19.5461356845166,80.41798193235049,70.63964841130782,0.0,0.0956302732229232,0,0,0
6597,243577.9236891747,2010-12-16 08:16:29,2971.486232677085,2,23,0.5501165986061096,4.021417140960693,20.027405567902868,19.5461356845166,80.4364234189385,70.63964841130782,3.24249267578125e-05,0.0956302732229232,0,0,0
6598,243607.93870875653,2010-12-16 08:16:59,3001.5012522839525,2,23,0.550297200679779,4.023845195770264,20.03199269243225,19.5461356845166,80.45487545572162,70.63964841130782,6.47544875391759e-05,0.0956302732229232,0,0,0
6599,243637.95371198264,2010-12-16 08:17:29,3031.516255510058,2,23,0.5499359965324402,4.025949954986572,20.03657977399905,19.5461356845166,80.47333792485007,70.63964841130782,3.24249267578125e-05,0.0956302732229232,0,0,0
6600,243667.96873953423,2010-12-16 08:17:59,3061.531283061696,2,23,0.5501165986061096,4.028378009796143,20.04116619515167,19.5461356845166,80.49180835037866,70.63964841130782,6.47544875391759e-05,0.0956302732229232,0,0,0
6601,243697.9837288909,2010-12-16 08:18:29,3091.5462724233,2,23,0.5501165986061096,4.030806541442871,20.04575246263422,19.5461356845166,80.5102889586814,70.63964841130782,3.24249267578125e-05,0.0956302732229232,0,0,0
6602,243727.9988084469,2010-12-16 08:18:59,3121.561352094636,2,23,0.5499359965324402,4.033234596252441,20.050338782339093,19.5461356845166,80.52878083610283,70.63964841130782,9.70840483205393e-05,0.0956302732229232,0,0,0
6603,243758.0137484106,2010-12-16 08:19:29,3151.576292033252,2,23,0.5501165986061096,4.035662651062012,20.05492514549529,19.5461356845166,80.54728408623554,70.63964841130782,6.47544875391759e-05,0.0956302732229232,0,0,0
6604,243788.0287880072,2010-12-16 08:19:59,3181.5913315346265,2,23,0.5501165986061096,4.03809118270874,20.059512134116545,19.5461356845166,80.56580122982976,70.63964841130782,6.47544875391759e-05,0.0956302732229232,0,0,0
6605,243818.04375782012,2010-12-16 08:20:29,3211.606301347584,2,23,0.5504778623580933,4.040519237518311,20.064099248020906,19.5461356845166,80.58433023626654,70.63964841130782,6.47544875391759e-05,0.0956302732229232,0,0,0
6606,243848.0587973416,2010-12-16 08:21:00,3241.6213408690087,2,23,0.550297200679779,4.043271541595459,20.06868633733669,19.5461356845166,80.6028706053292,70.63964841130782,9.71794142969884e-05,0.0956302732229232,0,0,0
6607,243878.07408329123,2010-12-16 08:21:30,3271.636626888835,2,23,0.5501165986061096,4.045699596405029,20.073273486579037,19.5461356845166,80.6214228412561,70.63964841130782,9.70840483205393e-05,0.0956302732229232,0,0,0
6608,243908.0888093276,2010-12-16 08:22:00,3301.651352854989,2,23,0.5501165986061096,4.048128128051758,20.077860559506867,19.5461356845166,80.63998647985606,70.63964841130782,3.24249267578125e-05,0.0956302732229232,0,0,0
6609,243938.1039128031,2010-12-16 08:22:30,3331.666456315524,2,23,0.5501165986061096,4.050718307495117,20.0824476532559,19.5461356845166,80.65856202290992,70.63964841130782,3.24249267578125e-05,0.0956302732229232,0,0,0
6610,243968.12062295183,2010-12-16 08:23:00,3361.6831665444392,2,23,0.550297200679779,4.0536322593688965,20.087035049605102,19.5461356845166,80.67715077445489,70.63964841130782,9.71794142969884e-05,0.0956302732229232,0,0,0
6611,243998.1338188906,2010-12-16 08:23:30,3391.696362418017,2,23,0.550297200679779,4.056060314178467,20.09162190002944,19.5461356845166,80.69574940826271,70.63964841130782,9.70840483205393e-05,0.0956302732229232,0,0,0
6612,244028.1488151243,2010-12-16 08:24:00,3421.7113586617465,2,23,0.5501165986061096,4.058974266052246,20.096209106195108,19.5461356845166,80.71436172934445,70.63964841130782,0.0001295089750783,0.0956302732229232,0,0,0
6613,244058.16382408468,2010-12-16 08:24:30,3451.7263676120965,2,23,0.5501165986061096,4.061402797698975,20.100796309354948,19.5461356845166,80.73298615279927,70.63964841130782,6.47544875391759e-05,0.0956302732229232,0,0,0
6614,244088.17898621623,2010-12-16 08:25:00,3481.741529733606,2,23,0.550297200679779,4.064316749572754,20.105383438398498,19.5461356845166,80.75162257238988,70.63964841130782,9.71794142969884e-05,0.0956302732229232,0,0,0
6615,244118.19389300232,2010-12-16 08:25:30,3511.7564366199736,2,23,0.5501165986061096,4.066906929016113,20.109970589505423,19.5461356845166,80.7702716720891,70.63964841130782,6.47544875391759e-05,0.0956302732229232,0,0,0
6616,244148.20897391177,2010-12-16 08:26:00,3541.7715174241284,2,23,0.5501165986061096,4.069820880889893,20.11455771849079,19.5461356845166,80.78893333476698,70.63964841130782,9.71794142969884e-05,0.0956302732229232,0,0,0
6617,244178.22388983052,2010-12-16 08:26:30,3571.78643335801,2,23,0.5501165986061096,4.072411060333252,20.11914485785269,19.5461356845166,80.80760778541853,70.63964841130782,9.71794142969884e-05,0.0956302732229232,0,0,0
6618,244208.2388881044,2010-12-16 08:27:00,3601.8014316317917,2,23,0.5501165986061096,4.075162887573242,20.123731950924125,19.5461356845166,80.82629494905012,70.63964841130782,6.47544875391759e-05,0.0956302732229232,0,0,0
6619,244238.2538801727,2010-12-16 08:27:30,3631.8164237703054,2,23,0.5501165986061096,4.0780768394470215,20.12831911989965,19.5461356845166,80.84499543405141,70.63964841130782,6.47544875391759e-05,0.0956302732229232,0,0,0
6620,244268.26888046152,2010-12-16 08:28:00,3661.831423993938,2,23,0.550297200679779,4.081314563751221,20.132906245721365,19.5461356845166,80.86370896057538,70.63964841130782,0.0001295089750783,0.0956302732229232,0,0,0
6621,244298.28391303564,2010-12-16 08:28:30,3691.8464565630634,2,23,0.5501165986061096,4.08390474319458,20.137493378138487,19.5461356845166,80.88243569367825,70.63964841130782,6.47544875391759e-05,0.0956302732229232,0,0,0
6622,244328.2989042619,2010-12-16 08:29:00,3721.8614477893066,2,23,0.550297200679779,4.086818695068359,20.14208049807782,19.5461356845166,80.90117571748685,70.63964841130782,9.70840483205393e-05,0.0956302732229232,0,0,0
6623,244358.31390197927,2010-12-16 08:29:30,3751.876445511716,2,23,0.5501165986061096,4.089732646942139,20.14666755799546,19.5461356845166,80.91992898092445,70.63964841130782,6.47544875391759e-05,0.0956302732229232,0,0,0
6624,244388.32890733067,2010-12-16 08:30:00,3781.891450858097,2,23,0.5501165986061096,4.092646598815918,20.15125462744671,19.5461356845166,80.93869585917574,70.63964841130782,3.23295607813634e-05,0.0956302732229232,0,0,0
6625,244418.34648506835,2010-12-16 08:30:30,3811.9090286609367,2,23,0.5504778623580933,4.095884323120117,20.155842082475065,19.5461356845166,80.95747802131626,70.63964841130782,0.0001295089750783,0.0956302732229232,0,0,0
6626,244448.35895584256,2010-12-16 08:31:00,3841.9214993749833,2,23,0.550297200679779,4.0987982749938965,20.16042879765071,19.5461356845166,80.97627099656177,70.63964841130782,6.47544875391759e-05,0.0956302732229232,0,0,0
6627,244478.3740659446,2010-12-16 08:31:30,3871.9366094620073,2,23,0.5501165986061096,4.101874351501465,20.165015971082777,19.5461356845166,80.99507989207927,70.63964841130782,9.71794142969884e-05,0.0956302732229232,0,0,0
6628,244508.38956455849,2010-12-16 08:32:00,3901.9521081711023,2,23,0.550297200679779,4.105112075805664,20.16960313198076,19.5461356845166,81.01390279933203,70.63964841130782,0.0001619339018361,0.0956302732229232,0,0,0
6629,244538.40396368128,2010-12-16 08:32:30,3931.9665071836457,2,23,0.550297200679779,4.108187675476074,20.17419018249524,19.5461356845166,81.03273955536199,70.63964841130782,9.70840483205393e-05,0.0956302732229232,0,0,0
6630,244568.4208687601,2010-12-16 08:33:00,3961.9834124078,2,23,0.550297200679779,4.111263751983643,20.17877758257956,19.5461356845166,81.05159208603087,70.63964841130782,6.47544875391759e-05,0.0956302732229232,0,0,0
6631,244598.4339659882,2010-12-16 08:33:30,3991.9965095156026,2,23,0.5501165986061096,4.114501476287842,20.183364426327152,19.5461356845166,81.07045677002677,70.63964841130782,0.0001295089750783,0.0956302732229232,0,0,0
6632,244628.4491141349,2010-12-16 08:34:00,4022.011657717474,2,23,0.550297200679779,4.117577075958252,20.187951522740928,19.5461356845166,81.08933703373044,70.63964841130782,0.0001295089750783,0.0956302732229232,0,0,0
6633,244658.46408574737,2010-12-16 08:34:30,4052.0266292597344,2,23,0.550297200679779,4.120976448059082,20.192538578231947,19.5461356845166,81.10823177858953,70.63964841130782,0.0001295089750783,0.0956302732229232,0,0,0
6634,244688.4789891049,2010-12-16 08:35:00,4082.0415326173206,2,23,0.550297200679779,4.12405252456665,20.19712566420828,19.5461356845166,81.12714143723473,70.63964841130782,6.47544875391759e-05,0.0956302732229232,0,0,0
6635,244718.49403502225,2010-12-16 08:35:30,4112.056578544686,2,23,0.5501165986061096,4.1274518966674805,20.201712732599876,19.5461356845166,81.14606593925163,70.63964841130782,0.0001295089750783,0.0956302732229232,0,0,0
6636,244748.50902175737,2010-12-16 08:36:00,4142.071565269729,2,23,0.550297200679779,4.13068962097168,20.20629980411437,19.5461356845166,81.16500553731848,70.63964841130782,9.70840483205393e-05,0.0956302732229232,0,0,0
6637,244778.524024006,2010-12-16 08:36:30,4172.086567533439,2,23,0.550297200679779,4.133927345275879,20.21088692676589,19.5461356845166,81.18396061230436,70.63964841130782,9.70840483205393e-05,0.0956302732229232,0,0,0
6638,244808.53916846355,2010-12-16 08:37:00,4202.101711975955,2,23,0.5501165986061096,4.137165069580078,20.215474064798915,19.5461356845166,81.20293100907736,70.63964841130782,6.47544875391759e-05,0.0956302732229232,0,0,0
6639,244838.55419306288,2010-12-16 08:37:30,4232.116736665472,2,23,0.5501165986061096,4.140564918518066,20.220061222923576,19.5461356845166,81.22191688757667,70.63964841130782,9.71794142969884e-05,0.0956302732229232,0,0,0
6640,244868.5691820185,2010-12-16 08:38:00,4262.131725535853,2,23,0.5501165986061096,4.143802642822266,20.22464842207975,19.5461356845166,81.24091846293251,70.63964841130782,6.47544875391759e-05,0.0956302732229232,0,0,0
6641,244898.58420903372,2010-12-16 08:38:30,4292.146752561181,2,23,0.550297200679779,4.147525787353516,20.229235505441025,19.5461356845166,81.25993553077434,70.63964841130782,9.70840483205393e-05,0.0956302732229232,0,0,0
6642,244928.59909084276,2010-12-16 08:39:00,4322.161634370144,2,23,0.550297200679779,4.150925636291504,20.233822602218577,19.5461356845166,81.27896855521692,70.63964841130782,9.71794142969884e-05,0.0956302732229232,0,0,0
6643,244958.61430215163,2010-12-16 08:39:30,4352.176845759255,2,23,0.5501165986061096,4.154487133026123,20.238409744890788,19.5461356845166,81.29801762275794,70.63964841130782,9.71794142969884e-05,0.0956302732229232,0,0,0
6644,244988.62907323003,2010-12-16 08:40:00,4382.191616812606,2,23,0.5501165986061096,4.158048629760742,20.242996785893165,19.5461356845166,81.31708224012037,70.63964841130782,9.71794142969884e-05,0.0956302732229232,0,0,0
6645,245018.64405960424,2010-12-16 08:40:30,4412.206603131639,2,23,0.5501165986061096,4.161448001861572,20.24758383199644,19.5461356845166,81.33616305961047,70.63964841130782,0.0001295089750783,0.0956302732229232,0,0,0
6646,245048.65916619755,2010-12-16 08:41:00,4442.221709719957,2,23,0.5499359965324402,4.1648478507995605,20.252170881308487,19.5461356845166,81.35526010990017,70.63964841130782,9.71794142969884e-05,0.0956302732229232,0,0,0
6647,245078.6742397837,2010-12-16 08:41:30,4472.236783291112,2,23,0.5501165986061096,4.1685709953308105,20.25675800929444,19.5461356845166,81.37437386250276,70.63964841130782,6.47544875391759e-05,0.0956302732229232,0,0,0
6648,245108.68911942228,2010-12-16 08:42:00,4502.251662949725,2,23,0.5501165986061096,4.172294616699219,20.26134509230416,19.5461356845166,81.39350396245668,70.63964841130782,9.71794142969884e-05,0.0956302732229232,0,0,0
6649,245138.70415147516,2010-12-16 08:42:30,4532.266695002564,2,23,0.5501165986061096,4.175693988800049,20.265932246784104,19.5461356845166,81.41265091309727,70.63964841130782,6.47544875391759e-05,0.0956302732229232,0,0,0
6650,245168.720929598,2010-12-16 08:43:00,4562.283473190593,2,23,0.5501165986061096,4.179579257965088,20.27051959134167,19.5461356845166,81.4318152806298,70.63964841130782,9.70840483205393e-05,0.0956302732229232,0,0,0
6651,245198.73427411148,2010-12-16 08:43:30,4592.296817643906,2,23,0.5501165986061096,4.183140754699707,20.27510644604853,19.5461356845166,81.45099440273393,70.63964841130782,6.47544875391759e-05,0.0956302732229232,0,0,0
6652,245228.74914563983,2010-12-16 08:44:00,4622.311689152236,2,23,0.5501165986061096,4.186864376068115,20.279693556095395,19.5461356845166,81.4701915237412,70.63964841130782,6.47544875391759e-05,0.0956302732229232,0,0,0
6653,245258.76414810907,2010-12-16 08:44:30,4652.326691636496,2,23,0.5501165986061096,4.190587520599365,20.28428057006064,19.5461356845166,81.48940522778629,70.63964841130782,0.0001295089750783,0.0956302732229232,0,0,0
6654,245288.7791762572,2010-12-16 08:45:00,4682.341719784617,2,23,0.550297200679779,4.194472789764404,20.28886762203893,19.5461356845166,81.50863624494329,70.63964841130782,0.0001295089750783,0.0956302732229232,0,0,0
6655,245318.79417074652,2010-12-16 08:45:30,4712.35671424892,2,23,0.5501165986061096,4.197872161865234,20.293454690952625,19.5461356845166,81.52788449566813,70.63964841130782,3.23295607813634e-05,0.0956302732229232,0,0,0
6656,245333.5439952776,2010-12-16 08:45:45,4727.106538845126,2,23,0.550297200679779,4.200138568878174,20.295708794899127,19.5461356845166,81.53734951197286,70.63964841130782,0.0001618385285837,0.0956302732229232,0,0,0
6657,245363.56370311812,2010-12-16 08:46:15,30.01496123160326,3,23,0.0,4.105597496032715,20.295708794899127,19.5461356845166,81.53734951197286,70.63964841130782,-0.0004209518374409,0.0956302732229232,0,0,0
6658,245393.5787062691,2010-12-16 08:46:45,60.02996437750864,3,23,0.0,4.093617916107178,20.295708794899127,19.5461356845166,81.53734951197286,70.63964841130782,-0.0002266883820993,0.0956302732229232,0,0,0
6659,245423.59370839244,2010-12-16 08:47:15,90.04496659610646,3,23,0.0,4.08617115020752,20.295708794899127,19.5461356845166,81.53734951197286,70.63964841130782,-0.0001619339018361,0.0956302732229232,0,0,0
6660,245453.5618674386,2010-12-16 08:47:45,120.0131255570593,3,23,0.0,4.081314563751221,20.295708794899127,19.5461356845166,81.53734951197286,70.63964841130782,-0.0001295089750783,0.0956302732229232,0,0,0
6661,245453.56919976484,2010-12-16 08:47:45,2.731797974e-06,4,23,1.0260220766067505,4.199976921081543,20.295708795677708,19.5461356845166,81.53734951524288,70.63964841130782,0.0,0.0956302732229232,0,0,0
6662,245453.9908753884,2010-12-16 08:47:46,0.421678400481197,4,23,0.9745483994483948,4.199653148651123,20.295824648988976,19.5461356845166,81.5378360832365,70.63964841130782,-6.47544875391759e-05,0.0956302732229232,0,0,0
6663,245455.6627016388,2010-12-16 08:47:47,2.093504630754223,4,23,0.923977792263031,4.199814796447754,20.29626450183003,19.5461356845166,81.53968339662374,70.63964841130782,-3.24249267578125e-05,0.0956302732229232,0,0,0
6664,245458.35028553792,2010-12-16 08:47:50,4.781088620143202,4,23,0.8737684488296509,4.199814796447754,20.29693458945897,19.5461356845166,81.54249764564669,70.63964841130782,-3.24249267578125e-05,0.0956302732229232,0,0,0
6665,245462.1312899269,2010-12-16 08:47:54,8.562092938967353,4,23,0.823559045791626,4.199976921081543,20.297824753725035,19.5461356845166,81.54623618707829,70.63964841130782,0.0,0.0956302732229232,0,0,0
6666,245467.14694616452,2010-12-16 08:47:59,13.57774917660486,4,23,0.7735303044319153,4.199814796447754,20.29893585499317,19.5461356845166,81.55090264491926,70.63964841130782,0.0,0.0956302732229232,0,0,0
6667,245473.6154243688,2010-12-16 08:48:05,20.046227360778552,4,23,0.7235015034675598,4.199814796447754,20.30027907615384,19.5461356845166,81.55654397794778,70.63964841130782,0.0,0.0956302732229232,0,0,0
6668,245482.1933733499,2010-12-16 08:48:14,28.62417635693437,4,23,0.6734727621078491,4.199814796447754,20.301941000354763,19.5461356845166,81.56352382435196,70.63964841130782,0.0,0.0956302732229232,0,0,0
6669,245493.86503917136,2010-12-16 08:48:26,40.29584217842091,4,23,0.6234439611434937,4.199814796447754,20.304039413374205,19.5461356845166,81.57233686777255,70.63964841130782,-3.24249267578125e-05,0.0956302732229232,0,0,0
6670,245510.95844512965,2010-12-16 08:48:43,57.389248216909,4,23,0.573415219783783,4.199653148651123,20.306873252078315,19.5461356845166,81.58423857595723,70.63964841130782,-3.23295607813634e-05,0.0956302732229232,0,0,0
6671,245539.25474842716,2010-12-16 08:49:11,85.68555143414575,4,23,0.5233864188194275,4.199976921081543,20.311165706730257,19.5461356845166,81.602266299946,70.63964841130782,3.24249267578125e-05,0.0956302732229232,0,0,0
6672,245592.5037701697,2010-12-16 08:50:04,138.93457315165043,4,23,0.4733576774597168,4.199653148651123,20.31849742997344,19.5461356845166,81.63305851915328,70.63964841130782,-6.47544875391759e-05,0.0956302732229232,0,0,0
6673,245685.17360856832,2010-12-16 08:51:37,231.60441167058025,4,23,0.4233289062976837,4.199814796447754,20.329997351722216,19.5461356845166,81.68135663643332,70.63964841130782,0.0,0.0956302732229232,0,0,0
6674,245810.24915625813,2010-12-16 08:53:42,356.6799592651714,4,23,0.3731195330619812,4.199653148651123,20.343813001979036,19.5461356845166,81.73938053771305,70.63964841130782,0.0,0.0956302732229232,0,0,0
6675,245959.82423923924,2010-12-16 08:56:12,506.2550422362572,4,23,0.3230907618999481,4.199653148651123,20.358264036074555,19.5461356845166,81.80007292355158,70.63964841130782,-3.23295607813634e-05,0.0956302732229232,0,0,0
6676,246141.99234073336,2010-12-16 08:59:14,688.4231437403847,4,23,0.273061990737915,4.199976921081543,20.37332527180104,19.5461356845166,81.86332812418209,70.63964841130782,0.0,0.0956302732229232,0,0,0
6677,246362.7065132928,2010-12-16 09:02:54,909.137316299792,4,23,0.2230332195758819,4.199814796447754,20.38849620835765,19.5461356845166,81.92704404473628,70.63964841130782,0.0,0.0956302732229232,0,0,0
6678,246646.20066924623,2010-12-16 09:07:38,1192.6314722532609,4,23,0.1730044484138488,4.199653148651123,20.404033165889818,19.5461356845166,81.99229721276548,70.63964841130782,-6.47544875391759e-05,0.0956302732229232,0,0,0
6679,247050.67671953057,2010-12-16 09:14:22,1597.1075225376223,4,23,0.1229756772518158,4.199814796447754,20.420504368816516,19.5461356845166,82.06147391558086,70.63964841130782,0.0,0.0956302732229232,0,0,0
6680,247751.34976489,2010-12-16 09:26:03,2297.7805679722237,4,23,0.0729469060897827,4.199814796447754,20.4390645216185,19.5461356845166,82.13942422528241,70.63964841130782,0.0,0.0956302732229232,0,0,0
6681,248342.86871621464,2010-12-16 09:35:55,2889.2995192016288,4,23,0.0498289167881011,4.199814796447754,20.44904833166925,19.5461356845166,82.18135498660958,70.63964841130782,-6.47544875391759e-05,0.0956302732229232,0,0,0
6682,248372.8882212377,2010-12-16 09:36:25,30.01500392283876,5,23,0.0,4.191073417663574,20.44904833166925,19.5461356845166,82.18135498660958,70.63964841130782,-3.23295607813634e-05,0.0956302732229232,0,0,0
6683,248402.8875963188,2010-12-16 09:36:55,60.01437902896824,5,23,0.0,4.189778327941895,20.44904833166925,19.5461356845166,82.18135498660958,70.63964841130782,0.0,0.0956302732229232,0,0,0
6684,248403.08107936208,2010-12-16 09:36:55,0.18773269058002,6,23,-1.9243103452026844e-05,4.1896162033081055,20.44904833166925,19.546135685520085,82.18135498660958,70.63964841551204,0.0,0.1004928275942802,0,0,0
6685,248407.90890309072,2010-12-16 09:37:00,5.015556419243271,6,23,0.0007031940040178,4.1896162033081055,20.449049436041307,19.546135685520085,82.18135961367268,70.63964841551204,-3.24249267578125e-05,0.1004928275942802,0,0,0
6686,248437.92960464995,2010-12-16 09:37:30,30.014884856546868,7,23,-1.0997490882873535,3.992277622222901,20.449049436041307,19.555302941571004,82.18135961367268,70.6764756183802,-0.0011007785797119,0.1004928275942802,0,0,0
6687,248467.94460364053,2010-12-16 09:38:00,60.02988387718669,7,23,-1.099568486213684,3.960386037826538,20.449049436041307,19.564470130881563,82.18135961367268,70.71291815147967,-0.0006799221155233,0.1004928275942802,0,0,0
6688,248497.95964647012,2010-12-16 09:38:30,90.04492678704314,7,23,-1.0993878841400146,3.9378838539123535,20.449049436041307,19.573637245018617,82.18135961367268,70.74911482341408,-0.0004856586456298,0.1004928275942802,0,0,0
6689,248527.97500491524,2010-12-16 09:39:00,120.06028519700948,7,23,-1.0993878841400146,3.920238256454468,20.449049436041307,19.5828044500776,82.18135961367268,70.78513048345732,-0.0004209041653666,0.1004928275942802,0,0,0
6690,248557.9896191684,2010-12-16 09:39:30,150.07489949027,7,23,-1.099568486213684,3.905506849288941,20.449049436041307,19.59197141145451,82.18135961367268,70.82099913107943,-0.0004209041653666,0.1004928275942802,0,0,0
6691,248588.004612124,2010-12-16 09:40:00,180.08989235559258,7,23,-1.0993878841400146,3.892879724502564,20.449049436041307,19.601138514168436,82.18135961367268,70.8567423751887,-0.0003237724304199,0.1004928275942802,0,0,0
6692,248618.01962939,2010-12-16 09:40:30,210.10490962664787,7,23,-1.099568486213684,3.880738258361816,20.449049436041307,19.6103056568973,82.18135961367268,70.89237239574969,-0.0003237724304199,0.1004928275942802,0,0,0
6693,248648.0347148357,2010-12-16 09:41:00,240.1199951575652,7,23,-1.0993878841400146,3.869729995727539,20.449049436041307,19.6194728257919,82.18135961367268,70.92789675445677,-0.0002913951757363,0.1004928275942802,0,0,0
6694,248678.04964912529,2010-12-16 09:41:30,270.1349294521367,7,23,-1.0997490882873535,3.858883619308472,20.449049436041307,19.62863998892411,82.18135961367268,70.96332082012701,-0.0002590179501567,0.1004928275942802,0,0,0
6695,248708.0646596445,2010-12-16 09:42:00,300.1499398761534,7,23,-1.0993878841400146,3.848846673965454,20.449049436041307,19.63780716702265,82.18135961367268,70.99864929782541,-0.0002266406954731,0.1004928275942802,0,0,0
6696,248738.0814686292,2010-12-16 09:42:30,330.16674892598115,7,23,-1.0997490882873535,3.8384859561920166,20.449049436041307,19.646974902302947,82.18135961367268,71.03388699756283,-0.0003237724304199,0.1004928275942802,0,0,0
6697,248768.0946514904,2010-12-16 09:43:00,360.1799316969536,7,23,-1.0993878841400146,3.829096794128418,20.449049436041307,19.65614150585658,82.18135961367268,71.06903079428534,-0.0002590179501567,0.1004928275942802,0,0,0
6698,248798.10964080688,2010-12-16 09:43:30,390.1949210435199,7,23,-1.0993878841400146,3.81970739364624,20.449049436041307,19.66530868530536,82.18135961367268,71.10408938234998,-0.0002590179501567,0.1004928275942802,0,0,0
6699,248828.12477691864,2010-12-16 09:44:00,420.2100571252308,7,23,-1.099568486213684,3.810479879379273,20.449049436041307,19.674475905171104,82.18135961367268,71.13906334191142,-0.0002590179501567,0.1004928275942802,0,0,0
6700,248858.1396584319,2010-12-16 09:44:30,450.224938648483,7,23,-1.099568486213684,3.801738023757935,20.449049436041307,19.68364299480305,82.18135961367268,71.17395399978251,-0.0002266406954731,0.1004928275942802,0,0,0
6701,248888.15465642497,2010-12-16 09:45:00,480.2399366566032,7,23,-1.0993878841400146,3.7929961681365967,20.449049436041307,19.69281011343589,82.18135961367268,71.20876498090642,-0.0002266406954731,0.1004928275942802,0,0,0
6702,248918.1698190377,2010-12-16 09:45:30,510.2550992693356,7,23,-1.099568486213684,3.7847399711608887,20.449049436041307,19.7019773177318,82.18135961367268,71.24349830168691,-0.0001942634553415,0.1004928275942802,0,0,0
6703,248948.18467037583,2010-12-16 09:46:00,540.2699506124857,7,23,-1.0993878841400146,3.776645660400391,20.449049436041307,19.71114452842855,82.18135961367268,71.27815602552386,-0.0001942634553415,0.1004928275942802,0,0,0
6704,248978.1997024086,2010-12-16 09:46:30,570.2849826452749,7,23,-1.0993878841400146,3.768713235855103,20.449049436041307,19.72031174467861,82.18135961367268,71.31274029644771,-0.0002266406954731,0.1004928275942802,0,0,0
6705,249008.2147573484,2010-12-16 09:47:00,600.3000376452171,7,23,-1.0993878841400146,3.760942697525024,20.449049436041307,19.7294789593738,82.18135961367268,71.3472527119634,-0.0001942634553415,0.1004928275942802,0,0,0
6706,249038.2296589316,2010-12-16 09:47:30,630.3149391782629,7,23,-1.0997490882873535,3.753334045410156,20.449049436041307,19.73864597176246,82.18135961367268,71.38169401905672,-0.0001942634553415,0.1004928275942802,0,0,0
6707,249068.2447738256,2010-12-16 09:48:00,660.3300541223738,7,23,-1.099568486213684,3.745725631713867,20.449049436041307,19.74781306563915,82.18135961367268,71.41606659528728,-0.0002266406954731,0.1004928275942802,0,0,0
6708,249098.2597270322,2010-12-16 09:48:30,690.3450072638451,7,23,-1.0993878841400146,3.738602638244629,20.449049436041307,19.75698024238984,82.18135961367268,71.45037180982087,-0.0001942634553415,0.1004928275942802,0,0,0
6709,249128.27486852737,2010-12-16 09:49:00,720.3601487339649,7,23,-1.099568486213684,3.7313177585601807,20.449049436041307,19.766147478638157,82.18135961367268,71.48461105247674,-0.0002266406954731,0.1004928275942802,0,0,0
6710,249158.2897180911,2010-12-16 09:49:30,750.3749983227493,7,23,-1.099568486213684,3.7245185375213614,20.449049436041307,19.77531459097357,82.18135961367268,71.51878525367738,-0.0001618862152099,0.1004928275942802,0,0,0
6711,249188.3048408196,2010-12-16 09:50:00,780.3901210512314,7,23,-1.099568486213684,3.717719316482544,20.449049436041307,19.7844817646012,82.18135961367268,71.55289682911209,-0.0001618862152099,0.1004928275942802,0,0,0
6712,249218.31974027248,2010-12-16 09:50:30,810.4050204790383,7,23,-1.099568486213684,3.711081981658936,20.449049436041307,19.793648872393472,82.18135961367268,71.58694672772319,-0.0001295089750783,0.1004928275942802,0,0,0
6713,249248.3347286366,2010-12-16 09:51:00,840.4200088732345,7,23,-1.099568486213684,3.704444646835327,20.449049436041307,19.80281601219565,82.18135961367268,71.62093629533003,-0.0001618862152099,0.1004928275942802,0,0,0
6714,249278.34975908545,2010-12-16 09:51:30,870.4350393220823,7,23,-1.0993878841400146,3.6981310844421382,20.449049436041307,19.81198318594984,82.18135961367268,71.65486637067083,-0.0001618862152099,0.1004928275942802,0,0,0
6715,249308.36474635685,2010-12-16 09:52:00,900.450026588472,7,23,-1.099568486213684,3.69165563583374,20.449049436041307,19.82115033891665,82.18135961367268,71.68873801300954,-0.0001942634553415,0.1004928275942802,0,0,0
6716,249338.38151855,2010-12-16 09:52:31,930.4667988768203,7,23,-1.099568486213684,3.6855039596557617,20.449049436041307,19.830318027635943,82.18135961367268,71.72255437416045,-0.0001618862152099,0.1004928275942802,0,0,0
6717,249368.3949069376,2010-12-16 09:53:01,960.4801871441624,7,23,-1.099568486213684,3.679190397262573,20.449049436041307,19.839484791540723,82.18135961367268,71.75631065333154,-0.0002266406954731,0.1004928275942802,0,0,0
6718,249398.4097529625,2010-12-16 09:53:31,990.4950331941408,7,23,-1.0993878841400146,3.673362493515015,20.449049436041307,19.848652005817552,82.18135961367268,71.79001242213761,-0.0001618862152099,0.1004928275942802,0,0,0
6719,249428.42475676505,2010-12-16 09:54:01,1020.51003701673,7,23,-1.0993878841400146,3.667534828186035,20.449049436041307,19.85781928573567,82.18135961367268,71.82366007699667,-0.0001618862152099,0.1004928275942802,0,0,0
6720,249458.4398943956,2010-12-16 09:54:31,1050.525174632258,7,23,-1.099568486213684,3.6615450382232666,20.449049436041307,19.866986503840963,82.18135961367268,71.85725419249664,-0.0001942634553415,0.1004928275942802,0,0,0
6721,249488.45488782733,2010-12-16 09:55:01,1080.5401680589775,7,23,-1.0993878841400146,3.655879020690918,20.449049436041307,19.87615373965873,82.18135961367268,71.89079477950527,-0.0001618862152099,0.1004928275942802,0,0,0
6722,249518.4698948028,2010-12-16 09:55:31,1110.555175039425,7,23,-1.099568486213684,3.650213003158569,20.449049436041307,19.88532091888089,82.18135961367268,71.9242829286338,-0.0001618862152099,0.1004928275942802,0,0,0
6723,249548.484782747,2010-12-16 09:56:01,1140.570062978643,7,23,-1.0993878841400146,3.644708871841431,20.449049436041307,19.89448803703934,82.18135961367268,71.95771908398117,-0.0001295089750783,0.1004928275942802,0,0,0
6724,249578.49978557712,2010-12-16 09:56:31,1170.5850658137747,7,23,-1.0997490882873535,3.639042854309082,20.449049436041307,19.90365516749321,82.18135961367268,71.99110493433601,-0.0001618862152099,0.1004928275942802,0,0,0
6725,249608.51477393624,2010-12-16 09:57:01,1200.6000541678716,7,23,-1.099568486213684,3.6338624954223633,20.449049436041307,19.91282236249332,82.18135961367268,72.02444067860804,-0.0001295089750783,0.1004928275942802,0,0,0
6726,249638.5299021333,2010-12-16 09:57:31,1230.6151823699745,7,23,-1.099568486213684,3.628196477890015,20.449049436041307,19.921989605308983,82.18135961367268,72.0577280177259,-0.0001942634553415,0.1004928275942802,0,0,0
6727,249668.54482730012,2010-12-16 09:58:01,1260.630107622044,7,23,-1.099568486213684,3.623339891433716,20.449049436041307,19.931156727521252,82.18135961367268,72.09096683292556,-0.0001295089750783,0.1004928275942802,0,0,0
6728,249698.55980374463,2010-12-16 09:58:31,1290.6450839762797,7,23,-1.0993878841400146,3.618321418762207,20.449049436041307,19.94032394775496,82.18135961367268,72.12415859676801,-0.0001295089750783,0.1004928275942802,0,0,0
6729,249728.57492355583,2010-12-16 09:59:01,1320.6602037774771,7,23,-1.099568486213684,3.613141059875488,20.449049436041307,19.949491178135837,82.18135961367268,72.15730427578403,-0.0001618862152099,0.1004928275942802,0,0,0
6730,249758.5898288132,2010-12-16 09:59:31,1350.6751090448154,7,23,-1.0993878841400146,3.6082844734191895,20.449049436041307,19.958658355401617,82.18135961367268,72.19040475837886,-0.0001618862152099,0.1004928275942802,0,0,0
6731,249788.60492896548,2010-12-16 10:00:01,1380.6902091971174,7,23,-1.0993878841400146,3.6035897731781006,20.449049436041307,19.96782554410051,82.18135961367268,72.22346095610078,-0.0001295089750783,0.1004928275942802,0,0,0
6732,249818.61981763653,2010-12-16 10:00:31,1410.7050978681566,7,23,-1.0993878841400146,3.5990569591522217,20.449049436041307,19.97699267480153,82.18135961367268,72.25647393918815,-9.713172767078504e-05,0.1004928275942802,0,0,0
6733,249848.63481380508,2010-12-16 10:01:01,1440.720094036699,7,23,-1.0997490882873535,3.594362258911133,20.449049436041307,19.98615985693945,82.18135961367268,72.28944476675798,-9.713172767078504e-05,0.1004928275942802,0,0,0
6734,249878.6498163194,2010-12-16 10:01:31,1470.7350965359954,7,23,-1.0993878841400146,3.590153455734253,20.449049436041307,19.99532701007163,82.18135961367268,72.3223749124631,-9.713172767078504e-05,0.1004928275942802,0,0,0
6735,249908.66763383377,2010-12-16 10:02:01,1500.7529141556104,7,23,-1.099568486213684,3.585620641708374,20.449049436041307,20.00449508031712,82.18135961367268,72.35526831795916,-0.0001295089750783,0.1004928275942802,0,0,0
6736,249938.6815760245,2010-12-16 10:02:31,1530.766856351382,7,23,-1.099568486213684,3.581411600112915,20.449049436041307,20.01366193641516,82.18135961367268,72.38811823567212,-9.713172767078504e-05,0.1004928275942802,0,0,0
6737,249968.6948672604,2010-12-16 10:03:01,1560.7801474920284,7,23,-1.0997490882873535,3.577364444732666,20.449049436041307,20.02282862944656,82.18135961367268,72.42092970119262,-0.0001295089750783,0.1004928275942802,0,0,0
6738,249998.70989449625,2010-12-16 10:03:31,1590.7951748231171,7,23,-1.0993878841400146,3.573479175567627,20.449049436041307,20.031995824793583,82.18135961367268,72.45370603267452,-6.47544875391759e-05,0.1004928275942802,0,0,0
6739,250028.7248332519,2010-12-16 10:04:01,1620.810113483553,7,23,-1.099568486213684,3.569432020187378,20.449049436041307,20.0411630390182,82.18135961367268,72.48644629956978,-0.0001295089750783,0.1004928275942802,0,0,0
6740,250058.7400286964,2010-12-16 10:04:31,1650.8253090182106,7,23,-1.0993878841400146,3.565870523452759,20.449049436041307,20.050330316774023,82.18135961367268,72.51915184600315,-9.713172767078504e-05,0.1004928275942802,0,0,0
6741,250088.75484618527,2010-12-16 10:05:01,1680.840126391829,7,23,-1.099568486213684,3.56230902671814,20.449049436041307,20.059497469933877,82.18135961367268,72.55182320519361,-6.47544875391759e-05,0.1004928275942802,0,0,0
6742,250118.76985241883,2010-12-16 10:05:31,1710.8551326554928,7,23,-1.099568486213684,3.5585856437683105,20.449049436041307,20.06866464625932,82.18135961367268,72.58446200830579,-9.713172767078504e-05,0.1004928275942802,0,0,0
6743,250148.78486899816,2010-12-16 10:06:01,1740.8701492999887,7,23,-1.0993878841400146,3.5550241470336914,20.449049436041307,20.077831874029112,82.18135961367268,72.61706766816178,-6.47544875391759e-05,0.1004928275942802,0,0,0
6744,250178.79990191816,2010-12-16 10:06:31,1770.8851821498113,7,23,-1.0993878841400146,3.5513007640838623,20.449049436041307,20.086999105786543,82.18135961367268,72.64964041730751,-9.713172767078504e-05,0.1004928275942802,0,0,0
6745,250208.8149947623,2010-12-16 10:07:01,1800.9002749939273,7,23,-1.0993878841400146,3.548063039779663,20.449049436041307,20.09616636789044,82.18135961367268,72.68218089781848,-6.47544875391759e-05,0.1004928275942802,0,0,0
6746,250238.8298828619,2010-12-16 10:07:31,1830.9151630935444,7,23,-1.099568486213684,3.544339656829834,20.449049436041307,20.10533357046098,82.18135961367268,72.71468873833832,-9.713172767078504e-05,0.1004928275942802,0,0,0
6747,250268.84488111065,2010-12-16 10:08:01,1860.930161342263,7,23,-1.0993878841400146,3.540940046310425,20.449049436041307,20.114500809678606,82.18135961367268,72.74716420061725,-6.47544875391759e-05,0.1004928275942802,0,0,0
6748,250298.85989210103,2010-12-16 10:08:31,1890.945172307627,7,23,-1.099568486213684,3.5373785495758057,20.449049436041307,20.12366801255236,82.18135961367268,72.77960675724455,-6.47544875391759e-05,0.1004928275942802,0,0,0
6749,250328.8750181177,2010-12-16 10:09:01,1920.960298349354,7,23,-1.099568486213684,3.5338170528411865,20.449049436041307,20.132835324282347,82.18135961367268,72.81201726267481,-3.237724376958795e-05,0.1004928275942802,0,0,0
6750,250358.8899230041,2010-12-16 10:09:31,1950.975203210682,7,23,-1.099568486213684,3.5302555561065674,20.449049436041307,20.14200253680097,82.18135961367268,72.8443953246498,-9.713172767078504e-05,0.1004928275942802,0,0,0
6751,250388.90491788945,2010-12-16 10:10:01,1980.990198116081,7,23,-1.099568486213684,3.526694059371948,20.449049436041307,20.1511698274151,82.18135961367268,72.8767417302081,-9.713172767078504e-05,0.1004928275942802,0,0,0
6752,250418.91990422356,2010-12-16 10:10:31,2011.005184455163,7,23,-1.099568486213684,3.523132562637329,20.449049436041307,20.16033712450344,82.18135961367268,72.90905569507427,-9.713172767078504e-05,0.1004928275942802,0,0,0
6753,250448.9351230762,2010-12-16 10:11:01,2041.020403362984,7,23,-1.099568486213684,3.5194091796875,20.449049436041307,20.16950430029042,82.18135961367268,72.94133674080989,-0.0001618862152099,0.1004928275942802,0,0,0
6754,250478.94990973332,2010-12-16 10:11:31,2071.035190060265,7,23,-1.099568486213684,3.516009569168091,20.449049436041307,20.17867142364473,82.18135961367268,72.97358453902683,-9.713172767078504e-05,0.1004928275942802,0,0,0
6755,250508.9649073856,2010-12-16 10:12:01,2101.050187622275,7,23,-1.099568486213684,3.5122861862182617,20.449049436041307,20.187838750579207,82.18135961367268,73.00579977142873,-9.713172767078504e-05,0.1004928275942802,0,0,0
6756,250538.9817319942,2010-12-16 10:12:31,2131.067012316033,7,23,-1.099568486213684,3.508563041687012,20.449049436041307,20.19700653588608,82.18135961367268,73.0379825824826,-6.47544875391759e-05,0.1004928275942802,0,0,0
6757,250568.9948996726,2010-12-16 10:13:01,2161.08017989921,7,23,-1.0993878841400146,3.5046777725219727,20.449049436041307,20.206173299929617,82.18135961367268,73.0701274017834,-0.0001295089750783,0.1004928275942802,0,0,0
6758,250599.01004697225,2010-12-16 10:13:31,2191.095327188812,7,23,-1.099568486213684,3.5007925033569336,20.449049436041307,20.215340583168945,82.18135961367268,73.10223829765448,-9.713172767078504e-05,0.1004928275942802,0,0,0
6759,250629.0249420091,2010-12-16 10:14:01,2221.1102222256927,7,23,-1.0993878841400146,3.4969072341918945,20.449049436041307,20.22450783417441,82.18135961367268,73.13431241327967,-6.47544875391759e-05,0.1004928275942802,0,0,0
6760,250659.03998097416,2010-12-16 10:14:31,2251.1252612959943,7,23,-1.099568486213684,3.492374420166016,20.449049436041307,20.233675088185805,82.18135961367268,73.166347932724,-0.0001295089750783,0.1004928275942802,0,0,0
6761,250689.05508430436,2010-12-16 10:15:01,2281.1403645409923,7,23,-1.099568486213684,3.4878416061401367,20.449049436041307,20.242842351254307,82.18135961367268,73.19834349048944,-0.0001618862152099,0.1004928275942802,0,0,0
6762,250719.0700819265,2010-12-16 10:15:31,2311.15536215814,7,23,-1.099568486213684,3.483308792114258,20.449049436041307,20.252009614844383,82.18135961367268,73.23029703592005,-0.0001295089750783,0.1004928275942802,0,0,0
6763,250749.0849917602,2010-12-16 10:16:01,2341.170272087078,7,23,-1.099568486213684,3.477804660797119,20.449049436041307,20.261176749661807,82.18135961367268,73.26220503115577,-0.0002266406954731,0.1004928275942802,0,0,0
6764,250779.09999263045,2010-12-16 10:16:31,2371.185272862084,7,23,-1.0993878841400146,3.4726243019104004,20.449049436041307,20.27034394077824,82.18135961367268,73.2940650286033,-0.0001618862152099,0.1004928275942802,0,0,0
6765,250809.11499726507,2010-12-16 10:17:01,2401.2002774966936,7,23,-1.0993878841400146,3.466796398162842,20.449049436041307,20.27951122840151,82.18135961367268,73.32587268076814,-0.0001295089750783,0.1004928275942802,0,0,0
6766,250839.12997755408,2010-12-16 10:17:31,2431.215257785721,7,23,-1.099568486213684,3.4599971771240234,20.449049436041307,20.288678493777653,82.18135961367268,73.35762294454405,-0.0001942634553415,0.1004928275942802,0,0,0
6767,250869.14500739143,2010-12-16 10:18:01,2461.2302876230465,7,23,-1.0997490882873535,3.452550411224365,20.449049436041307,20.29784583311635,82.18135961367268,73.38930942895452,-0.0002590179501567,0.1004928275942802,0,0,0
6768,250899.1600175197,2010-12-16 10:18:31,2491.245297751328,7,23,-1.099568486213684,3.4441323280334477,20.449049436041307,20.30701308750833,82.18135961367268,73.420923448138,-0.0002266406954731,0.1004928275942802,0,0,0
6769,250929.17511584744,2010-12-16 10:19:01,2521.2603960690644,7,23,-1.0993878841400146,3.4344191551208496,20.449049436041307,20.31618041027973,82.18135961367268,73.45245309409181,-0.0002266406954731,0.1004928275942802,0,0,0
6770,250959.19000299973,2010-12-16 10:19:31,2551.275283231349,7,23,-1.099568486213684,3.422439813613892,20.449049436041307,20.32534760518823,82.18135961367268,73.48388318583572,-0.0003237724304199,0.1004928275942802,0,0,0
6771,250989.2050056594,2010-12-16 10:20:01,2581.290285896057,7,23,-1.0993878841400146,3.408355712890625,20.449049436041307,20.33451486962876,82.18135961367268,73.51519548439009,-0.0004209041653666,0.1004928275942802,0,0,0
6772,251019.22003420352,2010-12-16 10:20:31,2611.305314435152,7,23,-1.099568486213684,3.391357660293579,20.449049436041307,20.343682111081907,82.18135961367268,73.54636558214172,-0.0004856586456298,0.1004928275942802,0,0,0
6773,251049.23501288856,2010-12-16 10:21:01,2641.320293120188,7,23,-1.0997490882873535,3.370150566101074,20.449049436041307,20.35284935317451,82.18135961367268,73.57736186609782,-0.0006151676061563,0.1004928275942802,0,0,0
6774,251079.25014946147,2010-12-16 10:21:31,2671.335429693121,7,23,-1.0993878841400146,3.34360146522522,20.449049436041307,20.362016673421287,82.18135961367268,73.608140860485,-0.0008094310760498,0.1004928275942802,0,0,0
6775,251109.2650290399,2010-12-16 10:22:01,2701.3503092715337,7,23,-1.099568486213684,3.308795928955078,20.449049436041307,20.37118393109787,82.18135961367268,73.6386407390801,-0.0010684489971026,0.1004928275942802,0,0,0
6776,251139.28009251592,2010-12-16 10:22:31,2731.36537281273,7,23,-1.099568486213684,3.263306140899658,20.449049436041307,20.380351224800098,82.18135961367268,73.6687758283781,-0.0013922214275225,0.1004928275942802,0,0,0
6777,251169.2812557668,2010-12-16 10:23:01,2761.366536088652,7,23,-1.099568486213684,3.201951265335083,20.449049436041307,20.389514290458692,82.18135961367268,73.69841183909531,-0.0018455028766766,0.1004928275942802,0,0,0
6778,251199.29443007676,2010-12-16 10:23:31,2791.379710398569,7,23,-1.099568486213684,3.116151809692383,20.449049436041307,20.398680985551422,82.18135961367268,73.72739291483128,-0.0026549338363111,0.1004928275942802,0,0,0
6779,251229.3094686658,2010-12-16 10:24:01,2821.394748907473,7,23,-1.0993878841400146,2.987938404083252,20.449049436041307,20.407848299667517,82.18135961367268,73.75541721584968,-0.0041442872025072,0.1004928275942802,0,0,0
6780,251257.7463441417,2010-12-16 10:24:30,2849.8316243733443,7,23,-1.099568486213684,2.787847757339477,20.449049436041307,20.41653356778164,82.18135961367268,73.78056542448533,-0.006734418682754,0.1004928275942802,0,0,0
6781,251267.6992842905,2010-12-16 10:24:40,2859.784564527112,7,23,-1.0997490882873535,2.699943780899048,20.449049436041307,20.41957341757027,82.18135961367268,73.788907681713,-0.0071553229354321,0.1004928275942802,0,0,0
6782,251327.71606627945,2010-12-16 10:25:40,60.01437036240182,8,23,0.0,3.4553024768829346,20.449049436041307,20.41957341757027,82.18135961367268,73.788907681713,0.0013274669181555,0.1004928275942802,0,0,0
6783,251327.9222544121,2010-12-16 10:25:40,0.202516564682113,9,23,-1.9243103452026844e-05,3.4554643630981445,20.449049436041307,20.41957341857385,82.18135961367268,73.78890768518082,0.0,0.0958035141229629,0,0,0
6784,251332.73522606696,2010-12-16 10:25:45,5.015488239580803,9,23,0.0007031940040178,3.4633967876434326,20.44905049659647,20.419573418739557,82.18136328345443,73.78890768575341,0.0011008263099938,0.0958035141229629,0,0,0
