Data_Point,Test_Time(s),Date_Time,Step_Time(s),Step_Index,Cycle_Index,Current(A),Voltage(V),Charge_Capacity(Ah),Discharge_Capacity(Ah),Charge_Energy(Wh),Discharge_Energy(Wh),dV/dt(V/s),Internal_Resistance(Ohm),Is_FC_Data,AC_Impedance(Ohm),ACI_Phase_Angle(Deg)
11724,431773.5161136182,2010-12-18 12:33:28,30.015234902623067,1,41,0.0,3.4557881355285645,35.240563221725786,35.215496100512595,141.57014653604324,127.30656559704497,0.0008418083307333,0.0939245000481605,0,0,0
11725,431803.5310815816,2010-12-18 12:33:58,60.03020287099051,1,41,0.0,3.4803948402404785,35.240563221725786,35.215496100512595,141.57014653604324,127.30656559704497,0.0005180359003134,0.0939245000481605,0,0,0
11726,431833.5479060045,2010-12-18 12:34:28,90.04702730911151,1,41,0.0,3.499497413635254,35.240563221725786,35.215496100512595,141.57014653604324,127.30656559704497,0.0004532813909463,0.0939245000481605,0,0,0
11727,431863.51440974657,2010-12-18 12:34:58,120.01353094585372,1,41,0.0,3.514228820800781,35.240563221725786,35.215496100512595,141.57014653604324,127.30656559704497,0.0003561496851034,0.0939245000481605,0,0,0
11728,431893.5443793302,2010-12-18 12:35:28,30.015093275188644,2,41,0.550297200679779,3.660573720932007,35.24515062062056,35.215496100512595,141.58680099072726,127.30656559704497,0.0012950897216796,0.0939245000481605,0,0,0
11729,431923.5595021889,2010-12-18 12:35:58,60.03021613399498,2,41,0.5501165986061096,3.698940515518189,35.24973810189801,35.215496100512595,141.60368795514577,127.30656559704497,0.0008094310760498,0.0939245000481605,0,0,0
11730,431953.57458435645,2010-12-18 12:36:28,90.04529828650526,2,41,0.550297200679779,3.726137399673462,35.254325543076625,35.215496100512595,141.62072223909723,127.30656559704497,0.0006475448608398,0.0939245000481605,0,0,0
11731,431983.5897027592,2010-12-18 12:36:58,120.0604166892228,2,41,0.550297200679779,3.746535062789917,35.258913017665904,35.215496100512595,141.63786482746994,127.30656559704497,0.0004532813909463,0.0939245000481605,0,0,0
11732,432013.6049039981,2010-12-18 12:37:28,150.07561794311226,2,41,0.550297200679779,3.761590242385864,35.26350043537423,35.215496100512595,141.65508849482347,127.30656559704497,0.0003561496851034,0.0939245000481605,0,0,0
11733,432043.6198950188,2010-12-18 12:37:58,180.09060896384466,2,41,0.5501165986061096,3.771627187728882,35.2680877959174,35.215496100512595,141.6723691397301,127.30656559704497,0.0002266406954731,0.0939245000481605,0,0,0
11734,432073.63511527,2010-12-18 12:38:28,210.1058292049832,2,41,0.5501165986061096,3.77858829498291,35.27267519047508,35.215496100512595,141.6896881866399,127.30656559704497,0.0001295089750783,0.0939245000481605,0,0,0
11735,432103.6500962457,2010-12-18 12:38:58,240.1208101907439,2,41,0.5499359965324402,3.784254312515259,35.27726254580046,35.215496100512595,141.70703553539985,127.30656559704497,0.0001618862152099,0.0939245000481605,0,0,0
11736,432133.6651925434,2010-12-18 12:39:28,270.135906488454,2,41,0.550297200679779,3.7894346714019775,35.28184991083651,35.215496100512595,141.7244074726363,127.30656559704497,9.713172767078504e-05,0.0939245000481605,0,0,0
11737,432163.6803035528,2010-12-18 12:39:58,300.1510174977733,2,41,0.5504778623580933,3.794291257858277,35.28643734322169,35.215496100512595,141.74180222672064,127.30656559704497,0.0001618862152099,0.0939245000481605,0,0,0
11738,432193.6956404392,2010-12-18 12:40:28,330.1663544744036,2,41,0.5501165986061096,3.7988240718841553,35.29102475651486,35.215496100512595,141.75921818502445,127.30656559704497,0.0001295089750783,0.0939245000481605,0,0,0
11739,432223.7104890454,2010-12-18 12:40:58,360.1812029905187,2,41,0.5501165986061096,3.8030331134796143,35.29561211842663,35.215496100512595,141.77665417357284,127.30656559704497,9.713172767078504e-05,0.0939245000481605,0,0,0
11740,432253.725590902,2010-12-18 12:41:28,390.19630484706175,2,41,0.5501165986061096,3.806918382644653,35.30019951785933,35.215496100512595,141.79410980579323,127.30656559704497,6.47544875391759e-05,0.0939245000481605,0,0,0
11741,432283.7425600051,2010-12-18 12:41:58,420.2132740253632,2,41,0.5504778623580933,3.811289310455322,35.30478715944108,35.215496100512595,141.81158522513329,127.30656559704497,0.0001618862152099,0.0939245000481605,0,0,0
11742,432313.7558038882,2010-12-18 12:42:28,450.226517838236,2,41,0.550297200679779,3.815498352050781,35.30937425442266,35.215496100512595,141.82907711417235,127.30656559704497,0.0001942634553415,0.0939245000481605,0,0,0
11743,432343.7709003413,2010-12-18 12:42:58,480.2416142913327,2,41,0.5501165986061096,3.8192217350006095,35.31396151255113,35.215496100512595,141.84658770753586,127.30656559704497,0.0001295089750783,0.0939245000481605,0,0,0
11744,432373.7861326976,2010-12-18 12:43:28,510.256846697744,2,41,0.5501165986061096,3.8231070041656494,35.318548933258256,35.215496100512595,141.86411666745946,127.30656559704497,0.0001295089750783,0.0939245000481605,0,0,0
11745,432403.8011349714,2010-12-18 12:43:58,540.2718489013045,2,41,0.5501165986061096,3.8268303871154794,35.32313622964184,35.215496100512595,141.88166264326972,127.30656559704497,9.713172767078504e-05,0.0939245000481605,0,0,0
11746,432433.8162290434,2010-12-18 12:44:28,570.2869429885137,2,41,0.5504778623580933,3.830877542495728,35.32772356642801,35.215496100512595,141.89922626817034,127.30656559704497,0.0001618862152099,0.0939245000481605,0,0,0
11747,432463.8312937776,2010-12-18 12:44:58,600.3020077226791,2,41,0.5501165986061096,3.834438800811768,35.332310897147686,35.215496100512595,141.91680735889472,127.30656559704497,9.713172767078504e-05,0.0939245000481605,0,0,0
11748,432493.84639562416,2010-12-18 12:45:28,630.3171095742097,2,41,0.5501165986061096,3.8381621837615967,35.33689824120624,35.215496100512595,141.9344060933504,127.30656559704497,6.47544875391759e-05,0.0939245000481605,0,0,0
11749,432523.8615119116,2010-12-18 12:45:58,660.332225856651,2,41,0.550297200679779,3.842047452926636,35.341485582582905,35.215496100512595,141.95202249187346,127.30656559704497,9.713172767078504e-05,0.0939245000481605,0,0,0
11750,432553.8766195326,2010-12-18 12:46:28,690.3473334775383,2,41,0.5501165986061096,3.8460946083068848,35.34607298645318,35.215496100512595,141.9696567144489,127.30656559704497,0.0001295089750783,0.0939245000481605,0,0,0
11751,432583.8916967678,2010-12-18 12:46:58,720.3624107128122,2,41,0.550297200679779,3.849817991256714,35.350660326179565,35.215496100512595,141.98730819864755,127.30656559704497,0.0001295089750783,0.0939245000481605,0,0,0
11752,432613.9070182959,2010-12-18 12:47:28,750.3777323111744,2,41,0.5501165986061096,3.853379487991333,35.35524780743262,35.215496100512595,142.00497765382758,127.30656559704497,6.47544875391759e-05,0.0939245000481605,0,0,0
11753,432643.92190935294,2010-12-18 12:47:58,780.3926232879512,2,41,0.550297200679779,3.857102870941162,35.35983513409235,35.215496100512595,142.02266354423804,127.30656559704497,6.47544875391759e-05,0.0939245000481605,0,0,0
11754,432673.9370000968,2010-12-18 12:48:28,810.4077140268283,2,41,0.5501165986061096,3.860664367675781,35.364422522430694,35.215496100512595,142.04036643228574,127.30656559704497,6.47544875391759e-05,0.0939245000481605,0,0,0
11755,432703.9522847633,2010-12-18 12:48:58,840.4229987985487,2,41,0.550297200679779,3.8642258644104,35.3690099494732,35.215496100512595,142.05808572966004,127.30656559704497,9.713172767078504e-05,0.0939245000481605,0,0,0
11756,432733.967196627,2010-12-18 12:49:28,870.4379105720775,2,41,0.550297200679779,3.86778736114502,35.37359727065376,35.215496100512595,142.07582034840186,127.30656559704497,9.713172767078504e-05,0.0939245000481605,0,0,0
11757,432763.9823109295,2010-12-18 12:49:58,900.4530248745917,2,41,0.5501165986061096,3.8710250854492183,35.37818467269397,35.215496100512595,142.0935705157887,127.30656559704497,9.713172767078504e-05,0.0939245000481605,0,0,0
11758,432793.9974122347,2010-12-18 12:50:28,930.4681261797627,2,41,0.5504778623580933,3.874100923538208,35.382772082761015,35.215496100512595,142.11133539625104,127.30656559704497,9.713172767078504e-05,0.0939245000481605,0,0,0
11759,432824.01255377,2010-12-18 12:50:58,960.4832678102816,2,41,0.550297200679779,3.877176761627197,35.38735938856048,35.215496100512595,142.1291137263605,127.30656559704497,9.713172767078504e-05,0.0939245000481605,0,0,0
11760,432854.0276113915,2010-12-18 12:51:28,990.4983253365104,2,41,0.5501165986061096,3.8797669410705566,35.3919467561698,35.215496100512595,142.1469056594968,127.30656559704497,0.0,0.0939245000481605,0,0,0
11761,432884.04461155686,2010-12-18 12:51:58,1020.5153255771093,2,41,0.550297200679779,3.882680892944336,35.39653436607971,35.215496100512595,142.16471117719942,127.30656559704497,9.713172767078504e-05,0.0939245000481605,0,0,0
11762,432914.05781871855,2010-12-18 12:52:28,1050.52853266359,2,41,0.550297200679779,3.885109186172485,35.40112153947761,35.215496100512595,142.18252696796637,127.30656559704497,9.713172767078504e-05,0.0939245000481605,0,0,0
11763,432944.0730393858,2010-12-18 12:52:58,1080.5437533358013,2,41,0.5497553944587708,3.887375593185425,35.405708924376235,35.215496100512595,142.20035482831466,127.30656559704497,3.237724376958795e-05,0.0939245000481605,0,0,0
11764,432974.0880044319,2010-12-18 12:53:28,1110.5587183818964,2,41,0.550297200679779,3.889803886413574,35.410296281668266,35.215496100512595,142.21819331022093,127.30656559704497,6.47544875391759e-05,0.0939245000481605,0,0,0
11765,433004.10312343104,2010-12-18 12:53:59,1140.5738373760855,2,41,0.5501165986061096,3.8917465209960938,35.4148836700366,35.215496100512595,142.23604206920703,127.30656559704497,0.0,0.0939245000481605,0,0,0
11766,433034.1183612459,2010-12-18 12:54:29,1170.589075246093,2,41,0.550297200679779,3.894012928009033,35.419471140614085,35.215496100512595,142.25390090628278,127.30656559704497,3.237724376958795e-05,0.0939245000481605,0,0,0
11767,433064.1333081469,2010-12-18 12:54:59,1200.6040220918978,2,41,0.5501165986061096,3.895793676376343,35.42405860574534,35.215496100512595,142.2717687119803,127.30656559704497,3.237724376958795e-05,0.0939245000481605,0,0,0
11768,433094.1485446836,2010-12-18 12:55:29,1230.6192586135498,2,41,0.550297200679779,3.898060083389282,35.42864601394306,35.215496100512595,142.2896452267088,127.30656559704497,9.713172767078504e-05,0.0939245000481605,0,0,0
11769,433124.1636485451,2010-12-18 12:55:59,1260.6343624750823,2,41,0.5501165986061096,3.899840831756592,35.43323344583085,35.215496100512595,142.30753062356422,127.30656559704497,9.713172767078504e-05,0.0939245000481605,0,0,0
11770,433154.1786205886,2010-12-18 12:56:29,1290.6493345336278,2,41,0.550297200679779,3.901621580123901,35.43782079278277,35.215496100512595,142.3254241441008,127.30656559704497,3.237724376958795e-05,0.0939245000481605,0,0,0
11771,433184.19371823967,2010-12-18 12:56:59,1320.6644321897184,2,41,0.5501165986061096,3.903240442276001,35.44240813356798,35.215496100512595,142.34332602946037,127.30656559704497,6.47544875391759e-05,0.0939245000481605,0,0,0
11772,433214.2088213744,2010-12-18 12:57:29,1350.6795353194295,2,41,0.5501165986061096,3.905183076858521,35.44699552732669,35.215496100512595,142.36123634015678,127.30656559704497,6.47544875391759e-05,0.0939245000481605,0,0,0
11773,433244.2240724472,2010-12-18 12:57:59,1380.694786397304,2,41,0.5501165986061096,3.90696382522583,35.45158284203343,35.215496100512595,142.37915426494405,127.30656559704497,6.47544875391759e-05,0.0939245000481605,0,0,0
11774,433274.2390170425,2010-12-18 12:58:29,1410.7097309925084,2,41,0.550297200679779,3.90874457359314,35.45617015504271,35.215496100512595,142.39708029665687,127.30656559704497,6.47544875391759e-05,0.0939245000481605,0,0,0
11775,433304.2542422209,2010-12-18 12:58:59,1440.7249561709332,2,41,0.550297200679779,3.910525321960449,35.460757579436546,35.215496100512595,142.4150147957766,127.30656559704497,6.47544875391759e-05,0.0939245000481605,0,0,0
11776,433334.2693556412,2010-12-18 12:59:29,1470.7400695862395,2,41,0.550297200679779,3.912144184112549,35.465345036936895,35.215496100512595,142.43295732865568,127.30656559704497,6.47544875391759e-05,0.0939245000481605,0,0,0
11777,433364.28445508674,2010-12-18 12:59:59,1500.755169031783,2,41,0.5501165986061096,3.913762807846069,35.469932404621794,35.215496100512595,142.4509074228691,127.30656559704497,3.23295607813634e-05,0.0939245000481605,0,0,0
11778,433394.29954422166,2010-12-18 13:00:29,1530.7702581516312,2,41,0.5501165986061096,3.915381669998169,35.47451980613825,35.215496100512595,142.4688656327185,127.30656559704497,3.237724376958795e-05,0.0939245000481605,0,0,0
11779,433424.3145200145,2010-12-18 13:00:59,1560.7852339645194,2,41,0.550297200679779,3.917324304580689,35.47910707604154,35.215496100512595,142.48683107240333,127.30656559704497,6.47544875391759e-05,0.0939245000481605,0,0,0
11780,433454.3297236442,2010-12-18 13:01:29,1590.8004375893088,2,41,0.550297200679779,3.918943166732788,35.483694482464635,35.215496100512595,142.50480501640283,127.30656559704497,3.237724376958795e-05,0.0939245000481605,0,0,0
11781,433484.346785443,2010-12-18 13:01:59,1620.8174994682925,2,41,0.5501165986061096,3.9207239151000977,35.48828209192504,35.215496100512595,142.52278763876598,127.30656559704497,3.237724376958795e-05,0.0939245000481605,0,0,0
11782,433514.3598338847,2010-12-18 13:02:29,1650.8305478147545,2,41,0.550297200679779,3.922342777252197,35.49286915181195,35.215496100512595,142.54077584782786,127.30656559704497,3.237724376958795e-05,0.0939245000481605,0,0,0
11783,433544.37508281233,2010-12-18 13:02:59,1680.8457967472905,2,41,0.550297200679779,3.923961639404297,35.49745654205835,35.215496100512595,142.5587732543836,127.30656559704497,0.0,0.0939245000481605,0,0,0
11784,433574.3930569664,2010-12-18 13:03:29,1710.8637710317598,2,41,0.5501165986061096,3.925580501556397,35.50204435638329,35.215496100512595,142.57678024236262,127.30656559704497,0.0,0.0939245000481605,0,0,0
11785,433604.40514974,2010-12-18 13:03:59,1740.8758636850164,2,41,0.550297200679779,3.927685022354126,35.506631253533826,35.215496100512595,142.59479137392003,127.30656559704497,9.713172767078504e-05,0.0939245000481605,0,0,0
11786,433634.4203808732,2010-12-18 13:04:29,1770.8910948182593,2,41,0.550297200679779,3.9293038845062256,35.511218677279054,35.215496100512595,142.6128124529414,127.30656559704497,3.237724376958795e-05,0.0939245000481605,0,0,0
11787,433664.43536069104,2010-12-18 13:04:59,1800.9060746361138,2,41,0.5501165986061096,3.930922746658325,35.515806011440326,35.215496100512595,142.63084110924564,127.30656559704497,3.237724376958795e-05,0.0939245000481605,0,0,0
11788,433694.4505709173,2010-12-18 13:05:29,1830.921284847293,2,41,0.5501165986061096,3.9327034950256343,35.52039342074818,35.215496100512595,142.64887789026602,127.30656559704497,6.47544875391759e-05,0.0939245000481605,0,0,0
11789,433724.4656686786,2010-12-18 13:05:59,1860.936382608645,2,41,0.5501165986061096,3.9343223571777344,35.524980793207064,35.215496100512595,142.6669224491774,127.30656559704497,3.237724376958795e-05,0.0939245000481605,0,0,0
11790,433754.4807712519,2010-12-18 13:06:29,1890.9514851970096,2,41,0.550297200679779,3.936103105545044,35.529568149345195,35.215496100512595,142.68497486153174,127.30656559704497,3.237724376958795e-05,0.0939245000481605,0,0,0
11791,433784.49571199255,2010-12-18 13:06:59,1920.9664259376216,2,41,0.550297200679779,3.938045740127564,35.53415548242639,35.215496100512595,142.7030349352312,127.30656559704497,9.713172767078504e-05,0.0939245000481605,0,0,0
11792,433814.51083684136,2010-12-18 13:07:29,1950.981550791392,2,41,0.550297200679779,3.939664602279663,35.53874287109968,35.215496100512595,142.72110328646266,127.30656559704497,6.47544875391759e-05,0.0939245000481605,0,0,0
11793,433844.5259628078,2010-12-18 13:07:59,1980.9966768331192,2,41,0.550297200679779,3.9411215782165527,35.54333028709424,35.215496100512595,142.73917971109535,127.30656559704497,3.237724376958795e-05,0.0939245000481605,0,0,0
11794,433874.5410543037,2010-12-18 13:08:29,2011.0117682486805,2,41,0.550297200679779,3.943064212799072,35.54791766573169,35.215496100512595,142.75726382098247,127.30656559704497,6.47544875391759e-05,0.0939245000481605,0,0,0
11795,433904.55617971387,2010-12-18 13:08:59,2041.026893779135,2,41,0.550297200679779,3.944844961166382,35.55250509134366,35.215496100512595,142.77535614347687,127.30656559704497,0.0,0.0939245000481605,0,0,0
11796,433934.57123057847,2010-12-18 13:09:29,2071.041944523487,2,41,0.5501165986061096,3.9466257095336914,35.557092520601365,35.215496100512595,142.79345650022196,127.30656559704497,9.713172767078504e-05,0.0939245000481605,0,0,0
11797,433964.5863363597,2010-12-18 13:09:59,2101.057050304797,2,41,0.550297200679779,3.948406457901001,35.561679992220625,35.215496100512595,142.811564877729,127.30656559704497,9.713172767078504e-05,0.0939245000481605,0,0,0
11798,433994.6015575533,2010-12-18 13:10:29,2131.0722714983053,2,41,0.5501165986061096,3.9500253200531006,35.56626747751866,35.215496100512595,142.82968145415762,127.30656559704497,6.47544875391759e-05,0.0939245000481605,0,0,0
11799,434024.61653414805,2010-12-18 13:10:59,2161.08724809314,2,41,0.550297200679779,3.9516441822052,35.570854927323666,35.215496100512595,142.84780604978496,127.30656559704497,3.237724376958795e-05,0.0939245000481605,0,0,0
11800,434054.6316345109,2010-12-18 13:11:29,2191.102348455965,2,41,0.550297200679779,3.95358681678772,35.57544244641386,35.215496100512595,142.8659390075107,127.30656559704497,6.47544875391759e-05,0.0939245000481605,0,0,0
11801,434084.6486708815,2010-12-18 13:11:59,2221.119384911684,2,41,0.5501165986061096,3.955367565155029,35.58003028930202,35.215496100512595,142.88408144372212,127.30656559704497,3.237724376958795e-05,0.0939245000481605,0,0,0
11802,434114.6620655798,2010-12-18 13:12:29,2251.1327796000046,2,41,0.550297200679779,3.957148313522339,35.584617484040514,35.215496100512595,142.90222951627544,127.30656559704497,6.47544875391759e-05,0.0939245000481605,0,0,0
11803,434144.67694874207,2010-12-18 13:12:59,2281.147662757323,2,41,0.5501165986061096,3.958929061889648,35.58920493736603,35.215496100512595,142.92038673349532,127.30656559704497,6.47544875391759e-05,0.0939245000481605,0,0,0
11804,434174.69203608256,2010-12-18 13:13:29,2311.162750027569,2,41,0.550297200679779,3.960709810256958,35.593792376252246,35.215496100512595,142.9385521957317,127.30656559704497,0.0,0.0939245000481605,0,0,0
11805,434204.7072850451,2010-12-18 13:13:59,2341.17799899018,2,41,0.5499359965324402,3.962490558624268,35.598379815735896,35.215496100512595,142.95672598720125,127.30656559704497,3.237724376958795e-05,0.0939245000481605,0,0,0
11806,434234.72236556857,2010-12-18 13:14:29,2371.193079513636,2,41,0.550297200679779,3.964433193206787,35.6029673025361,35.215496100512595,142.9749084140604,127.30656559704497,3.237724376958795e-05,0.0939245000481605,0,0,0
11807,434264.73733708577,2010-12-18 13:14:59,2401.208051030834,2,41,0.550297200679779,3.966375827789306,35.607554784083526,35.215496100512595,142.99309925622356,127.30656559704497,6.47544875391759e-05,0.0939245000481605,0,0,0
11808,434294.7524956835,2010-12-18 13:15:29,2431.223209628576,2,41,0.550297200679779,3.968156576156616,35.612142321616346,35.215496100512595,143.01129883258744,127.30656559704497,6.47544875391759e-05,0.0939245000481605,0,0,0
11809,434324.76756813686,2010-12-18 13:15:59,2461.2382820669127,2,41,0.550297200679779,3.969937324523926,35.61672979710276,35.215496100512595,143.02950674605938,127.30656559704497,3.237724376958795e-05,0.0939245000481605,0,0,0
11810,434354.7826898981,2010-12-18 13:16:29,2491.253403843025,2,41,0.5501165986061096,3.971879959106445,35.62131730693972,35.215496100512595,143.04772342277826,127.30656559704497,3.237724376958795e-05,0.0939245000481605,0,0,0
11811,434384.7977495896,2010-12-18 13:16:59,2521.268463534642,2,41,0.550297200679779,3.973822593688965,35.625904880141384,35.215496100512595,143.06594913717743,127.30656559704497,6.47544875391759e-05,0.0939245000481605,0,0,0
11812,434414.81285128574,2010-12-18 13:17:29,2551.283565235798,2,41,0.5501165986061096,3.9756033420562735,35.63049240085652,35.215496100512595,143.084183442521,127.30656559704497,0.0,0.0939245000481605,0,0,0
11813,434444.8280242492,2010-12-18 13:17:59,2581.2987381792386,2,41,0.5501165986061096,3.977545976638794,35.63507997660626,35.215496100512595,143.1024269583762,127.30656559704497,3.237724376958795e-05,0.0939245000481605,0,0,0
11814,434474.8431814936,2010-12-18 13:18:29,2611.3138954436617,2,41,0.550297200679779,3.979812383651733,35.63966750726029,35.215496100512595,143.12067890033208,127.30656559704497,6.47544875391759e-05,0.0939245000481605,0,0,0
11815,434504.858178404,2010-12-18 13:18:59,2641.3288923540504,2,41,0.5501165986061096,3.981593132019043,35.644255017575766,35.215496100512595,143.13894028279128,127.30656559704497,3.237724376958795e-05,0.0939245000481605,0,0,0
11816,434534.8734699476,2010-12-18 13:19:29,2671.3441838926096,2,41,0.5501165986061096,3.9835357666015625,35.648842557624654,35.215496100512595,143.15721102428955,127.30656559704497,0.0,0.0939245000481605,0,0,0
11817,434564.8883544883,2010-12-18 13:19:59,2701.359068433371,2,41,0.5501165986061096,3.985478401184082,35.65342994793672,35.215496100512595,143.175490450892,127.30656559704497,0.0,0.0939245000481605,0,0,0
11818,434594.90361638815,2010-12-18 13:20:29,2731.3743303231504,2,41,0.550297200679779,3.9880685806274414,35.65801742593381,35.215496100512595,143.19377968141154,127.30656559704497,0.0001295089750783,0.0939245000481605,0,0,0
11819,434624.9185900958,2010-12-18 13:20:59,2761.389304025787,2,41,0.550297200679779,3.989849328994751,35.66260475836555,35.215496100512595,143.21207766011435,127.30656559704497,6.47544875391759e-05,0.0939245000481605,0,0,0
11820,434654.9336896867,2010-12-18 13:21:29,2791.4044036317296,2,41,0.550297200679779,3.991953849792481,35.66719214882933,35.215496100512595,143.23038552413888,127.30656559704497,6.47544875391759e-05,0.0939245000481605,0,0,0
11821,434684.95068678446,2010-12-18 13:21:59,2821.421400809707,2,41,0.550297200679779,3.994058132171631,35.671779880225955,35.215496100512595,143.24870448059085,127.30656559704497,3.23295607813634e-05,0.0939245000481605,0,0,0
11822,434714.9639320409,2010-12-18 13:22:29,2851.434645985973,2,41,0.550297200679779,3.99616265296936,35.67636701738491,35.215496100512595,143.26703086570214,127.30656559704497,6.47544875391759e-05,0.0939245000481605,0,0,0
11823,434744.97900049936,2010-12-18 13:22:59,2881.449714429368,2,41,0.550297200679779,3.9984290599823,35.68095447410303,35.215496100512595,143.28536849137086,127.30656559704497,6.47544875391759e-05,0.0939245000481605,0,0,0
11824,434774.9942520584,2010-12-18 13:23:29,2911.4649659884403,2,41,0.550297200679779,4.000695705413818,35.68554194719802,35.215496100512595,143.3037161419711,127.30656559704497,9.71794142969884e-05,0.0939245000481605,0,0,0
11825,434805.0092252698,2010-12-18 13:23:59,2941.479939199855,2,41,0.550297200679779,4.003123760223389,35.69012927112226,35.215496100512595,143.3220734596668,127.30656559704497,9.70840483205393e-05,0.0939245000481605,0,0,0
11826,434835.0243488354,2010-12-18 13:24:29,2971.4950628706824,2,41,0.5501165986061096,4.005066394805908,35.69471670551221,35.215496100512595,143.34044150738356,127.30656559704497,3.23295607813634e-05,0.0939245000481605,0,0,0
11827,434865.03941354953,2010-12-18 13:24:59,3001.5101275847974,2,41,0.5501165986061096,4.007332801818848,35.69930419228633,35.215496100512595,143.35882022505223,127.30656559704497,3.23295607813634e-05,0.0939245000481605,0,0,0
11828,434895.05451483966,2010-12-18 13:25:29,3031.5252287897188,2,41,0.5501165986061096,4.009599208831787,35.703891659606825,35.215496100512595,143.37720933933065,127.30656559704497,3.23295607813634e-05,0.0939245000481605,0,0,0
11829,434925.06966273073,2010-12-18 13:26:00,3061.5403766758045,2,41,0.5501165986061096,4.012027740478516,35.708479113715256,35.215496100512595,143.39560901705792,127.30656559704497,6.47544875391759e-05,0.0939245000481605,0,0,0
11830,434955.0848506615,2010-12-18 13:26:30,3091.5555646767148,2,41,0.5501165986061096,4.014294147491455,35.71306660164817,35.215496100512595,143.41401961721033,127.30656559704497,3.24249267578125e-05,0.0939245000481605,0,0,0
11831,434985.0998188805,2010-12-18 13:27:00,3121.5705328255312,2,41,0.550297200679779,4.016722202301025,35.717654045871434,35.215496100512595,143.43244084754053,127.30656559704497,3.23295607813634e-05,0.0939245000481605,0,0,0
11832,435015.1150430013,2010-12-18 13:27:30,3151.585756946324,2,41,0.550297200679779,4.018988609313965,35.7222415666159,35.215496100512595,143.4508734206643,127.30656559704497,3.23295607813634e-05,0.0939245000481605,0,0,0
11833,435045.13003411726,2010-12-18 13:28:00,3181.6007480622934,2,41,0.550297200679779,4.021740913391113,35.72682899783749,35.215496100512595,143.46931659589504,127.30656559704497,9.71794142969884e-05,0.0939245000481605,0,0,0
11834,435075.145138475,2010-12-18 13:28:30,3211.615852425073,2,41,0.550297200679779,4.024168968200684,35.73141645096537,35.215496100512595,143.4877711617495,127.30656559704497,6.47544875391759e-05,0.0939245000481605,0,0,0
11835,435105.1602734641,2010-12-18 13:29:00,3241.630987499277,2,41,0.5501165986061096,4.026597499847412,35.73600384423327,35.215496100512595,143.50623677045888,127.30656559704497,6.47544875391759e-05,0.0939245000481605,0,0,0
11836,435135.17536878434,2010-12-18 13:29:30,3271.6460827293304,2,41,0.5501165986061096,4.029025554656982,35.74059127393437,35.215496100512595,143.5247140264761,127.30656559704497,6.47544875391759e-05,0.0939245000481605,0,0,0
11837,435165.1905811358,2010-12-18 13:30:00,3301.6612951510106,2,41,0.550297200679779,4.031615734100342,35.74517877702485,35.215496100512595,143.54320302969109,127.30656559704497,9.70840483205393e-05,0.0939245000481605,0,0,0
11838,435195.2056581806,2010-12-18 13:30:30,3331.676372125636,2,41,0.550297200679779,4.034205913543701,35.74976617248338,35.215496100512595,143.56170323676207,127.30656559704497,6.47544875391759e-05,0.0939245000481605,0,0,0
11839,435225.2206397528,2010-12-18 13:31:00,3361.691353697856,2,41,0.550297200679779,4.0367960929870605,35.754353546619186,35.215496100512595,143.5802150905363,127.30656559704497,6.47544875391759e-05,0.0939245000481605,0,0,0
11840,435255.2358078943,2010-12-18 13:31:30,3391.7065218443586,2,41,0.5501165986061096,4.039224147796631,35.75894101917728,35.215496100512595,143.59873926673365,127.30656559704497,3.23295607813634e-05,0.0939245000481605,0,0,0
11841,435285.2527477096,2010-12-18 13:32:00,3421.723461729766,2,41,0.550297200679779,4.04181432723999,35.763528724398334,35.215496100512595,143.61727624403773,127.30656559704497,3.23295607813634e-05,0.0939245000481605,0,0,0
11842,435315.2659567559,2010-12-18 13:32:30,3451.7366707009364,2,41,0.5501165986061096,4.044566631317139,35.76811582419532,35.215496100512595,143.63582288302754,127.30656559704497,6.47544875391759e-05,0.0939245000481605,0,0,0
11843,435345.2811983201,2010-12-18 13:33:00,3481.751912265137,2,41,0.5501165986061096,4.047156810760498,35.77270323284804,35.215496100512595,143.6543829094911,127.30656559704497,3.24249267578125e-05,0.0939245000481605,0,0,0
11844,435375.29614233394,2010-12-18 13:33:30,3511.766856278894,2,41,0.550297200679779,4.049908638000488,35.777290607027794,35.215496100512595,143.67295506584497,127.30656559704497,6.47544875391759e-05,0.0939245000481605,0,0,0
11845,435405.311474724,2010-12-18 13:34:00,3541.7821887392856,2,41,0.550297200679779,4.052498817443848,35.7818781213869,35.215496100512595,143.69154006697053,127.30656559704497,6.47544875391759e-05,0.0939245000481605,0,0,0
11846,435435.3263535456,2010-12-18 13:34:30,3571.7970674956523,2,41,0.550297200679779,4.055412769317627,35.78646551351525,35.215496100512595,143.71013705488994,127.30656559704497,9.70840483205393e-05,0.0939245000481605,0,0,0
11847,435465.341455342,2010-12-18 13:35:00,3601.812169271996,2,41,0.5501165986061096,4.058002948760986,35.791053011735606,35.215496100512595,143.72874701744652,127.30656559704497,3.23295607813634e-05,0.0939245000481605,0,0,0
11848,435495.3595701161,2010-12-18 13:35:30,3631.8302841513305,2,41,0.550297200679779,4.060755252838135,35.795640971148885,35.215496100512595,143.74737152395377,127.30656559704497,3.24249267578125e-05,0.0939245000481605,0,0,0
11849,435525.3717045232,2010-12-18 13:36:00,3661.84241853844,2,41,0.5499359965324402,4.063669204711914,35.80022799025118,35.215496100512595,143.76600457066917,127.30656559704497,9.71794142969884e-05,0.0939245000481605,0,0,0
11850,435555.3867837535,2010-12-18 13:36:30,3691.857497698504,2,41,0.550297200679779,4.066421031951904,35.80481542807518,35.215496100512595,143.78465233612485,127.30656559704497,9.70840483205393e-05,0.0939245000481605,0,0,0
11851,435585.4024990265,2010-12-18 13:37:00,3721.873213046697,2,41,0.5501165986061096,4.069173336029053,35.809402935618266,35.215496100512595,143.8033134786751,127.30656559704497,6.47544875391759e-05,0.0939245000481605,0,0,0
11852,435615.416956735,2010-12-18 13:37:30,3751.887670680116,2,41,0.5501165986061096,4.072087287902832,35.81399024928187,35.215496100512595,143.82198702978786,127.30656559704497,6.47544875391759e-05,0.0939245000481605,0,0,0
11853,435645.4322022842,2010-12-18 13:38:00,3781.902916234245,2,41,0.5501165986061096,4.075001239776611,35.8185776780206,35.215496100512595,143.8406743481227,127.30656559704497,6.47544875391759e-05,0.0939245000481605,0,0,0
11854,435675.4472923915,2010-12-18 13:38:30,3811.9180063365375,2,41,0.5501165986061096,4.077915191650391,35.82316508605961,35.215496100512595,143.85937506225935,127.30656559704497,6.47544875391759e-05,0.0939245000481605,0,0,0
11855,435705.4622722344,2010-12-18 13:39:00,3841.9329861794554,2,41,0.5499359965324402,4.080990791320801,35.827752411536565,35.215496100512595,143.878089041062,127.30656559704497,6.47544875391759e-05,0.0939245000481605,0,0,0
11856,435735.47739022615,2010-12-18 13:39:30,3871.948104161124,2,41,0.550297200679779,4.08390474319458,35.83233983020657,35.215496100512595,143.89681694178677,127.30656559704497,6.47544875391759e-05,0.0939245000481605,0,0,0
11857,435765.492520363,2010-12-18 13:40:00,3901.9632343080666,2,41,0.550297200679779,4.086818695068359,35.83692723724689,35.215496100512595,143.91555853945323,127.30656559704497,6.47544875391759e-05,0.0939245000481605,0,0,0
11858,435795.5075780898,2010-12-18 13:40:30,3931.9782920347934,2,41,0.550297200679779,4.089894771575928,35.841514606440455,35.215496100512595,143.93431384211416,127.30656559704497,9.71794142969884e-05,0.0939245000481605,0,0,0
11859,435825.522681435,2010-12-18 13:41:00,3961.9933953800414,2,41,0.550297200679779,4.093132495880127,35.8461020251166,35.215496100512595,143.95308335468218,127.30656559704497,9.71794142969884e-05,0.0939245000481605,0,0,0
11860,435855.5377808205,2010-12-18 13:41:30,3992.008494765435,2,41,0.550297200679779,4.096208095550537,35.850689433741664,35.215496100512595,143.971866886612,127.30656559704497,9.70840483205393e-05,0.0939245000481605,0,0,0
11861,435885.55473232974,2010-12-18 13:42:00,4022.025446354968,2,41,0.5501165986061096,4.0992841720581055,35.85527712171791,35.215496100512595,143.99066578898788,127.30656559704497,6.47544875391759e-05,0.0939245000481605,0,0,0
11862,435915.5681258351,2010-12-18 13:42:30,4052.0388397851575,2,41,0.550297200679779,4.102198123931885,35.8598643053389,35.215496100512595,144.00947690744297,127.30656559704497,6.47544875391759e-05,0.0939245000481605,0,0,0
11863,435945.5830863098,2010-12-18 13:43:00,4082.0538002548647,2,41,0.5504778623580933,4.105759620666504,35.86445175240095,35.215496100512595,144.028303512633,127.30656559704497,0.0001619339018361,0.0939245000481605,0,0,0
11864,435975.5982199655,2010-12-18 13:43:30,4112.068934000764,2,41,0.5501165986061096,4.108835220336914,35.86903919550999,35.215496100512595,144.0471446736383,127.30656559704497,0.0001295089750783,0.0939245000481605,0,0,0
11865,436005.6134478657,2010-12-18 13:44:00,4142.084161810737,2,41,0.550297200679779,4.112072944641113,35.87362668527473,35.215496100512595,144.0660007095634,127.30656559704497,0.0001295089750783,0.0939245000481605,0,0,0
11866,436035.6286221224,2010-12-18 13:44:30,4172.09933611757,2,41,0.5501165986061096,4.114986896514893,35.87821410696259,35.215496100512595,144.08487118746476,127.30656559704497,9.70840483205393e-05,0.0939245000481605,0,0,0
11867,436065.6435100215,2010-12-18 13:45:00,4202.114223966563,2,41,0.5501165986061096,4.118386268615723,35.882801518529625,35.215496100512595,144.10375655817464,127.30656559704497,9.70840483205393e-05,0.0939245000481605,0,0,0
11868,436095.6586001288,2010-12-18 13:45:30,4232.129314073868,2,41,0.5499359965324402,4.121623992919922,35.88738891159208,35.215496100512595,144.1226569021048,127.30656559704497,6.47544875391759e-05,0.0939245000481605,0,0,0
11869,436125.6737304362,2010-12-18 13:46:00,4262.144444366173,2,41,0.550297200679779,4.12502384185791,35.89197638028977,35.215496100512595,144.14157262110024,127.30656559704497,6.47544875391759e-05,0.0939245000481605,0,0,0
11870,436155.6888041426,2010-12-18 13:46:30,4292.159518087703,2,41,0.550297200679779,4.128261566162109,35.896563316157355,35.215496100512595,144.16050132447802,127.30656559704497,6.47544875391759e-05,0.0939245000481605,0,0,0
11871,436185.7039309964,2010-12-18 13:47:00,4322.174644946463,2,41,0.5501165986061096,4.13166093826294,35.901149926267856,35.215496100512595,144.1794439324013,127.30656559704497,9.70840483205393e-05,0.0939245000481605,0,0,0
11872,436215.71912637074,2010-12-18 13:47:30,4352.1898403207215,2,41,0.5501165986061096,4.135060787200928,35.90573665047688,35.215496100512595,144.19840242127262,127.30656559704497,9.71794142969884e-05,0.0939245000481605,0,0,0
11873,436245.73412946647,2010-12-18 13:48:00,4382.2048434114895,2,41,0.5501165986061096,4.138622283935547,35.910323300141066,35.215496100512595,144.21737615032532,127.30656559704497,9.71794142969884e-05,0.0939245000481605,0,0,0
11874,436275.7494964627,2010-12-18 13:48:30,4412.220210392786,2,41,0.550297200679779,4.142021656036377,35.91491052840588,35.215496100512595,144.23636801586244,127.30656559704497,0.0001295089750783,0.0939245000481605,0,0,0
11875,436305.7643262824,2010-12-18 13:49:00,4442.235040212374,2,41,0.5501165986061096,4.145421504974365,35.91949792609477,35.215496100512595,144.25537653028076,127.30656559704497,0.0001295089750783,0.0939245000481605,0,0,0
11876,436335.7794183997,2010-12-18 13:49:30,4472.250132344719,2,41,0.5501165986061096,4.1486592292785645,35.92408535459883,35.215496100512595,144.2744013166759,127.30656559704497,6.47544875391759e-05,0.0939245000481605,0,0,0
11877,436365.7945686968,2010-12-18 13:50:00,4502.26528273203,2,41,0.5501165986061096,4.152220726013184,35.92867281837091,35.215496100512595,144.29344235536018,127.30656559704497,3.24249267578125e-05,0.0939245000481605,0,0,0
11878,436395.8097855946,2010-12-18 13:50:30,4532.280499524586,2,41,0.5501165986061096,4.155782222747803,35.933260335397165,35.215496100512595,144.31249969666976,127.30656559704497,6.47544875391759e-05,0.0939245000481605,0,0,0
11879,436425.82474081626,2010-12-18 13:51:00,4562.295454761272,2,41,0.5501165986061096,4.159343719482422,35.937847759487816,35.215496100512595,144.33157279968947,127.30656559704497,6.47544875391759e-05,0.0939245000481605,0,0,0
11880,436455.840035658,2010-12-18 13:51:30,4592.310749673225,2,41,0.550297200679779,4.163066864013672,35.94243521885633,35.215496100512595,144.35066234181463,127.30656559704497,9.70840483205393e-05,0.0939245000481605,0,0,0
11881,436485.85682641726,2010-12-18 13:52:00,4622.327540417501,2,41,0.5501165986061096,4.166628360748291,35.947022926996915,35.215496100512595,144.3697693416534,127.30656559704497,6.47544875391759e-05,0.0939245000481605,0,0,0
11882,436515.870070536,2010-12-18 13:52:30,4652.340784486009,2,41,0.550297200679779,4.170351982116699,35.95161007297895,35.215496100512595,144.3888906027577,127.30656559704497,9.71794142969884e-05,0.0939245000481605,0,0,0
11883,436545.8851418064,2010-12-18 13:53:00,4682.355855841653,2,41,0.5501165986061096,4.173913478851318,35.95619743987739,35.215496100512595,144.4080294748506,127.30656559704497,6.47544875391759e-05,0.0939245000481605,0,0,0
11884,436575.90024844994,2010-12-18 13:53:30,4712.370962394883,2,41,0.550297200679779,4.177636623382568,35.960784883796194,35.215496100512595,144.42718541999133,127.30656559704497,9.70840483205393e-05,0.0939245000481605,0,0,0
11885,436605.9153826619,2010-12-18 13:54:00,4742.386096606941,2,41,0.5501165986061096,4.181198120117188,35.96537233532299,35.215496100512595,144.44635831843487,127.30656559704497,0.0001295089750783,0.0939245000481605,0,0,0
11886,436635.9304585639,2010-12-18 13:54:30,4772.401172508898,2,41,0.5501165986061096,4.184921741485596,35.96995977755068,35.215496100512595,144.46554813067874,127.30656559704497,9.71794142969884e-05,0.0939245000481605,0,0,0
11887,436665.9455543253,2010-12-18 13:55:00,4802.416268275285,2,41,0.550297200679779,4.188644886016846,35.97454721163377,35.215496100512595,144.48475489381082,127.30656559704497,9.70840483205393e-05,0.0939245000481605,0,0,0
11888,436695.9606552094,2010-12-18 13:55:30,4832.431369154396,2,41,0.550297200679779,4.192368507385254,35.979134648537084,35.215496100512595,144.5039789113577,127.30656559704497,6.47544875391759e-05,0.0939245000481605,0,0,0
11889,436725.9757749004,2010-12-18 13:56:00,4862.446488845319,2,41,0.5501165986061096,4.196091651916504,35.98372212955876,35.215496100512595,144.5232203087433,127.30656559704497,9.71794142969884e-05,0.0939245000481605,0,0,0
11890,436755.0535061962,2010-12-18 13:56:30,4891.524220126237,2,41,0.5504778623580933,4.200138568878174,35.988166325545066,35.215496100512595,144.54187726294268,127.30656559704497,0.0001295089750783,0.0939245000481605,0,0,0
11891,436785.0749217122,2010-12-18 13:57:00,30.015104132205916,3,41,0.0,4.112235069274902,35.988166325545066,35.215496100512595,144.54187726294268,127.30656559704497,-0.0004208564641885,0.0939245000481605,0,0,0
11892,436815.0900145964,2010-12-18 13:57:30,60.03019701642163,3,41,0.0,4.101226806640625,35.988166325545066,35.215496100512595,144.54187726294268,127.30656559704497,-0.0001942634553415,0.0939245000481605,0,0,0
11893,436845.1052387172,2010-12-18 13:58:00,90.04542113721453,3,41,0.0,4.0945892333984375,35.988166325545066,35.215496100512595,144.54187726294268,127.30656559704497,-0.0001942634553415,0.0939245000481605,0,0,0
11894,436875.0733689116,2010-12-18 13:58:30,120.01355133158285,3,41,0.0,4.090542316436768,35.988166325545066,35.215496100512595,144.54187726294268,127.30656559704497,-6.47544875391759e-05,0.0939245000481605,0,0,0
11895,436875.081988105,2010-12-18 13:58:30,0.015737697655319,4,41,1.014643669128418,4.199653148651123,35.98817076114369,35.215496100512595,144.5418958909184,127.30656559704497,0.0,0.0939245000481605,0,0,0
11896,436875.7695792892,2010-12-18 13:58:31,0.703328896908846,4,41,0.9646149277687072,4.199814796447754,35.9883583762054,35.215496100512595,144.54268382954498,127.30656559704497,3.23295607813634e-05,0.0939245000481605,0,0,0
11897,436877.519431053,2010-12-18 13:58:32,2.453180660721102,4,41,0.9145861268043518,4.199814796447754,35.98881410863456,35.215496100512595,144.54459778540573,127.30656559704497,3.23295607813634e-05,0.0939245000481605,0,0,0
11898,436880.2067677621,2010-12-18 13:58:35,5.140517369762447,4,41,0.8645573854446411,4.199653148651123,35.98947740338682,35.215496100512595,144.54738345229828,127.30656559704497,-3.23295607813634e-05,0.0939245000481605,0,0,0
11899,436884.0192051157,2010-12-18 13:58:39,8.95295472348498,4,41,0.8145285844802856,4.199653148651123,35.9903656180265,35.215496100512595,144.5511137266632,127.30656559704497,0.0,0.0939245000481605,0,0,0
11900,436889.0347317409,2010-12-18 13:58:44,13.968481348586677,4,41,0.7643192410469055,4.199814796447754,35.991464352779694,35.215496100512595,144.55572815057448,127.30656559704497,0.0,0.0939245000481605,0,0,0
11901,436895.5658826136,2010-12-18 13:58:50,20.49963222634787,4,41,0.71429044008255,4.199653148651123,35.99280410080105,35.215496100512595,144.56135477274057,127.30656559704497,0.0,0.0939245000481605,0,0,0
11902,436904.22214589687,2010-12-18 13:58:59,29.15589550959503,4,41,0.6637198328971863,4.199814796447754,35.99445851434768,35.215496100512595,144.56830291430376,127.30656559704497,3.23295607813634e-05,0.0939245000481605,0,0,0
11903,436916.0811384888,2010-12-18 13:59:11,41.0148880814951,4,41,0.6136910915374756,4.199814796447754,35.996558817754455,35.215496100512595,144.5771237010265,127.30656559704497,0.0,0.0939245000481605,0,0,0
11904,436933.6589580266,2010-12-18 13:59:28,58.59270763438248,4,41,0.5636622905731201,4.199491024017334,35.999424808047685,35.215496100512595,144.5891601550373,127.30656559704497,-6.47544875391759e-05,0.0939245000481605,0,0,0
11905,436962.8459630862,2010-12-18 13:59:58,87.77971269389597,4,41,0.5136335492134094,4.199653148651123,36.00377321047189,35.215496100512595,144.60742242868764,127.30656559704497,-3.23295607813634e-05,0.0939245000481605,0,0,0
11906,437016.050935624,2010-12-18 14:00:51,140.98468532193576,4,41,0.4632435441017151,4.199653148651123,36.01095983179066,35.215496100512595,144.63760457441546,127.30656559704497,0.0,0.0939245000481605,0,0,0
11907,437104.74974524527,2010-12-18 14:02:20,229.68349492313564,4,41,0.4130341708660126,4.199653148651123,36.021733158731095,35.215496100512595,144.6828500784035,127.30656559704497,0.0,0.0939245000481605,0,0,0
11908,437221.1695750741,2010-12-18 14:04:16,346.10332468681685,4,41,0.3630053997039795,4.199653148651123,36.03426949307397,35.215496100512595,144.73549986874792,127.30656559704497,0.0,0.0939245000481605,0,0,0
11909,437359.7610701191,2010-12-18 14:06:35,484.6948197117442,4,41,0.3129766285419464,4.199976921081543,36.04726778190179,35.215496100512595,144.79008976111604,127.30656559704497,3.24249267578125e-05,0.0939245000481605,0,0,0
11910,437525.4611498744,2010-12-18 14:09:20,650.3948994671356,4,41,0.2629478573799133,4.199814796447754,36.06050235352702,35.215496100512595,144.8456720031709,127.30656559704497,0.0,0.0939245000481605,0,0,0
11911,437729.7076050425,2010-12-18 14:12:44,854.6413547304253,4,41,0.2129191011190414,4.199653148651123,36.07396435131427,35.215496100512595,144.90220931148116,127.30656559704497,-3.23295607813634e-05,0.0939245000481605,0,0,0
11912,438000.31258765387,2010-12-18 14:17:15,1125.246337326732,4,41,0.1628903299570083,4.199814796447754,36.088012031730905,35.215496100512595,144.96120635293082,127.30656559704497,0.0,0.0939245000481605,0,0,0
11913,438399.7584726504,2010-12-18 14:23:55,1524.6922222630933,4,41,0.1128615513443946,4.199491024017334,36.1031429963798,35.215496100512595,145.0247529527506,127.30656559704497,-6.47544875391759e-05,0.0939245000481605,0,0,0
11914,439146.93302728713,2010-12-18 14:36:22,2271.866776899824,4,41,0.0628327876329422,4.199653148651123,36.120833620597736,35.215496100512595,145.09904954319236,127.30656559704497,0.0,0.0939245000481605,0,0,0
11915,439478.1304057952,2010-12-18 14:41:53,2603.064155402868,4,41,0.0496483072638511,4.199653148651123,36.12602906247693,35.215496100512595,145.12086924073867,127.30656559704497,0.0,0.0939245000481605,0,0,0
11916,439508.1367243495,2010-12-18 14:42:23,30.015094192471263,5,41,0.0,4.191720962524414,36.12602906247693,35.215496100512595,145.12086924073867,127.30656559704497,-6.47544875391759e-05,0.0939245000481605,0,0,0
11917,439538.1362370981,2010-12-18 14:42:53,60.01460694613133,5,41,0.0,4.190263748168945,36.12602906247693,35.215496100512595,145.12086924073867,127.30656559704497,-6.47544875391759e-05,0.0939245000481605,0,0,0
11918,439538.3160981132,2010-12-18 14:42:53,0.187622731952204,6,41,-1.9243103452026844e-05,4.190263748168945,36.12602906247693,35.2154961015155,145.12086924073867,127.30656560124736,0.0,0.0956302732229232,0,0,0
11919,439543.1440350235,2010-12-18 14:42:58,5.015559572089006,6,41,0.0008838032954372,4.190425872802734,36.12603005140775,35.21549610168187,145.1208733847824,127.30656560194453,0.0,0.0956302732229232,0,0,0
11920,439573.167218084,2010-12-18 14:43:28,30.015227845060597,7,41,-1.0997490882873535,4.008790016174316,36.12603005140775,35.22466485134811,145.1208733847824,127.3435332821079,-0.0010360718006268,0.0956302732229232,0,0,0
11921,439603.18243280135,2010-12-18 14:43:58,60.03044254741607,7,41,-1.099929690361023,3.980459928512573,36.12603005140775,35.23383361598563,145.1208733847824,127.3801506006918,-0.0006151676061563,0.0956302732229232,0,0,0
11922,439633.19749558566,2010-12-18 14:44:28,90.04550533674181,7,41,-1.0997490882873535,3.960547924041748,36.12603005140775,35.24300228257668,145.1208733847824,127.41655024939897,-0.0004856586456298,0.0956302732229232,0,0,0
11923,439663.2124091987,2010-12-18 14:44:58,120.0604189648857,7,41,-1.099568486213684,3.945006847381592,36.12603005140775,35.252170937467625,145.1208733847824,127.45278970566255,-0.0003885269106831,0.0956302732229232,0,0,0
11924,439693.2275077521,2010-12-18 14:45:28,150.07551751820876,7,41,-1.099568486213684,3.931570291519165,36.12603005140775,35.261339635743376,145.1208733847824,127.4888976054616,-0.0003237724304199,0.0956302732229232,0,0,0
11925,439723.24261165375,2010-12-18 14:45:58,180.0906214198409,7,41,-1.0997490882873535,3.919428825378418,36.12603005140775,35.270508284979776,145.1208733847824,127.52488878287905,-0.0003237724304199,0.0956302732229232,0,0,0
11926,439753.257852045,2010-12-18 14:46:28,210.1058618111223,7,41,-1.099568486213684,3.9082589149475098,36.12603005140775,35.27967698494199,145.1208733847824,127.560772771577,-0.0002590179501567,0.0956302732229232,0,0,0
11927,439783.2728378828,2010-12-18 14:46:58,240.12084771411932,7,41,-1.099568486213684,3.8974125385284415,36.12603005140775,35.28884561963088,145.1208733847824,127.596555129698,-0.0002913951757363,0.0956302732229232,0,0,0
11928,439813.28806982806,2010-12-18 14:47:28,270.13607959422103,7,41,-1.0997490882873535,3.887051820755005,36.12603005140775,35.29801428145674,145.1208733847824,127.63224101309518,-0.0002590179501567,0.0956302732229232,0,0,0
11929,439843.3030590744,2010-12-18 14:47:58,300.1510688355253,7,41,-1.0997490882873535,3.8770148754119873,36.12603005140775,35.307182975213,145.1208733847824,127.66783345873893,-0.0002590179501567,0.0956302732229232,0,0,0
11930,439873.3201255399,2010-12-18 14:48:28,330.168135376109,7,41,-1.099568486213684,3.86713981628418,36.12603005140775,35.3163523411247,145.1208733847824,127.70333772515862,-0.0002590179501567,0.0956302732229232,0,0,0
11931,439903.3332586172,2010-12-18 14:48:58,360.18126837823354,7,41,-1.099568486213684,3.857750415802002,36.12603005140775,35.32552042740154,145.1208733847824,127.73874845767368,-0.0002266406954731,0.0956302732229232,0,0,0
11932,439933.3483499074,2010-12-18 14:49:28,390.1963596734952,7,41,-1.099929690361023,3.8481991291046143,36.12603005140775,35.33468917052025,145.1208733847824,127.77407488762556,-0.0002590179501567,0.0956302732229232,0,0,0
11933,439963.363455418,2010-12-18 14:49:58,420.21146518413127,7,41,-1.099929690361023,3.8389716148376474,36.12603005140775,35.3438579181052,145.1208733847824,127.80931602606516,-0.0002590179501567,0.0956302732229232,0,0,0
11934,439993.3787295683,2010-12-18 14:50:29,450.2267393143708,7,41,-1.0997490882873535,3.8300681114196777,36.12603005140775,35.35302671627644,145.1208733847824,127.84447428656956,-0.0002266406954731,0.0956302732229232,0,0,0
11935,440023.3938035405,2010-12-18 14:50:59,480.2418132865246,7,41,-1.0997490882873535,3.82132625579834,36.12603005140775,35.36219542500053,145.1208733847824,127.87955099063456,-0.0002266406954731,0.0956302732229232,0,0,0
11936,440053.4089203893,2010-12-18 14:51:29,510.25693013537534,7,41,-1.099568486213684,3.812746286392212,36.12603005140775,35.37136420184888,145.1208733847824,127.91454817728018,-0.0002266406954731,0.0956302732229232,0,0,0
11937,440083.4238737814,2010-12-18 14:51:59,540.2718836176948,7,41,-1.099929690361023,3.804166316986084,36.12603005140775,35.38053283161769,145.1208733847824,127.9494660690688,-0.0002266406954731,0.0956302732229232,0,0,0
11938,440113.4389989509,2010-12-18 14:52:29,570.2870087170768,7,41,-1.099568486213684,3.796072006225586,36.12603005140775,35.38970160858692,145.1208733847824,127.98430821460856,-0.0001942634553415,0.0956302732229232,0,0,0
11939,440143.4540806925,2010-12-18 14:52:59,600.3020904435267,7,41,-1.099568486213684,3.788139581680298,36.12603005140775,35.398870331614255,145.1208733847824,128.0190756428433,-0.0001942634553415,0.0956302732229232,0,0,0
11940,440173.4693286125,2010-12-18 14:53:29,630.3173383585306,7,41,-1.0997490882873535,3.7802071571350098,36.12603005140775,35.40803911065388,145.1208733847824,128.05377093723817,-0.0001942634553415,0.0956302732229232,0,0,0
11941,440203.4843012825,2010-12-18 14:53:59,660.332311048648,7,41,-1.099568486213684,3.7725985050201416,36.12603005140775,35.41720782883287,145.1208733847824,128.0883954639433,-0.0001942634553415,0.0956302732229232,0,0,0
11942,440233.4994185825,2010-12-18 14:54:29,690.3474283436088,7,41,-1.099568486213684,3.765313625335693,36.12603005140775,35.42637660831833,145.1208733847824,128.12295148094492,-0.0001618862152099,0.0956302732229232,0,0,0
11943,440263.5145013917,2010-12-18 14:54:59,720.3625111527531,7,41,-1.099568486213684,3.757704973220825,36.12603005140775,35.43554541434314,145.1208733847824,128.15744019812402,-0.0002266406954731,0.0956302732229232,0,0,0
11944,440293.52964769374,2010-12-18 14:55:29,750.37765743986,7,41,-1.0997490882873535,3.750905990600586,36.12603005140775,35.444714219064736,145.1208733847824,128.1918632260803,-0.0001942634553415,0.0956302732229232,0,0,0
11945,440323.54474593134,2010-12-18 14:55:59,780.392755697447,7,41,-1.0997490882873535,3.7439448833465576,36.12603005140775,35.453882992301544,145.1208733847824,128.226222465443,-0.0002266406954731,0.0956302732229232,0,0,0
11946,440353.55987414846,2010-12-18 14:56:29,810.4078839095749,7,41,-1.0997490882873535,3.7371456623077393,36.12603005140775,35.4630518133009,145.1208733847824,128.26051897791382,-0.0001942634553415,0.0956302732229232,0,0,0
11947,440383.5749464614,2010-12-18 14:56:59,840.4229562125751,7,41,-1.099929690361023,3.730508327484131,36.12603005140775,35.472220624738654,145.1208733847824,128.2947544234575,-0.0001942634553415,0.0956302732229232,0,0,0
11948,440413.5901917249,2010-12-18 14:57:29,870.4382014860056,7,41,-1.099568486213684,3.7241947650909424,36.12603005140775,35.48138941173799,145.1208733847824,128.32893010598946,-0.0001942634553415,0.0956302732229232,0,0,0
11949,440443.6051545103,2010-12-18 14:57:59,900.4531642564382,7,41,-1.0997490882873535,3.717881202697754,36.12603005140775,35.49055817345776,145.1208733847824,128.3630469593681,-0.0001618862152099,0.0956302732229232,0,0,0
11950,440473.6223293404,2010-12-18 14:58:29,930.4703392067952,7,41,-1.099568486213684,3.711567640304565,36.12603005140775,35.49972762290172,145.1208733847824,128.39710861018435,-0.0001942634553415,0.0956302732229232,0,0,0
11951,440503.6353987091,2010-12-18 14:58:59,960.4834085655458,7,41,-1.099568486213684,3.705577850341797,36.12603005140775,35.50889583587274,145.1208733847824,128.43110890525796,-0.0001295089750783,0.0956302732229232,0,0,0
11952,440533.65059625887,2010-12-18 14:59:29,990.4986060249928,7,41,-1.0997490882873535,3.6994261741638175,36.12603005140775,35.51806468429748,145.1208733847824,128.4650557482283,-0.0001618862152099,0.0956302732229232,0,0,0
11953,440563.6681684327,2010-12-18 14:59:59,1020.5161782840376,7,41,-1.0997490882873535,3.69343638420105,36.12603005140775,35.52723422004008,145.1208733847824,128.4989502935358,-0.0001295089750783,0.0956302732229232,0,0,0
11954,440593.68070759205,2010-12-18 15:00:29,1050.5287173381453,7,41,-1.0997490882873535,3.687608480453491,36.12603005140775,35.536402255674254,145.1208733847824,128.53278555413095,-0.0001618862152099,0.0956302732229232,0,0,0
11955,440623.6958170676,2010-12-18 15:00:59,1080.5438268186604,7,41,-1.099929690361023,3.6817805767059326,36.12603005140775,35.54557105107113,145.1208733847824,128.56657061441632,-0.0001618862152099,0.0956302732229232,0,0,0
11956,440653.7108948341,2010-12-18 15:01:29,1110.5589046002938,7,41,-1.099568486213684,3.676438331604004,36.12603005140775,35.55473991041717,145.1208733847824,128.60030365968876,-0.0001295089750783,0.0956302732229232,0,0,0
11957,440683.7260282543,2010-12-18 15:01:59,1140.5740380705065,7,41,-1.0997490882873535,3.6707725524902335,36.12603005140775,35.56390877756601,145.1208733847824,128.63398577231152,-0.0001942634553415,0.0956302732229232,0,0,0
11958,440713.74125590886,2010-12-18 15:02:29,1170.5892656699557,7,41,-1.0997490882873535,3.665268421173096,36.12603005140775,35.57307764449194,145.1208733847824,128.66761766352528,-0.0001618862152099,0.0956302732229232,0,0,0
11959,440743.7562122833,2010-12-18 15:02:59,1200.6042220494846,7,41,-1.0997490882873535,3.659926176071167,36.12603005140775,35.58224640036915,145.1208733847824,128.7011998644524,-0.0001942634553415,0.0956302732229232,0,0,0
11960,440773.7713126312,2010-12-18 15:03:29,1230.6193223922608,7,41,-1.0997490882873535,3.654745817184448,36.12603005140775,35.59141524929493,145.1208733847824,128.73473387239451,-0.0001295089750783,0.0956302732229232,0,0,0
11961,440803.7865423208,2010-12-18 15:03:59,1260.634552086924,7,41,-1.0997490882873535,3.64972734451294,36.12603005140775,35.600584115231946,145.1208733847824,128.7682203493045,-0.0001295089750783,0.0956302732229232,0,0,0
11962,440833.8015406999,2010-12-18 15:04:29,1290.6495504609547,7,41,-1.0997490882873535,3.6445469856262207,36.12603005140775,35.60975280856026,145.1208733847824,128.80165882134608,-9.713172767078504e-05,0.0956302732229232,0,0,0
11963,440863.8166372081,2010-12-18 15:04:59,1320.664646974201,7,41,-1.099568486213684,3.639528512954712,36.12603005140775,35.6189215525676,145.1208733847824,128.83505135709137,-0.0001295089750783,0.0956302732229232,0,0,0
11964,440893.83175940026,2010-12-18 15:05:29,1350.679769161336,7,41,-1.0997490882873535,3.634671926498413,36.12603005140775,35.62809028864785,145.1208733847824,128.86839880890864,-0.0001295089750783,0.0956302732229232,0,0,0
11965,440923.84683786856,2010-12-18 15:05:59,1380.694847634691,7,41,-1.0997490882873535,3.629815340042114,36.12603005140775,35.63725900274592,145.1208733847824,128.9017020868074,-0.0001618862152099,0.0956302732229232,0,0,0
11966,440953.8619566472,2010-12-18 15:06:29,1410.709966413344,7,41,-1.0997490882873535,3.6252825260162354,36.12603005140775,35.64642782405494,145.1208733847824,128.9349623812015,-6.47544875391759e-05,0.0956302732229232,0,0,0
11967,440983.8771596003,2010-12-18 15:06:59,1440.7251693664618,7,41,-1.0997490882873535,3.6205878257751465,36.12603005140775,35.655596505057744,145.1208733847824,128.96818002274927,-0.0001295089750783,0.0956302732229232,0,0,0
11968,441013.8921320448,2010-12-18 15:07:29,1470.740141810968,7,41,-1.0997490882873535,3.6162168979644775,36.12603005140775,35.66476508388012,145.1208733847824,129.00135579419876,-9.713172767078504e-05,0.0956302732229232,0,0,0
11969,441043.90723031247,2010-12-18 15:07:59,1500.7552400585305,7,41,-1.099929690361023,3.6118459701538086,36.12603005140775,35.67393370700173,145.1208733847824,129.034491463806,-0.0001295089750783,0.0956302732229232,0,0,0
11970,441073.9241947089,2010-12-18 15:08:29,1530.7722045451565,7,41,-1.099568486213684,3.60747504234314,36.12603005140775,35.68310288972968,145.1208733847824,129.06758971224787,-0.0001618862152099,0.0956302732229232,0,0,0
11971,441103.9376966591,2010-12-18 15:08:59,1560.7857064753446,7,41,-1.0997490882873535,3.6035897731781006,36.12603005140775,35.69227118416718,145.1208733847824,129.10064636215213,-6.47544875391759e-05,0.0956302732229232,0,0,0
11972,441133.9526765071,2010-12-18 15:09:29,1590.800686253099,7,41,-1.0997490882873535,3.5993807315826416,36.12603005140775,35.70143986497988,145.1208733847824,129.1336670744125,-0.0001295089750783,0.0956302732229232,0,0,0
11973,441163.96766461554,2010-12-18 15:09:59,1620.8156743816342,7,41,-1.099568486213684,3.5956573486328125,36.12603005140775,35.71060863023049,145.1208733847824,129.16665169489883,-6.47544875391759e-05,0.0956302732229232,0,0,0
11974,441193.98228604655,2010-12-18 15:10:29,1650.8302957875944,7,41,-1.099568486213684,3.5917723178863525,36.12603005140775,35.71977269695115,145.1208733847824,129.1995839185575,-0.0001294612884521,0.0956302732229232,0,0,0
11975,441223.99787271454,2010-12-18 15:10:59,1680.8458824806346,7,41,-1.099568486213684,3.5880489349365234,36.12603005140775,35.72894624500204,145.1208733847824,129.2325156297617,-9.713172767078504e-05,0.0956302732229232,0,0,0
11976,441254.01296690194,2010-12-18 15:11:29,1710.860976653056,7,41,-1.0997490882873535,3.5843255519866943,36.12603005140775,35.738115054646904,145.1208733847824,129.2653967044994,-9.713172767078504e-05,0.0956302732229232,0,0,0
11977,441284.0280727736,2010-12-18 15:11:59,1740.8760825346149,7,41,-1.0997490882873535,3.580925941467285,36.12603005140775,35.74728381005992,145.1208733847824,129.29824472575535,-9.713172767078504e-05,0.0956302732229232,0,0,0
11978,441314.0432050306,2010-12-18 15:12:29,1770.891214761734,7,41,-1.099568486213684,3.577364444732666,36.12603005140775,35.756452636648454,145.1208733847824,129.331060814118,-9.713172767078504e-05,0.0956302732229232,0,0,0
11979,441344.0583129223,2010-12-18 15:12:59,1800.9063226883825,7,41,-1.0997490882873535,3.573964834213257,36.12603005140775,35.76562139657328,145.1208733847824,129.3638451771556,-6.47544875391759e-05,0.0956302732229232,0,0,0
11980,441374.0735159054,2010-12-18 15:13:29,1830.9215256565376,7,41,-1.0997490882873535,3.5707271099090576,36.12603005140775,35.77479029516042,145.1208733847824,129.3965988298328,-3.237724376958795e-05,0.0956302732229232,0,0,0
11981,441404.0884955429,2010-12-18 15:13:59,1860.9365053089805,7,41,-1.099568486213684,3.5671656131744385,36.12603005140775,35.78395909780632,145.1208733847824,129.42932125709908,-9.713172767078504e-05,0.0956302732229232,0,0,0
11982,441434.1036035196,2010-12-18 15:14:29,1890.951613280741,7,41,-1.0997490882873535,3.5637660026550293,36.12603005140775,35.79312796237707,145.1208733847824,129.46201318613143,-0.0001295089750783,0.0956302732229232,0,0,0
11983,441464.11870035867,2010-12-18 15:14:59,1920.9667101248108,7,41,-1.0997490882873535,3.56052827835083,36.12603005140775,35.80229671673649,145.1208733847824,129.494674575822,-0.0001295089750783,0.0956302732229232,0,0,0
11984,441494.1339258078,2010-12-18 15:15:29,1950.981935573909,7,41,-1.0997490882873535,3.557128667831421,36.12603005140775,35.81146560018683,145.1208733847824,129.52730606743543,-9.713172767078504e-05,0.0956302732229232,0,0,0
11985,441524.1491380891,2010-12-18 15:15:59,1980.997147920402,7,41,-1.0997490882873535,3.5538909435272217,36.12603005140775,35.82063454377109,145.1208733847824,129.55990721774447,-6.47544875391759e-05,0.0956302732229232,0,0,0
11986,441554.1641562274,2010-12-18 15:16:29,2011.0121659734027,7,41,-1.099568486213684,3.5506532192230225,36.12603005140775,35.82980336691695,145.1208733847824,129.5924773245698,-6.47544875391759e-05,0.0956302732229232,0,0,0
11987,441584.17912016064,2010-12-18 15:16:59,2041.0271299267797,7,41,-1.0997490882873535,3.5470917224884038,36.12603005140775,35.83897213637577,145.1208733847824,129.62501633139297,-0.0001295089750783,0.0956302732229232,0,0,0
11988,441614.1942525982,2010-12-18 15:17:29,2071.04226235941,7,41,-1.0997490882873535,3.543692111968994,36.12603005140775,35.84814096658315,145.1208733847824,129.6575240894342,-9.713172767078504e-05,0.0956302732229232,0,0,0
11989,441644.2093267559,2010-12-18 15:17:59,2101.057336522037,7,41,-1.099929690361023,3.540130615234375,36.12603005140775,35.857309798743216,145.1208733847824,129.68999993714607,-0.0001295089750783,0.0956302732229232,0,0,0
11990,441674.22633242,2010-12-18 15:18:29,2131.0743422713444,7,41,-1.0997490882873535,3.536731004714966,36.12603005140775,35.866479212759614,145.1208733847824,129.72244544625835,-6.47544875391759e-05,0.0956302732229232,0,0,0
11991,441704.239552559,2010-12-18 15:18:59,2161.0875623250936,7,41,-1.0997490882873535,3.5330076217651367,36.12603005140775,35.87564751159776,145.1208733847824,129.75485380097757,-6.47544875391759e-05,0.0956302732229232,0,0,0
11992,441734.2546778488,2010-12-18 15:19:29,2191.1026876049245,7,41,-1.0997490882873535,3.529284238815308,36.12603005140775,35.884816420288445,145.1208733847824,129.78723012060954,-9.713172767078504e-05,0.0956302732229232,0,0,0
11993,441764.2697588485,2010-12-18 15:19:59,2221.117768614591,7,41,-1.099568486213684,3.525398969650269,36.12603005140775,35.89398529805981,145.1208733847824,129.8195711862797,-9.713172767078504e-05,0.0956302732229232,0,0,0
11994,441794.2850241818,2010-12-18 15:20:29,2251.133033942928,7,41,-1.099568486213684,3.5213518142700195,36.12603005140775,35.90315425653722,145.1208733847824,129.8518760397731,-9.713172767078504e-05,0.0956302732229232,0,0,0
11995,441824.2999707269,2010-12-18 15:20:59,2281.147980487984,7,41,-1.0997490882873535,3.5169808864593506,36.12603005140775,35.91232302657132,145.1208733847824,129.884142758037,-0.0001295089750783,0.0956302732229232,0,0,0
11996,441854.3150802375,2010-12-18 15:21:29,2311.1630900035857,7,41,-1.099568486213684,3.512771844863892,36.12603005140775,35.921491859058946,145.1208733847824,129.91637076531703,-9.713172767078504e-05,0.0956302732229232,0,0,0
11997,441884.3301761342,2010-12-18 15:21:59,2341.178185900298,7,41,-1.099929690361023,3.508077383041382,36.12603005140775,35.93066070663565,145.1208733847824,129.94855793582764,-0.0001618862152099,0.0956302732229232,0,0,0
11998,441914.3452920307,2010-12-18 15:22:30,2371.193301796779,7,41,-1.0997490882873535,3.503544569015503,36.12603005140775,35.93982954287138,145.1208733847824,129.9807028024696,-0.0001295089750783,0.0956302732229232,0,0,0
11999,441944.3606523503,2010-12-18 15:23:00,2401.208662171635,7,41,-1.099929690361023,3.498364210128784,36.12603005140775,35.9489984835968,145.1208733847824,130.0128032397366,-0.0001618862152099,0.0956302732229232,0,0,0
12000,441974.375510676,2010-12-18 15:23:30,2431.22352051721,7,41,-1.0997490882873535,3.4930219650268555,36.12603005140775,35.95816728352763,145.1208733847824,130.04485513822837,-0.0001618862152099,0.0956302732229232,0,0,0
12001,442004.39060409146,2010-12-18 15:24:00,2461.238613842524,7,41,-1.0997490882873535,3.487032175064087,36.12603005140775,35.96733615396417,145.1208733847824,130.07685483586985,-0.0001618862152099,0.0956302732229232,0,0,0
12002,442034.4058398813,2010-12-18 15:24:30,2491.253849647392,7,41,-1.099929690361023,3.480232954025269,36.12603005140775,35.97650503963928,145.1208733847824,130.10879647965578,-0.0001942634553415,0.0956302732229232,0,0,0
12003,442064.4209304999,2010-12-18 15:25:00,2521.26894024592,7,41,-1.0997490882873535,3.4726243019104004,36.12603005140775,35.9856738696449,145.1208733847824,130.14067208212535,-0.0002266406954731,0.0956302732229232,0,0,0
12004,442094.4359122976,2010-12-18 15:25:30,2551.2839220437013,7,41,-1.099929690361023,3.4637205600738525,36.12603005140775,35.99484263127092,145.1208733847824,130.17247333313586,-0.0002913951757363,0.0956302732229232,0,0,0
12005,442124.4511465787,2010-12-18 15:26:00,2581.299156339815,7,41,-1.0997490882873535,3.454007387161255,36.12603005140775,36.0040114643776,145.1208733847824,130.20418857717644,-0.0002266406954731,0.0956302732229232,0,0,0
12006,442154.4661627972,2010-12-18 15:26:30,2611.314172563263,7,41,-1.0997490882873535,3.441704034805298,36.12603005140775,36.01318027405925,145.1208733847824,130.23580191140238,-0.0003561496851034,0.0956302732229232,0,0,0
12007,442184.48136259743,2010-12-18 15:27:00,2641.3293723434854,7,41,-1.099568486213684,3.4269726276397705,36.12603005140775,36.02234913178726,145.1208733847824,130.26729239166949,-0.0003885269106831,0.0956302732229232,0,0,0
12008,442214.4963382951,2010-12-18 15:27:30,2671.344348041087,7,41,-1.099568486213684,3.408355712890625,36.12603005140775,36.03151793451078,145.1208733847824,130.2986310018962,-0.0005180359003134,0.0956302732229232,0,0,0
12009,442244.5114414147,2010-12-18 15:28:00,2701.3594511808237,7,41,-1.0997490882873535,3.3847203254699707,36.12603005140775,36.040686762754135,145.1208733847824,130.32977789147802,-0.0006799221155233,0.0956302732229232,0,0,0
12010,442274.5266817158,2010-12-18 15:28:30,2731.3746915470424,7,41,-1.099568486213684,3.353476285934448,36.12603005140775,36.04985562849713,145.1208733847824,130.36067516502774,-0.0009065627818927,0.0956302732229232,0,0,0
12011,442304.5278677784,2010-12-18 15:29:00,2761.37587761468,7,41,-1.0997490882873535,3.311386108398437,36.12603005140775,36.05902022361903,145.1208733847824,130.39122549859243,-0.0012950897216796,0.0956302732229232,0,0,0
12012,442334.5411649691,2010-12-18 15:29:30,2791.3891748204182,7,41,-1.099568486213684,3.2540786266326904,36.12603005140775,36.06818849603436,145.1208733847824,130.42133738573835,-0.0017483711708337,0.0956302732229232,0,0,0
12013,442364.55615260144,2010-12-18 15:30:00,2821.4041623624944,7,41,-1.099568486213684,3.174268960952759,36.12603005140775,36.07735729472124,145.1208733847824,130.45082964752007,-0.0024282932281494,0.0956302732229232,0,0,0
12014,442394.5713189184,2010-12-18 15:30:30,2851.419328679445,7,41,-1.099568486213684,3.0565779209136963,36.12603005140775,36.08652623019863,145.1208733847824,130.47943268853717,-0.0037881373427808,0.0956302732229232,0,0,0
12015,442424.4770501854,2010-12-18 15:31:00,2881.3250599464823,7,41,-1.0997490882873535,2.856325387954712,36.12603005140775,36.09566170055021,145.1208733847824,130.50653547124492,-0.006896304897964,0.0956302732229232,0,0,0
12016,442441.10180857225,2010-12-18 15:31:16,2897.9498183333144,7,41,-1.0993878841400146,2.699781894683838,36.12603005140775,36.10074011822042,145.1208733847824,130.52064959612568,-0.0076733590103685,0.0956302732229232,0,0,0
12017,442501.1276815613,2010-12-18 15:32:16,60.01458402910319,8,41,0.0,3.4096508026123047,36.12603005140775,36.10074011822042,145.1208733847824,130.52064959612568,0.0013598442310467,0.0956302732229232,0,0,0
12018,442501.31202174217,2010-12-18 15:32:17,0.18763702752619,9,41,-1.9243103452026844e-05,3.4099745750427246,36.12603005140775,36.1007401192234,145.1208733847824,130.5206495995458,0.0,0.0953715816140174,0,0,0
12019,442506.1419557423,2010-12-18 15:32:22,5.017571022506005,9,41,0.0008838032954372,3.4182307720184326,36.12603102739382,36.10074011938965,145.12087671771047,130.52064960011273,0.0011332035064697,0.0953715816140174,0,0,0
