Data_Point,Test_Time(s),Date_Time,Step_Time(s),Step_Index,Cycle_Index,Current(A),Voltage(V),Charge_Capacity(Ah),Discharge_Capacity(Ah),Charge_Energy(Wh),Discharge_Energy(Wh),dV/dt(V/s),Internal_Resistance(Ohm),Is_FC_Data,AC_Impedance(Ohm),ACI_Phase_Angle(Deg)
10836,399469.996814255,2010-12-18 03:35:00,30.015034669350268,1,38,0.0,3.457568883895874,32.58537835499294,32.56052753484062,130.92127537539682,117.6697439685512,0.0007770538213662,0.0930307656526565,0,0,0
10837,399500.0120587715,2010-12-18 03:35:30,60.03027916584732,1,38,0.0,3.482661247253418,32.58537835499294,32.56052753484062,130.92127537539682,117.6697439685512,0.0006151676061563,0.0930307656526565,0,0,0
10838,399530.02700922126,2010-12-18 03:36:00,90.04522963065783,1,38,0.0,3.5012781620025635,32.58537835499294,32.56052753484062,130.92127537539682,117.6697439685512,0.0004532813909463,0.0930307656526565,0,0,0
10839,399559.99520515424,2010-12-18 03:36:30,120.01342554857663,1,38,0.0,3.516009569168091,32.58537835499294,32.56052753484062,130.92127537539682,117.6697439685512,0.0003885269106831,0.0930307656526565,0,0,0
10840,399590.0034014336,2010-12-18 03:37:01,30.015071024819456,2,38,0.5501165986061096,3.6621925830841056,32.58996575812699,32.56052753484062,130.9379386591166,117.6697439685512,0.0012303352123126,0.0930307656526565,0,0,0
10841,399620.01851175126,2010-12-18 03:37:31,60.03018134241748,2,38,0.550297200679779,3.700721263885498,32.594553064979905,32.56052753484062,130.95483288880476,117.6697439685512,0.0008741855854168,0.0930307656526565,0,0,0
10842,399650.03358150285,2010-12-18 03:38:01,90.0452510940687,2,38,0.550297200679779,3.7277562618255615,32.59914044597222,32.56052753484062,130.97187428368306,117.6697439685512,0.0006475448608398,0.0930307656526565,0,0,0
10843,399680.0505332428,2010-12-18 03:38:31,120.0622029091624,2,38,0.5501165986061096,3.747992038726807,32.60372812266671,32.56052753484062,130.9890244209352,117.6697439685512,0.0004532813909463,0.0930307656526565,0,0,0
10844,399710.0638054062,2010-12-18 03:39:01,150.07547498235994,2,38,0.5504778623580933,3.762885332107544,32.608315165730446,32.56052753484062,131.0062528572243,117.6697439685512,0.0003561496851034,0.0930307656526565,0,0,0
10845,399740.07885434607,2010-12-18 03:39:31,180.09052393725923,2,38,0.5499359965324402,3.772760391235352,32.61290251348632,32.56052753484062,131.0235389606932,117.6697439685512,0.0001942634553415,0.0930307656526565,0,0,0
10846,399770.0939653704,2010-12-18 03:40:01,210.105634961616,2,38,0.550297200679779,3.77988338470459,32.617489827014225,32.56052753484062,131.0408628156497,117.6697439685512,0.0001942634553415,0.0930307656526565,0,0,0
10847,399800.109047152,2010-12-18 03:40:31,240.12071674320327,2,38,0.550297200679779,3.7855494022369385,32.62207714461531,32.56052753484062,131.05821488827192,117.6697439685512,0.0001942634553415,0.0930307656526565,0,0,0
10848,399830.1241281466,2010-12-18 03:41:01,270.13579774284466,2,38,0.5501165986061096,3.7905678749084473,32.626664481963054,32.56052753484062,131.07559154160106,117.6697439685512,0.0001295089750783,0.0930307656526565,0,0,0
10849,399860.1392382888,2010-12-18 03:41:31,300.1509079551808,2,38,0.5501165986061096,3.795262575149536,32.631251831642295,32.56052753484062,131.09299082399747,117.6697439685512,9.713172767078504e-05,0.0930307656526565,0,0,0
10850,399890.15444815415,2010-12-18 03:42:01,330.1661177503248,2,38,0.5501165986061096,3.799795389175415,32.63583927554068,32.56052753484062,131.1104117960703,117.6697439685512,9.713172767078504e-05,0.0930307656526565,0,0,0
10851,399920.169614035,2010-12-18 03:42:31,360.18128368131465,2,38,0.550297200679779,3.804166316986084,32.64042666570943,32.56052753484062,131.1278528950079,117.6697439685512,9.713172767078504e-05,0.0930307656526565,0,0,0
10852,399950.18449405447,2010-12-18 03:43:01,390.1961636507,2,38,0.550297200679779,3.808537244796753,32.645013975092766,32.56052753484062,131.14531321918787,117.6697439685512,0.0001618862152099,0.0930307656526565,0,0,0
10853,399980.1995819463,2010-12-18 03:43:31,420.2112515374798,2,38,0.5504778623580933,3.812584400177002,32.64960132479334,32.56052753484062,131.1627926575531,117.6697439685512,0.0001618862152099,0.0930307656526565,0,0,0
10854,400010.2175031686,2010-12-18 03:44:01,450.2291728501309,2,38,0.550297200679779,3.816469669342041,32.654189101789726,32.56052753484062,131.18029248324208,117.6697439685512,0.0001295089750783,0.0930307656526565,0,0,0
10855,400040.2297886468,2010-12-18 03:44:31,480.2414582379999,2,38,0.550297200679779,3.82035493850708,32.6587760458791,32.56052753484062,131.19780712850417,117.6697439685512,0.0001295089750783,0.0930307656526565,0,0,0
10856,400070.24486212776,2010-12-18 03:45:01,510.2565317038939,2,38,0.5501165986061096,3.824078321456909,32.66336341312664,32.56052753484062,131.21534110814042,117.6697439685512,6.47544875391759e-05,0.0930307656526565,0,0,0
10857,400100.2599884552,2010-12-18 03:45:31,540.2716580313319,2,38,0.550297200679779,3.827963590621948,32.66795072938845,32.56052753484062,131.23289246029313,117.6697439685512,9.713172767078504e-05,0.0930307656526565,0,0,0
10858,400130.27507435705,2010-12-18 03:46:01,570.2867440033468,2,38,0.550297200679779,3.8318488597869873,32.672538034823695,32.56052753484062,131.25046137159413,117.6697439685512,0.0001295089750783,0.0930307656526565,0,0,0
10859,400160.2902819266,2010-12-18 03:46:31,600.3019515178155,2,38,0.550297200679779,3.8357338905334473,32.67712536872358,32.56052753484062,131.26804794151715,117.6697439685512,9.713172767078504e-05,0.0930307656526565,0,0,0
10860,400190.30522688775,2010-12-18 03:47:01,630.3168964789303,2,38,0.5501165986061096,3.839457273483277,32.681712646039685,32.56052753484062,131.2856519107016,117.6697439685512,9.713172767078504e-05,0.0930307656526565,0,0,0
10861,400220.3203200727,2010-12-18 03:47:31,660.331989734069,2,38,0.5501165986061096,3.8431806564331055,32.686299939941215,32.56052753484062,131.30327357462798,117.6697439685512,6.47544875391759e-05,0.0930307656526565,0,0,0
10862,400250.3354354479,2010-12-18 03:48:01,690.3471050140157,2,38,0.550297200679779,3.847065925598145,32.69088729704823,32.56052753484062,131.32091305569972,117.6697439685512,0.0001295089750783,0.0930307656526565,0,0,0
10863,400280.3523898896,2010-12-18 03:48:31,720.3640595709323,2,38,0.550297200679779,3.851274967193604,32.69547490001938,32.56052753484062,131.3385709777131,117.6697439685512,0.0001295089750783,0.0930307656526565,0,0,0
10864,400310.3656068004,2010-12-18 03:49:01,750.3772763765987,2,38,0.550297200679779,3.854836463928223,32.700062049145465,32.56052753484062,131.3562444602971,117.6697439685512,0.0001295089750783,0.0930307656526565,0,0,0
10865,400340.3807288272,2010-12-18 03:49:31,780.392398418372,2,38,0.550297200679779,3.858397960662842,32.70464936791971,32.56052753484062,131.37393566857477,117.6697439685512,9.713172767078504e-05,0.0930307656526565,0,0,0
10866,400370.3957651657,2010-12-18 03:50:01,810.4074347568759,2,38,0.5501165986061096,3.861959457397461,32.709236657128486,32.56052753484062,131.3916434748504,117.6697439685512,9.713172767078504e-05,0.0930307656526565,0,0,0
10867,400400.4109572368,2010-12-18 03:50:31,840.4226269031013,2,38,0.5501165986061096,3.86552095413208,32.71382398588333,32.56052753484062,131.409367677181,117.6697439685512,9.713172767078504e-05,0.0930307656526565,0,0,0
10868,400430.4260821005,2010-12-18 03:51:01,870.4377516917098,2,38,0.550297200679779,3.868920564651489,32.7184113391397,32.56052753484062,131.42710772813896,117.6697439685512,9.713172767078504e-05,0.0930307656526565,0,0,0
10869,400460.4410551015,2010-12-18 03:51:31,900.4527246926004,2,38,0.550297200679779,3.8723201751708975,32.72299877093446,32.56052753484062,131.44486332394516,117.6697439685512,0.0001295089750783,0.0930307656526565,0,0,0
10870,400490.4561381862,2010-12-18 03:52:01,930.4678077824434,2,38,0.5501165986061096,3.875072240829468,32.72758616855404,32.56052753484062,131.46263329027775,117.6697439685512,3.237724376958795e-05,0.0930307656526565,0,0,0
10871,400520.4712510602,2010-12-18 03:52:31,960.4829206513904,2,38,0.5501165986061096,3.878148078918457,32.73217352789114,32.56052753484062,131.48041708454804,117.6697439685512,3.237724376958795e-05,0.0930307656526565,0,0,0
10872,400550.4865705984,2010-12-18 03:53:01,990.4982402999002,2,38,0.5501165986061096,3.881062030792236,32.736760926995274,32.56052753484062,131.4982143489705,117.6697439685512,6.47544875391759e-05,0.0930307656526565,0,0,0
10873,400580.5014089192,2010-12-18 03:53:31,1020.5130785705196,2,38,0.5501165986061096,3.883652210235596,32.741348241717816,32.56052753484062,131.516023901418,117.6697439685512,6.47544875391759e-05,0.0930307656526565,0,0,0
10874,400610.5166219023,2010-12-18 03:54:01,1050.528291493447,2,38,0.550297200679779,3.886242389678955,32.7459355804556,32.56052753484062,131.53384542215016,117.6697439685512,9.713172767078504e-05,0.0930307656526565,0,0,0
10875,400640.53160843183,2010-12-18 03:54:31,1080.5432780230033,2,38,0.5501165986061096,3.8885087966918954,32.75052290778824,32.56052753484062,131.55167817328763,117.6697439685512,6.47544875391759e-05,0.0930307656526565,0,0,0
10876,400670.5466846095,2010-12-18 03:55:01,1110.5583542006457,2,38,0.5501165986061096,3.890775203704834,32.75511028270789,32.56052753484062,131.56952184235942,117.6697439685512,6.47544875391759e-05,0.0930307656526565,0,0,0
10877,400700.5617732581,2010-12-18 03:55:31,1140.5734428543335,2,38,0.550297200679779,3.893203496932984,32.75969770476611,32.56052753484062,131.58737591828597,117.6697439685512,9.713172767078504e-05,0.0930307656526565,0,0,0
10878,400730.57685477904,2010-12-18 03:56:01,1170.5885243552225,2,38,0.5504778623580933,3.894984245300293,32.764285072495056,32.56052753484062,131.6052394305126,117.6697439685512,3.237724376958795e-05,0.0930307656526565,0,0,0
10879,400760.59198960266,2010-12-18 03:56:31,1200.6036592640146,2,38,0.5501165986061096,3.896926879882813,32.768872453677204,32.56052753484062,131.6231119157515,117.6697439685512,6.47544875391759e-05,0.0930307656526565,0,0,0
10880,400790.6074061975,2010-12-18 03:57:01,1230.6190758988714,2,38,0.5501165986061096,3.899031400680542,32.77345985994363,32.56052753484062,131.6409935834913,117.6697439685512,6.47544875391759e-05,0.0930307656526565,0,0,0
10881,400820.6221567748,2010-12-18 03:57:31,1260.6338264461947,2,38,0.550297200679779,3.9009740352630615,32.77804713464592,32.56052753484062,131.6588834652783,117.6697439685512,9.713172767078504e-05,0.0930307656526565,0,0,0
10882,400850.6373561941,2010-12-18 03:58:01,1290.6490257752948,2,38,0.5501165986061096,3.902592897415161,32.782634505429435,32.56052753484062,131.67678221595207,117.6697439685512,3.237724376958795e-05,0.0930307656526565,0,0,0
10883,400880.65437440446,2010-12-18 03:58:31,1320.6660440507724,2,38,0.5501165986061096,3.904373645782471,32.78722220700555,32.56052753484062,131.69469057475584,117.6697439685512,3.237724376958795e-05,0.0930307656526565,0,0,0
10884,400910.6674427658,2010-12-18 03:59:01,1350.679112341866,2,38,0.5501165986061096,3.90615439414978,32.791809315356446,32.56052753484062,131.71260476135689,117.6697439685512,3.237724376958795e-05,0.0930307656526565,0,0,0
10885,400940.6825032794,2010-12-18 03:59:31,1380.6941728705665,2,38,0.5504778623580933,3.90793514251709,32.796396623708915,32.56052753484062,131.7305278357537,117.6697439685512,3.237724376958795e-05,0.0930307656526565,0,0,0
10886,400970.6978219755,2010-12-18 04:00:01,1410.7094915667064,2,38,0.550297200679779,3.9097158908844,32.80098400307065,32.56052753484062,131.7484592400455,117.6697439685512,3.237724376958795e-05,0.0930307656526565,0,0,0
10887,401000.712706812,2010-12-18 04:00:31,1440.724376408216,2,38,0.550297200679779,3.911496639251709,32.80557139996659,32.56052753484062,131.76639867421153,117.6697439685512,6.47544875391759e-05,0.0930307656526565,0,0,0
10888,401030.72779858345,2010-12-18 04:01:01,1470.7394681796625,2,38,0.5501165986061096,3.9131155014038086,32.81015876765466,32.56052753484062,131.7843459691782,117.6697439685512,3.237724376958795e-05,0.0930307656526565,0,0,0
10889,401060.7428748663,2010-12-18 04:01:31,1500.7545444625664,2,38,0.550297200679779,3.914896011352539,32.81474619524594,32.56052753484062,131.80230150711094,117.6697439685512,3.237724376958795e-05,0.0930307656526565,0,0,0
10890,401090.758084842,2010-12-18 04:02:01,1530.769754423122,2,38,0.550297200679779,3.9166767597198486,32.81933359201884,32.56052753484062,131.82026474726635,117.6697439685512,9.713172767078504e-05,0.0930307656526565,0,0,0
10891,401120.7731982923,2010-12-18 04:02:31,1560.7848678685036,2,38,0.5501165986061096,3.918457508087158,32.82392094273643,32.56052753484062,131.8382356897384,117.6697439685512,6.47544875391759e-05,0.0930307656526565,0,0,0
10892,401150.7882727959,2010-12-18 04:03:01,1590.7999423920294,2,38,0.5501165986061096,3.920076370239258,32.8285082863099,32.56052753484062,131.8562145378489,117.6697439685512,0.0,0.0930307656526565,0,0,0
10893,401180.8032634306,2010-12-18 04:03:31,1620.8149330217889,2,38,0.5499359965324402,3.921695232391357,32.83309566946182,32.56052753484062,131.87420139995754,117.6697439685512,3.237724376958795e-05,0.0930307656526565,0,0,0
10894,401210.81832852063,2010-12-18 04:04:01,1650.8299981168525,2,38,0.550297200679779,3.923475980758667,32.83768304640234,32.56052753484062,131.89219613252433,117.6697439685512,3.237724376958795e-05,0.0930307656526565,0,0,0
10895,401240.8334442668,2010-12-18 04:04:31,1680.845113857947,2,38,0.5501165986061096,3.925256729125977,32.842270444769646,32.56052753484062,131.91019886478273,117.6697439685512,3.237724376958795e-05,0.0930307656526565,0,0,0
10896,401270.8485167352,2010-12-18 04:05:01,1710.8601863113208,2,38,0.5501165986061096,3.926875591278076,32.84685785891572,32.56052753484062,131.92820943657765,117.6697439685512,6.47544875391759e-05,0.0930307656526565,0,0,0
10897,401300.863613494,2010-12-18 04:05:31,1740.875283085216,2,38,0.5501165986061096,3.928494453430176,32.85144526567786,32.56052753484062,131.9462278715354,117.6697439685512,0.0,0.0930307656526565,0,0,0
10898,401330.8788221865,2010-12-18 04:06:01,1770.8904917625784,2,38,0.5504778623580933,3.930598974227905,32.856032622142216,32.56052753484062,131.96425399176633,117.6697439685512,6.47544875391759e-05,0.0930307656526565,0,0,0
10899,401360.89380965335,2010-12-18 04:06:32,1800.9054792445045,2,38,0.550297200679779,3.932055950164795,32.86062004047776,32.56052753484062,131.982288218906,117.6697439685512,3.237724376958795e-05,0.0930307656526565,0,0,0
10900,401390.90903587936,2010-12-18 04:07:02,1830.920705445474,2,38,0.5501165986061096,3.9336748123168954,32.86520746996587,32.56052753484062,132.00033038773097,117.6697439685512,3.237724376958795e-05,0.0930307656526565,0,0,0
10901,401420.9239727754,2010-12-18 04:07:32,1860.935642371594,2,38,0.550297200679779,3.935779333114624,32.8697949475194,32.56052753484062,132.0183807051379,117.6697439685512,9.713172767078504e-05,0.0930307656526565,0,0,0
10902,401450.93912153365,2010-12-18 04:08:02,1890.950791215062,2,38,0.5499359965324402,3.9372363090515137,32.874382435081024,32.56052753484062,132.0364388498916,117.6697439685512,3.237724376958795e-05,0.0930307656526565,0,0,0
10903,401480.956054562,2010-12-18 04:08:32,1920.9677242333807,2,38,0.5501165986061096,3.9390170574188232,32.878970048620594,32.56052753484062,132.054505487131,117.6697439685512,6.47544875391759e-05,0.0930307656526565,0,0,0
10904,401510.96939274966,2010-12-18 04:09:02,1950.981062340902,2,38,0.550297200679779,3.940797805786133,32.88355712088216,32.56052753484062,132.07257789831888,117.6697439685512,9.713172767078504e-05,0.0930307656526565,0,0,0
10905,401540.9843454952,2010-12-18 04:09:32,1980.996015086388,2,38,0.550297200679779,3.942416667938232,32.88814446607639,32.56052753484062,132.09065932351254,117.6697439685512,3.237724376958795e-05,0.0930307656526565,0,0,0
10906,401570.9994380486,2010-12-18 04:10:02,2011.011107644793,2,38,0.5501165986061096,3.944197416305542,32.892731820865194,32.56052753484062,132.10874872127647,117.6697439685512,6.47544875391759e-05,0.0930307656526565,0,0,0
10907,401601.01456576446,2010-12-18 04:10:32,2041.0262353406365,2,38,0.550297200679779,3.9461400508880615,32.897319277867666,32.56052753484062,132.12684650907988,117.6697439685512,9.713172767078504e-05,0.0930307656526565,0,0,0
10908,401631.02961398254,2010-12-18 04:11:02,2071.0412835737397,2,38,0.5499359965324402,3.947597026824951,32.901906650635866,32.56052753484062,132.1449518872182,117.6697439685512,6.47544875391759e-05,0.0930307656526565,0,0,0
10909,401661.0447051826,2010-12-18 04:11:32,2101.056374773764,2,38,0.5501165986061096,3.9493777751922607,32.90649399626388,32.56052753484062,132.16306520628032,117.6697439685512,6.47544875391759e-05,0.0930307656526565,0,0,0
10910,401691.0599654183,2010-12-18 04:12:02,2131.07163499439,2,38,0.5501165986061096,3.9511585235595694,32.911081438973696,32.56052753484062,132.1811870130163,117.6697439685512,3.237724376958795e-05,0.0930307656526565,0,0,0
10911,401721.07492451445,2010-12-18 04:12:32,2161.086594286166,2,38,0.5501165986061096,3.95293927192688,32.915668858981874,32.56052753484062,132.19931681095542,117.6697439685512,3.237724376958795e-05,0.0930307656526565,0,0,0
10912,401751.0901069967,2010-12-18 04:13:02,2191.1017765878937,2,38,0.550297200679779,3.9548819065094,32.92025621278334,32.56052753484062,132.21745451532692,117.6697439685512,9.713172767078504e-05,0.0930307656526565,0,0,0
10913,401781.105086168,2010-12-18 04:13:32,2221.116755734077,2,38,0.550297200679779,3.956500768661499,32.92484360543618,32.56052753484062,132.2356006120612,117.6697439685512,3.237724376958795e-05,0.0930307656526565,0,0,0
10914,401811.1203198125,2010-12-18 04:14:02,2251.131989408644,2,38,0.550297200679779,3.9582815170288086,32.92943107791542,32.56052753484062,132.25375513740053,117.6697439685512,6.47544875391759e-05,0.0930307656526565,0,0,0
10915,401841.1352710392,2010-12-18 04:14:32,2281.1469406153005,2,38,0.550297200679779,3.960062265396118,32.93401839800383,32.56052753484062,132.27191734671806,117.6697439685512,3.237724376958795e-05,0.0930307656526565,0,0,0
10916,401871.1504707993,2010-12-18 04:15:02,2311.16214039051,2,38,0.5501165986061096,3.9620048999786377,32.938605768308825,32.56052753484062,132.29008806662353,117.6697439685512,6.47544875391759e-05,0.0930307656526565,0,0,0
10917,401901.16545789526,2010-12-18 04:15:32,2341.177127486476,2,38,0.550297200679779,3.963947534561157,32.94319304588726,32.56052753484062,132.30826670237997,117.6697439685512,9.713172767078504e-05,0.0930307656526565,0,0,0
10918,401931.1812954928,2010-12-18 04:16:02,2371.1929651540563,2,38,0.550297200679779,3.965728282928467,32.94778061132717,32.56052753484062,132.32645494603636,117.6697439685512,6.47544875391759e-05,0.0930307656526565,0,0,0
10919,401961.1829025429,2010-12-18 04:16:32,2401.1945722243427,2,38,0.550297200679779,3.967509031295776,32.95236595786481,32.56052753484062,132.3446428589061,117.6697439685512,6.47544875391759e-05,0.0930307656526565,0,0,0
10920,401991.19510920485,2010-12-18 04:17:02,2431.206778786056,2,38,0.5501165986061096,3.969289779663086,32.956953008564064,32.56052753484062,132.3628460305137,117.6697439685512,6.47544875391759e-05,0.0930307656526565,0,0,0
10921,402021.2101974225,2010-12-18 04:17:32,2461.221867018696,2,38,0.550297200679779,3.9712324142456055,32.9615404142562,32.56052753484062,132.38105921759492,117.6697439685512,9.713172767078504e-05,0.0930307656526565,0,0,0
10922,402051.2252698709,2010-12-18 04:18:02,2491.236939462046,2,38,0.550297200679779,3.973013162612915,32.96612788031446,32.56052753484062,132.39928135438686,117.6697439685512,3.237724376958795e-05,0.0930307656526565,0,0,0
10923,402081.2403718678,2010-12-18 04:18:32,2521.2520414639507,2,38,0.550297200679779,3.975117683410645,32.97071533503116,32.56052753484062,132.41751226777976,117.6697439685512,6.47544875391759e-05,0.0930307656526565,0,0,0
10924,402111.2574844329,2010-12-18 04:19:02,2551.269154099239,2,38,0.550297200679779,3.977060317993164,32.97530310720087,32.56052753484062,132.43575328218196,117.6697439685512,3.237724376958795e-05,0.0930307656526565,0,0,0
10925,402141.2705543431,2010-12-18 04:19:32,2581.282223939187,2,38,0.5501165986061096,3.979002952575684,32.979890306859026,32.56052753484062,132.45400061230458,117.6697439685512,3.237724376958795e-05,0.0930307656526565,0,0,0
10926,402171.28567033965,2010-12-18 04:20:02,2611.297339930905,2,38,0.550297200679779,3.980945587158203,32.98447758352735,32.56052753484062,132.47225770029286,117.6697439685512,6.47544875391759e-05,0.0930307656526565,0,0,0
10927,402201.300762878,2010-12-18 04:20:32,2641.31243246926,2,38,0.5501165986061096,3.9830501079559326,32.989064891693104,32.56052753484062,132.49052406954635,117.6697439685512,3.237724376958795e-05,0.0930307656526565,0,0,0
10928,402231.31585385255,2010-12-18 04:21:02,2671.327523448736,2,38,0.5501165986061096,3.984830856323242,32.993652262711535,32.56052753484062,132.50879981766357,117.6697439685512,6.47544875391759e-05,0.0930307656526565,0,0,0
10929,402261.33092335856,2010-12-18 04:21:32,2701.342592954776,2,38,0.550297200679779,3.986935377120972,32.99823956068472,32.56052753484062,132.52708459470497,117.6697439685512,0.0,0.0930307656526565,0,0,0
10930,402291.34600511007,2010-12-18 04:22:02,2731.357674796513,2,38,0.5501165986061096,3.989039897918701,33.002826896437874,32.56052753484062,132.54537893900437,117.6697439685512,9.713172767078504e-05,0.0930307656526565,0,0,0
10931,402321.3610966159,2010-12-18 04:22:32,2761.372766212074,2,38,0.5501165986061096,3.991144418716431,33.00741416699103,32.56052753484062,132.56368247499086,117.6697439685512,6.47544875391759e-05,0.0930307656526565,0,0,0
10932,402351.3762204271,2010-12-18 04:23:02,2791.3878900884124,2,38,0.550297200679779,3.99324893951416,33.01200152287715,32.56052753484062,132.5819960335836,117.6697439685512,6.47544875391759e-05,0.0930307656526565,0,0,0
10933,402381.39159043087,2010-12-18 04:23:32,2821.403260097242,2,38,0.550297200679779,3.995353221893311,33.01658893953272,32.56052753484062,132.6003195499339,117.6697439685512,6.47544875391759e-05,0.0930307656526565,0,0,0
10934,402411.4063824664,2010-12-18 04:24:02,2851.418052042583,2,38,0.5501165986061096,3.99745774269104,33.02117623353832,32.56052753484062,132.61865244953174,117.6697439685512,6.47544875391759e-05,0.0930307656526565,0,0,0
10935,402441.42147019785,2010-12-18 04:24:32,2881.433139794026,2,38,0.5501165986061096,3.99972414970398,33.025763596910814,32.56052753484062,132.6369955154545,117.6697439685512,3.237724376958795e-05,0.0930307656526565,0,0,0
10936,402471.4366042996,2010-12-18 04:25:02,2911.44827387576,2,38,0.5501165986061096,4.001828670501709,33.0303509572434,32.56052753484062,132.6553486526028,117.6697439685512,6.47544875391759e-05,0.0930307656526565,0,0,0
10937,402501.45187769306,2010-12-18 04:25:32,2941.4635473543776,2,38,0.550297200679779,4.004095077514648,33.034938300392774,32.56052753484062,132.67371191468044,117.6697439685512,3.23295607813634e-05,0.0930307656526565,0,0,0
10938,402531.46674972266,2010-12-18 04:26:02,2971.4784193689684,2,38,0.5499359965324402,4.006361484527588,33.03952561690308,32.56052753484062,132.6920853621037,117.6697439685512,3.23295607813634e-05,0.0930307656526565,0,0,0
10939,402561.48183810565,2010-12-18 04:26:32,3001.4935076968454,2,38,0.550297200679779,4.008790016174316,33.04411297061493,32.56052753484062,132.71046939045522,117.6697439685512,9.71794142969884e-05,0.0930307656526565,0,0,0
10940,402591.49703815655,2010-12-18 04:27:02,3031.5087078179163,2,38,0.550297200679779,4.010894298553467,33.04870031813052,32.56052753484062,132.72886382644842,117.6697439685512,3.23295607813634e-05,0.0930307656526565,0,0,0
10941,402621.5120281999,2010-12-18 04:27:32,3061.5236977910413,2,38,0.5501165986061096,4.013322830200195,33.0532875744823,32.56052753484062,132.7472686068198,117.6697439685512,3.24249267578125e-05,0.0930307656526565,0,0,0
10942,402651.5271097007,2010-12-18 04:28:02,3091.53877929193,2,38,0.550297200679779,4.015589237213135,33.05787490238219,32.56052753484062,132.76568446161102,117.6697439685512,3.24249267578125e-05,0.0930307656526565,0,0,0
10943,402681.5422023042,2010-12-18 04:28:32,3121.5538719004603,2,38,0.550297200679779,4.018179416656494,33.062462287552286,32.56052753484062,132.78411147221888,117.6697439685512,9.71794142969884e-05,0.0930307656526565,0,0,0
10944,402711.55918630445,2010-12-18 04:29:02,3151.570855985857,2,38,0.5501165986061096,4.020445823669434,33.0670499839649,32.56052753484062,132.80255065514683,117.6697439685512,3.24249267578125e-05,0.0930307656526565,0,0,0
10945,402741.57240259886,2010-12-18 04:29:32,3181.584072195039,2,38,0.550297200679779,4.022873878479004,33.07163702109895,32.56052753484062,132.82099842457245,117.6697439685512,6.47544875391759e-05,0.0930307656526565,0,0,0
10946,402771.58750098175,2010-12-18 04:30:02,3211.599170587963,2,38,0.550297200679779,4.025464057922363,33.076224314741204,32.56052753484062,132.8394584459243,117.6697439685512,9.70840483205393e-05,0.0930307656526565,0,0,0
10947,402801.6026064523,2010-12-18 04:30:32,3241.6142760434623,2,38,0.550297200679779,4.027892589569092,33.08081157348127,32.56052753484062,132.85792965794843,117.6697439685512,9.71794142969884e-05,0.0930307656526565,0,0,0
10948,402831.6176861236,2010-12-18 04:31:02,3271.6293557198105,2,38,0.5501165986061096,4.030320644378662,33.085398899950604,32.56052753484062,132.8764125551882,117.6697439685512,6.47544875391759e-05,0.0930307656526565,0,0,0
10949,402861.6329387303,2010-12-18 04:31:32,3301.6446084016766,2,38,0.5501165986061096,4.032749176025391,33.089986272137786,32.56052753484062,132.8949071368072,117.6697439685512,3.24249267578125e-05,0.0930307656526565,0,0,0
10950,402891.6478479575,2010-12-18 04:32:02,3331.6595175536813,2,38,0.5501165986061096,4.035501003265381,33.09457359742435,32.56052753484062,132.9134132478429,117.6697439685512,9.71794142969884e-05,0.0930307656526565,0,0,0
10951,402921.66328950936,2010-12-18 04:32:32,3361.674959090506,2,38,0.5501165986061096,4.037929058074951,33.09916093079699,32.56052753484062,132.93193113942013,117.6697439685512,6.47544875391759e-05,0.0930307656526565,0,0,0
10952,402951.6780476656,2010-12-18 04:33:02,3391.689717256789,2,38,0.550297200679779,4.0408430099487305,33.10374823742189,32.56052753484062,132.95046077191057,117.6697439685512,0.0001295089750783,0.0930307656526565,0,0,0
10953,402981.6931250964,2010-12-18 04:33:32,3421.704794692562,2,38,0.550297200679779,4.043271541595459,33.10833555419534,32.56052753484062,132.96900235434546,117.6697439685512,6.47544875391759e-05,0.0930307656526565,0,0,0
10954,403011.7082544714,2010-12-18 04:34:02,3451.719924062571,2,38,0.5501165986061096,4.045861721038818,33.112922938359105,32.56052753484062,132.98755627384347,117.6697439685512,3.24249267578125e-05,0.0930307656526565,0,0,0
10955,403041.7233042032,2010-12-18 04:34:32,3481.7349737994164,2,38,0.5501165986061096,4.048613548278809,33.117510265601204,32.56052753484062,133.00612216166107,117.6697439685512,9.70840483205393e-05,0.0930307656526565,0,0,0
10956,403071.7385507498,2010-12-18 04:35:02,3511.750220325965,2,38,0.550297200679779,4.051203727722168,33.122097645586784,32.56052753484062,133.02470052602123,117.6697439685512,6.47544875391759e-05,0.0930307656526565,0,0,0
10957,403101.7534949139,2010-12-18 04:35:32,3541.7651645051337,2,38,0.550297200679779,4.053956031799316,33.12668494660894,32.56052753484062,133.04329100137406,117.6697439685512,6.47544875391759e-05,0.0930307656526565,0,0,0
10958,403131.7685808058,2010-12-18 04:36:02,3571.780250396949,2,38,0.550297200679779,4.056869983673096,33.1312723451153,32.56052753484062,133.06189443587954,117.6697439685512,9.71794142969884e-05,0.0930307656526565,0,0,0
10959,403161.78379455575,2010-12-18 04:36:32,3601.7954641369097,2,38,0.550297200679779,4.059621810913086,33.13585975291452,32.56052753484062,133.08051058171029,117.6697439685512,9.70840483205393e-05,0.0930307656526565,0,0,0
10960,403191.79878645367,2010-12-18 04:37:02,3631.8104560448505,2,38,0.550297200679779,4.062211990356445,33.14044716994718,32.56052753484062,133.09913929568046,117.6697439685512,6.47544875391759e-05,0.0930307656526565,0,0,0
10961,403221.813882185,2010-12-18 04:37:32,3661.8255517761513,2,38,0.5501165986061096,4.065125942230225,33.14503442712041,32.56052753484062,133.117780114624,117.6697439685512,6.47544875391759e-05,0.0930307656526565,0,0,0
10962,403251.8289517161,2010-12-18 04:38:02,3691.8406213974777,2,38,0.5501165986061096,4.067878246307373,33.149621747143954,32.56052753484062,133.13643414965426,117.6697439685512,9.71794142969884e-05,0.0930307656526565,0,0,0
10963,403281.844036836,2010-12-18 04:38:32,3721.855706427148,2,38,0.5501165986061096,4.070792198181152,33.15420911376451,32.56052753484062,133.1551014290538,117.6697439685512,6.47544875391759e-05,0.0930307656526565,0,0,0
10964,403311.85915939405,2010-12-18 04:39:03,3751.8708289902174,2,38,0.5501165986061096,4.073544025421143,33.158796447798515,32.56052753484062,133.17378166988985,117.6697439685512,6.47544875391759e-05,0.0930307656526565,0,0,0
10965,403341.8605212542,2010-12-18 04:39:33,3781.872190925495,2,38,0.550297200679779,4.076457977294922,33.16338166739886,32.56052753484062,133.19246661735212,117.6697439685512,6.47544875391759e-05,0.0930307656526565,0,0,0
10966,403371.8738822085,2010-12-18 04:40:03,3811.885551889896,2,38,0.5501165986061096,4.079371929168701,33.16796871050663,32.56052753484062,133.21117236937744,117.6697439685512,6.47544875391759e-05,0.0930307656526565,0,0,0
10967,403401.8887853205,2010-12-18 04:40:33,3841.900454916658,2,38,0.5501165986061096,4.08212423324585,33.17255608117154,32.56052753484062,133.22989294989338,117.6697439685512,0.0,0.0930307656526565,0,0,0
10968,403431.9038835129,2010-12-18 04:41:03,3871.9155531090832,2,38,0.5501165986061096,4.085361957550049,33.17714343190932,32.56052753484062,133.24862708843946,117.6697439685512,6.47544875391759e-05,0.0930307656526565,0,0,0
10969,403461.9190772831,2010-12-18 04:41:33,3901.9307468593,2,38,0.5501165986061096,4.088437557220459,33.18173080143031,32.56052753484062,133.26737509438334,117.6697439685512,9.70840483205393e-05,0.0930307656526565,0,0,0
10970,403491.9340641535,2010-12-18 04:42:03,3931.945733749754,2,38,0.5501165986061096,4.091513633728027,33.18631813311654,32.56052753484062,133.28613694121304,117.6697439685512,9.71794142969884e-05,0.0930307656526565,0,0,0
10971,403521.94930641947,2010-12-18 04:42:33,3961.9609760006633,2,38,0.5501165986061096,4.094427585601807,33.190905482696735,32.56052753484062,133.30491276781672,117.6697439685512,3.24249267578125e-05,0.0930307656526565,0,0,0
10972,403551.964245912,2010-12-18 04:43:03,3991.9759154931694,2,38,0.5501165986061096,4.097503185272217,33.19549287617155,32.56052753484062,133.3237028855528,117.6697439685512,9.70840483205393e-05,0.0930307656526565,0,0,0
10973,403581.97955897416,2010-12-18 04:43:33,4021.991228635489,2,38,0.5501165986061096,4.100740909576416,33.20008026445731,32.56052753484062,133.34250716897856,117.6697439685512,6.47544875391759e-05,0.0930307656526565,0,0,0
10974,403611.9944360112,2010-12-18 04:44:03,4052.0061056024033,2,38,0.550297200679779,4.103978633880615,33.20466762628898,32.56052753484062,133.36132560492504,117.6697439685512,0.0001295089750783,0.0930307656526565,0,0,0
10975,403642.0095474767,2010-12-18 04:44:33,4082.0212170427953,2,38,0.5501165986061096,4.1068925857543945,33.2092549606673,32.56052753484062,133.38015840347376,117.6697439685512,9.70840483205393e-05,0.0930307656526565,0,0,0
10976,403672.02462647134,2010-12-18 04:45:03,4112.036296067522,2,38,0.550297200679779,4.110130310058594,33.2138422622823,32.56052753484062,133.3990055598532,117.6697439685512,6.47544875391759e-05,0.0930307656526565,0,0,0
10977,403702.0397355158,2010-12-18 04:45:33,4142.05140510694,2,38,0.5499359965324402,4.113206386566162,33.21842967372217,32.56052753484062,133.41786786848365,117.6697439685512,6.47544875391759e-05,0.0930307656526565,0,0,0
10978,403732.0548413773,2010-12-18 04:46:03,4172.066510968449,2,38,0.5499359965324402,4.116605758666992,33.223017098118696,32.56052753484062,133.43674502430574,117.6697439685512,0.0001295089750783,0.0930307656526565,0,0,0
10979,403762.0699025526,2010-12-18 04:46:33,4202.0815721437575,2,38,0.550297200679779,4.119843482971191,33.22760448072633,32.56052753484062,133.45563698919062,117.6697439685512,6.47544875391759e-05,0.0930307656526565,0,0,0
10980,403792.0850181784,2010-12-18 04:47:03,4232.096687769565,2,38,0.550297200679779,4.1232428550720215,33.23219187429756,32.56052753484062,133.4745439671834,117.6697439685512,0.0001295089750783,0.0930307656526565,0,0,0
10981,403822.10011053627,2010-12-18 04:47:33,4262.111780132484,2,38,0.550297200679779,4.126480579376221,33.236779247437696,32.56052753484062,133.493465950064,117.6697439685512,6.47544875391759e-05,0.0930307656526565,0,0,0
10982,403852.11520167626,2010-12-18 04:48:03,4292.126871347546,2,38,0.5501165986061096,4.12971830368042,33.24136668306709,32.56052753484062,133.5124034620731,117.6697439685512,6.47544875391759e-05,0.0930307656526565,0,0,0
10983,403882.1302519393,2010-12-18 04:48:33,4322.141921605688,2,38,0.5501165986061096,4.133118152618408,33.24595406051595,32.56052753484062,133.53135608194088,117.6697439685512,6.47544875391759e-05,0.0930307656526565,0,0,0
10984,403912.1482256674,2010-12-18 04:49:03,4352.159895348811,2,38,0.550297200679779,4.136517524719238,33.25054191190674,32.56052753484062,133.55032608068757,117.6697439685512,6.47544875391759e-05,0.0930307656526565,0,0,0
10985,403942.16221405816,2010-12-18 04:49:33,4382.173883724499,2,38,0.5501165986061096,4.139917373657227,33.25512908070415,32.56052753484062,133.56930887261717,117.6697439685512,9.71794142969884e-05,0.0930307656526565,0,0,0
10986,403972.1755822555,2010-12-18 04:50:03,4412.187251831673,2,38,0.5499359965324402,4.143316745758057,33.25971616341939,32.56052753484062,133.58830708857764,117.6697439685512,6.47544875391759e-05,0.0930307656526565,0,0,0
10987,404002.1906982472,2010-12-18 04:50:33,4442.202367823391,2,38,0.5501165986061096,4.146878242492676,33.26430348186069,32.56052753484062,133.60732231408485,117.6697439685512,9.70840483205393e-05,0.0930307656526565,0,0,0
10988,404032.2057856528,2010-12-18 04:51:03,4472.217455244011,2,38,0.5501165986061096,4.150439739227295,33.26889073993222,32.56052753484062,133.62635334602749,117.6697439685512,9.70840483205393e-05,0.0930307656526565,0,0,0
10989,404062.22099908703,2010-12-18 04:51:33,4502.232668683223,2,38,0.5501165986061096,4.153839588165283,33.2734780606275,32.56052753484062,133.6454006554237,117.6697439685512,6.47544875391759e-05,0.0930307656526565,0,0,0
10990,404092.2359431961,2010-12-18 04:52:03,4532.247612787205,2,38,0.5501165986061096,4.157401084899902,33.27806535956311,32.56052753484062,133.6644639144805,117.6697439685512,6.47544875391759e-05,0.0930307656526565,0,0,0
10991,404122.2510337996,2010-12-18 04:52:33,4562.262703375708,2,38,0.5501165986061096,4.1609625816345215,33.28265267873729,32.56052753484062,133.68354352905493,117.6697439685512,9.71794142969884e-05,0.0930307656526565,0,0,0
10992,404152.26613210223,2010-12-18 04:53:03,4592.277801693445,2,38,0.550297200679779,4.164361953735352,33.28724005382285,32.56052753484062,133.70263973955858,117.6697439685512,3.23295607813634e-05,0.0930307656526565,0,0,0
10993,404182.28138349095,2010-12-18 04:53:33,4622.293053087105,2,38,0.550297200679779,4.168247222900391,33.29182742569921,32.56052753484062,133.72175236350805,117.6697439685512,0.0001295089750783,0.0930307656526565,0,0,0
10994,404212.29647819465,2010-12-18 04:54:03,4652.308147790849,2,38,0.550297200679779,4.17180871963501,33.29641475745718,32.56052753484062,133.74088136458332,117.6697439685512,0.0001295089750783,0.0930307656526565,0,0,0
10995,404242.3115200369,2010-12-18 04:54:33,4682.323189612998,2,38,0.5501165986061096,4.175370216369629,33.30100203791387,32.56052753484062,133.7600267864553,117.6697439685512,9.70840483205393e-05,0.0930307656526565,0,0,0
10996,404272.3265223357,2010-12-18 04:55:03,4712.338192002021,2,38,0.550297200679779,4.179417610168457,33.30558931260791,32.56052753484062,133.77918897950144,117.6697439685512,0.0001619339018361,0.0930307656526565,0,0,0
10997,404302.3417721103,2010-12-18 04:55:33,4742.353441686427,2,38,0.5501165986061096,4.182816982269287,33.310176610740704,32.56052753484062,133.79836824496056,117.6697439685512,9.70840483205393e-05,0.0930307656526565,0,0,0
10998,404332.3568507139,2010-12-18 04:56:03,4772.368520365294,2,38,0.550297200679779,4.186702251434326,33.31476400215934,32.56052753484062,133.8175649246803,117.6697439685512,0.0001618385285837,0.0930307656526565,0,0,0
10999,404362.3717677857,2010-12-18 04:56:33,4802.383437381869,2,38,0.5501165986061096,4.190263748168945,33.319350661548164,32.56052753484062,133.83677554486195,117.6697439685512,9.70840483205393e-05,0.0930307656526565,0,0,0
11000,404392.3868663641,2010-12-18 04:57:03,4832.398535960255,2,38,0.5501165986061096,4.1939873695373535,33.3239371669819,32.56052753484062,133.85600271126367,117.6697439685512,9.71794142969884e-05,0.0930307656526565,0,0,0
11001,404422.4020264054,2010-12-18 04:57:33,4862.413695996576,2,38,0.5499359965324402,4.197710514068604,33.3285238372025,32.56052753484062,133.8752480078421,117.6697439685512,6.47544875391759e-05,0.0930307656526565,0,0,0
11002,404438.6362624024,2010-12-18 04:57:49,4878.647931993461,2,38,0.5501165986061096,4.200138568878174,33.33100461046677,32.56052753484062,133.8856644140594,117.6697439685512,0.0001295089750783,0.0930307656526565,0,0,0
11003,404468.65290088026,2010-12-18 04:58:19,30.01522058198671,3,38,0.0,4.111911296844482,33.33100461046677,32.56052753484062,133.8856644140594,117.6697439685512,-0.0004208564641885,0.0930307656526565,0,0,0
11004,404498.6678844374,2010-12-18 04:58:49,60.03020413914626,3,38,0.0,4.100740909576416,33.33100461046677,32.56052753484062,133.8856644140594,117.6697439685512,-0.0002266883820993,0.0930307656526565,0,0,0
11005,404528.6829639082,2010-12-18 04:59:19,90.04528361499578,3,38,0.0,4.094265460968018,33.33100461046677,32.56052753484062,133.8856644140594,117.6697439685512,-0.0001295089750783,0.0930307656526565,0,0,0
11006,404558.6511809237,2010-12-18 04:59:49,120.01350062540244,3,38,0.0,4.089894771575928,33.33100461046677,32.56052753484062,133.8856644140594,117.6697439685512,-9.70840483205393e-05,0.0930307656526565,0,0,0
11007,404558.6549312253,2010-12-18 04:59:50,2.681673241e-06,4,38,1.018617033958435,4.199976921081543,33.331004611225545,32.56052753484062,133.88566441724623,117.6697439685512,0.0,0.0930307656526565,0,0,0
11008,404559.2799125423,2010-12-18 04:59:50,0.624984043755037,4,38,0.9682270884513856,4.199814796447754,33.33117570829566,32.56052753484062,133.8863829852657,117.6697439685512,-3.24249267578125e-05,0.0930307656526565,0,0,0
11009,404561.0142396336,2010-12-18 04:59:52,2.359311104941913,4,38,0.9178370833396912,4.199653148651123,33.331628999673235,32.56052753484062,133.8882866943186,117.6697439685512,-6.47544875391759e-05,0.0930307656526565,0,0,0
11010,404563.7017036494,2010-12-18 04:59:55,5.046775150856169,4,38,0.867627739906311,4.199814796447754,33.33229427213271,32.56052753484062,133.89108068427302,117.6697439685512,0.0,0.0930307656526565,0,0,0
11011,404567.43602416734,2010-12-18 04:59:58,8.781095718962186,4,38,0.8175989389419556,4.199976921081543,33.33316704631565,32.56052753484062,133.89474614614969,117.6697439685512,3.24249267578125e-05,0.0930307656526565,0,0,0
11012,404572.37342504953,2010-12-18 05:00:03,13.718496551032764,4,38,0.7675701975822449,4.199814796447754,33.334252651770896,32.56052753484062,133.89930543975095,117.6697439685512,3.23295607813634e-05,0.0930307656526565,0,0,0
11013,404578.826426325,2010-12-18 05:00:10,20.171497826514443,4,38,0.7171801924705505,4.199653148651123,33.33558175076234,32.56052753484062,133.90488736381522,117.6697439685512,-3.23295607813634e-05,0.0930307656526565,0,0,0
11014,404587.3577337655,2010-12-18 05:00:18,28.70280532208997,4,38,0.6669707894325256,4.199814796447754,33.33721942449063,32.56052753484062,133.9117652348706,117.6697439685512,-3.24249267578125e-05,0.0930307656526565,0,0,0
11015,404599.0291933137,2010-12-18 05:00:30,40.374264810123655,4,38,0.6169420480728149,4.199814796447754,33.339296300136084,32.56052753484062,133.92048764960498,117.6697439685512,3.23295607813634e-05,0.0930307656526565,0,0,0
11016,404616.1226679328,2010-12-18 05:00:47,57.46773943428455,4,38,0.5669133067131042,4.199814796447754,33.342098551015546,32.56052753484062,133.9322564933513,117.6697439685512,0.0,0.0930307656526565,0,0,0
11017,404644.3408884192,2010-12-18 05:01:15,85.68595991563622,4,38,0.5168845057487488,4.199653148651123,33.3463286632424,32.56052753484062,133.95002208483092,117.6697439685512,-3.23295607813634e-05,0.0930307656526565,0,0,0
11018,404695.73062288685,2010-12-18 05:02:07,137.0756943833308,4,38,0.4668557345867157,4.199814796447754,33.35331703888731,32.56052753484062,133.97937178368815,117.6697439685512,0.0,0.0930307656526565,0,0,0
11019,404782.71343612205,2010-12-18 05:03:34,224.0585076235864,4,38,0.4168269634246826,4.199814796447754,33.363963094857226,32.56052753484062,134.02408298953517,117.6697439685512,0.0,0.0930307656526565,0,0,0
11020,404897.8550135189,2010-12-18 05:05:29,339.2000850905908,4,38,0.3667981922626495,4.199814796447754,33.37647958216058,32.56052753484062,134.07664957117606,117.6697439685512,0.0,0.0930307656526565,0,0,0
11021,405035.9298175231,2010-12-18 05:07:47,477.27488909478586,4,38,0.3167694211006164,4.199814796447754,33.38957157452743,32.56052753484062,134.13163324385027,117.6697439685512,3.23295607813634e-05,0.0930307656526565,0,0,0
11022,405201.1123116315,2010-12-18 05:10:32,642.4573831280147,4,38,0.2667406499385834,4.199653148651123,33.402933859499846,32.56052753484062,134.18775196259998,117.6697439685512,-6.47544875391759e-05,0.0930307656526565,0,0,0
11023,405403.374360521,2010-12-18 05:13:54,844.7194320223787,4,38,0.2165312767028808,4.199653148651123,33.416477104884734,32.56052753484062,134.24463072258013,117.6697439685512,0.0,0.0930307656526565,0,0,0
11024,405671.0884829379,2010-12-18 05:18:22,1112.433554424279,4,38,0.1665025055408477,4.199814796447754,33.430652604573254,32.56052753484062,134.30416484784828,117.6697439685512,3.23295607813634e-05,0.0930307656526565,0,0,0
11025,406065.2376913685,2010-12-18 05:24:56,1506.5827628648983,4,38,0.1164737418293953,4.199814796447754,33.44597061296055,32.56052753484062,134.36849728689396,117.6697439685512,3.23295607813634e-05,0.0930307656526565,0,0,0
11026,406776.0219487351,2010-12-18 05:36:47,2217.3670202314997,4,38,0.0664449706673622,4.199653148651123,33.463532733740976,32.56052753484062,134.44225459622982,117.6697439685512,-3.23295607813634e-05,0.0930307656526565,0,0,0
11027,407188.7177760334,2010-12-18 05:43:40,2630.062847514777,4,38,0.0498289167881011,4.199814796447754,33.47019947882371,32.56052753484062,134.4702535524696,117.6697439685512,0.0,0.0930307656526565,0,0,0
11028,407218.717300115,2010-12-18 05:44:10,30.011768200869085,5,38,0.0,4.191558837890625,33.47019947882371,32.56052753484062,134.4702535524696,117.6697439685512,-3.24249267578125e-05,0.0930307656526565,0,0,0
11029,407248.7167550648,2010-12-18 05:44:40,60.01122316071147,5,38,0.0,4.190263748168945,33.47019947882371,32.56052753484062,134.4702535524696,117.6697439685512,-3.24249267578125e-05,0.0930307656526565,0,0,0
11030,407248.9086449985,2010-12-18 05:44:40,0.187407506371625,6,38,-1.9243103452026844e-05,4.190425872802734,33.47019947882371,32.56052753584237,134.4702535524696,117.66974397274896,0.0,0.0963535830378532,0,0,0
11031,407253.73680207663,2010-12-18 05:44:45,5.015564649724507,6,38,0.0007031940040178,4.190263748168945,33.470200539361535,32.56052753600925,134.4702579965837,117.66974397344826,-3.24249267578125e-05,0.0963535830378532,0,0,0
11032,407283.7408318298,2010-12-18 05:45:15,30.015208802674348,7,38,-1.099929690361023,4.008142471313477,33.470200539361535,32.56969618003116,134.4702579965837,117.70670442524629,-0.0009713172912597,0.0963535830378532,0,0,0
11033,407313.7558907095,2010-12-18 05:45:45,60.03026776748293,7,38,-1.0997490882873535,3.9794886112213135,33.470200539361535,32.57886470876388,134.4702579965837,117.74331255381684,-0.0006151676061563,0.0963535830378532,0,0,0
11034,407343.77112176246,2010-12-18 05:46:15,90.04549873030196,7,38,-1.099568486213684,3.959576606750488,33.470200539361535,32.58803324212457,134.4702579965837,117.77970225919792,-0.0004209041653666,0.0963535830378532,0,0,0
11035,407373.7860195612,2010-12-18 05:46:45,120.06039653406746,7,38,-1.099568486213684,3.943873643875122,33.470200539361535,32.59720170972231,134.4702579965837,117.81593070926864,-0.0003885269106831,0.0963535830378532,0,0,0
11036,407403.8010844959,2010-12-18 05:47:15,150.07546147875675,7,38,-1.099568486213684,3.9304370880126953,33.470200539361535,32.60637015411078,134.4702579965837,117.85202643525314,-0.0003237724304199,0.0963535830378532,0,0,0
11037,407433.8161881018,2010-12-18 05:47:45,180.09056508966543,7,38,-1.099568486213684,3.917971849441528,33.470200539361535,32.61553866258587,134.4702579965837,117.8880048450342,-0.0003561496851034,0.0963535830378532,0,0,0
11038,407463.8312742492,2010-12-18 05:48:15,210.1056512321045,7,38,-1.099568486213684,3.90664005279541,33.470200539361535,32.62470719238918,134.4702579965837,117.92387486064362,-0.0002913951757363,0.0963535830378532,0,0,0
11039,407493.8463682712,2010-12-18 05:48:45,240.12074525415167,7,38,-1.099568486213684,3.895793676376343,33.470200539361535,32.63387565635009,134.4702579965837,117.95964240887416,-0.0002913951757363,0.0963535830378532,0,0,0
11040,407523.8614612206,2010-12-18 05:49:15,270.13583820352954,7,38,-1.0997490882873535,3.885109186172485,33.470200539361535,32.6430441402962,134.4702579965837,117.99531284403308,-0.0003561496851034,0.0963535830378532,0,0,0
11041,407553.87656546815,2010-12-18 05:49:45,300.15094245603484,7,38,-1.099568486213684,3.875396013259888,33.470200539361535,32.6522126738319,134.4702579965837,118.03088912948574,-0.0002590179501567,0.0963535830378532,0,0,0
11042,407583.89289452846,2010-12-18 05:50:15,330.16727158660206,7,38,-1.099568486213684,3.86552095413208,33.470200539361535,32.66138157090908,134.4702579965837,118.06637545940272,-0.0002590179501567,0.0963535830378532,0,0,0
11043,407613.9067481088,2010-12-18 05:50:45,360.18112509668293,7,38,-1.0997490882873535,3.8558077812194815,33.470200539361535,32.67054981046674,134.4702579965837,118.10177016105705,-0.0002913951757363,0.0963535830378532,0,0,0
11044,407643.92188712273,2010-12-18 05:51:15,390.1962641808655,7,38,-1.099568486213684,3.8464183807373047,33.470200539361535,32.67971835249731,134.4702579965837,118.13707910942706,-0.0002913951757363,0.0963535830378532,0,0,0
11045,407673.93704798113,2010-12-18 05:51:45,420.21142496404514,7,38,-1.099568486213684,3.837190866470337,33.470200539361535,32.688886938222126,134.4702579965837,118.1723033696016,-0.0002590179501567,0.0963535830378532,0,0,0
11046,407703.95205102174,2010-12-18 05:52:15,450.22642800468856,7,38,-1.0997490882873535,3.828287363052368,33.470200539361535,32.69805550458959,134.4702579965837,118.20744404637146,-0.0002266406954731,0.0963535830378532,0,0,0
11047,407733.9671421968,2010-12-18 05:52:45,480.2415191796509,7,38,-1.099568486213684,3.8195455074310303,33.470200539361535,32.7072241786708,134.4702579965837,118.24250380084328,-0.0002266406954731,0.0963535830378532,0,0,0
11048,407763.9824463467,2010-12-18 05:53:15,510.2568233997678,7,38,-1.099568486213684,3.810803651809693,33.470200539361535,32.71639286297084,134.4702579965837,118.2774839304699,-0.0002266406954731,0.0963535830378532,0,0,0
11049,407793.997361243,2010-12-18 05:53:45,540.2717382108556,7,38,-1.099568486213684,3.8023855686187744,33.470200539361535,32.72556138318865,134.4702579965837,118.3123851362073,-0.0002266406954731,0.0963535830378532,0,0,0
11050,407823.9986665624,2010-12-18 05:54:15,570.2730436254834,7,38,-1.0997490882873535,3.794291257858277,33.470200539361535,32.73472573406033,134.4702579965837,118.3471944464584,-0.0001942634553415,0.0963535830378532,0,0,0
11051,407854.0119304753,2010-12-18 05:54:45,600.2863075483993,7,38,-1.0997490882873535,3.7861969470977774,33.470200539361535,32.743893726656985,134.4702579965837,118.38194373598782,-0.0002266406954731,0.0963535830378532,0,0,0
11052,407884.0269884626,2010-12-18 05:55:15,630.3013654305137,7,38,-1.099568486213684,3.7784264087677,33.470200539361535,32.75306232548935,134.4702579965837,118.4166231434649,-0.0002590179501567,0.0963535830378532,0,0,0
11053,407914.04209253966,2010-12-18 05:55:45,660.3164695075824,7,38,-1.0997490882873535,3.770817756652832,33.470200539361535,32.76223095426833,134.4702579965837,118.45123226412603,-0.0001942634553415,0.0963535830378532,0,0,0
11054,407944.05721330334,2010-12-18 05:56:15,690.3315902862123,7,38,-1.099568486213684,3.763532876968384,33.470200539361535,32.771399462132194,134.4702579965837,118.48577194954612,-0.0002266406954731,0.0963535830378532,0,0,0
11055,407974.0723980912,2010-12-18 05:56:45,720.3467750741268,7,38,-1.0997490882873535,3.756247997283936,33.470200539361535,32.780568161959444,134.4702579965837,118.52024514765718,-0.0001942634553415,0.0963535830378532,0,0,0
11056,408004.0873683804,2010-12-18 05:57:15,750.3617453632694,7,38,-1.099929690361023,3.7492871284484863,33.470200539361535,32.789736766765024,134.4702579965837,118.55465262064568,-0.0001295089750783,0.0963535830378532,0,0,0
11057,408034.1025836491,2010-12-18 05:57:45,780.3769606320343,7,38,-1.099568486213684,3.742326021194458,33.470200539361535,32.79890539311293,134.4702579965837,118.5889964487249,-0.0002266406954731,0.0963535830378532,0,0,0
11058,408064.1175761836,2010-12-18 05:58:15,810.3919532417208,7,38,-1.099568486213684,3.7356886863708496,33.470200539361535,32.808074032928694,134.4702579965837,118.62327765510548,-0.0001618862152099,0.0963535830378532,0,0,0
11059,408094.13277542754,2010-12-18 05:58:45,840.4071524104213,7,38,-1.099568486213684,3.729051351547241,33.470200539361535,32.81724271533364,134.4702579965837,118.65749787763718,-0.0001942634553415,0.0963535830378532,0,0,0
11060,408124.14774411765,2010-12-18 05:59:15,870.4221210855475,7,38,-1.0997490882873535,3.7225759029388423,33.470200539361535,32.82641131458552,134.4702579965837,118.6916588186372,-0.0001942634553415,0.0963535830378532,0,0,0
11061,408154.16298226337,2010-12-18 05:59:45,900.4373592462782,7,38,-1.099568486213684,3.716424226760864,33.470200539361535,32.835579934766166,134.4702579965837,118.72576092968228,-0.0001295089750783,0.0963535830378532,0,0,0
11062,408184.1779391792,2010-12-18 06:00:16,930.4523161671544,7,38,-1.0997490882873535,3.709948778152466,33.470200539361535,32.844748538188604,134.4702579965837,118.7598052131108,-0.0001618862152099,0.0963535830378532,0,0,0
11063,408214.1931705932,2010-12-18 06:00:46,960.4675475760836,7,38,-1.0997490882873535,3.7037971019744873,33.470200539361535,32.8539172196213,134.4702579965837,118.79379328725844,-0.0001942634553415,0.0963535830378532,0,0,0
11064,408244.2081458947,2010-12-18 06:01:16,990.482522967924,7,38,-1.099568486213684,3.6979691982269287,33.470200539361535,32.863085883924434,134.4702579965837,118.82772541845968,-0.0001295089750783,0.0963535830378532,0,0,0
11065,408274.22320460895,2010-12-18 06:01:46,1020.4975815918845,7,38,-1.099568486213684,3.69197940826416,33.470200539361535,32.872254550839834,134.4702579965837,118.8616027612536,-0.0001295089750783,0.0963535830378532,0,0,0
11066,408304.2383003353,2010-12-18 06:02:16,1050.5126773181726,7,38,-1.099568486213684,3.686313390731812,33.470200539361535,32.88142331346665,134.4702579965837,118.89542635425056,-0.0001295089750783,0.0963535830378532,0,0,0
11067,408334.2533796858,2010-12-18 06:02:46,1080.527756653673,7,38,-1.0997490882873535,3.680323600769043,33.470200539361535,32.89059192453248,134.4702579965837,118.9291965149282,-0.0001295089750783,0.0963535830378532,0,0,0
11068,408364.2685099781,2010-12-18 06:03:16,1110.5428869610146,7,38,-1.0997490882873535,3.674819469451904,33.470200539361535,32.89976060071957,134.4702579965837,118.96291491571282,-0.0001295089750783,0.0963535830378532,0,0,0
11069,408394.2835922008,2010-12-18 06:03:46,1140.557969188712,7,38,-1.0997490882873535,3.6693155765533447,33.470200539361535,32.90892929056291,134.4702579965837,118.9965822880532,-0.0001295089750783,0.0963535830378532,0,0,0
11070,408424.30052731925,2010-12-18 06:04:16,1170.574904382444,7,38,-1.099568486213684,3.663973331451416,33.470200539361535,32.918098469599734,134.4702579965837,119.0302014908536,-9.713172767078504e-05,0.0963535830378532,0,0,0
11071,408454.313780661,2010-12-18 06:04:46,1200.5881576438287,7,38,-1.099568486213684,3.6586310863494873,33.470200539361535,32.92726654530723,134.4702579965837,119.06376726449236,-0.0001295089750783,0.0963535830378532,0,0,0
11072,408484.32885970565,2010-12-18 06:05:16,1230.603236688606,7,38,-1.099568486213684,3.6531269550323486,33.470200539361535,32.936435159105216,134.4702579965837,119.09728639861504,-0.0001618862152099,0.0963535830378532,0,0,0
11073,408514.34399673983,2010-12-18 06:05:46,1260.618373722687,7,38,-1.0997490882873535,3.64810848236084,33.470200539361535,32.94560382137797,134.4702579965837,119.13075814477762,-0.0001618862152099,0.0963535830378532,0,0,0
11074,408544.35906537867,2010-12-18 06:06:16,1290.6334423665814,7,38,-1.0997490882873535,3.642928123474121,33.470200539361535,32.95477244974161,134.4702579965837,119.1641826796921,-0.0001618862152099,0.0963535830378532,0,0,0
11075,408574.3741661825,2010-12-18 06:06:46,1320.6485431554677,7,38,-1.099568486213684,3.6380715370178223,33.470200539361535,32.96394103271088,134.4702579965837,119.1975611892899,-9.713172767078504e-05,0.0963535830378532,0,0,0
11076,408604.389236656,2010-12-18 06:07:16,1350.66361363894,7,38,-1.099929690361023,3.632891178131104,33.470200539361535,32.97310962215737,134.4702579965837,119.23089451206644,-0.0001618862152099,0.0963535830378532,0,0,0
11077,408634.4043273548,2010-12-18 06:07:46,1380.6787043427298,7,38,-1.099568486213684,3.6283583641052246,33.470200539361535,32.98227826436527,134.4702579965837,119.26418379724608,-0.0001295089750783,0.0963535830378532,0,0,0
11078,408664.419586989,2010-12-18 06:08:16,1410.6939639768964,7,38,-1.099568486213684,3.6238255500793457,33.470200539361535,32.9914468971716,134.4702579965837,119.29742974146552,-0.0001295089750783,0.0963535830378532,0,0,0
11079,408694.4345252484,2010-12-18 06:08:46,1440.708902231322,7,38,-1.099568486213684,3.619292736053467,33.470200539361535,33.00061546445045,134.4702579965837,119.33063317200568,-9.713172767078504e-05,0.0963535830378532,0,0,0
11080,408724.4496907132,2010-12-18 06:09:16,1470.7240677713387,7,38,-1.0997490882873535,3.614759922027588,33.470200539361535,33.009784065754374,134.4702579965837,119.3637950903874,-9.713172767078504e-05,0.0963535830378532,0,0,0
11081,408754.4674970799,2010-12-18 06:09:46,1500.7418741529884,7,38,-1.099568486213684,3.610388994216919,33.470200539361535,33.01895351074848,134.4702579965837,119.39691957705296,-9.713172767078504e-05,0.0963535830378532,0,0,0
11082,408784.4798596498,2010-12-18 06:10:16,1530.75423661766,7,38,-1.099568486213684,3.60617995262146,33.470200539361535,33.0281212726543,134.4702579965837,119.42999869181048,-9.713172767078504e-05,0.0963535830378532,0,0,0
11083,408814.4949146998,2010-12-18 06:10:46,1560.7692917379015,7,38,-1.099568486213684,3.601970911026001,33.470200539361535,33.03728981429501,134.4702579965837,119.46304239006624,-9.713172767078504e-05,0.0963535830378532,0,0,0
11084,408844.5100000302,2010-12-18 06:11:16,1590.7843769981453,7,38,-1.0997490882873535,3.597923755645752,33.470200539361535,33.0464583486886,134.4702579965837,119.49604876537452,-9.713172767078504e-05,0.0963535830378532,0,0,0
11085,408874.5250923431,2010-12-18 06:11:46,1620.7994693259766,7,38,-1.0997490882873535,3.594038486480713,33.470200539361535,33.055626975638845,134.4702579965837,119.52901899277194,-9.713172767078504e-05,0.0963535830378532,0,0,0
11086,408904.5403256567,2010-12-18 06:12:16,1650.8147026396457,7,38,-1.0993878841400146,3.590315341949463,33.470200539361535,33.06479559333583,134.4702579965837,119.56195365869084,-9.713172767078504e-05,0.0963535830378532,0,0,0
11087,408934.55529228674,2010-12-18 06:12:46,1680.829669274695,7,38,-1.099568486213684,3.586591958999634,33.470200539361535,33.07396421148174,134.4702579965837,119.59485363876918,-6.47544875391759e-05,0.0963535830378532,0,0,0
11088,408964.5703846848,2010-12-18 06:13:16,1710.8447616676883,7,38,-1.099568486213684,3.5828685760498047,33.470200539361535,33.08313282985172,134.4702579965837,119.62772016051906,-9.713172767078504e-05,0.0963535830378532,0,0,0
11089,408994.5854999096,2010-12-18 06:13:46,1740.8598768924978,7,38,-1.099568486213684,3.579307079315185,33.470200539361535,33.092301431916304,134.4702579965837,119.66055387419048,-9.713172767078504e-05,0.0963535830378532,0,0,0
11090,409024.6023962767,2010-12-18 06:14:16,1770.8767733347984,7,38,-1.0997490882873535,3.5759074687957764,33.470200539361535,33.101470613941366,134.4702579965837,119.6933574018159,-6.47544875391759e-05,0.0963535830378532,0,0,0
11091,409054.6156824349,2010-12-18 06:14:46,1800.8900594028216,7,38,-1.099568486213684,3.572507858276367,33.470200539361535,33.110638715636995,134.4702579965837,119.72612546268508,-9.713172767078504e-05,0.0963535830378532,0,0,0
11092,409084.63077279786,2010-12-18 06:15:16,1830.9051498509752,7,38,-1.0997490882873535,3.568946361541748,33.470200539361535,33.119807429392644,134.4702579965837,119.75886464006356,-6.47544875391759e-05,0.0963535830378532,0,0,0
11093,409114.6458804288,2010-12-18 06:15:46,1860.9202574668504,7,38,-1.099929690361023,3.565546751022339,33.470200539361535,33.12897607050474,134.4702579965837,119.7915726097937,-9.713172767078504e-05,0.0963535830378532,0,0,0
11094,409144.6609766964,2010-12-18 06:16:16,1890.9353536643107,7,38,-1.099568486213684,3.5624709129333496,33.470200539361535,33.13814467954133,134.4702579965837,119.82425002889964,-9.713172767078504e-05,0.0963535830378532,0,0,0
11095,409174.6762908112,2010-12-18 06:16:46,1920.950667794088,7,38,-1.0997490882873535,3.5592331886291504,33.470200539361535,33.14731339406338,134.4702579965837,119.85689786760024,-6.47544875391759e-05,0.0963535830378532,0,0,0
11096,409204.6912607293,2010-12-18 06:17:16,1950.965637802532,7,38,-1.099568486213684,3.555833578109741,33.470200539361535,33.15648200969002,134.4702579965837,119.88951497779982,-9.713172767078504e-05,0.0963535830378532,0,0,0
11097,409234.7063684004,2010-12-18 06:17:46,1980.9807453833191,7,38,-1.0997490882873535,3.552433967590332,33.470200539361535,33.16565115973904,134.4702579965837,119.92210319386317,-6.47544875391759e-05,0.0963535830378532,0,0,0
11098,409264.72136423807,2010-12-18 06:18:16,2010.9957413162751,7,38,-1.099929690361023,3.548872470855713,33.470200539361535,33.17482056613509,134.4702579965837,119.95466161359668,-9.713172767078504e-05,0.0963535830378532,0,0,0
11099,409294.7366524083,2010-12-18 06:18:46,2041.0110294814403,7,38,-1.099929690361023,3.5456347465515137,33.470200539361535,33.183990071728985,134.4702579965837,119.98718934732791,-9.713172767078504e-05,0.0963535830378532,0,0,0
11100,409324.751540112,2010-12-18 06:19:16,2071.025917185072,7,38,-1.099929690361023,3.5422351360321045,33.470200539361535,33.19315948255093,134.4702579965837,120.01968521521331,-9.713172767078504e-05,0.0963535830378532,0,0,0
11101,409354.7667355464,2010-12-18 06:19:46,2101.0411125292558,7,38,-1.099568486213684,3.5388355255126958,33.470200539361535,33.202328516134955,134.4702579965837,120.05214836190352,-0.0001295089750783,0.0963535830378532,0,0,0
11102,409384.781722873,2010-12-18 06:20:16,2131.056099855795,7,38,-1.0997490882873535,3.535274028778076,33.470200539361535,33.21149714930778,134.4702579965837,120.0845778025502,-6.47544875391759e-05,0.0963535830378532,0,0,0
11103,409414.7968400125,2010-12-18 06:20:46,2161.071216980332,7,38,-1.0997490882873535,3.531550645828247,33.470200539361535,33.220665817978585,134.4702579965837,120.11697437082344,-9.713172767078504e-05,0.0963535830378532,0,0,0
11104,409444.81235362863,2010-12-18 06:21:16,2191.0867306666973,7,38,-1.0997490882873535,3.527827262878418,33.470200539361535,33.22983459644265,134.4702579965837,120.14933763106154,-6.47544875391759e-05,0.0963535830378532,0,0,0
11105,409474.8269891597,2010-12-18 06:21:46,2221.101366147683,7,38,-1.099929690361023,3.523941993713379,33.470200539361535,33.239003112622456,134.4702579965837,120.18166490968072,-6.47544875391759e-05,0.0963535830378532,0,0,0
11106,409504.8420941641,2010-12-18 06:22:16,2251.116471147047,7,38,-1.0997490882873535,3.51989483833313,33.470200539361535,33.2481717660785,134.4702579965837,120.21395640604996,-9.713172767078504e-05,0.0963535830378532,0,0,0
11107,409534.8572905109,2010-12-18 06:22:46,2281.131667548862,7,38,-1.0997490882873535,3.515685796737671,33.470200539361535,33.25734048933202,134.4702579965837,120.2462107551004,-0.0001295089750783,0.0963535830378532,0,0,0
11108,409564.8722816518,2010-12-18 06:23:16,2311.146658619719,7,38,-1.0997490882873535,3.511476993560791,33.470200539361535,33.266509135095795,134.4702579965837,120.2784260265705,-0.0001294612884521,0.0963535830378532,0,0,0
11109,409594.88737187954,2010-12-18 06:23:46,2341.161748862361,7,38,-1.099929690361023,3.506782293319702,33.470200539361535,33.27567785547421,134.4702579965837,120.31060117001914,-0.0001618862152099,0.0963535830378532,0,0,0
11110,409624.9024997808,2010-12-18 06:24:16,2371.176876763716,7,38,-1.0997490882873535,3.5022494792938232,33.470200539361535,33.2848465421197,134.4702579965837,120.34273366604722,-0.0001618862152099,0.0963535830378532,0,0,0
11111,409654.903819496,2010-12-18 06:24:46,2401.17819655913,7,38,-1.099568486213684,3.4970691204071045,33.470200539361535,33.29401101423937,134.4702579965837,120.37480628971262,-0.0001618862152099,0.0963535830378532,0,0,0
11112,409684.9171936132,2010-12-18 06:25:16,2431.1915706712475,7,38,-1.099568486213684,3.491564989089966,33.470200539361535,33.30317916628018,134.4702579965837,120.40684330763592,-0.0001942634553415,0.0963535830378532,0,0,0
11113,409714.93214130605,2010-12-18 06:25:46,2461.206518273936,7,38,-1.0997490882873535,3.4855751991271973,33.470200539361535,33.31234784520752,134.4702579965837,120.43882955290525,-0.0001618862152099,0.0963535830378532,0,0,0
11114,409744.9474396816,2010-12-18 06:26:16,2491.2218166645457,7,38,-1.0997490882873535,3.478775978088379,33.470200539361535,33.32151656598349,134.4702579965837,120.4707572393938,-0.0001942634553415,0.0963535830378532,0,0,0
11115,409774.96236291865,2010-12-18 06:26:46,2521.236739886564,7,38,-1.0997490882873535,3.471005439758301,33.470200539361535,33.330685133802746,134.4702579965837,120.50261836603728,-0.0002266406954731,0.0963535830378532,0,0,0
11116,409804.97742752254,2010-12-18 06:27:16,2551.251804490405,7,38,-1.0997490882873535,3.462263584136963,33.470200539361535,33.33985379954412,134.4702579965837,120.53440466452048,-0.0002590179501567,0.0963535830378532,0,0,0
11117,409834.99251831655,2010-12-18 06:27:46,2581.2668952994563,7,38,-1.0997490882873535,3.4519028663635254,33.470200539361535,33.34902249608511,134.4702579965837,120.56610371094447,-0.0003237724304199,0.0963535830378532,0,0,0
11118,409865.007604033,2010-12-18 06:28:16,2611.2819810007986,7,38,-1.0997490882873535,3.4395995140075684,33.470200539361535,33.35819114705007,134.4702579965837,120.5976992556384,-0.0003885269106831,0.0963535830378532,0,0,0
11119,409895.0227129871,2010-12-18 06:28:46,2641.297089975053,7,38,-1.0997490882873535,3.424706220626831,33.470200539361535,33.36735986735993,134.4702579965837,120.62917019376414,-0.0004209041653666,0.0963535830378532,0,0,0
11120,409925.0378045682,2010-12-18 06:29:16,2671.312181520939,7,38,-1.099568486213684,3.405927419662476,33.470200539361535,33.37652861313519,134.4702579965837,120.66048792662708,-0.0005504131549969,0.0963535830378532,0,0,0
11121,409955.0528924198,2010-12-18 06:29:46,2701.327269402706,7,38,-1.099568486213684,3.3821301460266118,33.470200539361535,33.38569729136801,134.4702579965837,120.69161216656592,-0.0007122993702068,0.0963535830378532,0,0,0
11122,409985.06800689775,2010-12-18 06:30:16,2731.3423838806566,7,38,-1.0997490882873535,3.350562572479248,33.470200539361535,33.39486594122141,134.4702579965837,120.72248458829038,-0.0009712696191854,0.0963535830378532,0,0,0
11123,410015.0831744226,2010-12-18 06:30:46,2761.3575514056133,7,38,-1.0997490882873535,3.308472156524658,33.470200539361535,33.40403462309682,134.4702579965837,120.75302199147592,-0.0012303352123126,0.0963535830378532,0,0,0
11124,410045.09818644566,2010-12-18 06:31:16,2791.372563413572,7,38,-1.0997490882873535,3.250840902328491,33.470200539361535,33.413203255226925,134.4702579965837,120.7831053965032,-0.0017483711708337,0.0963535830378532,0,0,0
11125,410075.1134017546,2010-12-18 06:31:46,2821.387778722436,7,38,-1.0997490882873535,3.17038369178772,33.470200539361535,33.42237198040856,134.4702579965837,120.81256386064383,-0.0024930476211011,0.0963535830378532,0,0,0
11126,410105.1283751213,2010-12-18 06:32:16,2851.402752104275,7,38,-1.099568486213684,3.051235675811768,33.470200539361535,33.43154064094755,134.4702579965837,120.84112387098313,-0.0037881373427808,0.0963535830378532,0,0,0
11127,410134.5828167816,2010-12-18 06:32:46,2880.8571938396703,7,38,-1.099929690361023,2.851145029067993,33.470200539361535,33.44053813524329,134.4702579965837,120.86776747644856,-0.006896304897964,0.0963535830378532,0,0,0
11128,410150.5807152416,2010-12-18 06:33:02,2896.85509220946,7,38,-1.0997490882873535,2.699943780899048,33.470200539361535,33.44542500080451,134.4702579965837,120.88133642534548,-0.0077057359740138,0.0963535830378532,0,0,0
11129,410210.5887374326,2010-12-18 06:34:02,60.01477941030178,8,38,0.0,3.411593437194824,33.470200539361535,33.44542500080451,134.4702579965837,120.88133642534548,0.0013274669181555,0.0963535830378532,0,0,0
11130,410210.7858764145,2010-12-18 06:34:02,0.187414348397744,9,38,-1.9243103452026844e-05,3.411755323410034,33.470200539361535,33.4454250018063,134.4702579965837,120.88133642876348,-6.47544875391759e-05,0.0923885703086853,0,0,0
11131,410215.614044054,2010-12-18 06:34:07,5.015582002907235,9,38,0.0008838032954372,3.420335292816162,33.47020149854411,33.44542500197347,134.47026127389745,120.88133642933384,0.0012303352123126,0.0923885703086853,0,0,0
