Data_Point,Test_Time(s),Date_Time,Step_Time(s),Step_Index,Cycle_Index,Current(A),Voltage(V),Charge_Capacity(Ah),Discharge_Capacity(Ah),Charge_Energy(Wh),Discharge_Energy(Wh),dV/dt(V/s),Internal_Resistance(Ohm),Is_FC_Data,AC_Impedance(Ohm),ACI_Phase_Angle(Deg)
6203,229628.18920765567,2010-12-16 04:23:58,30.01506004249035,1,22,0.0,3.4648537635803223,18.68856371966208,18.66984035076579,75.10562328090283,67.47791337190259,0.0007770538213662,0.0947341993451118,0,0,0
6204,229658.20426282607,2010-12-16 04:24:28,60.03011521285661,1,22,0.0,3.4891366958618164,18.68856371966208,18.66984035076579,75.10562328090283,67.47791337190259,0.0005504131549969,0.0947341993451118,0,0,0
6205,229688.2193274399,2010-12-16 04:24:58,90.04517981669771,1,22,0.0,3.507106065750122,18.68856371966208,18.66984035076579,75.10562328090283,67.47791337190259,0.0003885269106831,0.0947341993451118,0,0,0
6206,229718.1875822995,2010-12-16 04:25:28,120.01343477654008,1,22,0.0,3.5216755867004395,18.68856371966208,18.66984035076579,75.10562328090283,67.47791337190259,0.0003885269106831,0.0947341993451118,0,0,0
6207,229748.20981309164,2010-12-16 04:25:58,30.0150573257298,2,22,0.5501165986061096,3.668991804122925,18.693151052691032,18.66984035076579,75.12231912454239,67.47791337190259,0.0012950897216796,0.0947341993451118,0,0,0
6208,229778.22488415657,2010-12-16 04:26:28,60.030128385636566,2,22,0.550297200679779,3.7065491676330566,18.69773832739201,18.66984035076579,75.13924149520068,67.47791337190259,0.0008741855854168,0.0947341993451118,0,0,0
6209,229808.2399447404,2010-12-16 04:26:58,90.0451889744865,2,22,0.550297200679779,3.73293662071228,18.70232570753671,18.66984035076579,75.15630830443907,67.47791337190259,0.0006475448608398,0.0947341993451118,0,0,0
6210,229838.25500069777,2010-12-16 04:27:28,120.06024493181108,2,22,0.550297200679779,3.753010272979736,18.706912946159303,18.66984035076579,75.17348016144999,67.47791337190259,0.0004856109735555,0.0947341993451118,0,0,0
6211,229868.27007679016,2010-12-16 04:27:58,150.07532102424113,2,22,0.550297200679779,3.767418146133423,18.71150027409657,18.66984035076579,75.19073107547595,67.47791337190259,0.0003237724304199,0.0947341993451118,0,0,0
6212,229898.2851602409,2010-12-16 04:28:28,180.09040447498197,2,22,0.550297200679779,3.7769694328308105,18.71608762435839,18.66984035076579,75.20803696031516,67.47791337190259,0.0001942634553415,0.0947341993451118,0,0,0
6213,229928.300193201,2010-12-16 04:28:58,210.1054374400913,2,22,0.550297200679779,3.783768653869629,18.720674977797,18.66984035076579,75.22537985885015,67.47791337190259,0.0001295089750783,0.0947341993451118,0,0,0
6214,229958.3152952931,2010-12-16 04:29:28,240.1205395823453,2,22,0.550297200679779,3.789596557617188,18.72526229645108,18.66984035076579,75.24275066884105,67.47791337190259,0.0001618862152099,0.0947341993451118,0,0,0
6215,229988.33031482983,2010-12-16 04:29:58,270.1355590689138,2,22,0.5501165986061096,3.794615030288696,18.729849626897167,18.66984035076579,75.26014594114262,67.47791337190259,0.0001618862152099,0.0947341993451118,0,0,0
6216,230018.34539771915,2010-12-16 04:30:29,300.1506419532452,2,22,0.5501165986061096,3.799147844314575,18.73443692168941,18.66984035076579,75.2775637355675,67.47791337190259,9.713172767078504e-05,0.0947341993451118,0,0,0
6217,230048.3605693293,2010-12-16 04:30:59,330.1658136335419,2,22,0.5501165986061096,3.803842544555664,18.739024311276776,18.66984035076579,75.29500334189001,67.47791337190259,0.0001295089750783,0.0947341993451118,0,0,0
6218,230078.375515744,2010-12-16 04:31:29,360.180759963062,2,22,0.5501165986061096,3.808375358581543,18.74361168589474,18.66984035076579,75.31246344963765,67.47791337190259,0.0001618862152099,0.0947341993451118,0,0,0
6219,230108.39058155587,2010-12-16 04:31:59,390.1958257849341,2,22,0.5501165986061096,3.812584400177002,18.74819911488869,18.66984035076579,75.3299434897148,67.47791337190259,0.0001295089750783,0.0947341993451118,0,0,0
6220,230138.40576616832,2010-12-16 04:32:29,420.2110104124495,2,22,0.5501165986061096,3.816793441772461,18.75278650859149,18.66984035076579,75.34744290629126,67.47791337190259,9.713172767078504e-05,0.0947341993451118,0,0,0
6221,230168.42068779137,2010-12-16 04:32:59,450.22593201042594,2,22,0.550297200679779,3.8206787109375,18.75737381367845,18.66984035076579,75.36496047478171,67.47791337190259,9.713172767078504e-05,0.0947341993451118,0,0,0
6222,230198.4358745592,2010-12-16 04:33:29,480.2411187782676,2,22,0.5501165986061096,3.824563980102539,18.761961157951117,18.66984035076579,75.38249635409964,67.47791337190259,9.713172767078504e-05,0.0947341993451118,0,0,0
6223,230228.4508471541,2010-12-16 04:33:59,510.2560914834223,2,22,0.5501165986061096,3.828449249267578,18.766548423872788,18.66984035076579,75.4000498523006,67.47791337190259,9.713172767078504e-05,0.0947341993451118,0,0,0
6224,230258.4678115906,2010-12-16 04:34:29,540.2730559149113,2,22,0.550297200679779,3.832334518432617,18.77113605353052,18.66984035076579,75.41762260723608,67.47791337190259,6.47544875391759e-05,0.0947341993451118,0,0,0
6225,230288.48095171544,2010-12-16 04:34:59,570.2861959495359,2,22,0.5501165986061096,3.836219549179077,18.77572306362323,18.66984035076579,75.43521057497873,67.47791337190259,9.713172767078504e-05,0.0947341993451118,0,0,0
6226,230318.49594588403,2010-12-16 04:35:29,600.3011901181015,2,22,0.5501165986061096,3.840104818344116,18.780310349336144,18.66984035076579,75.45281732045412,67.47791337190259,0.0001295089750783,0.0947341993451118,0,0,0
6227,230348.51108246195,2010-12-16 04:35:59,630.3163266960474,2,22,0.5501165986061096,3.843828201293945,18.78489692481593,18.66984035076579,75.4704388381338,67.47791337190259,9.713172767078504e-05,0.0947341993451118,0,0,0
6228,230378.5261416924,2010-12-16 04:36:29,660.3313859265172,2,22,0.550297200679779,3.8478753566741934,18.789483439999746,18.66984035076579,75.48807775177526,67.47791337190259,0.0001295089750783,0.0947341993451118,0,0,0
6229,230408.54120882257,2010-12-16 04:36:59,690.3464531268195,2,22,0.5499359965324402,3.8514368534088135,18.79407000251628,18.66984035076579,75.505734435829,67.47791337190259,9.713172767078504e-05,0.0947341993451118,0,0,0
6230,230438.5561872068,2010-12-16 04:37:29,720.3614314359194,2,22,0.550297200679779,3.8554840087890634,18.79865654245048,18.66984035076579,75.52340846085558,67.47791337190259,0.0001618862152099,0.0947341993451118,0,0,0
6231,230468.57134301265,2010-12-16 04:37:59,750.3765872467254,2,22,0.550297200679779,3.8590455055236816,18.80324389043671,18.66984035076579,75.54110312061883,67.47791337190259,6.47544875391759e-05,0.0947341993451118,0,0,0
6232,230498.5863987494,2010-12-16 04:38:29,780.3916429835012,2,22,0.550297200679779,3.8629307746887207,18.807831206465472,18.66984035076579,75.55881468572304,67.47791337190259,9.713172767078504e-05,0.0947341993451118,0,0,0
6233,230528.60146952863,2010-12-16 04:38:59,810.4067137627095,2,22,0.5497553944587708,3.86633038520813,18.812418528914613,18.66984035076579,75.57654292943421,67.47791337190259,9.713172767078504e-05,0.0947341993451118,0,0,0
6234,230558.6165020276,2010-12-16 04:39:29,840.4217462616589,2,22,0.550297200679779,3.870053768157959,18.817005813539858,18.66984035076579,75.59428733179378,67.47791337190259,9.713172767078504e-05,0.0947341993451118,0,0,0
6235,230588.63418545327,2010-12-16 04:39:59,870.4394297524996,2,22,0.5501165986061096,3.873291492462158,18.82159358323125,18.66984035076579,75.61204942595793,67.47791337190259,6.47544875391759e-05,0.0947341993451118,0,0,0
6236,230618.6466916506,2010-12-16 04:40:29,900.4519359498444,2,22,0.550297200679779,3.876691102981568,18.826180561912786,18.66984035076579,75.62982363323556,67.47791337190259,9.713172767078504e-05,0.0947341993451118,0,0,0
6237,230648.66169418,2010-12-16 04:40:59,930.4669384140534,2,22,0.5501165986061096,3.8796050548553462,18.83076785578298,18.66984035076579,75.64761373613005,67.47791337190259,6.47544875391759e-05,0.0947341993451118,0,0,0
6238,230678.67675824743,2010-12-16 04:41:29,960.4820024865724,2,22,0.5501165986061096,3.882680892944336,18.83535519457084,18.66984035076579,75.6654180386732,67.47791337190259,6.47544875391759e-05,0.0947341993451118,0,0,0
6239,230708.6918269064,2010-12-16 04:41:59,990.4970711455044,2,22,0.5504778623580933,3.8855948448181152,18.83994262108902,18.66984035076579,75.68323603028712,67.47791337190259,9.713172767078504e-05,0.0947341993451118,0,0,0
6240,230738.70711437985,2010-12-16 04:42:29,1020.5123586991476,2,22,0.550297200679779,3.8881850242614746,18.844530000990204,18.66984035076579,75.70106644429752,67.47791337190259,9.713172767078504e-05,0.0947341993451118,0,0,0
6241,230768.72194120692,2010-12-16 04:42:59,1050.5271854460907,2,22,0.550297200679779,3.890775203704834,18.849117285768177,18.66984035076579,75.71890854176874,67.47791337190259,6.47544875391759e-05,0.0947341993451118,0,0,0
6242,230798.73712752876,2010-12-16 04:43:29,1080.5423717477724,2,22,0.550297200679779,3.893041610717773,18.85370466475593,18.66984035076579,75.73676245000334,67.47791337190259,6.47544875391759e-05,0.0947341993451118,0,0,0
6243,230828.7520643596,2010-12-16 04:43:59,1110.5573085786557,2,22,0.550297200679779,3.895469903945923,18.85829205842929,18.66984035076579,75.75462703381984,67.47791337190259,9.713172767078504e-05,0.0947341993451118,0,0,0
6244,230858.7689965108,2010-12-16 04:44:29,1140.57424094034,2,22,0.550297200679779,3.897574424743652,18.862879645500385,18.66984035076579,75.77250238498672,67.47791337190259,6.47544875391759e-05,0.0947341993451118,0,0,0
6245,230888.78220005345,2010-12-16 04:44:59,1170.5874442875154,2,22,0.5501165986061096,3.899517059326172,18.86746677265632,18.66984035076579,75.79038570952021,67.47791337190259,3.237724376958795e-05,0.0947341993451118,0,0,0
6246,230918.7972595746,2010-12-16 04:45:29,1200.6025038137211,2,22,0.5501165986061096,3.901621580123901,18.87205412752432,18.66984035076579,75.80827922809955,67.47791337190259,6.47544875391759e-05,0.0947341993451118,0,0,0
6247,230948.81234949143,2010-12-16 04:45:59,1230.6175937205276,2,22,0.5501165986061096,3.903564214706421,18.87664147598807,18.66984035076579,75.82618172983636,67.47791337190259,6.47544875391759e-05,0.0947341993451118,0,0,0
6248,230978.8273907021,2010-12-16 04:46:29,1260.6326349361682,2,22,0.550297200679779,3.9053449630737305,18.881228826374205,18.66984035076579,75.84409297317596,67.47791337190259,6.47544875391759e-05,0.0947341993451118,0,0,0
6249,231008.8425937254,2010-12-16 04:46:59,1290.6478379444234,2,22,0.5501165986061096,3.90728759765625,18.88581620931484,18.66984035076579,75.86201279001959,67.47791337190259,6.47544875391759e-05,0.0947341993451118,0,0,0
6250,231038.85751682712,2010-12-16 04:47:29,1320.6627610611793,2,22,0.550297200679779,3.90906834602356,18.89040344716159,18.66984035076579,75.87994038837408,67.47791337190259,6.47544875391759e-05,0.0947341993451118,0,0,0
6251,231068.87259164127,2010-12-16 04:47:59,1350.6778358804409,2,22,0.550297200679779,3.910849094390869,18.89499077910908,18.66984035076579,75.89787656609033,67.47791337190259,6.47544875391759e-05,0.0947341993451118,0,0,0
6252,231098.88764947333,2010-12-16 04:48:29,1380.6928937124303,2,22,0.550297200679779,3.9126298427581783,18.899578086626192,18.66984035076579,75.91582075479674,67.47791337190259,3.237724376958795e-05,0.0947341993451118,0,0,0
6253,231128.90292971372,2010-12-16 04:48:59,1410.7081740130247,2,22,0.5501165986061096,3.914248466491699,18.9041654428721,18.66984035076579,75.93377312999102,67.47791337190259,6.47544875391759e-05,0.0947341993451118,0,0,0
6254,231158.91778134264,2010-12-16 04:49:29,1440.723025571711,2,22,0.5501165986061096,3.915867328643799,18.908752785217,18.66984035076579,75.95173336179337,67.47791337190259,-3.237724376958795e-05,0.0947341993451118,0,0,0
6255,231188.93282358084,2010-12-16 04:49:59,1470.7380678149086,2,22,0.5501165986061096,3.917648077011109,18.91334011634838,18.66984035076579,75.96970148048241,67.47791337190259,3.237724376958795e-05,0.0947341993451118,0,0,0
6256,231218.94790048528,2010-12-16 04:50:29,1500.7531447193592,2,22,0.550297200679779,3.919590711593628,18.917927425016057,18.66984035076579,75.98767742537693,67.47791337190259,9.713172767078504e-05,0.0947341993451118,0,0,0
6257,231248.96295742,2010-12-16 04:50:59,1530.7682016591289,2,22,0.550297200679779,3.921209573745728,18.92251474882374,18.66984035076579,76.00566129884338,67.47791337190259,6.47544875391759e-05,0.0947341993451118,0,0,0
6258,231278.9780139037,2010-12-16 04:51:29,1560.783258142763,2,22,0.5501165986061096,3.922990322113037,18.927102056337297,18.66984035076579,76.02365295776427,67.47791337190259,9.713172767078504e-05,0.0947341993451118,0,0,0
6259,231308.9930721166,2010-12-16 04:51:59,1590.7983163557003,2,22,0.550297200679779,3.9246091842651367,18.931689298835437,18.66984035076579,76.04165220063206,67.47791337190259,3.237724376958795e-05,0.0947341993451118,0,0,0
6260,231339.0081493118,2010-12-16 04:52:29,1620.8133935458625,2,22,0.5501165986061096,3.926228046417236,18.93627663892955,18.66984035076579,76.05965966908254,67.47791337190259,3.237724376958795e-05,0.0947341993451118,0,0,0
6261,231369.02321719372,2010-12-16 04:52:59,1650.8284614278607,2,22,0.5501165986061096,3.928008794784546,18.9408638713448,18.66984035076579,76.07767454622055,67.47791337190259,6.47544875391759e-05,0.0947341993451118,0,0,0
6262,231399.03826696068,2010-12-16 04:53:29,1680.8435111947808,2,22,0.5501165986061096,3.929789543151856,18.9454511812603,18.66984035076579,76.09569758757834,67.47791337190259,6.47544875391759e-05,0.0947341993451118,0,0,0
6263,231429.05344577372,2010-12-16 04:53:59,1710.8586899927896,2,22,0.550297200679779,3.931408405303955,18.950038537109577,18.66984035076579,76.11372862620148,67.47791337190259,6.47544875391759e-05,0.0947341993451118,0,0,0
6264,231459.07024632744,2010-12-16 04:54:29,1740.8754906266747,2,22,0.550297200679779,3.9331891536712646,18.9546261455526,18.66984035076579,76.1317684933762,67.47791337190259,3.237724376958795e-05,0.0947341993451118,0,0,0
6265,231489.0834592334,2010-12-16 04:54:59,1770.888703467475,2,22,0.550297200679779,3.934969902038574,18.959213232142503,18.66984035076579,76.14981418376894,67.47791337190259,6.47544875391759e-05,0.0947341993451118,0,0,0
6266,231519.09851163183,2010-12-16 04:55:29,1800.9037558659434,2,22,0.5501165986061096,3.936588764190674,18.963800560231636,18.66984035076579,76.16786861811929,67.47791337190259,3.237724376958795e-05,0.0947341993451118,0,0,0
6267,231549.1137759727,2010-12-16 04:55:59,1830.919020276997,2,22,0.5501165986061096,3.938369512557984,18.968387950417817,18.66984035076579,76.18593119422412,67.47791337190259,6.47544875391759e-05,0.0947341993451118,0,0,0
6268,231579.12867529027,2010-12-16 04:56:29,1860.9339195193425,2,22,0.5501165986061096,3.939988374710083,18.972975260268058,18.66984035076579,76.20400135500007,67.47791337190259,3.237724376958795e-05,0.0947341993451118,0,0,0
6269,231609.143702476,2010-12-16 04:56:59,1890.9489467000576,2,22,0.5504778623580933,3.9417691230773926,18.977562567751477,18.66984035076579,76.22207939831328,67.47791337190259,6.47544875391759e-05,0.0947341993451118,0,0,0
6270,231639.1588930182,2010-12-16 04:57:29,1920.9641372573287,2,22,0.5501165986061096,3.943549871444702,18.982149922503066,18.66984035076579,76.24016555450895,67.47791337190259,6.47544875391759e-05,0.0947341993451118,0,0,0
6271,231669.17397922583,2010-12-16 04:57:59,1950.9792234448803,2,22,0.550297200679779,3.9451687335968018,18.986737218741165,18.66984035076579,76.25825939082684,67.47791337190259,3.237724376958795e-05,0.0947341993451118,0,0,0
6272,231699.1889287132,2010-12-16 04:58:29,1980.9941729372708,2,22,0.5501165986061096,3.946787595748901,18.99132453996001,18.66984035076579,76.2763612499848,67.47791337190259,0.0,0.0947341993451118,0,0,0
6273,231729.20396190387,2010-12-16 04:58:59,2011.0092061379664,2,22,0.5501165986061096,3.948568344116211,18.99591182804121,18.66984035076579,76.294470876649,67.47791337190259,3.237724376958795e-05,0.0947341993451118,0,0,0
6274,231759.219143544,2010-12-16 04:59:29,2041.024387778048,2,22,0.5501165986061096,3.950349092483521,19.000499109118707,18.66984035076579,76.31258846073854,67.47791337190259,3.237724376958795e-05,0.0947341993451118,0,0,0
6275,231789.23410267537,2010-12-16 04:59:59,2071.039346904412,2,22,0.5501165986061096,3.95212984085083,19.005086359379806,18.66984035076579,76.33071394473421,67.47791337190259,3.237724376958795e-05,0.0947341993451118,0,0,0
6276,231819.249287348,2010-12-16 05:00:29,2101.05453155699,2,22,0.5501165986061096,3.95391058921814,19.00967362813991,18.66984035076579,76.34884757360443,67.47791337190259,3.237724376958795e-05,0.0947341993451118,0,0,0
6277,231849.2642148256,2010-12-16 05:00:59,2131.0694590546477,2,22,0.5501165986061096,3.955691337585449,19.01426084582505,18.66984035076579,76.36698930440684,67.47791337190259,3.237724376958795e-05,0.0947341993451118,0,0,0
6278,231879.2793028627,2010-12-16 05:01:29,2161.0845471619764,2,22,0.550297200679779,3.9576339721679688,19.01884815336752,18.66984035076579,76.38513984096727,67.47791337190259,6.47544875391759e-05,0.0947341993451118,0,0,0
6279,231909.29433133165,2010-12-16 05:01:59,2191.09957563591,2,22,0.550297200679779,3.959576606750488,19.023435429905,18.66984035076579,76.40329882374444,67.47791337190259,6.47544875391759e-05,0.0947341993451118,0,0,0
6280,231939.30939705827,2010-12-16 05:02:30,2221.114641267307,2,22,0.5501165986061096,3.961357355117798,19.02802270560948,18.66984035076579,76.42146634396555,67.47791337190259,6.47544875391759e-05,0.0947341993451118,0,0,0
6281,231969.3245827384,2010-12-16 05:03:00,2251.1298270126044,2,22,0.5501165986061096,3.963299989700317,19.032609980888527,18.66984035076579,76.43964248884693,67.47791337190259,6.47544875391759e-05,0.0947341993451118,0,0,0
6282,231999.3395380453,2010-12-16 05:03:30,2281.1447822543014,2,22,0.550297200679779,3.965080738067627,19.03719724734195,18.66984035076579,76.45782727893038,67.47791337190259,3.237724376958795e-05,0.0947341993451118,0,0,0
6283,232029.35456765705,2010-12-16 05:04:00,2311.159811866067,2,22,0.5501165986061096,3.9670233726501465,19.041784458120716,18.66984035076579,76.4760206391112,67.47791337190259,3.237724376958795e-05,0.0947341993451118,0,0,0
6284,232059.3696547318,2010-12-16 05:04:30,2341.174899036063,2,22,0.5501165986061096,3.968966007232666,19.04637164561221,18.66984035076579,76.49422260216154,67.47791337190259,6.47544875391759e-05,0.0947341993451118,0,0,0
6285,232089.37092241755,2010-12-16 05:05:00,2371.1761667418536,2,22,0.550297200679779,3.9709086418151855,19.050956739081013,18.66984035076579,76.51242511073586,67.47791337190259,6.47544875391759e-05,0.0947341993451118,0,0,0
6286,232119.38411424105,2010-12-16 05:05:30,2401.189358480141,2,22,0.5501165986061096,3.972689390182495,19.055543638672933,18.66984035076579,76.5306436906405,67.47791337190259,3.237724376958795e-05,0.0947341993451118,0,0,0
6287,232149.39918833348,2010-12-16 05:06:00,2431.2044325625693,2,22,0.5501165986061096,3.974632024765015,19.06013087351421,18.66984035076579,76.54887255513674,67.47791337190259,0.0,0.0947341993451118,0,0,0
6288,232179.41421427613,2010-12-16 05:06:30,2461.219458510216,2,22,0.550297200679779,3.976898431777954,19.064718093560348,18.66984035076579,76.56711039528611,67.47791337190259,9.713172767078504e-05,0.0947341993451118,0,0,0
6289,232209.4292799176,2010-12-16 05:07:00,2491.2345241265766,2,22,0.5501165986061096,3.978679180145264,19.06930532123196,18.66984035076579,76.58535695360497,67.47791337190259,9.713172767078504e-05,0.0947341993451118,0,0,0
6290,232239.4443132335,2010-12-16 05:07:30,2521.2495575327835,2,22,0.550297200679779,3.980783700942993,19.073892378559258,18.66984035076579,76.60361241949226,67.47791337190259,3.237724376958795e-05,0.0947341993451118,0,0,0
6291,232269.45936853925,2010-12-16 05:08:00,2551.2646127482626,2,22,0.5501165986061096,3.982888221740722,19.078479421017978,18.66984035076579,76.62187716236312,67.47791337190259,6.47544875391759e-05,0.0947341993451118,0,0,0
6292,232299.47443615057,2010-12-16 05:08:30,2581.279680359587,2,22,0.5501165986061096,3.984830856323242,19.08306643148808,18.66984035076579,76.64015104815982,67.47791337190259,6.47544875391759e-05,0.0947341993451118,0,0,0
6293,232329.48949129588,2010-12-16 05:09:00,2611.2947355299534,2,22,0.5501165986061096,3.9867734909057617,19.08765357795314,18.66984035076579,76.65843489097338,67.47791337190259,3.237724376958795e-05,0.0947341993451118,0,0,0
6294,232359.50453063688,2010-12-16 05:09:30,2641.3097749611534,2,22,0.5501165986061096,3.988878011703491,19.092240744703563,18.66984035076579,76.67672814894665,67.47791337190259,6.47544875391759e-05,0.0947341993451118,0,0,0
6295,232389.5195665092,2010-12-16 05:10:00,2671.324810743273,2,22,0.550297200679779,3.9909825325012207,19.096827800490303,18.66984035076579,76.69503041787156,67.47791337190259,6.47544875391759e-05,0.0947341993451118,0,0,0
6296,232419.53460645667,2010-12-16 05:10:30,2701.339850690757,2,22,0.550297200679779,3.99324893951416,19.10141492847945,18.66984035076579,76.71334262191913,67.47791337190259,6.47544875391759e-05,0.0947341993451118,0,0,0
6297,232449.5496562737,2010-12-16 05:11:00,2731.35490048274,2,22,0.5501165986061096,3.9951913356781006,19.106002060768343,18.66984035076579,76.7316645299327,67.47791337190259,0.0,0.0947341993451118,0,0,0
6298,232479.56468703333,2010-12-16 05:11:30,2761.3699312423605,2,22,0.5501165986061096,3.99745774269104,19.11058913082507,18.66984035076579,76.74999606409649,67.47791337190259,6.47544875391759e-05,0.0947341993451118,0,0,0
6299,232509.5798539117,2010-12-16 05:12:00,2791.385098261057,2,22,0.5499359965324402,3.9995622634887695,19.11517628226981,18.66984035076579,76.76833785162545,67.47791337190259,3.237724376958795e-05,0.0947341993451118,0,0,0
6300,232539.5973948929,2010-12-16 05:12:30,2821.402639222218,2,22,0.5501165986061096,4.001828670501709,19.119763733547664,18.66984035076579,76.78669085292204,67.47791337190259,6.47544875391759e-05,0.0947341993451118,0,0,0
6301,232569.60993481416,2010-12-16 05:13:00,2851.415179138472,2,22,0.5501165986061096,4.003933429718018,19.124350431255817,18.66984035076579,76.80505096841641,67.47791337190259,3.24249267578125e-05,0.0947341993451118,0,0,0
6302,232599.62486886812,2010-12-16 05:13:30,2881.43011310222,2,22,0.550297200679779,4.006361484527588,19.128937510402835,18.66984035076579,76.82342280609383,67.47791337190259,6.47544875391759e-05,0.0947341993451118,0,0,0
6303,232629.6403106656,2010-12-16 05:14:00,2911.4455549698678,2,22,0.5501165986061096,4.0084662437438965,19.133524697014124,18.66984035076579,76.84180537240827,67.47791337190259,6.47544875391759e-05,0.0947341993451118,0,0,0
6304,232659.65496452732,2010-12-16 05:14:30,2941.4602087664302,2,22,0.5501165986061096,4.010732650756836,19.138111765094745,18.66984035076579,76.8601977635949,67.47791337190259,6.47544875391759e-05,0.0947341993451118,0,0,0
6305,232689.67188271377,2010-12-16 05:15:00,2971.47712701299,2,22,0.5504778623580933,4.013160705566406,19.142699130957865,18.66984035076579,76.87860191275166,67.47791337190259,6.47544875391759e-05,0.0947341993451118,0,0,0
6306,232719.68503608656,2010-12-16 05:15:30,3001.490280320644,2,22,0.5501165986061096,4.015427112579346,19.147285946779327,18.66984035076579,76.89701452423026,67.47791337190259,9.70840483205393e-05,0.0947341993451118,0,0,0
6307,232749.70006599405,2010-12-16 05:16:00,3031.505310243182,2,22,0.550297200679779,4.017855644226074,19.15187305226777,18.66984035076579,76.91543908895798,67.47791337190259,9.71794142969884e-05,0.0947341993451118,0,0,0
6308,232779.7151244426,2010-12-16 05:16:30,3061.520368676669,2,22,0.550297200679779,4.020122051239014,19.156460235960555,18.66984035076579,76.93387478791558,67.47791337190259,6.47544875391759e-05,0.0947341993451118,0,0,0
6309,232809.7302981229,2010-12-16 05:17:00,3091.5355423419046,2,22,0.5501165986061096,4.022712230682373,19.16104735434415,18.66984035076579,76.95232121318647,67.47791337190259,9.71794142969884e-05,0.0947341993451118,0,0,0
6310,232839.74518287412,2010-12-16 05:17:30,3121.550427108227,2,22,0.550297200679779,4.025140285491943,19.16563440584963,18.66984035076579,76.97077845297085,67.47791337190259,9.70840483205393e-05,0.0947341993451118,0,0,0
6311,232869.7602214482,2010-12-16 05:18:00,3151.565465657232,2,22,0.5501165986061096,4.027568817138672,19.170221479425138,18.66984035076579,76.9892469199534,67.47791337190259,0.0001295089750783,0.0947341993451118,0,0,0
6312,232899.77523550627,2010-12-16 05:18:30,3181.5804797152914,2,22,0.5501165986061096,4.029835224151611,19.17480854485411,18.66984035076579,77.00772665251431,67.47791337190259,6.47544875391759e-05,0.0947341993451118,0,0,0
6313,232929.79028548373,2010-12-16 05:19:00,3211.5955296927355,2,22,0.5501165986061096,4.032425403594971,19.17939565880382,18.66984035076579,77.02621795185206,67.47791337190259,6.47544875391759e-05,0.0947341993451118,0,0,0
6314,232959.80550294791,2010-12-16 05:19:30,3241.610747237163,2,22,0.5501165986061096,4.034853458404541,19.183982726033264,18.66984035076579,77.044720574666,67.47791337190259,6.47544875391759e-05,0.0947341993451118,0,0,0
6315,232989.8204537085,2010-12-16 05:20:00,3271.6256979425725,2,22,0.5501165986061096,4.037605285644531,19.18856979553335,18.66984035076579,77.06323489319598,67.47791337190259,9.70840483205393e-05,0.0947341993451118,0,0,0
6316,233019.83548134036,2010-12-16 05:20:30,3301.640725649597,2,22,0.5501165986061096,4.039871692657471,19.19315694108423,18.66984035076579,77.0817613322689,67.47791337190259,3.23295607813634e-05,0.0947341993451118,0,0,0
6317,233049.85049031072,2010-12-16 05:21:00,3331.655734519747,2,22,0.5501165986061096,4.042623996734619,19.197744007027225,18.66984035076579,77.1002992793744,67.47791337190259,6.47544875391759e-05,0.0947341993451118,0,0,0
6318,233079.8657275692,2010-12-16 05:21:30,3361.670971883495,2,22,0.5499359965324402,4.0450520515441895,19.20233110667671,18.66984035076579,77.1188494278022,67.47791337190259,3.23295607813634e-05,0.0947341993451118,0,0,0
6319,233109.88053840652,2010-12-16 05:22:00,3391.685782640648,2,22,0.5501165986061096,4.047966003417969,19.206918135317945,18.66984035076579,77.13741135541247,67.47791337190259,6.47544875391759e-05,0.0947341993451118,0,0,0
6320,233139.89557604832,2010-12-16 05:22:30,3421.700820262345,2,22,0.5501165986061096,4.050556182861328,19.2115052630232,18.66984035076579,77.15598585833968,67.47791337190259,6.47544875391759e-05,0.0947341993451118,0,0,0
6321,233169.91062703828,2010-12-16 05:23:00,3451.715871247296,2,22,0.5501165986061096,4.053146362304688,19.216092390279776,18.66984035076579,77.17457262015779,67.47791337190259,3.23295607813634e-05,0.0947341993451118,0,0,0
6322,233199.9256676975,2010-12-16 05:23:30,3481.730911926602,2,22,0.5501165986061096,4.056060314178467,19.22067952647056,18.66984035076579,77.19317181727055,67.47791337190259,6.47544875391759e-05,0.0947341993451118,0,0,0
6323,233229.94067884336,2010-12-16 05:24:00,3511.745923052365,2,22,0.5499359965324402,4.058650493621826,19.22526651478901,18.66984035076579,77.21178289003974,67.47791337190259,6.47544875391759e-05,0.0947341993451118,0,0,0
6324,233259.9557123247,2010-12-16 05:24:30,3541.760956558822,2,22,0.5501165986061096,4.061402797698975,19.229852953803817,18.66984035076579,77.2304039645266,67.47791337190259,0.0001295089750783,0.0947341993451118,0,0,0
6325,233289.9725579656,2010-12-16 05:25:00,3571.777802269879,2,22,0.5501165986061096,4.064154624938965,19.2344396754026,18.66984035076579,77.24903873892646,67.47791337190259,6.47544875391759e-05,0.0947341993451118,0,0,0
6326,233319.9858218835,2010-12-16 05:25:30,3601.791066107583,2,22,0.5501165986061096,4.066744804382324,19.239026467990207,18.66984035076579,77.26768671583196,67.47791337190259,3.23295607813634e-05,0.0947341993451118,0,0,0
6327,233350.0008872593,2010-12-16 05:26:00,3631.806131563545,2,22,0.550297200679779,4.069982528686523,19.24361358176563,18.66984035076579,77.28634897388307,67.47791337190259,0.0001295089750783,0.0947341993451118,0,0,0
6328,233380.0158860243,2010-12-16 05:26:30,3661.821130258375,2,22,0.5497553944587708,4.072572708129883,19.248200706483463,18.66984035076579,77.30502432964619,67.47791337190259,6.47544875391759e-05,0.0947341993451118,0,0,0
6329,233410.03093075368,2010-12-16 05:27:00,3691.8361749927694,2,22,0.550297200679779,4.075486660003662,19.25278777841488,18.66984035076579,77.32371273027422,67.47791337190259,6.47544875391759e-05,0.0947341993451118,0,0,0
6330,233440.04593365896,2010-12-16 05:27:30,3721.851177893064,2,22,0.5501165986061096,4.078400611877441,19.257374847415697,18.66984035076579,77.34241444545775,67.47791337190259,6.47544875391759e-05,0.0947341993451118,0,0,0
6331,233470.06113051192,2010-12-16 05:28:00,3751.8663747460014,2,22,0.550297200679779,4.081314563751221,19.261961923361017,18.66984035076579,77.36112956344597,67.47791337190259,6.47544875391759e-05,0.0947341993451118,0,0,0
6332,233500.0762661977,2010-12-16 05:28:30,3781.881510506915,2,22,0.5501165986061096,4.084390640258789,19.26654894928959,18.66984035076579,77.37985787878885,67.47791337190259,9.71794142969884e-05,0.0947341993451118,0,0,0
6333,233530.0912159106,2010-12-16 05:29:00,3811.8964601346415,2,22,0.5501165986061096,4.087304592132568,19.271136011404025,18.66984035076579,77.39860003186375,67.47791337190259,6.47544875391759e-05,0.0947341993451118,0,0,0
6334,233560.1061207318,2010-12-16 05:29:30,3841.9113649508586,2,22,0.5499359965324402,4.090218544006348,19.27572302684642,18.66984035076579,77.41735566697221,67.47791337190259,0.0,0.0947341993451118,0,0,0
6335,233590.1211466644,2010-12-16 05:30:00,3871.92639088848,2,22,0.5501165986061096,4.093294143676758,19.280310048570406,18.66984035076579,77.43612514638703,67.47791337190259,6.47544875391759e-05,0.0947341993451118,0,0,0
6336,233620.1364357669,2010-12-16 05:30:30,3901.9416800761896,2,22,0.5501165986061096,4.096531867980957,19.284897138201604,18.66984035076579,77.45490887855269,67.47791337190259,0.0001295089750783,0.0947341993451118,0,0,0
6337,233650.15134376104,2010-12-16 05:31:00,3931.956588000138,2,22,0.550297200679779,4.099769592285156,19.2894841451198,18.66984035076579,77.47370629828906,67.47791337190259,0.0001618385285837,0.0947341993451118,0,0,0
6338,233680.166244843,2010-12-16 05:31:30,3961.9714890770497,2,22,0.550297200679779,4.102683544158936,19.294071192294677,18.66984035076579,77.49251803230844,67.47791337190259,0.0001295089750783,0.0947341993451118,0,0,0
6339,233710.18140470888,2010-12-16 05:32:00,3991.986648998083,2,22,0.5501165986061096,4.105759620666504,19.29865819838898,18.66984035076579,77.51134394133413,67.47791337190259,3.24249267578125e-05,0.0947341993451118,0,0,0
6340,233740.1963118509,2010-12-16 05:32:30,4022.001556084951,2,22,0.5501165986061096,4.108997344970703,19.303245290538182,18.66984035076579,77.53018469631662,67.47791337190259,0.0001295089750783,0.0947341993451118,0,0,0
6341,233770.2113581692,2010-12-16 05:33:00,4052.016602403288,2,22,0.5501165986061096,4.112072944641113,19.30783237241346,18.66984035076579,77.54903996361395,67.47791337190259,9.70840483205393e-05,0.0947341993451118,0,0,0
6342,233800.22638684363,2010-12-16 05:33:30,4082.031631082733,2,22,0.550297200679779,4.115148544311523,19.31241943656467,18.66984035076579,77.567909766082,67.47791337190259,3.23295607813634e-05,0.0947341993451118,0,0,0
6343,233830.24145287104,2010-12-16 05:34:00,4112.046697190316,2,22,0.550297200679779,4.118710041046143,19.317006552479537,18.66984035076579,77.58679460086343,67.47791337190259,9.70840483205393e-05,0.0947341993451118,0,0,0
6344,233860.2564394156,2010-12-16 05:34:30,4142.061683649697,2,22,0.5501165986061096,4.121623992919922,19.32159361840933,18.66984035076579,77.60569407478505,67.47791337190259,3.23295607813634e-05,0.0947341993451118,0,0,0
6345,233890.2732491973,2010-12-16 05:35:01,4172.078493526584,2,22,0.550297200679779,4.12502384185791,19.326180994101165,18.66984035076579,77.62460981748222,67.47791337190259,9.71794142969884e-05,0.0947341993451118,0,0,0
6346,233920.28664720384,2010-12-16 05:35:31,4202.0918914379245,2,22,0.5499359965324402,4.128261566162109,19.330767822893367,18.66984035076579,77.64353840247517,67.47791337190259,9.71794142969884e-05,0.0947341993451118,0,0,0
6347,233950.30154455648,2010-12-16 05:36:01,4232.106788790567,2,22,0.5501165986061096,4.1318230628967285,19.33535491230984,18.66984035076579,77.6624833060472,67.47791337190259,0.0001295089750783,0.0947341993451118,0,0,0
6348,233980.3165785592,2010-12-16 05:36:31,4262.121822798271,2,22,0.5501165986061096,4.135222434997559,19.33994201501244,18.66984035076579,77.68144361468727,67.47791337190259,0.0001295089750783,0.0947341993451118,0,0,0
6349,234010.33165353883,2010-12-16 05:37:01,4292.136897848107,2,22,0.5501165986061096,4.138460159301758,19.344529115059785,18.66984035076579,77.70041941470012,67.47791337190259,6.47544875391759e-05,0.0947341993451118,0,0,0
6350,234040.34665399304,2010-12-16 05:37:31,4322.151898227126,2,22,0.5501165986061096,4.141697883605957,19.349116175432147,18.66984035076579,77.71941064524513,67.47791337190259,6.47544875391759e-05,0.0947341993451118,0,0,0
6351,234070.3618019894,2010-12-16 05:38:01,4352.167046208449,2,22,0.5501165986061096,4.145421504974365,19.35370334074956,18.66984035076579,77.73841805611372,67.47791337190259,6.47544875391759e-05,0.0947341993451118,0,0,0
6352,234100.3766961792,2010-12-16 05:38:31,4382.181940418272,2,22,0.5501165986061096,4.148820877075195,19.35829037309039,18.66984035076579,77.75744100347183,67.47791337190259,6.47544875391759e-05,0.0947341993451118,0,0,0
6353,234130.39173630712,2010-12-16 05:39:01,4412.196980541193,2,22,0.550297200679779,4.152382373809815,19.362877437551948,18.66984035076579,77.77648003326804,67.47791337190259,6.47544875391759e-05,0.0947341993451118,0,0,0
6354,234160.40676591388,2010-12-16 05:39:31,4442.212010147945,2,22,0.5501165986061096,4.155782222747803,19.36746455831925,18.66984035076579,77.79553530582598,67.47791337190259,9.71794142969884e-05,0.0947341993451118,0,0,0
6355,234190.42179356076,2010-12-16 05:40:01,4472.227037799832,2,22,0.550297200679779,4.159505367279053,19.37205161490585,18.66984035076579,77.81460647991963,67.47791337190259,0.0001295089750783,0.0947341993451118,0,0,0
6356,234220.4368497386,2010-12-16 05:40:31,4502.242093977707,2,22,0.550297200679779,4.163066864013672,19.376638683107675,18.66984035076579,77.8336939928407,67.47791337190259,9.70840483205393e-05,0.0947341993451118,0,0,0
6357,234250.4518805283,2010-12-16 05:41:01,4532.257124767402,2,22,0.5501165986061096,4.16646671295166,19.381225773392732,18.66984035076579,77.85279792157769,67.47791337190259,9.71794142969884e-05,0.0947341993451118,0,0,0
6358,234280.4670190361,2010-12-16 05:41:31,4562.2722632551,2,22,0.5501165986061096,4.170028209686279,19.385812878348357,18.66984035076579,77.8719184423394,67.47791337190259,6.47544875391759e-05,0.0947341993451118,0,0,0
6359,234310.48195824283,2010-12-16 05:42:01,4592.287202476933,2,22,0.550297200679779,4.173751354217529,19.39039986987538,18.66984035076579,77.89105513189683,67.47791337190259,6.47544875391759e-05,0.0947341993451118,0,0,0
6360,234340.49696501275,2010-12-16 05:42:31,4622.302209246856,2,22,0.5501165986061096,4.1774749755859375,19.39498696471997,18.66984035076579,77.91020899629271,67.47791337190259,9.71794142969884e-05,0.0947341993451118,0,0,0
6361,234370.5120046244,2010-12-16 05:43:01,4652.317248858506,2,22,0.5501165986061096,4.181198120117188,19.39957406163048,18.66984035076579,77.9293797516453,67.47791337190259,0.0001295089750783,0.0947341993451118,0,0,0
6362,234400.52703366976,2010-12-16 05:43:31,4682.332277878799,2,22,0.550297200679779,4.184921741485596,19.404161149864503,18.66984035076579,77.94856745268662,67.47791337190259,0.0001295089750783,0.0947341993451118,0,0,0
6363,234430.5420564646,2010-12-16 05:44:01,4712.347300673599,2,22,0.5501165986061096,4.188483238220215,19.408748234156132,18.66984035076579,77.96777211184427,67.47791337190259,9.71794142969884e-05,0.0947341993451118,0,0,0
6364,234460.55973420112,2010-12-16 05:44:31,4742.364978510371,2,22,0.550297200679779,4.192368507385254,19.413335669110985,18.66984035076579,77.98699550045411,67.47791337190259,9.71794142969884e-05,0.0947341993451118,0,0,0
6365,234490.57381833004,2010-12-16 05:45:01,4772.379062654374,2,22,0.5501165986061096,4.196091651916504,19.41792258089117,18.66984035076579,78.00623401444234,67.47791337190259,9.71794142969884e-05,0.0947341993451118,0,0,0
6366,234519.71215928585,2010-12-16 05:45:30,4801.5174035199125,2,22,0.550297200679779,4.200138568878174,19.42237564523017,18.66984035076579,78.02492772664765,67.47791337190259,0.0001618385285837,0.0947341993451118,0,0,0
6367,234549.73320823984,2010-12-16 05:46:00,30.015590432345103,3,22,0.0,4.106568813323975,19.42237564523017,18.66984035076579,78.02492772664765,67.47791337190259,-0.0004209518374409,0.0947341993451118,0,0,0
6368,234579.74790657725,2010-12-16 05:46:30,60.030288779771205,3,22,0.0,4.0945892333984375,19.42237564523017,18.66984035076579,78.02492772664765,67.47791337190259,-0.0002590179501567,0.0947341993451118,0,0,0
6369,234609.7629242293,2010-12-16 05:47:00,90.04530641673703,3,22,0.0,4.087466239929199,19.42237564523017,18.66984035076579,78.02492772664765,67.47791337190259,-0.0001942634553415,0.0947341993451118,0,0,0
6370,234639.73101885512,2010-12-16 05:47:30,120.01340097241984,3,22,0.0,4.08293342590332,19.42237564523017,18.66984035076579,78.02492772664765,67.47791337190259,-9.71794142969884e-05,0.0947341993451118,0,0,0
6371,234639.73870263755,2010-12-16 05:47:30,2.581423774e-06,4,22,1.0122957229614258,4.199653148651123,19.42237564595605,18.66984035076579,78.0249277296961,67.47791337190259,0.0,0.0947341993451118,0,0,0
6372,234640.50431497945,2010-12-16 05:47:31,0.765614968402139,4,22,0.9619057774543762,4.199814796447754,19.422584189641817,18.66984035076579,78.02580356811501,67.47791337190259,3.23295607813634e-05,0.0947341993451118,0,0,0
6373,234642.42613485927,2010-12-16 05:47:33,2.687434843244535,4,22,0.9118769764900208,4.199976921081543,19.423083304143937,18.66984035076579,78.02789976107452,67.47791337190259,6.47544875391759e-05,0.0947341993451118,0,0,0
6374,234645.37934066332,2010-12-16 05:47:36,5.640640647303097,4,22,0.8611257672309875,4.199814796447754,19.423809380546537,18.66984035076579,78.03094915001881,67.47791337190259,0.0,0.0947341993451118,0,0,0
6375,234649.394756416,2010-12-16 05:47:40,9.656056399964529,4,22,0.8110970258712769,4.199653148651123,19.42474098205107,18.66984035076579,78.03486171734589,67.47791337190259,-3.23295607813634e-05,0.0947341993451118,0,0,0
6376,234654.78527142023,2010-12-16 05:47:45,15.04657140422513,4,22,0.760887622833252,4.199814796447754,19.425916516023378,18.66984035076579,78.03979876556136,67.47791337190259,0.0,0.0947341993451118,0,0,0
6377,234661.69139685275,2010-12-16 05:47:52,21.952696836743744,4,22,0.7108588814735413,4.199814796447754,19.4273260602408,18.66984035076579,78.04571864374142,67.47791337190259,0.0,0.0947341993451118,0,0,0
6378,234670.90994796768,2010-12-16 05:48:01,31.171247956645963,4,22,0.6604688763618469,4.199814796447754,19.429079017945305,18.66984035076579,78.05308082444249,67.47791337190259,0.0,0.0947341993451118,0,0,0
6379,234683.6440892635,2010-12-16 05:48:14,43.90538924246105,4,22,0.6104401350021362,4.199814796447754,19.43132211361635,18.66984035076579,78.06250149754365,67.47791337190259,0.0,0.0947341993451118,0,0,0
6380,234702.75307882408,2010-12-16 05:48:33,63.01437880803383,4,22,0.5602307319641113,4.199491024017334,19.434419719663705,18.66984035076579,78.07551096592732,67.47791337190259,-6.47544875391759e-05,0.0947341993451118,0,0,0
6381,234735.12743624736,2010-12-16 05:49:06,95.38873623131408,4,22,0.5102019906044006,4.199814796447754,19.439211985121595,18.66984035076579,78.09563772212331,67.47791337190259,-3.24249267578125e-05,0.0947341993451118,0,0,0
6382,234796.95434588904,2010-12-16 05:50:07,157.2156459381615,4,22,0.4601731896400451,4.199976921081543,19.447501653620968,18.66984035076579,78.13045303583644,67.47791337190259,3.24249267578125e-05,0.0947341993451118,0,0,0
6383,234896.6086043283,2010-12-16 05:51:47,256.8699043122694,4,22,0.4099638164043426,4.199653148651123,19.45951717566785,18.66984035076579,78.18091643060417,67.47791337190259,-3.23295607813634e-05,0.0947341993451118,0,0,0
6384,235026.57500415057,2010-12-16 05:53:57,386.8363042297564,4,22,0.3599350452423095,4.199976921081543,19.47340520963892,18.66984035076579,78.2392440714293,67.47791337190259,3.24249267578125e-05,0.0947341993451118,0,0,0
6385,235181.2435954362,2010-12-16 05:56:32,541.5048954051043,4,22,0.3099062740802765,4.199653148651123,19.487780309111017,18.66984035076579,78.29961739670644,67.47791337190259,-3.23295607813634e-05,0.0947341993451118,0,0,0
6386,235367.6462164793,2010-12-16 05:59:38,727.9075165635254,4,22,0.2598775029182434,4.199653148651123,19.50251444217908,18.66984035076579,78.36149850238898,67.47791337190259,-3.23295607813634e-05,0.0947341993451118,0,0,0
6387,235598.45408300293,2010-12-16 06:03:29,958.7153829919068,4,22,0.2098487317562103,4.199814796447754,19.517539806000062,18.66984035076579,78.42460276221662,67.47791337190259,0.0,0.0947341993451118,0,0,0
6388,235900.86995264812,2010-12-16 06:08:31,1261.131252622102,4,22,0.1596393585205078,4.199814796447754,19.53299102650509,18.66984035076579,78.48949564748223,67.47791337190259,-3.24249267578125e-05,0.0947341993451118,0,0,0
6389,236348.23601170475,2010-12-16 06:15:59,1708.4973116887022,4,22,0.1096105873584747,4.199814796447754,19.549549606891137,18.66984035076579,78.5590391887444,67.47791337190259,0.0,0.0947341993451118,0,0,0
6390,237200.42217982773,2010-12-16 06:30:11,2560.68347990191,4,22,0.0595818199217319,4.199814796447754,19.568893275572865,18.66984035076579,78.64027981812093,67.47791337190259,-3.24249267578125e-05,0.0947341993451118,0,0,0
6391,237487.2289178643,2010-12-16 06:34:58,2847.4902179184355,4,22,0.0498289167881011,4.199976921081543,19.57327225815885,18.66984035076579,78.65867093981267,67.47791337190259,0.0,0.0947341993451118,0,0,0
6392,237517.2457142833,2010-12-16 06:35:28,30.014810240868623,5,22,0.0,4.190911293029785,19.57327225815885,18.66984035076579,78.65867093981267,67.47791337190259,-9.71794142969884e-05,0.0947341993451118,0,0,0
6393,237547.2452343201,2010-12-16 06:35:58,60.01433027765246,5,22,0.0,4.189778327941895,19.57327225815885,18.66984035076579,78.65867093981267,67.47791337190259,-3.23295607813634e-05,0.0947341993451118,0,0,0
6394,237547.43577395263,2010-12-16 06:35:58,0.187475144686971,6,22,-1.9243103452026844e-05,4.189778327941895,19.57327225815885,18.669840351767903,78.65867093981267,67.4779133761013,-3.23295607813634e-05,0.099682405591011,0,0,0
6395,237552.26382143312,2010-12-16 06:36:03,5.015522625147964,6,22,0.0008838032954372,4.1896162033081055,19.57327336092546,18.669840351935022,78.65867556020847,67.4779133768015,-6.47544875391759e-05,0.099682405591011,0,0,0
6396,237582.2821382728,2010-12-16 06:36:33,30.015051020038324,7,22,-1.099568486213684,3.994220018386841,19.57327336092546,18.67900775756308,78.65867556020847,67.51475639478447,-0.0011008263099938,0.099682405591011,0,0,0
6397,237612.2972794672,2010-12-16 06:37:03,60.03019219442227,7,22,-1.0993878841400146,3.9626524448394775,19.57327336092546,18.688175120583157,78.65867556020847,67.5512192694669,-0.0007122993702068,0.099682405591011,0,0,0
6398,237642.3121595118,2010-12-16 06:37:33,90.04507226405708,7,22,-1.099568486213684,3.940474033355713,19.57327336092546,18.69734233976394,78.65867556020847,67.5874398809309,-0.0005180359003134,0.099682405591011,0,0,0
6399,237672.3272718043,2010-12-16 06:38:03,120.06018454654466,7,22,-1.0993878841400146,3.923314094543457,19.57327336092546,18.70650961592352,78.65867556020847,67.62348243580261,-0.0004532813909463,0.099682405591011,0,0,0
6400,237702.3421720341,2010-12-16 06:38:33,150.07508478135978,7,22,-1.0993878841400146,3.9089064598083496,19.57327336092546,18.71567682865617,78.65867556020847,67.65938070774752,-0.0003885269106831,0.099682405591011,0,0,0
6401,237732.35728634163,2010-12-16 06:39:03,180.0901990989115,7,22,-1.0997490882873535,3.895631790161133,19.57327336092546,18.72484410844132,78.65867556020847,67.69515424680176,-0.0003885269106831,0.099682405591011,0,0,0
6402,237762.3723079585,2010-12-16 06:39:33,210.10522071076872,7,22,-1.0993878841400146,3.8841378688812256,19.57327336092546,18.734011348103923,78.65867556020847,67.73081512548706,-0.0003237724304199,0.099682405591011,0,0,0
6403,237792.38734540972,2010-12-16 06:40:03,240.1202581570292,7,22,-1.099568486213684,3.8729677200317374,19.57327336092546,18.743178609518623,78.65867556020847,67.76637100841658,-0.0003237724304199,0.099682405591011,0,0,0
6404,237822.402493747,2010-12-16 06:40:33,270.1354065042625,7,22,-1.099568486213684,3.862445116043091,19.57327336092546,18.75234593368548,78.65867556020847,67.80182732496559,-0.0002590179501567,0.099682405591011,0,0,0
6405,237852.4175144516,2010-12-16 06:41:03,300.1504271988371,7,22,-1.099568486213684,3.852084398269653,19.57327336092546,18.76151322335242,78.65867556020847,67.83718771005081,-0.0002590179501567,0.099682405591011,0,0,0
6406,237882.4324068068,2010-12-16 06:41:33,330.165319564069,7,22,-1.099568486213684,3.8422093391418457,19.57327336092546,18.7706804478674,78.65867556020847,67.87245474905059,-0.0002266406954731,0.099682405591011,0,0,0
6407,237912.44763505287,2010-12-16 06:42:03,360.18054780511505,7,22,-1.099568486213684,3.832496404647827,19.57327336092546,18.779847793091133,78.65867556020847,67.90763255736543,-0.0002589702489785,0.099682405591011,0,0,0
6408,237942.46427715724,2010-12-16 06:42:33,390.1971899997301,7,22,-1.099568486213684,3.8231070041656494,19.57327336092546,18.78901556129045,78.65867556020847,67.94272480606821,-0.0002590179501567,0.099682405591011,0,0,0
6409,237972.477500028,2010-12-16 06:43:03,420.21041278026473,7,22,-1.099568486213684,3.814041376113892,19.57327336092546,18.798182286375297,78.65867556020847,67.9777282416452,-0.0002266406954731,0.099682405591011,0,0,0
6410,238002.49266044528,2010-12-16 06:43:33,450.22557325267104,7,22,-1.0993878841400146,3.804975748062134,19.57327336092546,18.80734956735268,78.65867556020847,68.01265098778612,-0.0002590179501567,0.099682405591011,0,0,0
6411,238032.50752948743,2010-12-16 06:44:03,480.2404422246899,7,22,-1.099568486213684,3.796395778656006,19.57327336092546,18.816516782753105,78.65867556020847,68.04749305905624,-0.0002266406954731,0.099682405591011,0,0,0
6412,238062.5227250973,2010-12-16 06:44:33,510.2556378495718,7,22,-1.099568486213684,3.787977695465088,19.57327336092546,18.8256840825068,78.65867556020847,68.0822571166366,-0.0002266406954731,0.099682405591011,0,0,0
6413,238092.5377081081,2010-12-16 06:45:03,540.2706208653842,7,22,-1.0993878841400146,3.77988338470459,19.57327336092546,18.834851389186973,78.65867556020847,68.11694421089713,-0.0001618862152099,0.099682405591011,0,0,0
6414,238122.5525996964,2010-12-16 06:45:33,570.2855124486704,7,22,-1.099568486213684,3.771789073944092,19.57327336092546,18.84401862303744,78.65867556020847,68.15155701218225,-0.0001618862152099,0.099682405591011,0,0,0
6415,238152.5676341151,2010-12-16 06:46:03,600.3005468673969,7,22,-1.0997490882873535,3.763856649398804,19.57327336092546,18.853185912474835,78.65867556020847,68.18609826217957,-0.0002266406954731,0.099682405591011,0,0,0
6416,238182.58275098403,2010-12-16 06:46:33,630.3156638064722,7,22,-1.099568486213684,3.756571769714356,19.57327336092546,18.86235320984002,78.65867556020847,68.22056907905015,-0.0001618862152099,0.099682405591011,0,0,0
6417,238212.59771282715,2010-12-16 06:47:03,660.3306255744102,7,22,-1.0993878841400146,3.7489633560180655,19.57327336092546,18.871520546875956,78.65867556020847,68.25497079092936,-0.0001618862152099,0.099682405591011,0,0,0
6418,238242.61289371536,2010-12-16 06:47:33,690.3458065478325,7,22,-1.099568486213684,3.741516590118408,19.57327336092546,18.8806878974773,78.65867556020847,68.28930496743831,-0.0002266406954731,0.099682405591011,0,0,0
6419,238272.62773286315,2010-12-16 06:48:03,720.3606456054104,7,22,-1.0997490882873535,3.73439359664917,19.57327336092546,18.88985514979245,78.65867556020847,68.32357267234256,-0.0002266406954731,0.099682405591011,0,0,0
6420,238302.6427955171,2010-12-16 06:48:34,750.375708454886,7,22,-1.099568486213684,3.727594375610352,19.57327336092546,18.899022468175986,78.65867556020847,68.35777661003897,-0.0002266406954731,0.099682405591011,0,0,0
6421,238332.6579179449,2010-12-16 06:49:04,780.3908306821205,7,22,-1.099568486213684,3.720795154571533,19.57327336092546,18.90818972747257,78.65867556020847,68.39191780453623,-0.0001942634553415,0.099682405591011,0,0,0
6422,238362.67281389903,2010-12-16 06:49:34,810.4057267214954,7,22,-1.0997490882873535,3.714157819747925,19.57327336092546,18.91735697085409,78.65867556020847,68.42599713538303,-0.0001942634553415,0.099682405591011,0,0,0
6423,238392.68783132551,2010-12-16 06:50:04,840.4207440827752,7,22,-1.099568486213684,3.7076823711395264,19.57327336092546,18.926524258618063,78.65867556020847,68.46001627944402,-0.0001618862152099,0.099682405591011,0,0,0
6424,238422.7029231421,2010-12-16 06:50:34,870.4358358993343,7,22,-1.099568486213684,3.701206922531128,19.57327336092546,18.935691595433266,78.65867556020847,68.49397598252818,-0.0001618862152099,0.099682405591011,0,0,0
6425,238452.7178923034,2010-12-16 06:51:04,900.4508051508947,7,22,-1.099568486213684,3.69489336013794,19.57327336092546,18.944858851724447,78.65867556020847,68.527876713604,-0.0001618862152099,0.099682405591011,0,0,0
6426,238482.7329085519,2010-12-16 06:51:34,930.4658213041683,7,22,-1.0993878841400146,3.688417911529541,19.57327336092546,18.954026214157235,78.65867556020847,68.56172005353082,-0.0001618862152099,0.099682405591011,0,0,0
6427,238512.74792879532,2010-12-16 06:52:04,960.4808415476203,7,22,-1.0997490882873535,3.682428121566773,19.57327336092546,18.96319352377221,78.65867556020847,68.59550601960271,-0.0001295089750783,0.099682405591011,0,0,0
6428,238542.76494575257,2010-12-16 06:52:34,990.4978585950422,7,22,-1.0993878841400146,3.676438331604004,19.57327336092546,18.97236152650051,78.65867556020847,68.62923904501912,-0.0001618862152099,0.099682405591011,0,0,0
6429,238572.77798330213,2010-12-16 06:53:04,1020.5108960494,7,22,-1.099568486213684,3.6704487800598153,19.57327336092546,18.981528198958102,78.65867556020847,68.66291260206397,-0.0002266406954731,0.099682405591011,0,0,0
6430,238602.79314487727,2010-12-16 06:53:34,1050.5260576295627,7,22,-1.0993878841400146,3.664782762527466,19.57327336092546,18.990695490442917,78.65867556020847,68.69653468015923,-0.0001295089750783,0.099682405591011,0,0,0
6431,238632.8080735779,2010-12-16 06:54:04,1080.540986330214,7,22,-1.099568486213684,3.6589548587799072,19.57327336092546,18.99986273504842,78.65867556020847,68.7301040074007,-0.0001618862152099,0.099682405591011,0,0,0
6432,238662.8230774908,2010-12-16 06:54:34,1110.5559902480402,7,22,-1.099568486213684,3.653450727462769,19.57327336092546,19.009030107650748,78.65867556020847,68.76362211406948,-0.0001618862152099,0.099682405591011,0,0,0
6433,238692.83820509136,2010-12-16 06:55:04,1140.571117843634,7,22,-1.099568486213684,3.64794659614563,19.57327336092546,19.01819749713612,78.65867556020847,68.79708954061957,-0.0001295089750783,0.099682405591011,0,0,0
6434,238722.85310209316,2010-12-16 06:55:34,1170.586014845404,7,22,-1.0993878841400146,3.642442464828491,19.57327336092546,19.02736471296484,78.65867556020847,68.83050568860065,-0.0001295089750783,0.099682405591011,0,0,0
6435,238752.8681291185,2010-12-16 06:56:04,1200.6010419258694,7,22,-1.099568486213684,3.6371002197265625,19.57327336092546,19.03653204091443,78.65867556020847,68.86387296389788,-0.0001618862152099,0.099682405591011,0,0,0
6436,238782.88316126657,2010-12-16 06:56:34,1230.6160740238208,7,22,-1.0993878841400146,3.631919860839844,19.57327336092546,19.0456993493038,78.65867556020847,68.89719119621289,-9.713172767078504e-05,0.099682405591011,0,0,0
6437,238812.8981800163,2010-12-16 06:57:04,1260.631092768543,7,22,-1.0993878841400146,3.626739501953125,19.57327336092546,19.05486664947608,78.65867556020847,68.93046149602658,-0.0001295089750783,0.099682405591011,0,0,0
6438,238842.91322569305,2010-12-16 06:57:34,1290.6461384452848,7,22,-1.099568486213684,3.6215591430664062,19.57327336092546,19.06403390496588,78.65867556020847,68.96368503792924,-0.0001295089750783,0.099682405591011,0,0,0
6439,238872.93064210925,2010-12-16 06:58:04,1320.6635549517453,7,22,-1.099568486213684,3.6167025566101074,19.57327336092546,19.073201926135827,78.65867556020847,68.9968655597546,-0.0001295089750783,0.099682405591011,0,0,0
6440,238902.94328090656,2010-12-16 06:58:34,1350.6761936588357,7,22,-1.099568486213684,3.611684083938599,19.57327336092546,19.082368523676028,78.65867556020847,69.02999553564646,-0.0001618862152099,0.099682405591011,0,0,0
6441,238932.9583600165,2010-12-16 06:59:04,1380.6912727687743,7,22,-1.0997490882873535,3.6069893836975098,19.57327336092546,19.091536331621917,78.65867556020847,69.06308539667562,-9.713172767078504e-05,0.099682405591011,0,0,0
6442,238962.9733788765,2010-12-16 06:59:34,1410.706291628784,7,22,-1.0997490882873535,3.602294683456421,19.57327336092546,19.10070427674936,78.65867556020847,69.09613216370117,-0.0001295089750783,0.099682405591011,0,0,0
6443,238992.98829703595,2010-12-16 07:00:04,1440.7212097882036,7,22,-1.099568486213684,3.597599983215332,19.57327336092546,19.109872123506573,78.65867556020847,69.12913636681175,-0.0001618862152099,0.099682405591011,0,0,0
6444,239023.003459378,2010-12-16 07:00:34,1470.7363721352751,7,22,-1.0997490882873535,3.593067169189453,19.57327336092546,19.1190401006586,78.65867556020847,69.1620996450535,-0.0001618862152099,0.099682405591011,0,0,0
6445,239053.0183958279,2010-12-16 07:01:04,1500.7513085801977,7,22,-1.0997490882873535,3.588858366012573,19.57327336092546,19.128208072462083,78.65867556020847,69.19502226681254,-9.713172767078504e-05,0.099682405591011,0,0,0
6446,239083.03336747544,2010-12-16 07:01:34,1530.766280222708,7,22,-1.099568486213684,3.5846493244171143,19.57327336092546,19.137376104479465,78.65867556020847,69.22790548480579,-9.713172767078504e-05,0.099682405591011,0,0,0
6447,239113.04851990787,2010-12-16 07:02:04,1560.781432665132,7,22,-1.0993878841400146,3.580602169036865,19.57327336092546,19.14654363456784,78.65867556020847,69.26074866879954,-9.713172767078504e-05,0.099682405591011,0,0,0
6448,239143.06525075808,2010-12-16 07:02:34,1590.7981636306502,7,22,-1.099568486213684,3.5763931274414062,19.57327336092546,19.155711378570924,78.65867556020847,69.29355561942356,-0.0001295089750783,0.099682405591011,0,0,0
6449,239173.07846394472,2010-12-16 07:03:04,1620.8113766970116,7,22,-1.0993878841400146,3.572669744491577,19.57327336092546,19.164877932312976,78.65867556020847,69.32632216864964,-9.713172767078504e-05,0.099682405591011,0,0,0
6450,239203.09347555676,2010-12-16 07:03:34,1650.8263883089842,7,22,-1.0993878841400146,3.568784475326538,19.57327336092546,19.17404510982473,78.65867556020847,69.3590554651312,-0.0001295089750783,0.099682405591011,0,0,0
6451,239233.1085012788,2010-12-16 07:04:04,1680.8414140310697,7,22,-1.0997490882873535,3.564737319946289,19.57327336092546,19.18321235815815,78.65867556020847,69.39175389250623,-0.0001618862152099,0.099682405591011,0,0,0
6452,239263.12355117104,2010-12-16 07:04:34,1710.8564639233016,7,22,-1.0993878841400146,3.56133770942688,19.57327336092546,19.19237952549003,78.65867556020847,69.42441794326042,-0.0001295089750783,0.099682405591011,0,0,0
6453,239293.13869875635,2010-12-16 07:05:04,1740.8716114936014,7,22,-1.099568486213684,3.5577762126922607,19.57327336092546,19.20154674652421,78.65867556020847,69.45704905795776,-6.47544875391759e-05,0.099682405591011,0,0,0
6454,239323.15370729068,2010-12-16 07:05:34,1770.8866200279156,7,22,-1.099568486213684,3.5542147159576416,19.57327336092546,19.2107139639123,78.65867556020847,69.48964691846207,-6.47544875391759e-05,0.099682405591011,0,0,0
6455,239353.16876844596,2010-12-16 07:06:04,1800.9016812733996,7,22,-1.0993878841400146,3.5504913330078125,19.57327336092546,19.21988114239602,78.65867556020847,69.52221182306293,-0.0001295089750783,0.099682405591011,0,0,0
6456,239383.18365034516,2010-12-16 07:06:34,1830.9165631675744,7,22,-1.0993878841400146,3.5470917224884038,19.57327336092546,19.229048271746876,78.65867556020847,69.5547440246062,-9.713172767078504e-05,0.099682405591011,0,0,0
6457,239413.1989905648,2010-12-16 07:07:04,1860.9319033973,7,22,-1.099568486213684,3.543530225753784,19.57327336092546,19.238215584961843,78.65867556020847,69.58724501231916,-9.713172767078504e-05,0.099682405591011,0,0,0
6458,239443.21369184955,2010-12-16 07:07:34,1890.9466046770235,7,22,-1.099568486213684,3.540130615234375,19.57327336092546,19.24738265874275,78.65867556020847,69.61971379859,-9.713172767078504e-05,0.099682405591011,0,0,0
6459,239473.22872924068,2010-12-16 07:08:04,1920.9616419929591,7,22,-1.099568486213684,3.536731004714966,19.57327336092546,19.25654978194453,78.65867556020847,69.6521514267716,-9.713172767078504e-05,0.099682405591011,0,0,0
6460,239503.2437233892,2010-12-16 07:08:34,1950.976636141475,7,22,-1.0993878841400146,3.5333313941955566,19.57327336092546,19.265716978818965,78.65867556020847,69.68455754623749,-6.47544875391759e-05,0.099682405591011,0,0,0
6461,239533.2587414472,2010-12-16 07:09:04,1980.9916542045016,7,22,-1.099568486213684,3.529769897460937,19.57327336092546,19.274884163207904,78.65867556020847,69.71693169219384,-0.0001295089750783,0.099682405591011,0,0,0
6462,239563.27376500392,2010-12-16 07:09:34,2011.0066777561856,7,22,-1.099568486213684,3.5263702869415283,19.57327336092546,19.284051390470022,78.65867556020847,69.74927406605465,-9.713172767078504e-05,0.099682405591011,0,0,0
6463,239593.2888028512,2010-12-16 07:10:04,2041.021715603444,7,22,-1.099568486213684,3.522808790206909,19.57327336092546,19.293218687679225,78.65867556020847,69.78158402576558,-6.47544875391759e-05,0.099682405591011,0,0,0
6464,239623.30382583645,2010-12-16 07:10:34,2071.036738588719,7,22,-1.099568486213684,3.51908540725708,19.57327336092546,19.30238587006648,78.65867556020847,69.81386061643117,-9.713172767078504e-05,0.099682405591011,0,0,0
6465,239653.31884513257,2010-12-16 07:11:04,2101.051757884813,7,22,-1.0993878841400146,3.515523910522461,19.57327336092546,19.311553103054763,78.65867556020847,69.84610477529752,-9.713172767078504e-05,0.099682405591011,0,0,0
6466,239683.3338743383,2010-12-16 07:11:34,2131.0667871005926,7,22,-1.099568486213684,3.511800527572632,19.57327336092546,19.32072038303139,78.65867556020847,69.87831558672758,-9.713172767078504e-05,0.099682405591011,0,0,0
6467,239713.3488832636,2010-12-16 07:12:04,2161.0817960158547,7,22,-1.099568486213684,3.507915496826172,19.57327336092546,19.329887609960867,78.65867556020847,69.91049178367747,-0.0001295089750783,0.099682405591011,0,0,0
6468,239743.36574182665,2010-12-16 07:12:34,2191.0986546691192,7,22,-1.0993878841400146,3.504030227661133,19.57327336092546,19.33905548483574,78.65867556020847,69.9426346460311,-0.0001295089750783,0.099682405591011,0,0,0
6469,239773.3789449232,2010-12-16 07:13:04,2221.111857675446,7,22,-1.0993878841400146,3.5001449584960938,19.57327336092546,19.348222192634825,78.65867556020847,69.97473667478704,-6.47544875391759e-05,0.099682405591011,0,0,0
6470,239803.39396196365,2010-12-16 07:13:34,2251.126874715927,7,22,-1.0997490882873535,3.495774030685425,19.57327336092546,19.357389469545765,78.65867556020847,70.00680305959962,-9.713172767078504e-05,0.099682405591011,0,0,0
6471,239833.40918637012,2010-12-16 07:14:04,2281.142099122432,7,22,-1.099568486213684,3.491403102874756,19.57327336092546,19.366556785027228,78.65867556020847,70.03883021461725,-0.0001295089750783,0.099682405591011,0,0,0
6472,239863.42403728727,2010-12-16 07:14:34,2311.156950039521,7,22,-1.0993878841400146,3.486870288848877,19.57327336092546,19.3757239602412,78.65867556020847,70.07081569547124,-9.713172767078504e-05,0.099682405591011,0,0,0
6473,239893.43905240795,2010-12-16 07:15:04,2341.1719651602257,7,22,-1.0993878841400146,3.482013702392578,19.57327336092546,19.3848911948496,78.65867556020847,70.1027577117173,-9.713172767078504e-05,0.099682405591011,0,0,0
6474,239923.4540547068,2010-12-16 07:15:34,2371.186967459023,7,22,-1.099568486213684,3.476347684860229,19.57327336092546,19.39405833189064,78.65867556020847,70.13465143910834,-0.0001618862152099,0.099682405591011,0,0,0
6475,239953.46907544645,2010-12-16 07:16:04,2401.2019881987094,7,22,-1.0993878841400146,3.470681667327881,19.57327336092546,19.40322551219216,78.65867556020847,70.16649410133378,-0.0001295089750783,0.099682405591011,0,0,0
6476,239983.4841078301,2010-12-16 07:16:34,2431.217020587385,7,22,-1.0993878841400146,3.4642062187194824,19.57327336092546,19.412392669855876,78.65867556020847,70.19828054292478,-0.0001618862152099,0.099682405591011,0,0,0
6477,240013.49912625903,2010-12-16 07:17:04,2461.2320390163213,7,22,-1.099568486213684,3.456921339035034,19.57327336092546,19.421559857605327,78.65867556020847,70.23000460231125,-0.0001942634553415,0.099682405591011,0,0,0
6478,240043.5142937489,2010-12-16 07:17:34,2491.2472064861404,7,22,-1.099568486213684,3.448665142059326,19.57327336092546,19.43072708399805,78.65867556020847,70.26165781558066,-0.0001942634553415,0.099682405591011,0,0,0
6479,240073.52929419308,2010-12-16 07:18:04,2521.2622069303225,7,22,-1.099568486213684,3.4389519691467285,19.57327336092546,19.439894321549577,78.65867556020847,70.2932296978532,-0.0002913951757363,0.099682405591011,0,0,0
6480,240103.5442389587,2010-12-16 07:18:34,2551.2771517109886,7,22,-1.099568486213684,3.4277820587158203,19.57327336092546,19.44906151636922,78.65867556020847,70.32470601988135,-0.0003237724304199,0.099682405591011,0,0,0
6481,240133.55921893692,2010-12-16 07:19:04,2581.2921316942543,7,22,-1.099568486213684,3.414669275283813,19.57327336092546,19.458228758031836,78.65867556020847,70.3560716827583,-0.0003885269106831,0.099682405591011,0,0,0
6482,240163.57441817084,2010-12-16 07:19:34,2611.307330988267,7,22,-1.099568486213684,3.398642539978028,19.57327336092546,19.46739602016567,78.65867556020847,70.38730497741071,-0.0004856586456298,0.099682405591011,0,0,0
6483,240193.5892730127,2010-12-16 07:20:04,2641.3221857599488,7,22,-1.099568486213684,3.379054307937622,19.57327336092546,19.47656315794165,78.65867556020847,70.41837493679473,-0.0005827903514727,0.099682405591011,0,0,0
6484,240223.604425405,2010-12-16 07:20:35,2671.337338147236,7,22,-1.0993878841400146,3.354285717010498,19.57327336092546,19.48573041465553,78.65867556020847,70.44924225466114,-0.0007446765666827,0.099682405591011,0,0,0
6485,240253.61949358773,2010-12-16 07:21:05,2701.3524064151948,7,22,-1.0993878841400146,3.322394371032715,19.57327336092546,19.494897671945807,78.65867556020847,70.47985281371308,-0.0009389400365762,0.099682405591011,0,0,0
6486,240283.6343356127,2010-12-16 07:21:35,2731.367248369982,7,22,-1.0997490882873535,3.280627727508545,19.57327336092546,19.50406482592276,78.65867556020847,70.51012846049517,-0.0012950897216796,0.099682405591011,0,0,0
6487,240313.64938329943,2010-12-16 07:22:05,2761.382296051713,7,22,-1.099568486213684,3.2251009941101074,19.57327336092546,19.51323198304192,78.65867556020847,70.53996234272873,-0.0016836166614666,0.099682405591011,0,0,0
6488,240343.66622573737,2010-12-16 07:22:35,2791.3991385648133,7,22,-1.0993878841400146,3.148043394088745,19.57327336092546,19.52239980990336,78.65867556020847,70.56919651625215,-0.0023959160316735,0.099682405591011,0,0,0
6489,240373.67952920368,2010-12-16 07:23:05,2821.412441940907,7,22,-1.099568486213684,3.0360183715820312,19.57327336092546,19.531566521385983,78.65867556020847,70.59757553780604,-0.003593873931095,0.099682405591011,0,0,0
6490,240403.69442283205,2010-12-16 07:23:35,2851.42733558432,7,22,-1.0993878841400146,2.852440118789673,19.57327336092546,19.540733657961653,78.65867556020847,70.62464138434005,-0.0061516286805272,0.099682405591011,0,0,0
6491,240421.38158025805,2010-12-16 07:23:52,2869.1144930102987,7,22,-1.099568486213684,2.699781894683838,19.57327336092546,19.546135684350155,78.65867556020847,70.63964841073347,-0.0071877003647387,0.099682405591011,0,0,0
6492,240481.39234893752,2010-12-16 07:24:52,60.01259660848342,8,22,0.0,3.4506077766418457,19.57327336092546,19.546135684350155,78.65867556020847,70.63964841073347,0.0013598442310467,0.099682405591011,0,0,0
6493,240481.5793477061,2010-12-16 07:24:53,0.187626882280136,9,22,-1.9243103452026844e-05,3.450769662857056,19.573273388162228,19.546135684350155,78.65867565420069,70.63964841073347,-6.47544875391759e-05,0.0956302732229232,0,0,0
6494,240486.40723379995,2010-12-16 07:24:58,5.015512981149245,9,22,0.0005225847125984,3.4588639736175537,19.573274479647125,19.5461356845166,78.6586794257801,70.63964841130782,0.0011332035064697,0.0956302732229232,0,0,0
