Data_Point,Test_Time(s),Date_Time,Step_Time(s),Step_Index,Cycle_Index,Current(A),Voltage(V),Charge_Capacity(Ah),Discharge_Capacity(Ah),Charge_Energy(Wh),Discharge_Energy(Wh),dV/dt(V/s),Internal_Resistance(Ohm),Is_FC_Data,AC_Impedance(Ohm),ACI_Phase_Angle(Deg)
7365,272998.3806991035,2010-12-16 16:26:53,30.01304936399425,1,26,0.0,3.499497413635254,22.19639377039041,22.16480826592502,89.20972456843896,80.08391751178256,0.0007446765666827,0.0977962836623191,0,0,0
7366,273028.3956932471,2010-12-16 16:27:23,60.02804351250997,1,26,0.0,3.522646903991699,22.19639377039041,22.16480826592502,89.20972456843896,80.08391751178256,0.0005180359003134,0.0977962836623191,0,0,0
7367,273058.41074483853,2010-12-16 16:27:53,90.04309509895779,1,26,0.0,3.539644956588745,22.19639377039041,22.16480826592502,89.20972456843896,80.08391751178256,0.0004209041653666,0.0977962836623191,0,0,0
7368,273088.3788683763,2010-12-16 16:28:23,120.01121863676148,1,26,0.0,3.553081512451172,22.19639377039041,22.16480826592502,89.20972456843896,80.08391751178256,0.0002913951757363,0.0977962836623191,0,0,0
7369,273118.3897263868,2010-12-16 16:28:54,30.015019862504,2,26,0.5501165986061096,3.695702791213989,22.200980250469385,22.16480826592502,89.22655343006971,80.08391751178256,0.0011008263099938,0.0977962836623191,0,0,0
7370,273148.4047277533,2010-12-16 16:29:24,60.03002123399382,2,26,0.5501165986061096,3.729375123977661,22.20556671060936,22.16480826592502,89.24358692898328,80.08391751178256,0.0007446765666827,0.0977962836623191,0,0,0
7371,273178.4197655103,2010-12-16 16:29:54,90.0450589860152,2,26,0.5501165986061096,3.753010272979736,22.21015337870356,22.16480826592502,89.26074968490286,80.08391751178256,0.0005179882282391,0.0977962836623191,0,0,0
7372,273208.43479056575,2010-12-16 16:30:24,120.06008402640416,2,26,0.5501165986061096,3.7700083255767822,22.214740581177537,22.16480826592502,89.27800681332764,80.08391751178256,0.0003885269106831,0.0977962836623191,0,0,0
7373,273238.44980185694,2010-12-16 16:30:54,150.07509540780325,2,26,0.5501165986061096,3.7816641330718994,22.219327774040263,22.16480826592502,89.29532903626328,80.08391751178256,0.0002590179501567,0.0977962836623191,0,0,0
7374,273268.46485274663,2010-12-16 16:31:24,180.0901462975173,2,26,0.5501165986061096,3.789596557617188,22.223914938282487,22.16480826592502,89.31269532555443,80.08391751178256,0.0001942634553415,0.0977962836623191,0,0,0
7375,273298.4799178868,2010-12-16 16:31:54,210.10521135248092,2,26,0.5501165986061096,3.795910120010376,22.22850210258317,22.16480826592502,89.33009379279159,80.08391751178256,0.0001618862152099,0.0977962836623191,0,0,0
7376,273328.4947929991,2010-12-16 16:32:24,240.12008647480465,2,26,0.5501165986061096,3.8015761375427246,22.233089314603536,22.16480826592502,89.34751965376394,80.08391751178256,0.0001618862152099,0.0977962836623191,0,0,0
7377,273358.5116731759,2010-12-16 16:32:54,270.13696672681635,2,26,0.5501165986061096,3.8067564964294434,22.237676844753658,22.16480826592502,89.36497163777736,80.08391751178256,9.713172767078504e-05,0.0977962836623191,0,0,0
7378,273388.52486243803,2010-12-16 16:33:24,300.1501559187671,2,26,0.550297200679779,3.811936855316162,22.24226378904386,22.16480826592502,89.38244473037916,80.08391751178256,0.0001295089750783,0.0977962836623191,0,0,0
7379,273418.53988385946,2010-12-16 16:33:54,330.16517742536234,2,26,0.550297200679779,3.816631555557251,22.24685101138343,22.16480826592502,89.39994133366423,80.08391751178256,0.0001295089750783,0.0977962836623191,0,0,0
7380,273448.5578027611,2010-12-16 16:34:24,360.1830963570886,2,26,0.550297200679779,3.82116436958313,22.25143868943004,22.16480826592502,89.41746111086874,80.08391751178256,0.0001295089750783,0.0977962836623191,0,0,0
7381,273478.5698740261,2010-12-16 16:34:54,390.1951674867844,2,26,0.550297200679779,3.825535297393799,22.25602537927412,22.16480826592502,89.43499760752749,80.08391751178256,9.713172767078504e-05,0.0977962836623191,0,0,0
7382,273508.5848637787,2010-12-16 16:35:24,420.210157239361,2,26,0.5501165986061096,3.829744338989258,22.26061253714645,22.16480826592502,89.45255571328947,80.08391751178256,9.713172767078504e-05,0.0977962836623191,0,0,0
7383,273538.59987080423,2010-12-16 16:35:54,450.22516427995816,2,26,0.550297200679779,3.834115028381348,22.26519972048064,22.16480826592502,89.47013322629535,80.08391751178256,0.0001618862152099,0.0977962836623191,0,0,0
7384,273568.6148922408,2010-12-16 16:36:24,480.24018570635394,2,26,0.550297200679779,3.8381621837615967,22.269786820912906,22.16480826592502,89.48772925764044,80.08391751178256,0.0001618862152099,0.0977962836623191,0,0,0
7385,273598.63005020685,2010-12-16 16:36:54,510.255343687561,2,26,0.550297200679779,3.842047452926636,22.27437400746579,22.16480826592502,89.50534419308404,80.08391751178256,9.713172767078504e-05,0.0977962836623191,0,0,0
7386,273628.6450460496,2010-12-16 16:37:24,540.2703395102428,2,26,0.550297200679779,3.845932722091675,22.27896116560894,22.16480826592502,89.52297723345671,80.08391751178256,9.713172767078504e-05,0.0977962836623191,0,0,0
7387,273658.6599288109,2010-12-16 16:37:54,570.2852222866132,2,26,0.5501165986061096,3.849817991256714,22.28354838833479,22.16480826592502,89.54062868722663,80.08391751178256,6.47544875391759e-05,0.0977962836623191,0,0,0
7388,273688.6749301523,2010-12-16 16:38:24,600.3002236280282,2,26,0.550297200679779,3.853703260421753,22.288135616968283,22.16480826592502,89.55829803460098,80.08391751178256,6.47544875391759e-05,0.0977962836623191,0,0,0
7389,273718.6899576188,2010-12-16 16:38:54,630.3152510944543,2,26,0.550297200679779,3.857588529586792,22.29272285678278,22.16480826592502,89.57598515402725,80.08391751178256,6.47544875391759e-05,0.0977962836623191,0,0,0
7390,273748.70494922594,2010-12-16 16:39:24,660.3302427016461,2,26,0.5501165986061096,3.861473798751831,22.29731012160756,22.16480826592502,89.59369005421847,80.08391751178256,9.713172767078504e-05,0.0977962836623191,0,0,0
7391,273778.72000703285,2010-12-16 16:39:54,690.3453005135857,2,26,0.550297200679779,3.86535906791687,22.301897337325407,22.16480826592502,89.61141228456609,80.08391751178256,0.0001295089750783,0.0977962836623191,0,0,0
7392,273808.73499799345,2010-12-16 16:40:24,720.360291469156,2,26,0.5501165986061096,3.869082450866699,22.306484615423955,22.16480826592502,89.62915213915304,80.08391751178256,9.713172767078504e-05,0.0977962836623191,0,0,0
7393,273838.749995776,2010-12-16 16:40:54,750.3752892567273,2,26,0.550297200679779,3.872805833816528,22.31107186278829,22.16480826592502,89.64690887063504,80.08391751178256,9.713172767078504e-05,0.0977962836623191,0,0,0
7394,273868.76512413856,2010-12-16 16:41:24,780.3904176693543,2,26,0.5501165986061096,3.876367330551148,22.3156590784867,22.16480826592502,89.66468208461146,80.08391751178256,9.713172767078504e-05,0.0977962836623191,0,0,0
7395,273898.78000794747,2010-12-16 16:41:54,810.4053014231569,2,26,0.5501165986061096,3.8796050548553462,22.32024631188509,22.16480826592502,89.68247156523188,80.08391751178256,6.47544875391759e-05,0.0977962836623191,0,0,0
7396,273928.7951446908,2010-12-16 16:42:24,840.4204381514769,2,26,0.550297200679779,3.883166551589966,22.324833586638587,22.16480826592502,89.700276875106,80.08391751178256,6.47544875391759e-05,0.0977962836623191,0,0,0
7397,273958.8119051347,2010-12-16 16:42:54,870.4371986855753,2,26,0.5501165986061096,3.886242389678955,22.32942109066044,22.16480826592502,89.71809804795316,80.08391751178256,6.47544875391759e-05,0.0977962836623191,0,0,0
7398,273988.8252828357,2010-12-16 16:43:24,900.4505763665737,2,26,0.5501165986061096,3.889318227767944,22.33400809235299,22.16480826592502,89.7359316697008,80.08391751178256,9.713172767078504e-05,0.0977962836623191,0,0,0
7399,274018.84010885085,2010-12-16 16:43:54,930.4654024217956,2,26,0.550297200679779,3.892232179641724,22.33859531246825,22.16480826592502,89.75377986799863,80.08391751178256,6.47544875391759e-05,0.0977962836623191,0,0,0
7400,274048.8550989142,2010-12-16 16:44:24,960.480392445046,2,26,0.5501165986061096,3.894984245300293,22.34318265802251,22.16480826592502,89.7716416709705,80.08391751178256,3.237724376958795e-05,0.0977962836623191,0,0,0
7401,274078.8702132819,2010-12-16 16:44:54,990.4955067425478,2,26,0.550297200679779,3.897574424743652,22.347769958881827,22.16480826592502,89.7895153827749,80.08391751178256,3.237724376958795e-05,0.0977962836623191,0,0,0
7402,274108.8850881335,2010-12-16 16:45:24,1020.5103815992104,2,26,0.550297200679779,3.900164604187012,22.3523572640535,22.16480826592502,89.80740106141911,80.08391751178256,6.47544875391759e-05,0.0977962836623191,0,0,0
7403,274138.90010275296,2010-12-16 16:45:54,1050.525396233705,2,26,0.550297200679779,3.902754783630371,22.356944557577872,22.16480826592502,89.82529788138184,80.08391751178256,9.713172767078504e-05,0.0977962836623191,0,0,0
7404,274168.9151138737,2010-12-16 16:46:24,1080.5404073494426,2,26,0.5501165986061096,3.9048593044281006,22.3615318428908,22.16480826592502,89.84320530084743,80.08391751178256,3.237724376958795e-05,0.0977962836623191,0,0,0
7405,274198.9301350194,2010-12-16 16:46:54,1110.5554284951395,2,26,0.5501165986061096,3.90696382522583,22.366119166237947,22.16480826592502,89.86112286532051,80.08391751178256,6.47544875391759e-05,0.0977962836623191,0,0,0
7406,274228.94516139315,2010-12-16 16:47:24,1140.5704548788715,2,26,0.5501165986061096,3.9092302322387695,22.37070646364685,22.16480826592502,89.87905001581711,80.08391751178256,6.47544875391759e-05,0.0977962836623191,0,0,0
7407,274258.9602663123,2010-12-16 16:47:54,1170.5855597729735,2,26,0.5504778623580933,3.911010980606079,22.37529379365258,22.16480826592502,89.89698652665673,80.08391751178256,9.713172767078504e-05,0.0977962836623191,0,0,0
7408,274288.9751953037,2010-12-16 16:48:24,1200.600488874623,2,26,0.5501165986061096,3.912953615188599,22.37988112629635,22.16480826592502,89.91493203702132,80.08391751178256,6.47544875391759e-05,0.0977962836623191,0,0,0
7409,274318.990300283,2010-12-16 16:48:54,1230.6155937586996,2,26,0.5501165986061096,3.914734125137329,22.38446843253797,22.16480826592502,89.93288615586928,80.08391751178256,3.237724376958795e-05,0.0977962836623191,0,0,0
7410,274349.00519816193,2010-12-16 16:49:24,1260.6304917078266,2,26,0.550297200679779,3.916514873504639,22.389055706566356,22.16480826592502,89.95084851374565,80.08391751178256,6.47544875391759e-05,0.0977962836623191,0,0,0
7411,274379.0201972177,2010-12-16 16:49:54,1290.6454906783415,2,26,0.5501165986061096,3.918457508087158,22.39364288320296,22.16480826592502,89.96881877644711,80.08391751178256,6.47544875391759e-05,0.0977962836623191,0,0,0
7412,274409.0354071632,2010-12-16 16:50:24,1320.6607006388974,2,26,0.550297200679779,3.920238256454468,22.39823013806129,22.16480826592502,89.98679759077359,80.08391751178256,3.237724376958795e-05,0.0977962836623191,0,0,0
7413,274439.0502395241,2010-12-16 16:50:54,1350.675532989786,2,26,0.550297200679779,3.922019004821777,22.40281735237812,22.16480826592502,90.00478432706277,80.08391751178256,9.713172767078504e-05,0.0977962836623191,0,0,0
7414,274469.0652203194,2010-12-16 16:51:24,1380.6905137950978,2,26,0.550297200679779,3.923799753189087,22.407404593951497,22.16480826592502,90.02277926264503,80.08391751178256,6.47544875391759e-05,0.0977962836623191,0,0,0
7415,274499.08024918934,2010-12-16 16:51:54,1410.705542740203,2,26,0.5504778623580933,3.925580501556397,22.41199186220389,22.16480826592502,90.04078236306857,80.08391751178256,9.713172767078504e-05,0.0977962836623191,0,0,0
7416,274529.0952394782,2010-12-16 16:52:24,1440.72053293889,2,26,0.5501165986061096,3.927199363708496,22.41657910944628,22.16480826592502,90.0587932758864,80.08391751178256,6.47544875391759e-05,0.0977962836623191,0,0,0
7417,274559.1121314544,2010-12-16 16:52:54,1470.7374250053017,2,26,0.5501165986061096,3.928818225860596,22.421166658943484,22.16480826592502,90.07681332379494,80.08391751178256,3.237724376958795e-05,0.0977962836623191,0,0,0
7418,274589.1251960914,2010-12-16 16:53:24,1500.7504895520776,2,26,0.5501165986061096,3.930598974227905,22.425753633535532,22.16480826592502,90.09483900260533,80.08391751178256,9.713172767078504e-05,0.0977962836623191,0,0,0
7419,274619.1402541189,2010-12-16 16:53:54,1530.765547594591,2,26,0.550297200679779,3.932379722595215,22.430340901681223,22.16480826592502,90.1128736677267,80.08391751178256,6.47544875391759e-05,0.0977962836623191,0,0,0
7420,274649.15528509405,2010-12-16 16:54:24,1560.7805785697487,2,26,0.5501165986061096,3.934160470962525,22.434928175656545,22.16480826592502,90.1309162796642,80.08391751178256,9.713172767078504e-05,0.0977962836623191,0,0,0
7421,274679.1702888464,2010-12-16 16:54:54,1590.7955823221632,2,26,0.550297200679779,3.935779333114624,22.43951555349436,22.16480826592502,90.14896725610512,80.08391751178256,3.237724376958795e-05,0.0977962836623191,0,0,0
7422,274709.1852828696,2010-12-16 16:55:24,1620.8105763403548,2,26,0.5501165986061096,3.937398195266724,22.44410287010807,22.16480826592502,90.16702576649634,80.08391751178256,3.237724376958795e-05,0.0977962836623191,0,0,0
7423,274739.20041730726,2010-12-16 16:55:54,1650.825710772962,2,26,0.550297200679779,3.939340829849243,22.4486901455872,22.16480826592502,90.1850921066732,80.08391751178256,6.47544875391759e-05,0.0977962836623191,0,0,0
7424,274769.2153128805,2010-12-16 16:56:24,1680.8406063411644,2,26,0.5501165986061096,3.940959692001343,22.453277395099843,22.16480826592502,90.20316626434428,80.08391751178256,6.47544875391759e-05,0.0977962836623191,0,0,0
7425,274799.23033251247,2010-12-16 16:56:55,1710.8556259931445,2,26,0.5501165986061096,3.9425785541534415,22.45786460198844,22.16480826592502,90.22124800036298,80.08391751178256,0.0,0.0977962836623191,0,0,0
7426,274829.24545088504,2010-12-16 16:57:25,1740.8707443657872,2,26,0.550297200679779,3.944359302520752,22.46245185827771,22.16480826592502,90.23933781466388,80.08391751178256,3.237724376958795e-05,0.0977962836623191,0,0,0
7427,274859.2603523329,2010-12-16 16:57:55,1770.8856458086082,2,26,0.5501165986061096,3.945978164672852,22.4670391672616,22.16480826592502,90.2574357209675,80.08391751178256,3.237724376958795e-05,0.0977962836623191,0,0,0
7428,274889.2754670214,2010-12-16 16:58:25,1800.9007605020956,2,26,0.5501165986061096,3.947758913040161,22.471626487752435,22.16480826592502,90.2755413499719,80.08391751178256,3.237724376958795e-05,0.0977962836623191,0,0,0
7429,274919.29039181233,2010-12-16 16:58:55,1830.91568531808,2,26,0.5501165986061096,3.9493777751922607,22.476213677601063,22.16480826592502,90.2936542336997,80.08391751178256,6.47544875391759e-05,0.0977962836623191,0,0,0
7430,274949.30543925345,2010-12-16 16:59:25,1860.930732809337,2,26,0.5501165986061096,3.9511585235595694,22.48080097495621,22.16480826592502,90.3117754823827,80.08391751178256,3.237724376958795e-05,0.0977962836623191,0,0,0
7431,274979.32037725224,2010-12-16 16:59:55,1890.9456707279269,2,26,0.5501165986061096,3.95277738571167,22.485388286024744,22.16480826592502,90.3299046474752,80.08391751178256,3.237724376958795e-05,0.0977962836623191,0,0,0
7432,275009.33540786646,2010-12-16 17:00:25,1920.9607013321613,2,26,0.550297200679779,3.95455813407898,22.48997564047565,22.16480826592502,90.34804195346548,80.08391751178256,-3.237724376958795e-05,0.0977962836623191,0,0,0
7433,275039.3504114936,2010-12-16 17:00:55,1950.9757049743016,2,26,0.550297200679779,3.956500768661499,22.494562984745265,22.16480826592502,90.36618720224716,80.08391751178256,6.47544875391759e-05,0.0977962836623191,0,0,0
7434,275069.3654496015,2010-12-16 17:01:25,1980.990743077196,2,26,0.5504778623580933,3.958119630813599,22.4991503453274,22.16480826592502,90.38434038116996,80.08391751178256,3.237724376958795e-05,0.0977962836623191,0,0,0
7435,275099.3805421549,2010-12-16 17:01:55,2011.0058356356008,2,26,0.5501165986061096,3.959738492965698,22.503737669396852,22.16480826592502,90.40250147713864,80.08391751178256,3.237724376958795e-05,0.0977962836623191,0,0,0
7436,275129.3955775661,2010-12-16 17:02:25,2041.0208710267475,2,26,0.5501165986061096,3.961519241333008,22.50832494905806,22.16480826592502,90.42067044609313,80.08391751178256,0.0,0.0977962836623191,0,0,0
7437,275159.41239582386,2010-12-16 17:02:55,2071.0376893897505,2,26,0.5501165986061096,3.963299989700317,22.512912490304373,22.16480826592502,90.4388485576877,80.08391751178256,3.237724376958795e-05,0.0977962836623191,0,0,0
7438,275189.425463744,2010-12-16 17:03:25,2101.0507572247093,2,26,0.5501165986061096,3.965080738067627,22.517499409776423,22.16480826592502,90.45703229991668,80.08391751178256,3.237724376958795e-05,0.0977962836623191,0,0,0
7439,275219.4404639275,2010-12-16 17:03:55,2131.0657574082425,2,26,0.5501165986061096,3.9670233726501465,22.52208672283762,22.16480826592502,90.47522577054228,80.08391751178256,3.237724376958795e-05,0.0977962836623191,0,0,0
7440,275249.4555357393,2010-12-16 17:04:25,2161.080829220021,2,26,0.5501165986061096,3.968642234802246,22.526674044492395,22.16480826592502,90.4934273462601,80.08391751178256,6.47544875391759e-05,0.0977962836623191,0,0,0
7441,275279.4705171211,2010-12-16 17:04:55,2191.0958106017665,2,26,0.5501165986061096,3.970422983169556,22.531261314845786,22.16480826592502,90.511636944282,80.08391751178256,6.47544875391759e-05,0.0977962836623191,0,0,0
7442,275309.48550752026,2010-12-16 17:05:25,2221.11080099594,2,26,0.5499359965324402,3.972203731536865,22.535848650856806,22.16480826592502,90.5298550851486,80.08391751178256,3.237724376958795e-05,0.0977962836623191,0,0,0
7443,275339.5005034231,2010-12-16 17:05:55,2251.125796989046,2,26,0.550297200679779,3.9741463661193848,22.540436007425456,22.16480826592502,90.54808158218133,80.08391751178256,3.237724376958795e-05,0.0977962836623191,0,0,0
7444,275369.5182804267,2010-12-16 17:06:25,2281.143573992589,2,26,0.5499359965324402,3.9759271144866943,22.54502377555106,22.16480826592502,90.5663181043582,80.08391751178256,3.237724376958795e-05,0.0977962836623191,0,0,0
7445,275399.5305593635,2010-12-16 17:06:55,2311.155852824143,2,26,0.550297200679779,3.977707862854004,22.54961077419299,22.16480826592502,90.58456002478816,80.08391751178256,3.237724376958795e-05,0.0977962836623191,0,0,0
7446,275429.5455457527,2010-12-16 17:07:25,2341.170839228388,2,26,0.5501165986061096,3.979650497436523,22.5541980759875,22.16480826592502,90.6028111647441,80.08391751178256,3.237724376958795e-05,0.0977962836623191,0,0,0
7447,275459.5605539662,2010-12-16 17:07:55,2371.1858474469163,2,26,0.5501165986061096,3.981593132019043,22.55878528675716,22.16480826592502,90.6210709934188,80.08391751178256,6.47544875391759e-05,0.0977962836623191,0,0,0
7448,275489.5756887948,2010-12-16 17:08:25,2401.2009823456838,2,26,0.5501165986061096,3.983373880386353,22.563372538089805,22.16480826592502,90.63933962564042,80.08391751178256,6.47544875391759e-05,0.0977962836623191,0,0,0
7449,275519.5908281547,2010-12-16 17:08:55,2431.2161216303643,2,26,0.5501165986061096,3.985316514968872,22.567959762094844,22.16480826592502,90.6576168352481,80.08391751178256,3.237724376958795e-05,0.0977962836623191,0,0,0
7450,275549.6055826117,2010-12-16 17:09:25,2461.2308760723804,2,26,0.550297200679779,3.987259149551392,22.572546894239583,22.16480826592502,90.67590240589766,80.08391751178256,6.47544875391759e-05,0.0977962836623191,0,0,0
7451,275579.6205823141,2010-12-16 17:09:55,2491.2458757747163,2,26,0.550297200679779,3.989201784133911,22.57713414685329,22.16480826592502,90.69419722871962,80.08391751178256,9.713172767078504e-05,0.0977962836623191,0,0,0
7452,275609.6355981766,2010-12-16 17:10:25,2521.260891652304,2,26,0.550297200679779,3.9909825325012207,22.5817213419098,22.16480826592502,90.71250073756804,80.08391751178256,3.237724376958795e-05,0.0977962836623191,0,0,0
7453,275639.6506259738,2010-12-16 17:10:55,2551.2759194495534,2,26,0.550297200679779,3.99308705329895,22.586308513556585,22.16480826592502,90.73081318423752,80.08391751178256,0.0,0.0977962836623191,0,0,0
7454,275669.66561936546,2010-12-16 17:11:25,2581.2909128411857,2,26,0.5501165986061096,3.99502944946289,22.590895671824825,22.16480826592502,90.74913460263384,80.08391751178256,3.237724376958795e-05,0.0977962836623191,0,0,0
7455,275699.6806766461,2010-12-16 17:11:55,2611.3059702170403,2,26,0.5501165986061096,3.99697208404541,22.59548284495641,22.16480826592502,90.76746526732956,80.08391751178256,3.237724376958795e-05,0.0977962836623191,0,0,0
7456,275729.6956367599,2010-12-16 17:12:25,2641.320930235625,2,26,0.5501165986061096,3.99907660484314,22.600070101343224,22.16480826592502,90.7858054821459,80.08391751178256,3.237724376958795e-05,0.0977962836623191,0,0,0
7457,275759.7124908017,2010-12-16 17:12:55,2671.337784317513,2,26,0.550297200679779,4.001181125640869,22.6046575494256,22.16480826592502,90.80415589851133,80.08391751178256,3.23295607813634e-05,0.0977962836623191,0,0,0
7458,275789.7259097253,2010-12-16 17:13:25,2701.3512032010426,2,26,0.5501165986061096,4.003285884857178,22.60924451056149,22.16480826592502,90.82251388134289,80.08391751178256,6.47544875391759e-05,0.0977962836623191,0,0,0
7459,275819.7406895054,2010-12-16 17:13:55,2731.3659829811104,2,26,0.550297200679779,4.005552291870117,22.613831687385517,22.16480826592502,90.84088231467318,80.08391751178256,9.71794142969884e-05,0.0977962836623191,0,0,0
7460,275849.7558017929,2010-12-16 17:14:25,2761.381095363848,2,26,0.5501165986061096,4.007494926452637,22.618418903735463,22.16480826592502,90.85926063357996,80.08391751178256,6.47544875391759e-05,0.0977962836623191,0,0,0
7461,275879.770701752,2010-12-16 17:14:55,2791.39599522774,2,26,0.550297200679779,4.009599208831787,22.623006208808345,22.16480826592502,90.87764909380424,80.08391751178256,3.23295607813634e-05,0.0977962836623191,0,0,0
7462,275909.78593911574,2010-12-16 17:15:25,2821.41123257645,2,26,0.550297200679779,4.011865615844727,22.62759344152545,22.16480826592502,90.89604715403384,80.08391751178256,9.70840483205393e-05,0.0977962836623191,0,0,0
7463,275939.80069003406,2010-12-16 17:15:55,2851.4259835849207,2,26,0.550297200679779,4.013970375061035,22.632180546718324,22.16480826592502,90.91445481993247,80.08391751178256,3.24249267578125e-05,0.0977962836623191,0,0,0
7464,275969.8157001322,2010-12-16 17:16:25,2881.44099360794,2,26,0.5501165986061096,4.016236782073975,22.63676772432054,22.16480826592502,90.9328729660992,80.08391751178256,3.24249267578125e-05,0.0977962836623191,0,0,0
7465,275999.83087326115,2010-12-16 17:16:55,2911.4561667468665,2,26,0.550297200679779,4.018503189086914,22.6413549000066,22.16480826592502,90.95130141467168,80.08391751178256,6.47544875391759e-05,0.0977962836623191,0,0,0
7466,276029.84576886945,2010-12-16 17:17:25,2941.471062330106,2,26,0.5501165986061096,4.0207695960998535,22.645942064455216,22.16480826592502,90.96974011994809,80.08391751178256,6.47544875391759e-05,0.0977962836623191,0,0,0
7467,276059.8607340609,2010-12-16 17:17:55,2971.486027536601,2,26,0.5501165986061096,4.023036003112793,22.65052925573749,22.16480826592502,90.98818956010598,80.08391751178256,3.24249267578125e-05,0.0977962836623191,0,0,0
7468,276089.8757430764,2010-12-16 17:18:25,3001.5010365521125,2,26,0.550297200679779,4.025464057922363,22.655116499914392,22.16480826592502,91.00664984386252,80.08391751178256,6.47544875391759e-05,0.0977962836623191,0,0,0
7469,276119.89077424706,2010-12-16 17:18:55,3031.5160677227564,2,26,0.550297200679779,4.027892589569092,22.65970371813597,22.16480826592502,91.02512082369743,80.08391751178256,6.47544875391759e-05,0.0977962836623191,0,0,0
7470,276149.9057612077,2010-12-16 17:19:25,3061.5310546833853,2,26,0.550297200679779,4.030158996582031,22.664290994570283,22.16480826592502,91.04360296366474,80.08391751178256,6.47544875391759e-05,0.0977962836623191,0,0,0
7471,276179.9207722583,2010-12-16 17:19:55,3091.546065733961,2,26,0.5501165986061096,4.032587051391602,22.668878195178145,22.16480826592502,91.06209586235912,80.08391751178256,9.70840483205393e-05,0.0977962836623191,0,0,0
7472,276209.9357734994,2010-12-16 17:20:25,3121.561066980139,2,26,0.550297200679779,4.035015106201172,22.673465388881247,22.16480826592502,91.08059996273712,80.08391751178256,3.23295607813634e-05,0.0977962836623191,0,0,0
7473,276239.9507906402,2010-12-16 17:20:55,3151.5760841208703,2,26,0.550297200679779,4.037605285644531,22.67805258753905,22.16480826592502,91.0991153826224,80.08391751178256,6.47544875391759e-05,0.0977962836623191,0,0,0
7474,276269.9658040717,2010-12-16 17:21:25,3181.5910975473585,2,26,0.550297200679779,4.04003381729126,22.682639845378564,22.16480826592502,91.11764250456378,80.08391751178256,3.24249267578125e-05,0.0977962836623191,0,0,0
7475,276299.9807992878,2010-12-16 17:21:55,3211.6060927635303,2,26,0.5501165986061096,4.04246187210083,22.687227034827828,22.16480826592502,91.13618077191596,80.08391751178256,6.47544875391759e-05,0.0977962836623191,0,0,0
7476,276329.9962086646,2010-12-16 17:22:25,3241.621502140326,2,26,0.550297200679779,4.0452141761779785,22.69181434683556,22.16480826592502,91.1547311512776,80.08391751178256,9.71794142969884e-05,0.0977962836623191,0,0,0
7477,276360.0127262191,2010-12-16 17:22:55,3271.638019769966,2,26,0.550297200679779,4.047642230987549,22.69640178857444,22.16480826592502,91.17329359706082,80.08391751178256,6.47544875391759e-05,0.0977962836623191,0,0,0
7478,276390.0258459331,2010-12-16 17:23:25,3301.651139408837,2,26,0.5501165986061096,4.050232410430908,22.70098863338422,22.16480826592502,91.1918654509051,80.08391751178256,6.47544875391759e-05,0.0977962836623191,0,0,0
7479,276420.0408386331,2010-12-16 17:23:55,3331.66613209371,2,26,0.5501165986061096,4.052822589874268,22.705575783682352,22.16480826592502,91.2104504298792,80.08391751178256,6.47544875391759e-05,0.0977962836623191,0,0,0
7480,276450.0558509367,2010-12-16 17:24:25,3361.6811443974043,2,26,0.5501165986061096,4.055412769317627,22.71016298964913,22.16480826592502,91.22904776635916,80.08391751178256,3.23295607813634e-05,0.0977962836623191,0,0,0
7481,276480.0708707341,2010-12-16 17:24:55,3391.696164184721,2,26,0.5501165986061096,4.058002948760986,22.714750283201656,22.16480826592502,91.24765749503278,80.08391751178256,3.23295607813634e-05,0.0977962836623191,0,0,0
7482,276510.0858745918,2010-12-16 17:25:25,3421.71116806746,2,26,0.550297200679779,4.060755252838135,22.719337569822503,22.16480826592502,91.266279340667,80.08391751178256,6.47544875391759e-05,0.0977962836623191,0,0,0
7483,276540.10104967555,2010-12-16 17:25:55,3451.726343136189,2,26,0.550297200679779,4.063345432281494,22.72392485565727,22.16480826592502,91.28491295392504,80.08391751178256,6.47544875391759e-05,0.0977962836623191,0,0,0
7484,276570.11589785083,2010-12-16 17:26:25,3481.741191301431,2,26,0.5501165986061096,4.066097259521484,22.72851209094324,22.16480826592502,91.3035588325375,80.08391751178256,6.47544875391759e-05,0.0977962836623191,0,0,0
7485,276600.1309455526,2010-12-16 17:26:55,3511.7562390332864,2,26,0.550297200679779,4.068849563598633,22.73309928133557,22.16480826592502,91.32221707670551,80.08391751178256,6.47544875391759e-05,0.0977962836623191,0,0,0
7486,276630.1459468288,2010-12-16 17:27:25,3541.771240304527,2,26,0.5499359965324402,4.071601390838623,22.737686469430592,22.16480826592502,91.34088803015574,80.08391751178256,6.47544875391759e-05,0.0977962836623191,0,0,0
7487,276660.16092975944,2010-12-16 17:27:55,3571.786223210065,2,26,0.550297200679779,4.074515342712402,22.742273670316216,22.16480826592502,91.35957191134192,80.08391751178256,9.70840483205393e-05,0.0977962836623191,0,0,0
7488,276690.1759435017,2010-12-16 17:28:25,3601.801236957352,2,26,0.5501165986061096,4.077267646789551,22.74686084798005,22.16480826592502,91.37826870604206,80.08391751178256,6.47544875391759e-05,0.0977962836623191,0,0,0
7489,276720.19096539926,2010-12-16 17:28:56,3631.816258849907,2,26,0.5501165986061096,4.080019474029541,22.751448061303115,22.16480826592502,91.39697879904573,80.08391751178256,3.23295607813634e-05,0.0977962836623191,0,0,0
7490,276750.20612204715,2010-12-16 17:29:26,3661.831415572984,2,26,0.5501165986061096,4.083095550537109,22.756035313181208,22.16480826592502,91.41570227037788,80.08391751178256,9.71794142969884e-05,0.0977962836623191,0,0,0
7491,276780.22098369594,2010-12-16 17:29:56,3691.846277151604,2,26,0.550297200679779,4.08617115020752,22.760622511645703,22.16480826592502,91.43443895440248,80.08391751178256,9.70840483205393e-05,0.0977962836623191,0,0,0
7492,276810.2361132865,2010-12-16 17:30:26,3721.8614067371495,2,26,0.550297200679779,4.089085102081299,22.76520978335229,22.16480826592502,91.45318948665329,80.08391751178256,9.70840483205393e-05,0.0977962836623191,0,0,0
7493,276840.25101123564,2010-12-16 17:30:56,3751.8763046912895,2,26,0.5501165986061096,4.091999053955078,22.769797049055185,22.16480826592502,91.47195367350488,80.08391751178256,6.47544875391759e-05,0.0977962836623191,0,0,0
7494,276870.26601818606,2010-12-16 17:31:26,3781.891311641662,2,26,0.550297200679779,4.095075130462647,22.774384272295887,22.16480826592502,91.49073145298404,80.08391751178256,9.71794142969884e-05,0.0977962836623191,0,0,0
7495,276900.2810913462,2010-12-16 17:31:56,3811.9063848870073,2,26,0.5501165986061096,4.097989082336426,22.77897152147401,22.16480826592502,91.50952333324676,80.08391751178256,3.24249267578125e-05,0.0977962836623191,0,0,0
7496,276930.2960366782,2010-12-16 17:32:26,3841.921330153883,2,26,0.5501165986061096,4.101064682006836,22.78355874928049,22.16480826592502,91.52832912314209,80.08391751178256,6.47544875391759e-05,0.0977962836623191,0,0,0
7497,276960.3129983327,2010-12-16 17:32:56,3871.938291893674,2,26,0.5501165986061096,4.104140758514404,22.78814635634633,22.16480826592502,91.54715049603276,80.08391751178256,9.71794142969884e-05,0.0977962836623191,0,0,0
7498,276990.3260937363,2010-12-16 17:33:26,3901.951387282199,2,26,0.5501165986061096,4.107216358184815,22.792733264405324,22.16480826592502,91.56598324876832,80.08391751178256,6.47544875391759e-05,0.0977962836623191,0,0,0
7499,277020.34107373963,2010-12-16 17:33:56,3931.9663671902767,2,26,0.550297200679779,4.110616207122803,22.79732055458305,22.16480826592502,91.5848318874897,80.08391751178256,9.71794142969884e-05,0.0977962836623191,0,0,0
7500,277050.3561043338,2010-12-16 17:34:26,3961.981397784488,2,26,0.5501165986061096,4.113530158996582,22.801907732148425,22.16480826592502,91.60369450662876,80.08391751178256,9.71794142969884e-05,0.0977962836623191,0,0,0
7501,277080.3711072893,2010-12-16 17:34:56,3991.996400739918,2,26,0.550297200679779,4.116767406463623,22.80649489541882,22.16480826592502,91.62257164860314,80.08391751178256,6.47544875391759e-05,0.0977962836623191,0,0,0
7502,277110.3861037836,2010-12-16 17:35:26,4022.011397234271,2,26,0.5501165986061096,4.120005130767822,22.811082121094167,22.16480826592502,91.64146377868812,80.08391751178256,9.70840483205393e-05,0.0977962836623191,0,0,0
7503,277140.40111393697,2010-12-16 17:35:56,4052.0264073926273,2,26,0.550297200679779,4.1232428550720215,22.815669383753164,22.16480826592502,91.6603708936687,80.08391751178256,9.70840483205393e-05,0.0977962836623191,0,0,0
7504,277170.4161461151,2010-12-16 17:36:26,4082.041439585816,2,26,0.550297200679779,4.12664270401001,22.820256646764395,22.16480826592502,91.67929299805188,80.08391751178256,9.71794142969884e-05,0.0977962836623191,0,0,0
7505,277200.43126572587,2010-12-16 17:36:56,4112.056559191527,2,26,0.5501165986061096,4.129880428314209,22.82484388093412,22.16480826592502,91.69823002370184,80.08391751178256,9.71794142969884e-05,0.0977962836623191,0,0,0
7506,277230.4462831824,2010-12-16 17:37:26,4142.071576643031,2,26,0.550297200679779,4.133118152618408,22.82943118278421,22.16480826592502,91.7171825677891,80.08391751178256,9.71794142969884e-05,0.0977962836623191,0,0,0
7507,277260.4611529263,2010-12-16 17:37:56,4172.086446402008,2,26,0.550297200679779,4.136517524719238,22.83401841757996,22.16480826592502,91.73615015827752,80.08391751178256,9.70840483205393e-05,0.0977962836623191,0,0,0
7508,277290.4790558833,2010-12-16 17:38:26,4202.104349454218,2,26,0.550297200679779,4.140079021453857,22.8386060702691,22.16480826592502,91.7551349408764,80.08391751178256,9.70840483205393e-05,0.0977962836623191,0,0,0
7509,277320.49124904664,2010-12-16 17:38:56,4232.116542612578,2,26,0.550297200679779,4.143316745758057,22.843192922865786,22.16480826592502,91.77413201600454,80.08391751178256,9.70840483205393e-05,0.0977962836623191,0,0,0
7510,277350.5061891306,2010-12-16 17:39:26,4262.13148258127,2,26,0.5501165986061096,4.146878242492676,22.84778015013321,22.16480826592502,91.79314642743998,80.08391751178256,0.0001295089750783,0.0977962836623191,0,0,0
7511,277380.52123426605,2010-12-16 17:39:56,4292.146527731702,2,26,0.5501165986061096,4.150115966796875,22.852367310143645,22.16480826592502,91.81217640940544,80.08391751178256,6.47544875391759e-05,0.0977962836623191,0,0,0
7512,277410.53633077926,2010-12-16 17:40:26,4322.161624244948,2,26,0.5501165986061096,4.153839588165283,22.8569544855553,22.16480826592502,91.83122241592294,80.08391751178256,9.71794142969884e-05,0.0977962836623191,0,0,0
7513,277440.5514817932,2010-12-16 17:40:56,4352.176775268843,2,26,0.550297200679779,4.157401084899902,22.86154173266486,22.16480826592502,91.85028475514446,80.08391751178256,0.0001295089750783,0.0977962836623191,0,0,0
7514,277470.56622906734,2010-12-16 17:41:26,4382.19152254302,2,26,0.5501165986061096,4.160638809204102,22.866128906206107,22.16480826592502,91.86936295059564,80.08391751178256,6.47544875391759e-05,0.0977962836623191,0,0,0
7515,277500.5812448346,2010-12-16 17:41:56,4412.206538290284,2,26,0.5501165986061096,4.164200305938721,22.870716199445976,22.16480826592502,91.88845796938412,80.08391751178256,3.24249267578125e-05,0.0977962836623191,0,0,0
7516,277530.5967045818,2010-12-16 17:42:26,4442.221998042436,2,26,0.5501165986061096,4.167923450469971,22.87530350735768,22.16480826592502,91.90756934500229,80.08391751178256,9.70840483205393e-05,0.0977962836623191,0,0,0
7517,277560.6131736807,2010-12-16 17:42:56,4472.238467236546,2,26,0.5501165986061096,4.171647071838379,22.87989086135145,22.16480826592502,91.9266974910191,80.08391751178256,9.71794142969884e-05,0.0977962836623191,0,0,0
7518,277590.6263099459,2010-12-16 17:43:26,4502.251603411566,2,26,0.5501165986061096,4.175208568572998,22.884477804403947,22.16480826592502,91.94584051729449,80.08391751178256,9.71794142969884e-05,0.0977962836623191,0,0,0
7519,277620.64130611945,2010-12-16 17:43:56,4532.266599675346,2,26,0.5501165986061096,4.178931713104248,22.889065000707447,22.16480826592502,91.96500132517,80.08391751178256,0.0001295089750783,0.0977962836623191,0,0,0
7520,277650.6563579816,2010-12-16 17:44:26,4562.281651432218,2,26,0.5501165986061096,4.182493209838867,22.89365220742605,22.16480826592502,91.98417902720723,80.08391751178256,9.70840483205393e-05,0.0977962836623191,0,0,0
7521,277680.6713143661,2010-12-16 17:44:56,4592.296607826785,2,26,0.5499359965324402,4.186054706573486,22.89823944610368,22.16480826592502,92.00337376123204,80.08391751178256,6.47544875391759e-05,0.0977962836623191,0,0,0
7522,277710.68644115975,2010-12-16 17:45:26,4622.311734605345,2,26,0.5501165986061096,4.189939975738525,22.90282663781294,22.16480826592502,92.02258533168651,80.08391751178256,9.70840483205393e-05,0.0977962836623191,0,0,0
7523,277740.7013277356,2010-12-16 17:45:56,4652.326621216257,2,26,0.550297200679779,4.1938252449035645,22.907413869019077,22.16480826592502,92.04181426126404,80.08391751178256,0.0001618385285837,0.0977962836623191,0,0,0
7524,277770.7165881015,2010-12-16 17:46:26,4682.3418816674575,2,26,0.5499359965324402,4.197386741638184,22.912000784530605,22.16480826592502,92.06105906803158,80.08391751178256,9.71794142969884e-05,0.0977962836623191,0,0,0
7525,277789.43471847405,2010-12-16 17:46:45,4701.060011949737,2,26,0.5504778623580933,4.200138568878174,22.914861024135025,22.16480826592502,92.0730682238251,80.08391751178256,0.0001618385285837,0.0977962836623191,0,0,0
7526,277819.44793318666,2010-12-16 17:47:15,30.01487750324847,3,26,0.0,4.105597496032715,22.914861024135025,22.16480826592502,92.0730682238251,80.08391751178256,-0.0004209518374409,0.0977962836623191,0,0,0
7527,277849.462928478,2010-12-16 17:47:45,60.02987276954576,3,26,0.0,4.093456268310547,22.914861024135025,22.16480826592502,92.0730682238251,80.08391751178256,-0.0002590179501567,0.0977962836623191,0,0,0
7528,277879.4779503705,2010-12-16 17:48:15,90.04489468716385,3,26,0.0,4.086333274841309,22.914861024135025,22.16480826592502,92.0730682238251,80.08391751178256,-0.0001295089750783,0.0977962836623191,0,0,0
7529,277909.446238102,2010-12-16 17:48:45,120.01318250878148,3,26,0.0,4.08147668838501,22.914861024135025,22.16480826592502,92.0730682238251,80.08391751178256,-0.0001295089750783,0.0977962836623191,0,0,0
7530,277909.4468951114,2010-12-16 17:48:45,2.656610874e-06,4,26,1.0141018629074097,4.199814796447754,22.91486102488338,22.16480826592502,92.07306822696803,80.08391751178256,0.0,0.0977962836623191,0,0,0
7531,277910.18196035293,2010-12-16 17:48:46,0.735068038542064,4,26,0.963531255722046,4.199976921081543,22.915061453644658,22.16480826592502,92.07391000005364,80.08391751178256,3.24249267578125e-05,0.0977962836623191,0,0,0
7532,277912.0718303818,2010-12-16 17:48:48,2.624937942109789,4,26,0.913321852684021,4.199814796447754,22.915553069586498,22.16480826592502,92.07597471081851,80.08391751178256,0.0,0.0977962836623191,0,0,0
7533,277914.97800505575,2010-12-16 17:48:51,5.53111261600984,4,26,0.8632931113243103,4.199814796447754,22.916269192180778,22.16480826592502,92.07898230489292,80.08391751178256,0.0,0.0977962836623191,0,0,0
7534,277918.97792519315,2010-12-16 17:48:55,9.531032758441198,4,26,0.8130837082862854,4.199976921081543,22.91719945455957,22.16480826592502,92.08288926015769,80.08391751178256,3.24249267578125e-05,0.0977962836623191,0,0,0
7535,277924.3215895013,2010-12-16 17:49:00,14.874697091608734,4,26,0.7626937627792358,4.199976921081543,22.91836781128174,22.16480826592502,92.08779619491308,80.08391751178256,3.24249267578125e-05,0.0977962836623191,0,0,0
7536,277931.1964627038,2010-12-16 17:49:07,21.749570269092704,4,26,0.7126649618148804,4.199976921081543,22.919774975202543,22.16480826592502,92.09370610656832,80.08391751178256,3.24249267578125e-05,0.0977962836623191,0,0,0
7537,277940.3837551527,2010-12-16 17:49:16,30.93686272300687,4,26,0.6626362204551697,4.200138568878174,22.921526959644947,22.16480826592502,92.10106421579668,80.08391751178256,3.23295607813634e-05,0.0977962836623191,0,0,0
7538,277952.8992377247,2010-12-16 17:49:29,43.45234530504756,4,26,0.6126074194908142,4.199653148651123,22.923739015658143,22.16480826592502,92.11035459306284,80.08391751178256,-3.23295607813634e-05,0.0977962836623191,0,0,0
7539,277971.74247360247,2010-12-16 17:49:47,62.29558116775206,4,26,0.5625786781311035,4.199653148651123,22.926805905742704,22.16480826592502,92.12323513470407,80.08391751178256,-3.23295607813634e-05,0.0977962836623191,0,0,0
7540,278003.9762030735,2010-12-16 17:50:20,94.52931065381932,4,26,0.512549877166748,4.199976921081543,22.931597916960765,22.16480826592502,92.1433609970195,80.08391751178256,3.24249267578125e-05,0.0977962836623191,0,0,0
7541,278065.0531991892,2010-12-16 17:51:21,155.60630675450062,4,26,0.4625211060047149,4.199814796447754,22.939826370803367,22.16480826592502,92.17791946133111,80.08391751178256,0.0,0.0977962836623191,0,0,0
7542,278165.64481234463,2010-12-16 17:53:01,256.1979198999048,4,26,0.4123117327690124,4.199653148651123,22.95201723264133,22.16480826592502,92.2291195603244,80.08391751178256,-6.47544875391759e-05,0.0977962836623191,0,0,0
7543,278295.8452252044,2010-12-16 17:55:11,386.3983327595979,4,26,0.3622829616069793,4.199653148651123,22.966008893357987,22.16480826592502,92.28788284351768,80.08391751178256,-6.47544875391759e-05,0.0977962836623191,0,0,0
7544,278451.3423337132,2010-12-16 17:57:47,541.8954413586888,4,26,0.3122541904449463,4.199814796447754,22.98056126616492,22.16480826592502,92.34900099024006,80.08391751178256,0.0,0.0977962836623191,0,0,0
7545,278640.26004203426,2010-12-16 18:00:56,730.8131496146179,4,26,0.2620448172092438,4.199814796447754,22.995609800958658,22.16480826592502,92.41220295438896,80.08391751178256,0.0,0.0977962836623191,0,0,0
7546,278872.39591865,2010-12-16 18:04:48,962.9490262352856,4,26,0.2118354439735412,4.199976921081543,23.010852470568885,22.16480826592502,92.47622024021038,80.08391751178256,3.24249267578125e-05,0.0977962836623191,0,0,0
7547,279176.96778061416,2010-12-16 18:09:53,1267.520888169406,4,26,0.1618066728115081,4.199814796447754,23.026582792591217,22.16480826592502,92.54228565927777,80.08391751178256,-3.24249267578125e-05,0.0977962836623191,0,0,0
7548,279623.0524186638,2010-12-16 18:17:19,1713.605526249166,4,26,0.1117779016494751,4.199976921081543,23.04333567776445,22.16480826592502,92.6126456476019,80.08391751178256,3.24249267578125e-05,0.0977962836623191,0,0,0
7549,280456.44174095395,2010-12-16 18:31:12,2546.994848534237,4,26,0.0615685209631919,4.199814796447754,23.06275025065835,22.16480826592502,92.69418439114136,80.08391751178256,-3.24249267578125e-05,0.0977962836623191,0,0,0
7550,280800.528304824,2010-12-16 18:36:56,2891.0814124093417,4,26,0.0498289167881011,4.199814796447754,23.06809543501853,22.16480826592502,92.71663351185428,80.08391751178256,0.0,0.0977962836623191,0,0,0
7551,280830.54079153074,2010-12-16 18:37:26,30.014978329149844,5,26,0.0,4.191235065460205,23.06809543501853,22.16480826592502,92.71663351185428,80.08391751178256,0.0,0.0977962836623191,0,0,0
7552,280860.540180757,2010-12-16 18:37:56,60.0143675253419,5,26,0.0,4.189778327941895,23.06809543501853,22.16480826592502,92.71663351185428,80.08391751178256,-3.23295607813634e-05,0.0977962836623191,0,0,0
7553,280860.7265598069,2010-12-16 18:37:57,0.187640857055827,6,26,-1.9243103452026844e-05,4.1896162033081055,23.06809543501853,22.16480826692802,92.71663351185428,80.08391751598474,0.0,0.0982391983270645,0,0,0
7554,280865.5544383319,2010-12-16 18:38:01,5.015519311903082,6,26,0.0008838032954372,4.189778327941895,23.068096529582697,22.164808267010983,92.71663809785072,80.08391751633233,-3.23295607813634e-05,0.0982391983270645,0,0,0
7555,280895.56665788096,2010-12-16 18:38:32,30.01336497939102,7,26,-1.099568486213684,3.99324893951416,23.068096529582697,22.173975491524416,92.71663809785072,80.12075055251671,-0.0010360240703448,0.0982391983270645,0,0,0
7556,280925.5814077666,2010-12-16 18:39:02,60.028114754793656,7,26,-1.099568486213684,3.961357355117798,23.068096529582697,22.183143422312327,92.71663809785072,80.15720380091874,-0.0007122993702068,0.0982391983270645,0,0,0
7557,280955.59655810386,2010-12-16 18:39:32,90.04326511704126,7,26,-1.0993878841400146,3.9390170574188232,23.068096529582697,22.19231101381509,92.71663809785072,80.19341206549853,-0.0005180359003134,0.0982391983270645,0,0,0
7558,280985.6114566445,2010-12-16 18:40:02,120.05816365262788,7,26,-1.099568486213684,3.921695232391357,23.068096529582697,22.2014782874074,92.71663809785072,80.22943882405467,-0.0003885269106831,0.0982391983270645,0,0,0
7559,281015.62647845177,2010-12-16 18:40:32,150.07318546498402,7,26,-1.099568486213684,3.90680193901062,23.068096529582697,22.21064554611742,92.71663809785072,80.26531937521702,-0.0003885269106831,0.0982391983270645,0,0,0
7560,281045.64161844325,2010-12-16 18:41:02,180.0883255215864,7,26,-1.099568486213684,3.8938510417938232,23.068096529582697,22.219812834587906,92.71663809785072,80.301073722144,-0.0003237724304199,0.0982391983270645,0,0,0
7561,281075.6564756409,2010-12-16 18:41:32,210.10318264913076,7,26,-1.099568486213684,3.881871461868286,23.068096529582697,22.22898007766144,92.71663809785072,80.33671399115323,-0.0003237724304199,0.0982391983270645,0,0,0
7562,281105.6714982403,2010-12-16 18:42:02,240.1182052534577,7,26,-1.099568486213684,3.870539426803589,23.068096529582697,22.23814735672861,92.71663809785072,80.3722477362004,-0.0003237724304199,0.0982391983270645,0,0,0
7563,281135.686492078,2010-12-16 18:42:32,270.1331990861875,7,26,-1.099568486213684,3.8596930503845215,23.068096529582697,22.24731462663451,92.71663809785072,80.40768032859411,-0.0002913951757363,0.0982391983270645,0,0,0
7564,281165.70149809105,2010-12-16 18:43:02,300.1482050992277,7,26,-1.099568486213684,3.849332332611084,23.068096529582697,22.256481875157707,92.71663809785072,80.44301603762045,-0.0002913951757363,0.0982391983270645,0,0,0
7565,281195.71650951257,2010-12-16 18:43:32,330.16321652072656,7,26,-1.099568486213684,3.8392953872680655,23.068096529582697,22.265649182161077,92.71663809785072,80.47825843599317,-0.0002913951757363,0.0982391983270645,0,0,0
7566,281225.73150507454,2010-12-16 18:44:02,360.17821207774733,7,26,-1.099568486213684,3.829582452774048,23.068096529582697,22.274816439875664,92.71663809785072,80.51341014120578,-0.0002590179501567,0.0982391983270645,0,0,0
7567,281255.7465644253,2010-12-16 18:44:32,390.1932714385413,7,26,-1.0993878841400146,3.82035493850708,23.068096529582697,22.28398375857299,92.71663809785072,80.5484743551753,-0.0001942634553415,0.0982391983270645,0,0,0
7568,281285.7615597167,2010-12-16 18:45:02,420.20826672488846,7,26,-1.0993878841400146,3.811127424240112,23.068096529582697,22.293151097366906,92.71663809785072,80.58345303024632,-0.0001618862152099,0.0982391983270645,0,0,0
7569,281315.77939275966,2010-12-16 18:45:32,450.22609985810846,7,26,-1.099568486213684,3.8020617961883545,23.068096529582697,22.302319270011097,92.71663809785072,80.61835169961019,-0.0002590179501567,0.0982391983270645,0,0,0
7570,281345.7917311094,2010-12-16 18:46:02,480.23843810250895,7,26,-1.099568486213684,3.7933199405670166,23.068096529582697,22.31148579558803,92.71663809785072,80.65316337780637,-0.0002266406954731,0.0982391983270645,0,0,0
7571,281375.8065856705,2010-12-16 18:46:32,510.25329266867936,7,26,-1.099568486213684,3.7847399711608887,23.068096529582697,22.320653112132,92.71663809785072,80.68789893703466,-0.0002590179501567,0.0982391983270645,0,0,0
7572,281405.821600706,2010-12-16 18:47:02,540.268307719209,7,26,-1.099568486213684,3.776645660400391,23.068096529582697,22.329820536419977,92.71663809785072,80.72255811772847,-0.0002266406954731,0.0982391983270645,0,0,0
7573,281435.83660664887,2010-12-16 18:47:32,570.283313657062,7,26,-1.0993878841400146,3.768713235855103,23.068096529582697,22.3389878671979,92.71663809785072,80.75714251059024,-0.0001942634553415,0.0982391983270645,0,0,0
7574,281465.85357847874,2010-12-16 18:48:02,600.3002856122736,7,26,-1.0993878841400146,3.760618925094605,23.068096529582697,22.348155801903108,92.71663809785072,80.79165667065533,-0.0002590179501567,0.0982391983270645,0,0,0
7575,281495.86663072,2010-12-16 18:48:32,630.3133377130783,7,26,-1.099568486213684,3.7531721591949454,23.068096529582697,22.357322587488344,92.71663809785072,80.82609537164987,-0.0001942634553415,0.0982391983270645,0,0,0
7576,281525.8816298459,2010-12-16 18:49:02,660.3283368540175,7,26,-1.099568486213684,3.745563745498657,23.068096529582697,22.366489957648778,92.71663809785072,80.86046674074404,-0.0001942634553415,0.0982391983270645,0,0,0
7577,281555.8966508913,2010-12-16 18:49:32,690.3433578844277,7,26,-1.0993878841400146,3.738440752029419,23.068096529582697,22.37565735610731,92.71663809785072,80.89477054091891,-0.0001618862152099,0.0982391983270645,0,0,0
7578,281585.91179824603,2010-12-16 18:50:02,720.3585052391913,7,26,-1.099568486213684,3.7309939861297607,23.068096529582697,22.38482484700632,92.71663809785072,80.92900821402966,-0.0002266406954731,0.0982391983270645,0,0,0
7579,281615.9266691579,2010-12-16 18:50:32,750.3733761660748,7,26,-1.0993878841400146,3.7241947650909424,23.068096529582697,22.393992180359263,92.71663809785072,80.96318043618275,-0.0001618862152099,0.0982391983270645,0,0,0
7580,281645.9418333646,2010-12-16 18:51:02,780.3885403727737,7,26,-1.0993878841400146,3.717233657836914,23.068096529582697,22.40315955584393,92.71663809785072,80.99728910980151,-0.0001618862152099,0.0982391983270645,0,0,0
7581,281675.9568568261,2010-12-16 18:51:32,810.4035639244582,7,26,-1.099568486213684,3.710434436798096,23.068096529582697,22.41232693134028,92.71663809785072,81.03133596905238,-0.0001942634553415,0.0982391983270645,0,0,0
7582,281705.97167443024,2010-12-16 18:52:02,840.4183814384256,7,26,-1.0993878841400146,3.7041208744049072,23.068096529582697,22.4214942168486,92.71663809785072,81.06532229170483,-0.0001942634553415,0.0982391983270645,0,0,0
7583,281735.98681580013,2010-12-16 18:52:32,870.4335228784705,7,26,-1.0997490882873535,3.697483539581299,23.068096529582697,22.43066160408108,92.71663809785072,81.09925010130053,-0.0001942634553415,0.0982391983270645,0,0,0
7584,281766.00167800527,2010-12-16 18:53:02,900.4483850184884,7,26,-1.099568486213684,3.69133186340332,23.068096529582697,22.439828911457045,92.71663809785072,81.13311918366333,-0.0001618862152099,0.0982391983270645,0,0,0
7585,281796.0167000332,2010-12-16 18:53:32,930.4634070463808,7,26,-1.099568486213684,3.685018301010132,23.068096529582697,22.44899623463961,92.71663809785072,81.16693033605598,-0.0001942634553415,0.0982391983270645,0,0,0
7586,281826.03172552475,2010-12-16 18:54:02,960.4784326130796,7,26,-1.0993878841400146,3.6790285110473633,23.068096529582697,22.458163627283422,92.71663809785072,81.20068499396906,-0.0001295089750783,0.0982391983270645,0,0,0
7587,281856.0471100597,2010-12-16 18:54:32,990.493817117982,7,26,-1.099568486213684,3.6728768348693848,23.068096529582697,22.467331086726112,92.71663809785072,81.23438426909848,-0.0001618862152099,0.0982391983270645,0,0,0
7588,281886.06174952054,2010-12-16 18:55:02,1020.508456533759,7,26,-1.0992072820663452,3.6668872833251953,23.068096529582697,22.476498375548243,92.71663809785072,81.26802742995605,-0.0001618862152099,0.0982391983270645,0,0,0
7589,281916.0768506603,2010-12-16 18:55:32,1050.5235577186306,7,26,-1.099568486213684,3.6610593795776367,23.068096529582697,22.485665789995075,92.71663809785072,81.30161698988671,-0.0001618862152099,0.0982391983270645,0,0,0
7590,281946.09177565173,2010-12-16 18:56:02,1080.5384826448894,7,26,-1.099568486213684,3.655393362045288,23.068096529582697,22.49483315148785,92.71663809785072,81.3351530725518,-0.0001618862152099,0.0982391983270645,0,0,0
7591,281976.10674884816,2010-12-16 18:56:32,1110.553455846279,7,26,-1.0997490882873535,3.6495654582977295,23.068096529582697,22.504000496137667,92.71663809785072,81.36863707490892,-0.0001618862152099,0.0982391983270645,0,0,0
7592,282006.1217836277,2010-12-16 18:57:02,1140.5684906208912,7,26,-1.099568486213684,3.643899440765381,23.068096529582697,22.51316780154903,92.71663809785072,81.40206880518697,-0.0001618862152099,0.0982391983270645,0,0,0
7593,282036.13676298945,2010-12-16 18:57:32,1170.5834699826105,7,26,-1.0993878841400146,3.638557195663452,23.068096529582697,22.522335100110546,92.71663809785072,81.43544926603728,-0.0001295089750783,0.0982391983270645,0,0,0
7594,282066.1536637024,2010-12-16 18:58:02,1200.6003708208505,7,26,-1.099568486213684,3.6330530643463135,23.068096529582697,22.53150298018504,92.71663809785072,81.46878226374591,-0.0001618862152099,0.0982391983270645,0,0,0
7595,282096.16694444715,2010-12-16 18:58:32,1230.613651460365,7,26,-1.099568486213684,3.6278727054595943,23.068096529582697,22.54066978712727,92.71663809785072,81.50206235341075,-9.713172767078504e-05,0.0982391983270645,0,0,0
7596,282126.181794457,2010-12-16 18:59:02,1260.6285014651846,7,26,-1.0993878841400146,3.622692346572876,23.068096529582697,22.54983703300894,92.71663809785072,81.53529625738464,-0.0001618862152099,0.0982391983270645,0,0,0
7597,282156.1967752774,2010-12-16 18:59:32,1290.6434822704962,7,26,-1.0997490882873535,3.617511987686157,23.068096529582697,22.55900436795784,92.71663809785072,81.56848313981229,-0.0001618862152099,0.0982391983270645,0,0,0
7598,282186.211802037,2010-12-16 19:00:02,1320.6585090452008,7,26,-1.0993878841400146,3.6126554012298575,23.068096529582697,22.568171684944872,92.71663809785072,81.60162334861768,-0.0001618862152099,0.0982391983270645,0,0,0
7599,282216.2268045764,2010-12-16 19:00:32,1350.673511584597,7,26,-1.099568486213684,3.6076369285583496,23.068096529582697,22.577339040970863,92.71663809785072,81.63471854709789,-0.0001618862152099,0.0982391983270645,0,0,0
7600,282246.24180686014,2010-12-16 19:01:02,1380.6885138733694,7,26,-1.099568486213684,3.602780342102051,23.068096529582697,22.586506423594077,92.71663809785072,81.66776946552058,-0.0001618862152099,0.0982391983270645,0,0,0
7601,282276.2570245801,2010-12-16 19:01:32,1410.703731593234,7,26,-1.099568486213684,3.598247528076172,23.068096529582697,22.595673835546812,92.71663809785072,81.70077698359856,-0.0001295089750783,0.0982391983270645,0,0,0
7602,282306.27198838803,2010-12-16 19:02:02,1440.7186954012486,7,26,-1.099568486213684,3.593552827835083,23.068096529582697,22.604841094049046,92.71663809785072,81.73374125375294,-9.713172767078504e-05,0.0982391983270645,0,0,0
7603,282336.28696397034,2010-12-16 19:02:32,1470.733670983563,7,26,-1.0993878841400146,3.589344024658203,23.068096529582697,22.61400843653305,92.71663809785072,81.76666459061258,-9.713172767078504e-05,0.0982391983270645,0,0,0
7604,282366.3018503608,2010-12-16 19:03:02,1500.7485573739268,7,26,-1.099568486213684,3.584811210632324,23.068096529582697,22.62317582655791,92.71663809785072,81.79954844159604,-9.713172767078504e-05,0.0982391983270645,0,0,0
7605,282396.3168903032,2010-12-16 19:03:32,1530.7635974016112,7,26,-1.099568486213684,3.580602169036865,23.068096529582697,22.63234318808209,92.71663809785072,81.83239322970293,-0.0001618862152099,0.0982391983270645,0,0,0
7606,282426.33189447667,2010-12-16 19:04:02,1560.7786014698115,7,26,-1.0993878841400146,3.576716899871826,23.068096529582697,22.64151054441615,92.71663809785072,81.8652000324691,-9.713172767078504e-05,0.0982391983270645,0,0,0
7607,282456.3468841741,2010-12-16 19:04:32,1590.793591167251,7,26,-1.0993878841400146,3.572669744491577,23.068096529582697,22.65067787061261,92.71663809785072,81.89797014647581,-0.0001295089750783,0.0982391983270645,0,0,0
7608,282486.3620192383,2010-12-16 19:05:02,1620.8087262464671,7,26,-1.0992072820663452,3.568784475326538,23.068096529582697,22.659845316169992,92.71663809785072,81.93070476197832,-0.0001295089750783,0.0982391983270645,0,0,0
7609,282516.3770390406,2010-12-16 19:05:32,1650.823746118996,7,26,-1.099568486213684,3.565061092376709,23.068096529582697,22.669012687928088,92.71663809785072,81.96340392710452,-3.237724376958795e-05,0.0982391983270645,0,0,0
7610,282546.39193760126,2010-12-16 19:06:02,1680.8386446094703,7,26,-1.099568486213684,3.56149959564209,23.068096529582697,22.67817997272599,92.71663809785072,81.99606920866226,-0.0001295089750783,0.0982391983270645,0,0,0
7611,282576.40692130383,2010-12-16 19:06:32,1710.8536283119918,7,26,-1.099568486213684,3.5579380989074707,23.068096529582697,22.68734730327119,92.71663809785072,82.02870168086534,-9.713172767078504e-05,0.0982391983270645,0,0,0
7612,282606.42193190823,2010-12-16 19:07:02,1740.8686389164577,7,26,-1.099568486213684,3.5542147159576416,23.068096529582697,22.69651471154977,92.71663809785072,82.06130163268591,-9.713172767078504e-05,0.0982391983270645,0,0,0
7613,282636.4369405779,2010-12-16 19:07:32,1770.883647591121,7,26,-1.0997490882873535,3.5506532192230225,23.068096529582697,22.705682107533537,92.71663809785072,82.09386907978785,-0.0001295089750783,0.0982391983270645,0,0,0
7614,282666.45383312553,2010-12-16 19:08:03,1800.9005402089044,7,26,-1.099568486213684,3.5472536087036133,23.068096529582697,22.71485009524829,92.71663809785072,82.12640664347076,-9.713172767078504e-05,0.0982391983270645,0,0,0
7615,282696.4670930435,2010-12-16 19:08:33,1830.913800126854,7,26,-1.0993878841400146,3.543853998184204,23.068096529582697,22.724016932129217,92.71663809785072,82.15890816050398,-9.713172767078504e-05,0.0982391983270645,0,0,0
7616,282726.48212450487,2010-12-16 19:09:03,1860.9288315832089,7,26,-1.0993878841400146,3.540292501449585,23.068096529582697,22.73318431203105,92.71663809785072,82.19137921491428,-9.713172767078504e-05,0.0982391983270645,0,0,0
7617,282756.49710769614,2010-12-16 19:09:33,1890.9438147594203,7,26,-1.0993878841400146,3.536569118499756,23.068096529582697,22.74235173404656,92.71663809785072,82.22381777991889,-9.713172767078504e-05,0.0982391983270645,0,0,0
7618,282786.5119892745,2010-12-16 19:10:03,1920.95869627766,7,26,-1.099568486213684,3.5330076217651367,23.068096529582697,22.7515191069902,92.71663809785072,82.25622355393028,-0.0001295089750783,0.0982391983270645,0,0,0
7619,282816.5271533859,2010-12-16 19:10:33,1950.9738604693216,7,26,-1.099568486213684,3.5294461250305176,23.068096529582697,22.760686510740907,92.71663809785072,82.28859697980997,-0.0001295089750783,0.0982391983270645,0,0,0
7620,282846.5419800427,2010-12-16 19:11:03,1980.9886870508533,7,26,-1.0997490882873535,3.5260465145111084,23.068096529582697,22.769853775139776,92.71663809785072,82.32093782685095,-0.0001295089750783,0.0982391983270645,0,0,0
7621,282876.55700547906,2010-12-16 19:11:33,2011.003712477203,7,26,-1.0992072820663452,3.5224850177764893,23.068096529582697,22.77902113769673,92.71663809785072,82.35324585178778,-6.47544875391759e-05,0.0982391983270645,0,0,0
7622,282906.5720087503,2010-12-16 19:12:03,2041.018715743408,7,26,-1.099568486213684,3.51876163482666,23.068096529582697,22.788188365867484,92.71663809785072,82.38551973988962,-9.713172767078504e-05,0.0982391983270645,0,0,0
7623,282936.5870405876,2010-12-16 19:12:33,2071.0337476007603,7,26,-1.0993878841400146,3.515038251876831,23.068096529582697,22.797355705381552,92.71663809785072,82.41775979592666,-9.713172767078504e-05,0.0982391983270645,0,0,0
7624,282966.60214397294,2010-12-16 19:13:03,2101.0488509810957,7,26,-1.0997490882873535,3.511153221130371,23.068096529582697,22.806523078735957,92.71663809785072,82.44996525135029,-6.47544875391759e-05,0.0982391983270645,0,0,0
7625,282996.6170416714,2010-12-16 19:13:33,2131.063748664561,7,26,-1.099568486213684,3.507267951965332,23.068096529582697,22.815690405401597,92.71663809785072,82.48213517314488,-9.713172767078504e-05,0.0982391983270645,0,0,0
7626,283026.6320279102,2010-12-16 19:14:03,2161.078734923444,7,26,-1.0993878841400146,3.503382682800293,23.068096529582697,22.824857677890684,92.71663809785072,82.51426870306794,-9.713172767078504e-05,0.0982391983270645,0,0,0
7627,283056.6470283745,2010-12-16 19:14:33,2191.0937353826635,7,26,-1.099568486213684,3.498849868774414,23.068096529582697,22.83402499627896,92.71663809785072,82.54636473300282,-0.0001618862152099,0.0982391983270645,0,0,0
7628,283086.66203445767,2010-12-16 19:15:03,2221.108741470891,7,26,-1.099568486213684,3.494964599609375,23.068096529582697,22.843192359945107,92.71663809785072,82.57842273026395,-6.47544875391759e-05,0.0982391983270645,0,0,0
7629,283116.6770532726,2010-12-16 19:15:33,2251.123760280776,7,26,-1.099568486213684,3.490431785583496,23.068096529582697,22.852359677486277,92.71663809785072,82.61044136158561,-0.0001295089750783,0.0982391983270645,0,0,0
7630,283146.6920822378,2010-12-16 19:16:03,2281.1387892459315,7,26,-1.099568486213684,3.4857370853424072,23.068096529582697,22.861526905519447,92.71663809785072,82.64241783203424,-0.0001295089750783,0.0982391983270645,0,0,0
7631,283176.70707557927,2010-12-16 19:16:33,2311.153782592451,7,26,-1.099568486213684,3.4805567264556885,23.068096529582697,22.870694253156483,92.71663809785072,82.67435036457151,-0.0002266406954731,0.0982391983270645,0,0,0
7632,283206.7220828905,2010-12-16 19:17:03,2341.1687898987093,7,26,-1.0993878841400146,3.4753763675689697,23.068096529582697,22.87986147965903,92.71663809785072,82.70623426646956,-0.0001295089750783,0.0982391983270645,0,0,0
7633,283236.739941041,2010-12-16 19:17:33,2371.186648139408,7,26,-1.099568486213684,3.469548463821411,23.068096529582697,22.889029608842577,92.71663809785072,82.73807022531916,-9.713172767078504e-05,0.0982391983270645,0,0,0
7634,283266.7540803974,2010-12-16 19:18:03,2401.2007875008194,7,26,-1.0993878841400146,3.4629111289978027,23.068096529582697,22.89819660989573,92.71663809785072,82.7698458576897,-0.0001942634553415,0.0982391983270645,0,0,0
7635,283296.76711737056,2010-12-16 19:18:33,2431.2138243687177,7,26,-1.0993878841400146,3.4557881355285645,23.068096529582697,22.907363226086453,92.71663809785072,82.8015576322932,-0.0001942634553415,0.0982391983270645,0,0,0
7636,283326.78211773955,2010-12-16 19:19:03,2461.2288247477377,7,26,-1.099568486213684,3.4476938247680664,23.068096529582697,22.916530452336964,92.71663809785072,82.8332023083003,-0.0002590179501567,0.0982391983270645,0,0,0
7637,283356.79719223804,2010-12-16 19:19:33,2491.243899231164,7,26,-1.0993878841400146,3.4386281967163086,23.068096529582697,22.925697738013668,92.71663809785072,82.8647680711753,-0.0002266406954731,0.0982391983270645,0,0,0
7638,283386.8122796436,2010-12-16 19:20:03,2521.2589866517837,7,26,-1.0993878841400146,3.4277820587158203,23.068096529582697,22.934865048387586,92.71663809785072,82.89624204766226,-0.0003237724304199,0.0982391983270645,0,0,0
7639,283416.8271667057,2010-12-16 19:20:33,2551.273873794018,7,26,-1.0993878841400146,3.4149930477142334,23.068096529582697,22.944032300909537,92.71663809785072,82.9276076054006,-0.0003237724304199,0.0982391983270645,0,0,0
7640,283446.84215510485,2010-12-16 19:21:03,2581.28886211804,7,26,-1.0993878841400146,3.399613857269287,23.068096529582697,22.95319956340453,92.71663809785072,82.95884480521963,-0.0004856586456298,0.0982391983270645,0,0,0
7641,283476.8571602958,2010-12-16 19:21:33,2611.303867304022,7,26,-1.099568486213684,3.3809969425201416,23.068096529582697,22.962366812390787,92.71663809785072,82.98992729222977,-0.0005180359003134,0.0982391983270645,0,0,0
7642,283506.8722023235,2010-12-16 19:22:03,2641.3189093316832,7,26,-1.099568486213684,3.357847213745117,23.068096529582697,22.971534192657472,92.71663809785072,83.02081936179171,-0.0006475448608398,0.0982391983270645,0,0,0
7643,283536.88719334925,2010-12-16 19:22:33,2671.3339003423903,7,26,-1.099568486213684,3.3283841609954834,23.068096529582697,22.980701502134984,92.71663809785072,83.05147200599922,-0.0008741855854168,0.0982391983270645,0,0,0
7644,283566.90222948726,2010-12-16 19:23:03,2701.3489365004457,7,26,-1.0993878841400146,3.2906646728515625,23.068096529582697,22.989868762720203,92.71663809785072,83.08181834843053,-0.0011008263099938,0.0982391983270645,0,0,0
7645,283596.9173351282,2010-12-16 19:23:33,2731.3640421313808,7,26,-1.099568486213684,3.239670753479004,23.068096529582697,22.999036042892133,92.71663809785072,83.11176144069465,-0.0015217304462566,0.0982391983270645,0,0,0
7646,283626.93221842585,2010-12-16 19:24:03,2761.378925434061,7,26,-1.099568486213684,3.1705455780029297,23.068096529582697,23.008203304162677,92.71663809785072,83.1411610287496,-0.0021368979942053,0.0982391983270645,0,0,0
7647,283656.94735126453,2010-12-16 19:24:33,2791.3940582727014,7,26,-1.0997490882873535,3.0719571113586426,23.068096529582697,23.017370639081143,92.71663809785072,83.16980365427922,-0.0030758380889892,0.0982391983270645,0,0,0
7648,283686.96235174383,2010-12-16 19:25:03,2821.409058756984,7,26,-1.099568486213684,2.917194366455078,23.068096529582697,23.02653797511873,92.71663809785072,83.19731726738341,-0.0050832270644605,0.0982391983270645,0,0,0
7649,283712.2742098141,2010-12-16 19:25:28,2846.720916827259,7,26,-1.099568486213684,2.7171034812927246,23.068096529582697,23.03426878417661,92.71663809785072,83.21913424246189,-0.0069611072540283,0.0982391983270645,0,0,0
7650,283714.2585673164,2010-12-16 19:25:30,2848.705274324569,7,26,-1.099568486213684,2.699781894683838,23.068096529582697,23.034874841660606,92.71663809785072,83.22077576913739,-0.006961059756577,0.0982391983270645,0,0,0
7651,283774.2677676752,2010-12-16 19:26:30,60.01439984075758,8,26,0.0,3.4596734046936035,23.068096529582697,23.034874841660606,92.71663809785072,83.22077576913739,0.0012950897216796,0.0982391983270645,0,0,0
7652,283774.45143893216,2010-12-16 19:26:31,0.187646400851349,9,26,-1.9243103452026844e-05,3.4599971771240234,23.068096529582697,23.034874842663637,92.71663809785072,83.22077577260785,0.0,0.096440702676773,0,0,0
7653,283779.27930345736,2010-12-16 19:26:36,5.015510850848072,9,26,0.0007031940040178,3.4679296016693115,23.068097569396503,23.03487484276117,92.71664170045948,83.22077577294533,0.0011332035064697,0.096440702676773,0,0,0
