Data_Point,Test_Time(s),Date_Time,Step_Time(s),Step_Index,Cycle_Index,Current(A),Voltage(V),Charge_Capacity(Ah),Discharge_Capacity(Ah),Charge_Energy(Wh),Discharge_Energy(Wh),dV/dt(V/s),Internal_Resistance(Ohm),Is_FC_Data,AC_Impedance(Ohm),ACI_Phase_Angle(Deg)
2667,98813.32419009824,2010-12-14 16:03:28,30.01500502558289,1,10,0.0,3.4761857986450195,8.045599357666916,8.030403552892896,32.3460992786886,29.00597991902912,0.0007446765666827,0.0977081730961799,0,0,0
2668,98843.33922176008,2010-12-14 16:03:58,60.03003668243668,1,10,0.0,3.499659299850464,8.045599357666916,8.030403552892896,32.3460992786886,29.00597991902912,0.0004856586456298,0.0977081730961799,0,0,0
2669,98873.354216455,2010-12-14 16:04:28,90.04503138232448,1,10,0.0,3.5173046588897705,8.045599357666916,8.030403552892896,32.3460992786886,29.00597991902912,0.0003885269106831,0.0977081730961799,0,0,0
2670,98903.32234759167,2010-12-14 16:04:58,120.01316251402528,1,10,0.0,3.531226873397827,8.045599357666916,8.030403552892896,32.3460992786886,29.00597991902912,0.0003237724304199,0.0977081730961799,0,0,0
2671,98933.33574350772,2010-12-14 16:05:28,30.01501517082895,2,10,0.5501165986061096,3.678704738616944,8.050186528901955,8.030403552892896,32.36284443423846,29.00597991902912,0.0011979580158367,0.0977081730961799,0,0,0
2672,98963.35096883152,2010-12-14 16:05:58,60.03024061992728,2,10,0.550297200679779,3.7152910232543945,8.054773665554343,8.030403552892896,32.37980933639806,29.00597991902912,0.0008094310760498,0.0977081730961799,0,0,0
2673,98993.36577663632,2010-12-14 16:06:28,90.04504838964654,2,10,0.5501165986061096,3.740869045257568,8.05936076743362,8.030403552892896,32.39691374308789,29.00597991902912,0.0005827903514727,0.0977081730961799,0,0,0
2674,99023.38076336136,2010-12-14 16:06:58,120.0600350495271,2,10,0.5501165986061096,3.760133266448975,8.063947877016618,8.030403552892896,32.41412048434683,29.00597991902912,0.0004209041653666,0.0977081730961799,0,0,0
2675,99053.39580405572,2010-12-14 16:07:28,150.07507581404494,2,10,0.550297200679779,3.774217367172241,8.068534960867437,8.030403552892896,32.43140258962079,29.00597991902912,0.0003885269106831,0.0977081730961799,0,0,0
2676,99083.4107873823,2010-12-14 16:07:58,180.0900590704561,2,10,0.550297200679779,3.783282995223999,8.073122096390202,8.030403552892896,32.44873717040028,29.00597991902912,0.0002266406954731,0.0977081730961799,0,0,0
2677,99113.42579535522,2010-12-14 16:08:28,210.1050670433733,2,10,0.550297200679779,3.789920330047608,8.077709199640928,8.030403552892896,32.46610722852818,29.00597991902912,0.0001295089750783,0.0977081730961799,0,0,0
2678,99143.44080489704,2010-12-14 16:08:58,240.1200765902072,2,10,0.5501165986061096,3.795424461364746,8.08229625135441,8.030403552892896,32.48350456683301,29.00597991902912,0.0001295089750783,0.0977081730961799,0,0,0
2679,99173.45595355004,2010-12-14 16:09:28,270.13522523818887,2,10,0.550297200679779,3.800604820251465,8.086883341148184,8.030403552892896,32.50092641570022,29.00597991902912,0.0001295089750783,0.0977081730961799,0,0,0
2680,99203.470971192,2010-12-14 16:09:58,300.1502428551048,2,10,0.5501165986061096,3.805461406707764,8.09147046734465,8.030403552892896,32.51837110192835,29.00597991902912,0.0001295089750783,0.0977081730961799,0,0,0
2681,99233.48583651996,2010-12-14 16:10:28,330.1651082131304,2,10,0.5504778623580933,3.810156106948853,8.09605756576577,8.030403552892896,32.5358374298676,29.00597991902912,0.0001295089750783,0.0977081730961799,0,0,0
2682,99263.50097902265,2010-12-14 16:10:58,360.1802506857449,2,10,0.5501165986061096,3.814365148544312,8.100644684729764,8.030403552892896,32.55332475682901,29.00597991902912,9.713172767078504e-05,0.0977081730961799,0,0,0
2683,99293.51589203926,2010-12-14 16:11:28,390.1951638226664,2,10,0.5501165986061096,3.818736076354981,8.105231710807827,8.030403552892896,32.57083185374158,29.00597991902912,0.0001618862152099,0.0977081730961799,0,0,0
2684,99323.53088282442,2010-12-14 16:11:58,420.2101546028,2,10,0.550297200679779,3.8231070041656494,8.10981879943895,8.030403552892896,32.58835856564539,29.00597991902912,0.0001618862152099,0.0977081730961799,0,0,0
2685,99353.54600656542,2010-12-14 16:12:28,450.2252782285148,2,10,0.550297200679779,3.8271541595458975,8.114405838530876,8.030403552892896,32.60590386902715,29.00597991902912,0.0001618862152099,0.0977081730961799,0,0,0
2686,99383.56110485808,2010-12-14 16:12:58,480.2403766164263,2,10,0.5501165986061096,3.8310394287109375,8.118992923092895,8.030403552892896,32.62346776676818,29.00597991902912,0.0001295089750783,0.0977081730961799,0,0,0
2687,99413.57594796576,2010-12-14 16:13:28,510.2552196488956,2,10,0.5501165986061096,3.8349244594573975,8.123579986891057,8.030403552892896,32.64104957952528,29.00597991902912,9.713172767078504e-05,0.0977081730961799,0,0,0
2688,99443.59106705518,2010-12-14 16:13:58,540.2703387984716,2,10,0.550297200679779,3.8386478424072266,8.128167040796042,8.030403552892896,32.65864917057058,29.00597991902912,6.47544875391759e-05,0.0977081730961799,0,0,0
2689,99473.60593359113,2010-12-14 16:14:28,570.2852052792912,2,10,0.550297200679779,3.8425331115722656,8.132754061888214,8.030403552892896,32.67626641195969,29.00597991902912,0.0001295089750783,0.0977081730961799,0,0,0
2690,99503.62093932347,2010-12-14 16:14:58,600.300210991583,2,10,0.5501165986061096,3.846580266952514,8.137341147759361,8.030403552892896,32.693901431442384,29.00597991902912,0.0001295089750783,0.0977081730961799,0,0,0
2691,99533.63596171729,2010-12-14 16:15:28,630.3152333803735,2,10,0.550297200679779,3.8504655361175537,8.14192829284988,8.030403552892896,32.71155439436512,29.00597991902912,0.0001618862152099,0.0977081730961799,0,0,0
2692,99563.65096778044,2010-12-14 16:15:58,660.3302394435384,2,10,0.550297200679779,3.854027032852173,8.146515441626335,8.030403552892896,32.72922494175283,29.00597991902912,0.0001295089750783,0.0977081730961799,0,0,0
2693,99593.66599793357,2010-12-14 16:16:28,690.3452696217125,2,10,0.550297200679779,3.857912302017212,8.15110250263709,8.030403552892896,32.746912631361006,29.00597991902912,9.713172767078504e-05,0.0977081730961799,0,0,0
2694,99623.68102857788,2010-12-14 16:16:58,720.3603004063959,2,10,0.5501165986061096,3.861635684967041,8.155689553313584,8.030403552892896,32.7646176651488,29.00597991902912,9.713172767078504e-05,0.0977081730961799,0,0,0
2695,99653.6961575068,2010-12-14 16:17:28,750.3754291999708,2,10,0.5499359965324402,3.86535906791687,8.160276665837499,8.030403552892896,32.782340045147606,29.00597991902912,9.713172767078504e-05,0.0977081730961799,0,0,0
2696,99683.69624994298,2010-12-14 16:17:58,780.3755217213604,2,10,0.5501165986061096,3.868920564651489,8.164861418011451,8.030403552892896,32.80007016424991,29.00597991902912,9.713172767078504e-05,0.0977081730961799,0,0,0
2697,99713.7104034145,2010-12-14 16:18:28,810.3896751026592,2,10,0.5499359965324402,3.872482061386109,8.169448398074698,8.030403552892896,32.8178254557898,29.00597991902912,6.47544875391759e-05,0.0977081730961799,0,0,0
2698,99743.72541191372,2010-12-14 16:18:58,840.4046835768238,2,10,0.5501165986061096,3.876043558120728,8.17403550869116,8.030403552892896,32.83559734510414,29.00597991902912,0.0001295089750783,0.0977081730961799,0,0,0
2699,99773.74057006536,2010-12-14 16:19:28,870.419841728455,2,10,0.5499359965324402,3.879281282424927,8.178622584242202,8.030403552892896,32.853384741782364,29.00597991902912,6.47544875391759e-05,0.0977081730961799,0,0,0
2700,99803.75547051572,2010-12-14 16:19:59,900.4347422991059,2,10,0.550297200679779,3.882680892944336,8.183209686058188,8.030403552892896,32.871187350545505,29.00597991902912,9.713172767078504e-05,0.0977081730961799,0,0,0
2701,99833.77057934964,2010-12-14 16:20:29,930.4498510127124,2,10,0.5499359965324402,3.8855948448181152,8.187796779101037,8.030403552892896,32.88900443442993,29.00597991902912,6.47544875391759e-05,0.0977081730961799,0,0,0
2702,99863.78557736776,2010-12-14 16:20:59,960.4648490308576,2,10,0.550297200679779,3.8888325691223145,8.192383841650681,8.030403552892896,32.906835357010195,29.00597991902912,9.713172767078504e-05,0.0977081730961799,0,0,0
2703,99893.80046151254,2010-12-14 16:21:29,990.479733185658,2,10,0.5501165986061096,3.891422748565674,8.196970930950393,8.030403552892896,32.9246796983686,29.00597991902912,9.713172767078504e-05,0.0977081730961799,0,0,0
2704,99923.8154852898,2010-12-14 16:21:59,1020.494756962904,2,10,0.5501165986061096,3.894174814224243,8.201558057745798,8.030403552892896,32.94253679238449,29.00597991902912,3.237724376958795e-05,0.0977081730961799,0,0,0
2705,99953.83062263462,2010-12-14 16:22:29,1050.5098943077585,2,10,0.5501165986061096,3.8966031074523926,8.206145242712163,8.030403552892896,32.96040562453437,29.00597991902912,6.47544875391759e-05,0.0977081730961799,0,0,0
2706,99983.8455273857,2010-12-14 16:22:59,1080.5247990688367,2,10,0.5501165986061096,3.899031400680542,8.21073229701871,8.030403552892896,32.97828521403012,29.00597991902912,9.713172767078504e-05,0.0977081730961799,0,0,0
2707,100013.86051065211,2010-12-14 16:23:29,1110.5397823152227,2,10,0.550297200679779,3.9012978076934814,8.215319423531016,8.030403552892896,32.99617573695585,29.00597991902912,6.47544875391759e-05,0.0977081730961799,0,0,0
2708,100043.8756558816,2010-12-14 16:23:59,1140.5549275547226,2,10,0.5499359965324402,3.903240442276001,8.219906551057257,8.030403552892896,33.01407634242245,29.00597991902912,6.47544875391759e-05,0.0977081730961799,0,0,0
2709,100073.89059717358,2010-12-14 16:24:29,1170.5698689269066,2,10,0.550297200679779,3.9053449630737305,8.224493610371605,8.030403552892896,33.03198624369984,29.00597991902912,0.0,0.0977081730961799,0,0,0
2710,100103.90553985402,2010-12-14 16:24:59,1200.5848115421838,2,10,0.5501165986061096,3.90744948387146,8.229080654024525,8.030403552892896,33.04990527224773,29.00597991902912,6.47544875391759e-05,0.0977081730961799,0,0,0
2711,100133.9205539522,2010-12-14 16:25:29,1230.5998256403434,2,10,0.5501165986061096,3.9092302322387695,8.233667741506311,8.030403552892896,33.06783330435518,29.00597991902912,0.0,0.0977081730961799,0,0,0
2712,100163.93557520816,2010-12-14 16:25:59,1260.6148469664895,2,10,0.5501165986061096,3.911172866821289,8.238254827194977,8.030403552892896,33.085769927482524,29.00597991902912,9.713172767078504e-05,0.0977081730961799,0,0,0
2713,100193.95066063885,2010-12-14 16:26:29,1290.629932412195,2,10,0.5501165986061096,3.912953615188599,8.242841947016528,8.030403552892896,33.10371501767361,29.00597991902912,3.237724376958795e-05,0.0977081730961799,0,0,0
2714,100223.96557792606,2010-12-14 16:26:59,1320.64484958917,2,10,0.5504778623580933,3.914896011352539,8.247429051860248,8.030403552892896,33.12166822831919,29.00597991902912,6.47544875391759e-05,0.0977081730961799,0,0,0
2715,100253.9805821647,2010-12-14 16:27:29,1350.6598538277944,2,10,0.550297200679779,3.916514873504639,8.252016146071568,8.030403552892896,33.139629275632764,29.00597991902912,3.237724376958795e-05,0.0977081730961799,0,0,0
2716,100283.99574032635,2010-12-14 16:27:59,1380.6750119994756,2,10,0.5501165986061096,3.918295621871948,8.256603245108474,8.030403552892896,33.15759826167641,29.00597991902912,9.713172767078504e-05,0.0977081730961799,0,0,0
2717,100314.01060377964,2010-12-14 16:28:29,1410.6898754677986,2,10,0.550297200679779,3.919914484024048,8.261190302609062,8.030403552892896,33.175574872602496,29.00597991902912,6.47544875391759e-05,0.0977081730961799,0,0,0
2718,100344.02561183277,2010-12-14 16:28:59,1440.704883505878,2,10,0.5499359965324402,3.921533346176148,8.26577734300537,8.030403552892896,33.19355916384802,29.00597991902912,3.237724376958795e-05,0.0977081730961799,0,0,0
2719,100374.04137155638,2010-12-14 16:29:29,1470.7206432896478,2,10,0.5501165986061096,3.923152208328247,8.27036457112929,8.030403552892896,33.211551926414806,29.00597991902912,3.237724376958795e-05,0.0977081730961799,0,0,0
2720,100404.05570422382,2010-12-14 16:29:59,1500.734975977143,2,10,0.550297200679779,3.9249329566955566,8.274951574103394,8.030403552892896,33.22955150958535,29.00597991902912,6.47544875391759e-05,0.0977081730961799,0,0,0
2721,100434.07080034607,2010-12-14 16:30:29,1530.7500720743542,2,10,0.550297200679779,3.926551818847656,8.27953879960985,8.030403552892896,33.24755965425994,29.00597991902912,6.47544875391759e-05,0.0977081730961799,0,0,0
2722,100464.08564643117,2010-12-14 16:30:59,1560.76491811932,2,10,0.5501165986061096,3.928170680999756,8.284125890479801,8.030403552892896,33.26557494166893,29.00597991902912,6.47544875391759e-05,0.0977081730961799,0,0,0
2723,100494.10078207176,2010-12-14 16:31:29,1590.7800537599337,2,10,0.5501165986061096,3.9299514293670654,8.288712969926378,8.030403552892896,33.28359782042017,29.00597991902912,3.237724376958795e-05,0.0977081730961799,0,0,0
2724,100524.11592980748,2010-12-14 16:31:59,1620.7952014806076,2,10,0.5504778623580933,3.931570291519165,8.293300142302963,8.030403552892896,33.30162869545406,29.00597991902912,3.237724376958795e-05,0.0977081730961799,0,0,0
2725,100554.1306827658,2010-12-14 16:32:29,1650.8099544589809,2,10,0.550297200679779,3.9333510398864746,8.297887228060272,8.030403552892896,33.31966690819468,29.00597991902912,6.47544875391759e-05,0.0977081730961799,0,0,0
2726,100584.14581255184,2010-12-14 16:32:59,1680.8250842400123,2,10,0.550297200679779,3.934969902038574,8.302474370935776,8.030403552892896,33.33771308128833,29.00597991902912,3.237724376958795e-05,0.0977081730961799,0,0,0
2727,100614.1607236136,2010-12-14 16:33:29,1710.8399953919948,2,10,0.5499359965324402,3.936426877975464,8.307061527229196,8.030403552892896,33.35576702546083,29.00597991902912,6.47544875391759e-05,0.0977081730961799,0,0,0
2728,100644.1757455964,2010-12-14 16:33:59,1740.8550174649993,2,10,0.5501165986061096,3.938207626342773,8.311648668533662,8.030403552892896,33.37382862461633,29.00597991902912,0.0,0.0977081730961799,0,0,0
2729,100674.19087051532,2010-12-14 16:34:29,1770.870142188446,2,10,0.550297200679779,3.939988374710083,8.316235770157403,8.030403552892896,33.391897791628644,29.00597991902912,3.237724376958795e-05,0.0977081730961799,0,0,0
2730,100704.20573306136,2010-12-14 16:34:59,1800.8850047495114,2,10,0.550297200679779,3.941607236862183,8.320822813405638,8.030403552892896,33.40997447314119,29.00597991902912,3.237724376958795e-05,0.0977081730961799,0,0,0
2731,100734.22086639122,2010-12-14 16:35:29,1830.9001380793743,2,10,0.550297200679779,3.943387985229492,8.325409944290715,8.030403552892896,33.42805920938543,29.00597991902912,9.713172767078504e-05,0.0977081730961799,0,0,0
2732,100764.23576342306,2010-12-14 16:35:59,1860.915035116232,2,10,0.550297200679779,3.945006847381592,8.329997058053552,8.030403552892896,33.44615162940456,29.00597991902912,3.237724376958795e-05,0.0977081730961799,0,0,0
2733,100794.25088627686,2010-12-14 16:36:29,1890.9301579650128,2,10,0.550297200679779,3.9466257095336914,8.33458419835012,8.030403552892896,33.46425193528801,29.00597991902912,3.237724376958795e-05,0.0977081730961799,0,0,0
2734,100824.26579550403,2010-12-14 16:36:59,1920.9450671922048,2,10,0.5501165986061096,3.948406457901001,8.339171264701646,8.030403552892896,33.48235958216049,29.00597991902912,3.237724376958795e-05,0.0977081730961799,0,0,0
2735,100854.2807727505,2010-12-14 16:37:29,1950.9600444436733,2,10,0.550297200679779,3.9500253200531006,8.34375832996965,8.030403552892896,33.50047508613964,29.00597991902912,3.237724376958795e-05,0.0977081730961799,0,0,0
2736,100884.29584844696,2010-12-14 16:37:59,1980.9751202203176,2,10,0.5501165986061096,3.95180606842041,8.348345421197866,8.030403552892896,33.518598555640764,29.00597991902912,3.237724376958795e-05,0.0977081730961799,0,0,0
2737,100914.31099040828,2010-12-14 16:38:29,2010.990262186672,2,10,0.5501165986061096,3.95358681678772,8.352932569093785,8.030403552892896,33.53673003285047,29.00597991902912,6.47544875391759e-05,0.0977081730961799,0,0,0
2738,100944.32582273912,2010-12-14 16:38:59,2041.0050945175108,2,10,0.5501165986061096,3.9552056789398193,8.357519630684966,8.030403552892896,33.554869099431954,29.00597991902912,6.47544875391759e-05,0.0977081730961799,0,0,0
2739,100974.34084380964,2010-12-14 16:39:29,2071.0201154977963,2,10,0.5501165986061096,3.956824541091919,8.362106772066337,8.030403552892896,33.573016429253535,29.00597991902912,3.237724376958795e-05,0.0977081730961799,0,0,0
2740,101004.35585182266,2010-12-14 16:39:59,2101.035123495776,2,10,0.5501165986061096,3.9587671756744394,8.366693899850674,8.030403552892896,33.591171489759766,29.00597991902912,6.47544875391759e-05,0.0977081730961799,0,0,0
2741,101034.37086827667,2010-12-14 16:40:29,2131.050139964836,2,10,0.550297200679779,3.960547924041748,8.371281038443987,8.030403552892896,33.609334619473614,29.00597991902912,6.47544875391759e-05,0.0977081730961799,0,0,0
2742,101064.38585258572,2010-12-14 16:40:59,2161.0651242488034,2,10,0.550297200679779,3.9623286724090576,8.37586814992387,8.030403552892896,33.62750567104002,29.00597991902912,6.47544875391759e-05,0.0977081730961799,0,0,0
2743,101094.4008347494,2010-12-14 16:41:29,2191.0801064375582,2,10,0.5501165986061096,3.9637856483459473,8.38045526988,8.030403552892896,33.645684677234286,29.00597991902912,-3.237724376958795e-05,0.0977081730961799,0,0,0
2744,101124.41583128386,2010-12-14 16:41:59,2221.095102972011,2,10,0.550297200679779,3.9658901691436768,8.385042493790714,8.030403552892896,33.6638722146475,29.00597991902912,9.713172767078504e-05,0.0977081730961799,0,0,0
2745,101154.4308744694,2010-12-14 16:42:29,2251.1101461575536,2,10,0.550297200679779,3.9673471450805664,8.389629691388972,8.030403552892896,33.68206771664027,29.00597991902912,3.237724376958795e-05,0.0977081730961799,0,0,0
2746,101184.44588063782,2010-12-14 16:42:59,2281.125152330993,2,10,0.5501165986061096,3.969289779663086,8.39421690055629,8.030403552892896,33.70027130279437,29.00597991902912,6.47544875391759e-05,0.0977081730961799,0,0,0
2747,101214.46089879608,2010-12-14 16:43:29,2311.140170479231,2,10,0.5501165986061096,3.9709086418151855,8.398804092218642,8.030403552892896,33.71848296410028,29.00597991902912,3.237724376958795e-05,0.0977081730961799,0,0,0
2748,101244.47592149564,2010-12-14 16:43:59,2341.155193183807,2,10,0.550297200679779,3.972689390182495,8.40339128829293,8.030403552892896,33.7367028069167,29.00597991902912,3.237724376958795e-05,0.0977081730961799,0,0,0
2749,101274.4909169374,2010-12-14 16:44:29,2371.170188695716,2,10,0.5504778623580933,3.9747939109802246,8.407978529528009,8.030403552892896,33.75493109317211,29.00597991902912,9.713172767078504e-05,0.0977081730961799,0,0,0
2750,101304.50591801814,2010-12-14 16:44:59,2401.185189681245,2,10,0.550297200679779,3.976574659347534,8.412565771483006,8.030403552892896,33.77316767939708,29.00597991902912,6.47544875391759e-05,0.0977081730961799,0,0,0
2751,101334.52113738212,2010-12-14 16:45:29,2431.20040914545,2,10,0.550297200679779,3.977869749069214,8.417153109533146,8.030403552892896,33.79141277726652,29.00597991902912,0.0,0.0977081730961799,0,0,0
2752,101364.53595006403,2010-12-14 16:45:59,2461.2152217522066,2,10,0.5501165986061096,3.979974269866944,8.421740254776232,8.030403552892896,33.80966553622165,29.00597991902912,3.237724376958795e-05,0.0977081730961799,0,0,0
2753,101394.55095092928,2010-12-14 16:46:29,2491.2302225923745,2,10,0.550297200679779,3.981916904449463,8.426327387037281,8.030403552892896,33.82792689133028,29.00597991902912,6.47544875391759e-05,0.0977081730961799,0,0,0
2754,101424.56597817516,2010-12-14 16:46:59,2521.2452498382518,2,10,0.5501165986061096,3.983697652816773,8.430914575869972,8.030403552892896,33.8461970003693,29.00597991902912,3.237724376958795e-05,0.0977081730961799,0,0,0
2755,101454.58098222832,2010-12-14 16:47:29,2551.2602539114646,2,10,0.5501165986061096,3.985640287399292,8.435501715968295,8.030403552892896,33.86447550004553,29.00597991902912,3.237724376958795e-05,0.0977081730961799,0,0,0
2756,101484.59597881792,2010-12-14 16:47:59,2581.2752504810046,2,10,0.550297200679779,3.9877448081970215,8.44008883681425,8.030403552892896,33.882762642754585,29.00597991902912,6.47544875391759e-05,0.0977081730961799,0,0,0
2757,101514.61098609911,2010-12-14 16:48:29,2611.2902577922755,2,10,0.5501165986061096,3.989525556564331,8.444676008275483,8.030403552892896,33.90105870064833,29.00597991902912,6.47544875391759e-05,0.0977081730961799,0,0,0
2758,101544.62598748064,2010-12-14 16:48:59,2641.30525917379,2,10,0.550297200679779,3.991630077362061,8.449263174116716,8.030403552892896,33.91936362912666,29.00597991902912,6.47544875391759e-05,0.0977081730961799,0,0,0
2759,101574.64098846614,2010-12-14 16:49:29,2671.320260154307,2,10,0.550297200679779,3.99341082572937,8.453850283982678,8.030403552892896,33.937677323358045,29.00597991902912,6.47544875391759e-05,0.0977081730961799,0,0,0
2760,101604.65603091486,2010-12-14 16:49:59,2701.335302592991,2,10,0.5501165986061096,3.995353221893311,8.458437470798417,8.030403552892896,33.95600034625472,29.00597991902912,3.237724376958795e-05,0.0977081730961799,0,0,0
2761,101634.67114333269,2010-12-14 16:50:29,2731.35041502084,2,10,0.550297200679779,3.99745774269104,8.463024613629736,8.030403552892896,33.97433230542388,29.00597991902912,6.47544875391759e-05,0.0977081730961799,0,0,0
2762,101664.68604930678,2010-12-14 16:50:59,2761.365320989925,2,10,0.5501165986061096,3.9992384910583496,8.467611773886507,8.030403552892896,33.99267349709148,29.00597991902912,3.237724376958795e-05,0.0977081730961799,0,0,0
2763,101694.7010331296,2010-12-14 16:51:29,2791.380304817758,2,10,0.5501165986061096,4.001343250274658,8.472198936826308,8.030403552892896,34.01102406216759,29.00597991902912,6.47544875391759e-05,0.0977081730961799,0,0,0
2764,101724.71607727754,2010-12-14 16:52:00,2821.395348965696,2,10,0.5501165986061096,4.003609657287598,8.476786061866665,8.030403552892896,34.02938397607718,29.00597991902912,9.71794142969884e-05,0.0977081730961799,0,0,0
2765,101754.73118203128,2010-12-14 16:52:30,2851.410453774585,2,10,0.5501165986061096,4.005552291870117,8.481373161716208,8.030403552892896,34.04775327087939,29.00597991902912,6.47544875391759e-05,0.0977081730961799,0,0,0
2766,101784.74606121871,2010-12-14 16:53:00,2881.425332906887,2,10,0.5501165986061096,4.007818698883057,8.485960275800846,8.030403552892896,34.06613234396113,29.00597991902912,6.47544875391759e-05,0.0977081730961799,0,0,0
2767,101814.76107378308,2010-12-14 16:53:30,2911.4403454712306,2,10,0.550297200679779,4.009922981262207,8.49054745543423,8.030403552892896,34.08452145483521,29.00597991902912,3.23295607813634e-05,0.0977081730961799,0,0,0
2768,101844.77610055276,2010-12-14 16:54:00,2941.4553722409223,2,10,0.5501165986061096,4.0121893882751465,8.495134626743146,8.030403552892896,34.10292043053703,29.00597991902912,9.70840483205393e-05,0.0977081730961799,0,0,0
2769,101874.79110996929,2010-12-14 16:54:30,2971.4703816524197,2,10,0.5501165986061096,4.014294147491455,8.499721757587809,8.030403552892896,34.12132925425463,29.00597991902912,9.71794142969884e-05,0.0977081730961799,0,0,0
2770,101904.80609795245,2010-12-14 16:55:00,3001.4853696406053,2,10,0.5501165986061096,4.0165605545043945,8.50430889130282,8.030403552892896,34.13974826066173,29.00597991902912,9.71794142969884e-05,0.0977081730961799,0,0,0
2771,101934.82116515274,2010-12-14 16:55:30,3031.5004369311323,2,10,0.550297200679779,4.018826961517334,8.508896075250274,8.030403552892896,34.158177757253455,29.00597991902912,6.47544875391759e-05,0.0977081730961799,0,0,0
2772,101964.83612884548,2010-12-14 16:56:00,3061.5154005085733,2,10,0.5501165986061096,4.021093368530273,8.513483276993108,8.030403552892896,34.176617664192136,29.00597991902912,6.47544875391759e-05,0.0977081730961799,0,0,0
2773,101994.85112439246,2010-12-14 16:56:30,3091.530396085644,2,10,0.5501165986061096,4.023197650909424,8.51807041175047,8.030403552892896,34.19506793999731,29.00597991902912,3.23295607813634e-05,0.0977081730961799,0,0,0
2774,102024.86625836394,2010-12-14 16:57:00,3121.545530037054,2,10,0.5501165986061096,4.025626182556152,8.522657603327263,8.030403552892896,34.213529046679774,29.00597991902912,6.47544875391759e-05,0.0977081730961799,0,0,0
2775,102054.88240429362,2010-12-14 16:57:30,3151.5616759667328,2,10,0.5501165986061096,4.028054237365723,8.527244905913122,8.030403552892896,34.23200137674024,29.00597991902912,6.47544875391759e-05,0.0977081730961799,0,0,0
2776,102084.89615639132,2010-12-14 16:58:00,3181.5754280744777,2,10,0.5501165986061096,4.030320644378662,8.531831896010749,8.030403552892896,34.25048328485736,29.00597991902912,3.23295607813634e-05,0.0977081730961799,0,0,0
2777,102114.91127395196,2010-12-14 16:58:30,3211.590545625075,2,10,0.5501165986061096,4.032749176025391,8.53641906498454,8.030403552892896,34.268976876246896,29.00597991902912,6.47544875391759e-05,0.0977081730961799,0,0,0
2778,102144.92615400656,2010-12-14 16:59:00,3241.605425694709,2,10,0.550297200679779,4.035338878631592,8.54100619045475,8.030403552892896,34.28748136541733,29.00597991902912,9.70840483205393e-05,0.0977081730961799,0,0,0
2779,102174.9411665358,2010-12-14 16:59:30,3271.62043829414,2,10,0.5501165986061096,4.037605285644531,8.545593296271893,8.030403552892896,34.30599701082773,29.00597991902912,0.0,0.0977081730961799,0,0,0
2780,102204.95619131556,2010-12-14 17:00:00,3301.6354630087176,2,10,0.550297200679779,4.040195465087891,8.550180558694917,8.030403552892896,34.32452460633365,29.00597991902912,6.47544875391759e-05,0.0977081730961799,0,0,0
2781,102234.9711793338,2010-12-14 17:00:30,3331.6504510269788,2,10,0.5501165986061096,4.042623996734619,8.554767713484136,8.030403552892896,34.34306315776668,29.00597991902912,6.47544875391759e-05,0.0977081730961799,0,0,0
2782,102264.9861943342,2010-12-14 17:01:00,3361.6654659973083,2,10,0.550297200679779,4.0452141761779785,8.559354854352264,8.030403552892896,34.36161325029181,29.00597991902912,9.71794142969884e-05,0.0977081730961799,0,0,0
2783,102295.00140187374,2010-12-14 17:01:30,3391.680673561902,2,10,0.5501165986061096,4.047642230987549,8.563942012036234,8.030403552892896,34.38017503100407,29.00597991902912,6.47544875391759e-05,0.0977081730961799,0,0,0
2784,102325.01627346229,2010-12-14 17:02:00,3421.6955452406564,2,10,0.5501165986061096,4.050232410430908,8.568529218903311,8.030403552892896,34.39874881868528,29.00597991902912,6.47544875391759e-05,0.0977081730961799,0,0,0
2785,102355.03121752114,2010-12-14 17:02:30,3451.7104892143143,2,10,0.5501165986061096,4.052984714508057,8.573116365812888,8.030403552892896,34.41733412421756,29.00597991902912,6.47544875391759e-05,0.0977081730961799,0,0,0
2786,102385.04623269198,2010-12-14 17:03:00,3481.725504365093,2,10,0.5501165986061096,4.055412769317627,8.577703569817192,8.030403552892896,34.43593167589027,29.00597991902912,3.23295607813634e-05,0.0977081730961799,0,0,0
2787,102415.06137772596,2010-12-14 17:03:30,3511.7406494141187,2,10,0.550297200679779,4.058326721191406,8.582290810273342,8.030403552892896,34.4545414376621,29.00597991902912,9.70840483205393e-05,0.0977081730961799,0,0,0
2788,102445.07649769758,2010-12-14 17:04:00,3541.755769440878,2,10,0.550297200679779,4.060593128204346,8.586878042023772,8.030403552892896,34.47316331691092,29.00597991902912,3.23295607813634e-05,0.0977081730961799,0,0,0
2789,102475.09124697174,2010-12-14 17:04:30,3571.770518644859,2,10,0.5501165986061096,4.063507080078125,8.591465169087407,8.030403552892896,34.49179658440184,29.00597991902912,9.70840483205393e-05,0.0977081730961799,0,0,0
2790,102505.10643834104,2010-12-14 17:05:00,3601.7857100141505,2,10,0.5501165986061096,4.066097259521484,8.596052373510329,8.030403552892896,34.51044268616973,29.00597991902912,6.47544875391759e-05,0.0977081730961799,0,0,0
2791,102535.12126287246,2010-12-14 17:05:30,3631.800534560618,2,10,0.550297200679779,4.069011211395264,8.600639548648282,8.030403552892896,34.52910128204469,29.00597991902912,9.70840483205393e-05,0.0977081730961799,0,0,0
2792,102565.13673360694,2010-12-14 17:06:00,3661.816005405374,2,10,0.5501165986061096,4.071763515472412,8.6052268383498,8.030403552892896,34.547773021164424,29.00597991902912,6.47544875391759e-05,0.0977081730961799,0,0,0
2793,102595.15127774562,2010-12-14 17:06:30,3691.830549438795,2,10,0.550297200679779,4.074515342712402,8.609813922635627,8.030403552892896,34.56645674225174,29.00597991902912,6.47544875391759e-05,0.0977081730961799,0,0,0
2794,102625.16629243526,2010-12-14 17:07:00,3721.845564123415,2,10,0.5501165986061096,4.077429294586182,8.614401108765524,8.030403552892896,34.5851537387604,29.00597991902912,9.70840483205393e-05,0.0977081730961799,0,0,0
2795,102655.18141626648,2010-12-14 17:07:30,3751.8606879596528,2,10,0.5499359965324402,4.08018159866333,8.618988230505682,8.030403552892896,34.60386353934787,29.00597991902912,6.47544875391759e-05,0.0977081730961799,0,0,0
2796,102685.1964488306,2010-12-14 17:08:00,3781.8757204987023,2,10,0.5501165986061096,4.08293342590332,8.623575399363839,8.030403552892896,34.62258660000677,29.00597991902912,3.23295607813634e-05,0.0977081730961799,0,0,0
2797,102715.21146034233,2010-12-14 17:08:30,3811.8907320204494,2,10,0.5501165986061096,4.0858473777771,8.628162552471712,8.030403552892896,34.64132290664972,29.00597991902912,6.47544875391759e-05,0.0977081730961799,0,0,0
2798,102745.22631332454,2010-12-14 17:09:00,3841.90558500268,2,10,0.5501165986061096,4.088923454284668,8.632749729487987,8.030403552892896,34.660072639470464,29.00597991902912,6.47544875391759e-05,0.0977081730961799,0,0,0
2799,102775.24146953635,2010-12-14 17:09:30,3871.920741199446,2,10,0.550297200679779,4.091837406158447,8.637336895525593,8.030403552892896,34.67883594459487,29.00597991902912,0.0001295089750783,0.0977081730961799,0,0,0
2800,102805.25635416232,2010-12-14 17:10:00,3901.9356258504818,2,10,0.550297200679779,4.094751358032227,8.64192404604756,8.030403552892896,34.69761280945412,29.00597991902912,6.47544875391759e-05,0.0977081730961799,0,0,0
2801,102835.27156893986,2010-12-14 17:10:30,3931.950840708224,2,10,0.550297200679779,4.097989082336426,8.646511280336327,8.030403552892896,34.716403907433545,29.00597991902912,9.71794142969884e-05,0.0977081730961799,0,0,0
2802,102865.2863548502,2010-12-14 17:11:00,3961.9656265383474,2,10,0.5501165986061096,4.100903034210205,8.65109844569438,8.030403552892896,34.73520867312837,29.00597991902912,6.47544875391759e-05,0.0977081730961799,0,0,0
2803,102895.30136473788,2010-12-14 17:11:30,3991.9806364310416,2,10,0.5501165986061096,4.104140758514404,8.655685601180965,8.030403552892896,34.75402737153331,29.00597991902912,0.0001295089750783,0.0977081730961799,0,0,0
2804,102925.31639596366,2010-12-14 17:12:00,4021.9956676467978,2,10,0.5499359965324402,4.107054710388184,8.660272753027929,8.030403552892896,34.77286028910877,29.00597991902912,6.47544875391759e-05,0.0977081730961799,0,0,0
2805,102955.33141181116,2010-12-14 17:12:30,4052.01068359456,2,10,0.550297200679779,4.110292434692383,8.664859962359305,8.030403552892896,34.79170768312319,29.00597991902912,9.71794142969884e-05,0.0977081730961799,0,0,0
2806,102985.34638481706,2010-12-14 17:13:00,4082.0256565052273,2,10,0.550297200679779,4.113368034362793,8.669447156514423,8.030403552892896,34.810569399983315,29.00597991902912,9.70840483205393e-05,0.0977081730961799,0,0,0
2807,103015.36139463958,2010-12-14 17:13:30,4112.040666327746,2,10,0.550297200679779,4.116605758666992,8.674034276590207,8.030403552892896,34.82944525501533,29.00597991902912,9.71794142969884e-05,0.0977081730961799,0,0,0
2808,103045.37642870744,2010-12-14 17:14:00,4142.055700400612,2,10,0.550297200679779,4.119843482971191,8.678621463491437,8.030403552892896,34.84833602203825,29.00597991902912,9.71794142969884e-05,0.0977081730961799,0,0,0
2809,103075.39145134686,2010-12-14 17:14:30,4172.070723125238,2,10,0.5501165986061096,4.122757434844971,8.683208723007594,8.030403552892896,34.867241850798486,29.00597991902912,3.24249267578125e-05,0.0977081730961799,0,0,0
2810,103105.406413205,2010-12-14 17:15:00,4202.085684893177,2,10,0.550297200679779,4.126156806945801,8.687795891730444,8.030403552892896,34.88616206676033,29.00597991902912,9.70840483205393e-05,0.0977081730961799,0,0,0
2811,103135.42140296762,2010-12-14 17:15:30,4232.100674660791,2,10,0.5501165986061096,4.12939453125,8.692382566127248,8.030403552892896,34.90509517986242,29.00597991902912,6.47544875391759e-05,0.0977081730961799,0,0,0
2812,103165.43640372258,2010-12-14 17:16:00,4262.115675410733,2,10,0.550297200679779,4.132956027984619,8.696968993809856,8.030403552892896,34.92404228895665,29.00597991902912,0.0001295089750783,0.0977081730961799,0,0,0
2813,103195.45142430688,2010-12-14 17:16:30,4292.130695995033,2,10,0.5501165986061096,4.136193752288818,8.701555600037763,8.030403552892896,34.94300526076212,29.00597991902912,9.70840483205393e-05,0.0977081730961799,0,0,0
2814,103225.46642539266,2010-12-14 17:17:00,4322.145697080812,2,10,0.5499359965324402,4.139431476593018,8.706142060550984,8.030403552892896,34.96198291848765,29.00597991902912,9.70840483205393e-05,0.0977081730961799,0,0,0
2815,103255.48163725797,2010-12-14 17:17:30,4352.16090895112,2,10,0.5501165986061096,4.142831325531006,8.710728634820807,8.030403552892896,34.98097651523454,29.00597991902912,9.71794142969884e-05,0.0977081730961799,0,0,0
2816,103285.49645080706,2010-12-14 17:18:00,4382.175722500222,2,10,0.5501165986061096,4.146230697631836,8.715315128107667,8.030403552892896,34.99998549515782,29.00597991902912,6.47544875391759e-05,0.0977081730961799,0,0,0
2817,103315.5115776608,2010-12-14 17:18:30,4412.1908493539695,2,10,0.550297200679779,4.149792194366455,8.719902004417955,8.030403552892896,35.0190120475027,29.00597991902912,9.70840483205393e-05,0.0977081730961799,0,0,0
2818,103345.526599418,2010-12-14 17:19:00,4442.205871091139,2,10,0.5499359965324402,4.153029918670654,8.724489231647581,8.030403552892896,35.0380559203077,29.00597991902912,3.23295607813634e-05,0.0977081730961799,0,0,0
2819,103375.54146031996,2010-12-14 17:19:30,4472.2207320081125,2,10,0.550297200679779,4.156753540039063,8.729076458909518,8.030403552892896,35.05711559951311,29.00597991902912,0.0001295089750783,0.0977081730961799,0,0,0
2820,103405.5565050343,2010-12-14 17:20:00,4502.235776722459,2,10,0.550297200679779,4.160315036773682,8.733663705694655,8.030403552892896,35.076191385685256,29.00597991902912,9.71794142969884e-05,0.0977081730961799,0,0,0
2821,103435.57147966926,2010-12-14 17:20:30,4532.250751362429,2,10,0.550297200679779,4.163714408874512,8.738250980200961,8.030403552892896,35.09528348128946,29.00597991902912,9.70840483205393e-05,0.0977081730961799,0,0,0
2822,103465.58649162207,2010-12-14 17:21:00,4562.265763310238,2,10,0.5501165986061096,4.1671142578125,8.742838230007488,8.030403552892896,35.11439164371308,29.00597991902912,6.47544875391759e-05,0.0977081730961799,0,0,0
2823,103495.60149293844,2010-12-14 17:21:30,4592.280764626589,2,10,0.5499359965324402,4.17083740234375,8.74742549005116,8.030403552892896,35.13351627368146,29.00597991902912,9.70840483205393e-05,0.0977081730961799,0,0,0
2824,103525.61654705116,2010-12-14 17:22:00,4622.295818744337,2,10,0.5501165986061096,4.174561023712158,8.752012715426636,8.030403552892896,35.15265726697089,29.00597991902912,9.71794142969884e-05,0.0977081730961799,0,0,0
2825,103555.63151724006,2010-12-14 17:22:30,4652.3107889833545,2,10,0.550297200679779,4.178284168243408,8.756599975304571,8.030403552892896,35.1718148932925,29.00597991902912,0.0001295089750783,0.0977081730961799,0,0,0
2826,103585.64649722332,2010-12-14 17:23:00,4682.325768901459,2,10,0.5501165986061096,4.181845664978027,8.761187205611856,8.030403552892896,35.1909892402742,29.00597991902912,0.0001295089750783,0.0977081730961799,0,0,0
2827,103615.66147945216,2010-12-14 17:23:30,4712.3407511403375,2,10,0.550297200679779,4.185407161712647,8.765774422222629,8.030403552892896,35.210180443136856,29.00597991902912,9.70840483205393e-05,0.0977081730961799,0,0,0
2828,103645.67653599096,2010-12-14 17:24:01,4742.35580767911,2,10,0.5501165986061096,4.189130783081055,8.770361641804449,8.030403552892896,35.22938868209517,29.00597991902912,6.47544875391759e-05,0.0977081730961799,0,0,0
2829,103675.69166982207,2010-12-14 17:24:31,4772.370941590419,2,10,0.5501165986061096,4.192692279815674,8.774948886405012,8.030403552892896,35.248614087339114,29.00597991902912,6.47544875391759e-05,0.0977081730961799,0,0,0
2830,103705.70654424264,2010-12-14 17:25:01,4802.3858159307965,2,10,0.5501165986061096,4.196577072143555,8.779536070838327,8.030403552892896,35.26785645845151,29.00597991902912,6.47544875391759e-05,0.0977081730961799,0,0,0
2831,103731.17480269926,2010-12-14 17:25:26,4827.85407439243,2,10,0.5504778623580933,4.200138568878174,8.783428375241705,8.030403552892896,35.28419748506713,29.00597991902912,0.0001295089750783,0.0977081730961799,0,0,0
2832,103761.19347915542,2010-12-14 17:25:56,30.01499368736818,3,10,0.0,4.106730937957764,8.783428375241705,8.030403552892896,35.28419748506713,29.00597991902912,-0.0004208564641885,0.0977081730961799,0,0,0
2833,103791.2084783515,2010-12-14 17:26:26,60.02999288344458,3,10,0.0,4.094751358032227,8.783428375241705,8.030403552892896,35.28419748506713,29.00597991902912,-0.0002590179501567,0.0977081730961799,0,0,0
2834,103821.22360544583,2010-12-14 17:26:56,90.04511998280336,3,10,0.0,4.087628364562988,8.783428375241705,8.030403552892896,35.28419748506713,29.00597991902912,-0.0001942634553415,0.0977081730961799,0,0,0
2835,103851.19153774776,2010-12-14 17:27:26,120.0130522847239,3,10,0.0,4.08293342590332,8.783428375241705,8.030403552892896,35.28419748506713,29.00597991902912,-9.71794142969884e-05,0.0977081730961799,0,0,0
2836,103851.2054345752,2010-12-14 17:27:26,0.015451179666324,4,10,1.0025428533554075,4.199814796447754,8.783432702959782,8.030403552892896,35.28421566103241,29.00597991902912,-3.24249267578125e-05,0.0977081730961799,0,0,0
2837,103852.14294861784,2010-12-14 17:27:27,0.9529652022533,4,10,0.9523334503173828,4.199814796447754,8.783685842688216,8.030403552892896,35.285278796337586,29.00597991902912,-3.24249267578125e-05,0.0977081730961799,0,0,0
2838,103854.22101332694,2010-12-14 17:27:29,3.031029861231603,4,10,0.902304708957672,4.199814796447754,8.78421993862891,8.030403552892896,35.28752190227224,29.00597991902912,-3.24249267578125e-05,0.0977081730961799,0,0,0
2839,103857.33036782604,2010-12-14 17:27:32,6.140384350287061,4,10,0.8520953059196472,4.199653148651123,8.784976247182314,8.030403552892896,35.29069826783695,29.00597991902912,-3.23295607813634e-05,0.0977081730961799,0,0,0
2840,103861.5802403704,2010-12-14 17:27:37,10.390256899669565,4,10,0.8020665645599365,4.199814796447754,8.785951280406579,8.030403552892896,35.294793258511206,29.00597991902912,0.0,0.0977081730961799,0,0,0
2841,103867.1739024734,2010-12-14 17:27:42,15.98391899765956,4,10,0.752037763595581,4.199976921081543,8.787157037547535,8.030403552892896,35.29985724182558,29.00597991902912,3.24249267578125e-05,0.0977081730961799,0,0,0
2842,103874.4705919746,2010-12-14 17:27:50,23.280608498841342,4,10,0.7018284201622009,4.199814796447754,8.788628281455573,8.030403552892896,35.30603622557548,29.00597991902912,0.0,0.0977081730961799,0,0,0
2843,103884.2048001422,2010-12-14 17:27:59,33.01481674166098,4,10,0.6517996191978455,4.199814796447754,8.790455295210863,8.030403552892896,35.313709412254106,29.00597991902912,0.0,0.0977081730961799,0,0,0
2844,103897.8607423592,2010-12-14 17:28:13,46.67075888846475,4,10,0.6015902757644653,4.199976921081543,8.792827343227131,8.030403552892896,35.32367166715131,29.00597991902912,0.0,0.0977081730961799,0,0,0
2845,103918.61048378768,2010-12-14 17:28:34,67.42050042220448,4,10,0.5515614748001099,4.199976921081543,8.796139933670286,8.030403552892896,35.33758405483112,29.00597991902912,0.0,0.0977081730961799,0,0,0
2846,103954.76594872658,2010-12-14 17:29:10,103.57596525083574,4,10,0.5015327334403992,4.199814796447754,8.801403870975527,8.030403552892896,35.359691798520714,29.00597991902912,0.0,0.0977081730961799,0,0,0
2847,104023.82689310548,2010-12-14 17:30:19,172.6369096397574,4,10,0.4515039622783661,4.199814796447754,8.810501279695787,8.030403552892896,35.39789962072013,29.00597991902912,-3.24249267578125e-05,0.0977081730961799,0,0,0
2848,104129.44979833772,2010-12-14 17:32:05,278.25981495220805,4,10,0.401475191116333,4.199653148651123,8.82298842245395,8.030403552892896,35.45034382603223,29.00597991902912,-3.23295607813634e-05,0.0977081730961799,0,0,0
2849,104264.5252828056,2010-12-14 17:34:20,413.3352994251079,4,10,0.3514464199542999,4.199653148651123,8.837102809146465,8.030403552892896,35.509622216127234,29.00597991902912,-3.23295607813634e-05,0.0977081730961799,0,0,0
2850,104425.77172744632,2010-12-14 17:37:01,574.5817439755855,4,10,0.3014176487922668,4.199653148651123,8.851704104363353,8.030403552892896,35.57094540626167,29.00597991902912,-3.23295607813634e-05,0.0977081730961799,0,0,0
2851,104619.86151860662,2010-12-14 17:40:15,768.671535316345,4,10,0.2513888776302337,4.199653148651123,8.86657753980269,8.030403552892896,35.633411593147855,29.00597991902912,-6.47544875391759e-05,0.0977081730961799,0,0,0
2852,104861.13776183304,2010-12-14 17:44:16,1009.947778347272,4,10,0.2013601064682006,4.199814796447754,8.881709123419352,8.030403552892896,35.69696191045228,29.00597991902912,3.23295607813634e-05,0.0977081730961799,0,0,0
2853,105181.41241229746,2010-12-14 17:49:37,1330.222428826734,4,10,0.1509701162576675,4.199814796447754,8.897310333544263,8.030403552892896,35.76248457042617,29.00597991902912,0.0,0.0977081730961799,0,0,0
2854,105665.05869523076,2010-12-14 17:57:40,1813.8687117449963,4,10,0.1009413450956344,4.199976921081543,8.914024167984108,8.030403552892896,35.83268018580614,29.00597991902912,0.0,0.0977081730961799,0,0,0
2855,106633.85140254666,2010-12-14 18:13:49,2782.661419065906,4,10,0.0509125739336013,4.199814796447754,8.933557815411671,8.030403552892896,35.914718679140975,29.00597991902912,-3.24249267578125e-05,0.0977081730961799,0,0,0
2856,106666.33499417506,2010-12-14 18:14:22,2815.1450107043297,4,10,0.0498289167881011,4.199814796447754,8.93401748115784,8.030403552892896,35.91664920599618,29.00597991902912,-3.24249267578125e-05,0.0977081730961799,0,0,0
2857,106696.35164086812,2010-12-14 18:14:52,30.01498855459548,5,10,0.0,4.191073417663574,8.93401748115784,8.030403552892896,35.91664920599618,29.00597991902912,-6.47544875391759e-05,0.0977081730961799,0,0,0
2858,106726.35101797924,2010-12-14 18:15:22,60.01436561558957,5,10,0.0,4.189778327941895,8.93401748115784,8.030403552892896,35.91664920599618,29.00597991902912,-3.23295607813634e-05,0.0977081730961799,0,0,0
2859,106726.54154106972,2010-12-14 18:15:22,0.187598972828539,6,10,-1.9243103452026844e-05,4.1896162033081055,8.934017489566903,8.030403552892896,35.916649241228974,29.00597991902912,-9.71794142969884e-05,0.0995923578739166,0,0,0
2860,106731.36939305872,2010-12-14 18:15:27,5.015450876604474,6,10,0.0010644125286489,4.189778327941895,8.934018598915955,8.030403553059015,35.916653889217834,29.00597991972509,-3.23295607813634e-05,0.0995923578739166,0,0,0
2861,106761.38743285548,2010-12-14 18:15:57,30.01500437897383,7,10,-1.0993878841400146,3.995515108108521,8.934018598915955,8.039570805357219,35.916653889217834,29.042829340843603,-0.0010361194144934,0.0995923578739166,0,0,0
2862,106791.40258999962,2010-12-14 18:16:27,60.030161508060445,7,10,-1.0993878841400146,3.964271306991577,8.934018598915955,8.04873808704137,35.916653889217834,29.07930346117029,-0.0006799221155233,0.0995923578739166,0,0,0
2863,106821.41746066583,2010-12-14 18:16:57,90.04503218933269,7,10,-1.099568486213684,3.9422547817230233,8.934018598915955,8.057905223335288,35.916653889217834,29.11553833526205,-0.0005504131549969,0.0995923578739166,0,0,0
2864,106851.4326417796,2010-12-14 18:17:27,120.06021328806683,7,10,-1.099568486213684,3.9254186153411865,8.934018598915955,8.06707244410593,35.916653889217834,29.151597794626884,-0.0003885269106831,0.0995923578739166,0,0,0
2865,106881.447594084,2010-12-14 18:17:57,150.07516559245508,7,10,-1.099568486213684,3.911172866821289,8.934018598915955,8.076239617330941,35.916653889217834,29.187515980123468,-0.0003561496851034,0.0995923578739166,0,0,0
2866,106911.4624983689,2010-12-14 18:18:27,180.09006989739854,7,10,-1.0993878841400146,3.898707628250122,8.934018598915955,8.085406741425025,35.916653889217834,29.22331247085916,-0.0003237724304199,0.0995923578739166,0,0,0
2867,106941.4775275496,2010-12-14 18:18:57,210.105099073078,7,10,-1.099568486213684,3.887213706970215,8.934018598915955,8.094573872251317,35.916653889217834,29.25899909016537,-0.0002913951757363,0.0995923578739166,0,0,0
2868,106971.49249310695,2010-12-14 18:19:27,240.12006463545825,7,10,-1.0993878841400146,3.876367330551148,8.934018598915955,8.103740976077388,35.916653889217834,29.294583393894527,-0.0002913951757363,0.0995923578739166,0,0,0
2869,107001.50749642328,2010-12-14 18:19:57,270.1350679467752,7,10,-1.0993878841400146,3.86633038520813,8.934018598915955,8.112908179281591,35.916653889217834,29.33007165954769,-0.0002266406954731,0.0995923578739166,0,0,0
2870,107031.5225842048,2010-12-14 18:20:27,300.15015579345527,7,10,-1.099568486213684,3.8561315536499023,8.934018598915955,8.12207542368797,35.916653889217834,29.36546703666466,-0.0002590179501567,0.0995923578739166,0,0,0
2871,107061.53765683864,2010-12-14 18:20:57,330.16522843229114,7,10,-1.0993878841400146,3.8464183807373047,8.934018598915955,8.131242594159316,35.916653889217834,29.40077199231876,-0.0002590179501567,0.0995923578739166,0,0,0
2872,107091.552513099,2010-12-14 18:21:27,360.18008462250293,7,10,-1.099568486213684,3.837028980255127,8.934018598915955,8.140409727928349,35.916653889217834,29.43598889786816,-0.0002266406954731,0.0995923578739166,0,0,0
2873,107121.56752049048,2010-12-14 18:21:57,390.19509200394833,7,10,-1.099568486213684,3.8278017044067374,8.934018598915955,8.149576976800642,35.916653889217834,29.47112121637099,-0.0002590179501567,0.0995923578739166,0,0,0
2874,107151.58253211249,2010-12-14 18:22:27,420.2101036359711,7,10,-1.0997490882873535,3.818736076354981,8.934018598915955,8.158744138467208,35.916653889217834,29.506169888018583,-0.0002266406954731,0.0995923578739166,0,0,0
2875,107181.5977696166,2010-12-14 18:22:57,450.2253412152549,7,10,-1.099568486213684,3.809670448303223,8.934018598915955,8.167911449789672,35.916653889217834,29.5411373041002,-0.0002590179501567,0.0995923578739166,0,0,0
2876,107211.61253546698,2010-12-14 18:23:27,480.240107080697,7,10,-1.0993878841400146,3.801414251327514,8.934018598915955,8.177078546631984,35.916653889217834,29.57602450454464,-0.0002266406954731,0.0995923578739166,0,0,0
2877,107241.62754457272,2010-12-14 18:23:57,510.2551161012211,7,10,-1.099568486213684,3.793158054351807,8.934018598915955,8.186245797324446,35.916653889217834,29.610835249369675,-0.0002266406954731,0.0995923578739166,0,0,0
2878,107271.64257690626,2010-12-14 18:24:27,540.2701484347588,7,10,-1.0993878841400146,3.784901857376098,8.934018598915955,8.195413036557794,35.916653889217834,29.64557077961023,-0.0002266406954731,0.0995923578739166,0,0,0
2879,107301.65755453867,2010-12-14 18:24:57,570.2851260671748,7,10,-1.099929690361023,3.777131319046021,8.934018598915955,8.204580315304183,35.916653889217834,29.68023277500946,-0.0001942634553415,0.0995923578739166,0,0,0
2880,107331.67268096136,2010-12-14 18:25:27,600.3002524848373,7,10,-1.099568486213684,3.769198894500733,8.934018598915955,8.213747563442036,35.916653889217834,29.714823046042824,-0.0002590179501567,0.0995923578739166,0,0,0
2881,107361.68768703454,2010-12-14 18:25:57,630.3152585429896,7,10,-1.099568486213684,3.761914014816284,8.934018598915955,8.222914814640466,35.916653889217834,29.749343663162307,-0.0001618862152099,0.0995923578739166,0,0,0
2882,107391.7026027579,2010-12-14 18:26:27,660.3301742863973,7,10,-1.099568486213684,3.754629135131836,8.934018598915955,8.232082062641084,35.916653889217834,29.783795684913475,-0.0001942634553415,0.0995923578739166,0,0,0
2883,107421.71770408312,2010-12-14 18:26:57,690.3452756066057,7,10,-1.099568486213684,3.747182607650757,8.934018598915955,8.241249282553111,35.916653889217834,29.818181102552757,-0.0002266406954731,0.0995923578739166,0,0,0
2884,107451.73259034316,2010-12-14 18:27:27,720.3601618415828,7,10,-1.0993878841400146,3.7403833866119385,8.934018598915955,8.250416530146031,35.916653889217834,29.85250107937325,-0.0001618862152099,0.0995923578739166,0,0,0
2885,107481.74760876207,2010-12-14 18:27:57,750.3751802905692,7,10,-1.099568486213684,3.7332603931427,8.934018598915955,8.259583755040218,35.916653889217834,29.88675652790705,-0.0001942634553415,0.0995923578739166,0,0,0
2886,107511.7626362736,2010-12-14 18:28:27,780.3902078021075,7,10,-1.099568486213684,3.726461172103882,8.934018598915955,8.26875096438097,35.916653889217834,29.92094876179333,-0.0001942634553415,0.0995923578739166,0,0,0
2887,107541.77761329952,2010-12-14 18:28:57,810.4051848079645,7,10,-1.099568486213684,3.719661951065064,8.934018598915955,8.277918179959373,35.916653889217834,29.95507947102508,-0.0001942634553415,0.0995923578739166,0,0,0
2888,107571.79261825992,2010-12-14 18:29:27,840.4201897834228,7,10,-1.0993878841400146,3.713348388671875,8.934018598915955,8.287085364681676,35.916653889217834,29.98914945861628,-0.0001618862152099,0.0995923578739166,0,0,0
2889,107601.80796833916,2010-12-14 18:29:57,870.4355399328329,7,10,-1.099568486213684,3.706872940063477,8.934018598915955,8.296252757603357,35.916653889217834,30.023161061099007,-0.0001618862152099,0.0995923578739166,0,0,0
2890,107631.82264090244,2010-12-14 18:30:27,900.4502124259214,7,10,-1.099568486213684,3.700559377670288,8.934018598915955,8.305419935946453,35.916653889217834,30.057114127159373,-0.0001942634553415,0.0995923578739166,0,0,0
2891,107661.83763492564,2010-12-14 18:30:57,930.4652064491252,7,10,-1.099568486213684,3.69456958770752,8.934018598915955,8.314587180400725,35.916653889217834,30.09101096317636,-0.0001618862152099,0.0995923578739166,0,0,0
2892,107691.85269562976,2010-12-14 18:31:27,960.4802672484992,7,10,-1.099568486213684,3.688417911529541,8.934018598915955,8.323754446698294,35.916653889217834,30.124852336774858,-0.0001618862152099,0.0995923578739166,0,0,0
2893,107721.86764524248,2010-12-14 18:31:57,990.4952167509148,7,10,-1.099568486213684,3.682428121566773,8.934018598915955,8.33292168036913,35.916653889217834,30.15863847963372,-0.0001942634553415,0.0995923578739166,0,0,0
2894,107751.88297529188,2010-12-14 18:32:27,1020.5105469055688,7,10,-1.099568486213684,3.676600217819214,8.934018598915955,8.342088993669629,35.916653889217834,30.19237049664813,-0.0001618862152099,0.0995923578739166,0,0,0
2895,107781.89766853156,2010-12-14 18:32:57,1050.52524005506,7,10,-1.099568486213684,3.6707725524902335,8.934018598915955,8.351256163578194,35.916653889217834,30.226048264196496,-0.0001618862152099,0.0995923578739166,0,0,0
2896,107811.91268486028,2010-12-14 18:33:27,1080.540256378758,7,10,-1.0993878841400146,3.665268421173096,8.934018598915955,8.36042336119715,35.916653889217834,30.259673370573942,-9.713172767078504e-05,0.0995923578739166,0,0,0
2897,107841.92767096878,2010-12-14 18:33:57,1110.5552424972914,7,10,-1.0993878841400146,3.659602403640747,8.934018598915955,8.369590525126428,35.916653889217834,30.29324630619677,-0.0001295089750783,0.0995923578739166,0,0,0
2898,107871.94273402376,2010-12-14 18:34:27,1140.570305552278,7,10,-1.0993878841400146,3.654098272323608,8.934018598915955,8.378757735964736,35.916653889217834,30.32676830862966,-0.0001295089750783,0.0995923578739166,0,0,0
2899,107901.95774397162,2010-12-14 18:34:57,1170.585315585322,7,10,-1.099568486213684,3.6485941410064697,8.934018598915955,8.387924962312162,35.916653889217834,30.360240594591485,-0.0001295089750783,0.0995923578739166,0,0,0
2900,107931.97275050596,2010-12-14 18:35:27,1200.600322029435,7,10,-1.099568486213684,3.643251895904541,8.934018598915955,8.397092122861004,35.916653889217834,30.393663190838996,-0.0001618862152099,0.0995923578739166,0,0,0
2901,107961.9876871664,2010-12-14 18:35:57,1230.6152586898936,7,10,-1.0997490882873535,3.637909650802612,8.934018598915955,8.406259951714036,35.916653889217834,30.42703992343141,-0.0001618862152099,0.0995923578739166,0,0,0
2902,107992.0027183972,2010-12-14 18:36:28,1260.6302899206871,7,10,-1.099568486213684,3.6327292919158936,8.934018598915955,8.415427896782454,35.916653889217834,30.46036929121659,-0.0001618862152099,0.0995923578739166,0,0,0
2903,108022.0178331358,2010-12-14 18:36:58,1290.645404734474,7,10,-1.0997490882873535,3.627548933029175,8.934018598915955,8.4245958634827,35.916653889217834,30.49365180991805,-0.0001618862152099,0.0995923578739166,0,0,0
2904,108052.03283213136,2010-12-14 18:37:28,1320.6604036548642,7,10,-1.099568486213684,3.622692346572876,8.934018598915955,8.43376383507352,35.916653889217834,30.526887554003448,-0.0001295089750783,0.0995923578739166,0,0,0
2905,108082.04784121708,2010-12-14 18:37:58,1350.675412745563,7,10,-1.0993878841400146,3.617835760116577,8.934018598915955,8.442931173114289,35.916653889217834,30.560075478202712,-9.713172767078504e-05,0.0995923578739166,0,0,0
2906,108112.06274001328,2010-12-14 18:38:28,1380.6903115317732,7,10,-1.099568486213684,3.612817287445069,8.934018598915955,8.452098337202097,35.916653889217834,30.59321851364631,-0.0001618862152099,0.0995923578739166,0,0,0
2907,108142.07785055145,2010-12-14 18:38:58,1410.7054220598952,7,10,-1.099568486213684,3.6084463596344,8.934018598915955,8.46126565717095,35.916653889217834,30.626318481529072,-9.713172767078504e-05,0.0995923578739166,0,0,0
2908,108172.09273458594,2010-12-14 18:39:28,1440.7203061094335,7,10,-1.099568486213684,3.6035897731781006,8.934018598915955,8.47043288060998,35.916653889217834,30.659375685761,-0.0001618862152099,0.0995923578739166,0,0,0
2909,108202.10773181212,2010-12-14 18:39:58,1470.7353033356085,7,10,-1.0997490882873535,3.5993807315826416,8.934018598915955,8.47960018283762,35.916653889217834,30.692391986126395,-6.47544875391759e-05,0.0995923578739166,0,0,0
2910,108232.12274943406,2010-12-14 18:40:28,1500.7503209575366,7,10,-1.0993878841400146,3.5951716899871826,8.934018598915955,8.488767440685642,35.916653889217834,30.725368080168348,-6.47544875391759e-05,0.0995923578739166,0,0,0
2911,108262.13774563266,2010-12-14 18:40:58,1530.7653171611664,7,10,-1.099568486213684,3.5908010005950928,8.934018598915955,8.49793471057319,35.916653889217834,30.75830511237884,-9.713172767078504e-05,0.0995923578739166,0,0,0
2912,108292.1529124659,2010-12-14 18:41:28,1560.7804840445262,7,10,-1.099568486213684,3.586753845214844,8.934018598915955,8.507102115471609,35.916653889217834,30.791204106357064,-9.713172767078504e-05,0.0995923578739166,0,0,0
2913,108322.16794820792,2010-12-14 18:41:58,1590.795519716371,7,10,-1.099568486213684,3.5825448036193848,8.934018598915955,8.516269384508492,35.916653889217834,30.824064858712685,-0.0001295089750783,0.0995923578739166,0,0,0
2914,108352.18277250376,2010-12-14 18:42:28,1620.810344012215,7,10,-1.0993878841400146,3.5786595344543457,8.934018598915955,8.52543659569996,35.916653889217834,30.85688825788316,-9.713172767078504e-05,0.0995923578739166,0,0,0
2915,108382.19791986856,2010-12-14 18:42:58,1650.8254913719911,7,10,-1.0993878841400146,3.5746123790740967,8.934018598915955,8.534603844570848,35.916653889217834,30.88967588242689,-9.713172767078504e-05,0.0995923578739166,0,0,0
2916,108412.2127742242,2010-12-14 18:43:28,1680.840345722625,7,10,-1.099568486213684,3.570888996124268,8.934018598915955,8.54377105387055,35.916653889217834,30.92242813840619,-9.713172767078504e-05,0.0995923578739166,0,0,0
2917,108442.22777656812,2010-12-14 18:43:58,1710.8553480915973,7,10,-1.099568486213684,3.5671656131744385,8.934018598915955,8.552938298183708,35.916653889217834,30.955146204641757,-9.713172767078504e-05,0.0995923578739166,0,0,0
2918,108472.24279461108,2010-12-14 18:44:28,1740.8703661345733,7,10,-1.099568486213684,3.5634422302246094,8.934018598915955,8.562105565632725,35.916653889217834,30.98783077185966,-0.0001295089750783,0.0995923578739166,0,0,0
2919,108502.2577892007,2010-12-14 18:44:58,1770.8853607291992,7,10,-1.0993878841400146,3.5600426197052,8.934018598915955,8.57127271803993,35.916653889217834,31.02048294100405,-9.713172767078504e-05,0.0995923578739166,0,0,0
2920,108532.27281332882,2010-12-14 18:45:28,1800.9003848472933,7,10,-1.099568486213684,3.556643009185791,8.934018598915955,8.580439943018872,35.916653889217834,31.05310370848288,-9.713172767078504e-05,0.0995923578739166,0,0,0
2921,108562.28802608632,2010-12-14 18:45:58,1830.9155976499208,7,10,-1.0997490882873535,3.553081512451172,8.934018598915955,8.589607217836564,35.916653889217834,31.08569293046505,-0.0001295089750783,0.0995923578739166,0,0,0
2922,108592.30286993082,2010-12-14 18:46:28,1860.930441544536,7,10,-1.099568486213684,3.5498437881469727,8.934018598915955,8.59877436446461,35.916653889217834,31.11824993703852,-6.47544875391759e-05,0.0995923578739166,0,0,0
2923,108622.3177556445,2010-12-14 18:46:58,1890.9453271629784,7,10,-1.099568486213684,3.5464441776275635,8.934018598915955,8.607941575727063,35.916653889217834,31.150775579555063,-6.47544875391759e-05,0.0995923578739166,0,0,0
2924,108652.33281490004,2010-12-14 18:47:28,1920.9603863984607,7,10,-1.0993878841400146,3.5430445671081543,8.934018598915955,8.617108829018166,35.916653889217834,31.183269919566403,-6.47544875391759e-05,0.0995923578739166,0,0,0
2925,108682.34781531915,2010-12-14 18:47:58,1950.9753868276057,7,10,-1.099568486213684,3.539644956588745,8.934018598915955,8.626276089853544,35.916653889217834,31.215733133476355,-3.237724376958795e-05,0.0995923578739166,0,0,0
2926,108712.36308555472,2010-12-14 18:48:28,1980.990657078191,7,10,-1.099568486213684,3.536245346069336,8.934018598915955,8.635443426930083,35.916653889217834,31.248166100553284,-9.713172767078504e-05,0.0995923578739166,0,0,0
2927,108742.37779672904,2010-12-14 18:48:58,2011.0053682274736,7,10,-1.0993878841400146,3.5330076217651367,8.934018598915955,8.644610555867484,35.916653889217834,31.28056809568036,-6.47544875391759e-05,0.0995923578739166,0,0,0
2928,108772.3929143398,2010-12-14 18:49:28,2041.0204858632828,7,10,-1.0997490882873535,3.5294461250305176,8.934018598915955,8.653777622557048,35.916653889217834,31.31293920522771,-0.0001295089750783,0.0995923578739166,0,0,0
2929,108802.4079976502,2010-12-14 18:49:58,2071.0355692338244,7,10,-1.099568486213684,3.5262084007263184,8.934018598915955,8.66294483241693,35.916653889217834,31.34527969972125,-6.47544875391759e-05,0.0995923578739166,0,0,0
2930,108832.42289159435,2010-12-14 18:50:28,2101.05046310781,7,10,-1.0997490882873535,3.5224850177764893,8.934018598915955,8.672112160042285,35.916653889217834,31.37758850893665,-0.0001295089750783,0.0995923578739166,0,0,0
2931,108862.43785516678,2010-12-14 18:50:58,2131.0654266952765,7,10,-1.0993878841400146,3.51908540725708,8.934018598915955,8.681279343367338,35.916653889217834,31.40986411368875,-9.713172767078504e-05,0.0995923578739166,0,0,0
2932,108892.45291836212,2010-12-14 18:51:28,2161.0804899557743,7,10,-1.099568486213684,3.515362024307251,8.934018598915955,8.690446611910765,35.916653889217834,31.44210768825506,-9.713172767078504e-05,0.0995923578739166,0,0,0
2933,108922.46787218528,2010-12-14 18:51:58,2191.095443683705,7,10,-1.099568486213684,3.511800527572632,8.934018598915955,8.69961388544932,35.916653889217834,31.47431845237056,-0.0001295089750783,0.0995923578739166,0,0,0
2934,108952.48289435352,2010-12-14 18:52:28,2221.110465882022,7,10,-1.099568486213684,3.508077383041382,8.934018598915955,8.708781153298924,35.916653889217834,31.50649538107104,-9.713172767078504e-05,0.0995923578739166,0,0,0
2935,108982.49800651072,2010-12-14 18:52:58,2251.125578019148,7,10,-1.099568486213684,3.5041921138763428,8.934018598915955,8.717948398574432,35.916653889217834,31.53863738934919,-6.47544875391759e-05,0.0995923578739166,0,0,0
2936,109012.51288018945,2010-12-14 18:53:28,2281.1404517129167,7,10,-1.099568486213684,3.5001449584960938,8.934018598915955,8.727115624001426,35.916653889217834,31.5707429834556,-0.0001295089750783,0.0995923578739166,0,0,0
2937,109042.52788369622,2010-12-14 18:53:58,2311.15545521972,7,10,-1.099568486213684,3.4959359169006348,8.934018598915955,8.736282912267113,35.916653889217834,31.602810821449307,-0.0001295089750783,0.0995923578739166,0,0,0
2938,109072.5429098494,2010-12-14 18:54:28,2341.1704814430527,7,10,-1.0997490882873535,3.491564989089966,8.934018598915955,8.745450253977577,35.916653889217834,31.63483937398531,-0.0001295089750783,0.0995923578739166,0,0,0
2939,109102.55812061696,2010-12-14 18:54:58,2371.185692205604,7,10,-1.099568486213684,3.487032175064087,8.934018598915955,8.754617577953116,35.916653889217834,31.6668262318783,-9.713172767078504e-05,0.0995923578739166,0,0,0
2940,109132.57289956496,2010-12-14 18:55:28,2401.200471093452,7,10,-1.099568486213684,3.481851816177368,8.934018598915955,8.763784847572582,35.916653889217834,31.69876833554969,-9.713172767078504e-05,0.0995923578739166,0,0,0
2941,109162.58792986342,2010-12-14 18:55:58,2431.215501391925,7,10,-1.099568486213684,3.4761857986450195,8.934018598915955,8.772952168845142,35.916653889217834,31.730661329974307,-0.0001618862152099,0.0995923578739166,0,0,0
2942,109192.60304855186,2010-12-14 18:56:28,2461.230620075341,7,10,-1.0993878841400146,3.470034122467041,8.934018598915955,8.782119399576239,35.916653889217834,31.762501184858195,-0.0002266406954731,0.0995923578739166,0,0,0
2943,109222.61791449132,2010-12-14 18:56:58,2491.245486019826,7,10,-1.099568486213684,3.4633967876434326,8.934018598915955,8.791286648415317,35.916653889217834,31.794282302631427,-0.0001618862152099,0.0995923578739166,0,0,0
2944,109252.63291929636,2010-12-14 18:57:28,2521.2604908248604,7,10,-1.099568486213684,3.4556262493133545,8.934018598915955,8.800453863605801,35.916653889217834,31.82599688903875,-0.0002266406954731,0.0995923578739166,0,0,0
2945,109282.64793016648,2010-12-14 18:57:58,2551.2755016899746,7,10,-1.099568486213684,3.4468843936920166,8.934018598915955,8.80962106936359,35.916653889217834,31.85763577114811,-0.0002266406954731,0.0995923578739166,0,0,0
2946,109312.6629439238,2010-12-14 18:58:28,2581.2905154522987,7,10,-1.0993878841400146,3.436523675918579,8.934018598915955,8.8187883491528,35.916653889217834,31.88918680143397,-0.0002590179501567,0.0995923578739166,0,0,0
2947,109342.67806948934,2010-12-14 18:58:58,2611.305641012828,7,10,-1.099568486213684,3.423896789550781,8.934018598915955,8.827955677959388,35.916653889217834,31.92063407377089,-0.0004209041653666,0.0995923578739166,0,0,0
2948,109372.69299306224,2010-12-14 18:59:28,2641.3205645807066,7,10,-1.099568486213684,3.4093270301818848,8.934018598915955,8.837122959616845,35.916653889217834,31.951957371538445,-0.0003885269106831,0.0995923578739166,0,0,0
2949,109402.70795481514,2010-12-14 18:59:58,2671.335526313557,7,10,-1.0993878841400146,3.391195774078369,8.934018598915955,8.846290215920664,35.916653889217834,31.98313123269997,-0.0005180359003134,0.0995923578739166,0,0,0
2950,109432.72313474596,2010-12-14 19:00:28,2701.350706309547,7,10,-1.0997490882873535,3.3685317039489746,8.934018598915955,8.855457596278562,35.916653889217834,32.01412067074826,-0.0007122993702068,0.0995923578739166,0,0,0
2951,109462.73810518548,2010-12-14 19:00:58,2731.3656767139764,7,10,-1.0993878841400146,3.3395543098449707,8.934018598915955,8.864624991677527,35.916653889217834,32.04487450943994,-0.0008418083307333,0.0995923578739166,0,0,0
2952,109492.75296747588,2010-12-14 19:01:28,2761.380538989331,7,10,-1.0993878841400146,3.301025390625,8.934018598915955,8.873792213428736,35.916653889217834,32.075320923755434,-0.0011332035064697,0.0995923578739166,0,0,0
2953,109522.76820855887,2010-12-14 19:01:58,2791.3957801725837,7,10,-1.0993878841400146,3.249707698822021,8.934018598915955,8.882959532091357,35.916653889217834,32.105359258381114,-0.0015217304462566,0.0995923578739166,0,0,0
2954,109552.78299122112,2010-12-14 19:02:28,2821.410562744599,7,10,-1.099568486213684,3.1788017749786377,8.934018598915955,8.892126720867854,35.916653889217834,32.13484259617931,-0.0021692751906812,0.0995923578739166,0,0,0
2955,109582.79800852724,2010-12-14 19:02:58,2851.4255800507417,7,10,-1.099568486213684,3.077461242675781,8.934018598915955,8.901294022610957,35.916653889217834,32.16354995177674,-0.0031729699112474,0.0995923578739166,0,0,0
2956,109612.81298483135,2010-12-14 19:03:28,2881.440556354853,7,10,-1.099568486213684,2.9152517318725586,8.934018598915955,8.910461347038883,35.916653889217834,32.191087010311875,-0.0054717538878321,0.0995923578739166,0,0,0
2957,109636.03139975388,2010-12-14 19:03:52,2904.6589713224835,7,10,-1.0997490882873535,2.714998960494995,8.934018598915955,8.917552802509258,35.916653889217834,32.21108803487472,-0.0077057839371263,0.0995923578739166,0,0,0
2958,109637.60935003748,2010-12-14 19:03:53,2906.236921560961,7,10,-1.0993878841400146,2.699781894683838,8.934018598915955,8.918034753867346,35.916653889217834,32.212392941178145,-0.0077381134033203,0.0995923578739166,0,0,0
2959,109697.6241776914,2010-12-14 19:04:53,60.01433061850065,8,10,0.0,3.4340953826904297,8.934018598915955,8.918034753867346,35.916653889217834,32.212392941178145,0.0012950419913977,0.0995923578739166,0,0,0
2960,109697.813319912,2010-12-14 19:04:54,0.187422212968425,9,10,-1.9243103452026844e-05,3.43425726890564,8.934018598915955,8.918034754869176,35.916653889217834,32.212392944618685,0.0,0.0969880521297454,0,0,0
2961,109702.6415613852,2010-12-14 19:04:58,5.015663776397419,9,10,0.0007031940040178,3.442189693450928,8.934019695849985,8.918034755036212,35.91665766165604,32.21239294519233,0.0010684489971026,0.0969880521297454,0,0,0
