Data_Point,Test_Time(s),Date_Time,Step_Time(s),Step_Index,Cycle_Index,Current(A),Voltage(V),Charge_Capacity(Ah),Discharge_Capacity(Ah),Charge_Energy(Wh),Discharge_Energy(Wh),dV/dt(V/s),Internal_Resistance(Ohm),Is_FC_Data,AC_Impedance(Ohm),ACI_Phase_Angle(Deg)
12317,453291.6471527163,2010-12-18 18:32:08,30.013328062524824,1,43,0.0,3.4551405906677246,37.01148749501392,36.98573677738036,148.67118319842578,133.7340144782445,0.0008094310760498,0.0931148082017898,0,0,0
12318,453321.6621270305,2010-12-18 18:32:38,60.02830239673341,1,43,0.0,3.480232954025269,37.01148749501392,36.98573677738036,148.67118319842578,133.7340144782445,0.0005827903514727,0.0931148082017898,0,0,0
12319,453351.6772885957,2010-12-18 18:33:08,90.04346402702107,1,43,0.0,3.498849868774414,37.01148749501392,36.98573677738036,148.67118319842578,133.7340144782445,0.0004209041653666,0.0931148082017898,0,0,0
12320,453381.6454775312,2010-12-18 18:33:38,120.01165287735247,1,43,0.0,3.5135812759399414,37.01148749501392,36.98573677738036,148.67118319842578,133.7340144782445,0.0003561496851034,0.0931148082017898,0,0,0
12321,453411.6730868051,2010-12-18 18:34:09,30.015107320138963,2,43,0.5501165986061096,3.659764289855957,37.0160745391944,36.98573677738036,148.68783311642025,133.7340144782445,0.0012627125252038,0.0931148082017898,0,0,0
12322,453441.6881990676,2010-12-18 18:34:39,60.03021957756417,2,43,0.5501165986061096,3.6982929706573486,37.02066191436895,36.98573677738036,148.7047166422071,133.7340144782445,0.0008741855854168,0.0931148082017898,0,0,0
12323,453471.7033356555,2010-12-18 18:35:09,90.04535616553501,2,43,0.550297200679779,3.725489854812622,37.02524926670117,36.98573677738036,148.72174767075452,133.7340144782445,0.0006475448608398,0.0931148082017898,0,0,0
12324,453501.71841418406,2010-12-18 18:35:39,120.06043468400212,2,43,0.550297200679779,3.746049404144287,37.02983659207406,36.98573677738036,148.73888691204291,133.7340144782445,0.0004856586456298,0.0931148082017898,0,0,0
12325,453531.7336458987,2010-12-18 18:36:09,150.07566641372955,2,43,0.5501165986061096,3.7611045837402335,37.03442394741925,36.98573677738036,148.75610766613207,133.7340144782445,0.0003885269106831,0.0931148082017898,0,0,0
12326,453561.7486372252,2010-12-18 18:36:39,180.09065774022278,2,43,0.5499359965324402,3.770979642868042,37.0390112694144,36.98573677738036,148.77338547665087,133.7340144782445,0.0001942634553415,0.0931148082017898,0,0,0
12327,453591.7638837768,2010-12-18 18:37:09,210.1059043469711,2,43,0.550297200679779,3.77810263633728,37.04359864293811,36.98573677738036,148.79070184267553,133.7340144782445,0.0001618862152099,0.0931148082017898,0,0,0
12328,453621.7788634342,2010-12-18 18:37:39,240.1208841147008,2,43,0.5501165986061096,3.783768653869629,37.04818594915482,36.98573677738036,148.80804640313738,133.7340144782445,0.0001295089750783,0.0931148082017898,0,0,0
12329,453651.7939591656,2010-12-18 18:38:09,270.1359796655524,2,43,0.5501165986061096,3.7887871265411377,37.05277326579404,36.98573677738036,148.82541546098108,133.7340144782445,0.0001295089750783,0.0931148082017898,0,0,0
12330,453681.80909440015,2010-12-18 18:38:39,300.15111491018035,2,43,0.5504778623580933,3.7938055992126474,37.05736054380844,36.98573677738036,148.8428068906234,133.7340144782445,0.0001618862152099,0.0931148082017898,0,0,0
12331,453711.8260378394,2010-12-18 18:39:09,330.1680584246182,2,43,0.550297200679779,3.798176527023315,37.06194818425074,36.98573677738036,148.86022092999005,133.7340144782445,0.0001295089750783,0.0931148082017898,0,0,0
12332,453741.8394156959,2010-12-18 18:39:39,360.1814361958412,2,43,0.5497553944587708,3.8023855686187744,37.06653527988374,36.98573677738036,148.87765318130863,133.7340144782445,0.0001295089750783,0.0931148082017898,0,0,0
12333,453771.85439096735,2010-12-18 18:40:09,390.1964114673824,2,43,0.5499359965324402,3.8065946102142334,37.07112264442913,36.98573677738036,148.89510592031382,133.7340144782445,9.713172767078504e-05,0.0931148082017898,0,0,0
12334,453801.8697033829,2010-12-18 18:40:39,420.21172389793065,2,43,0.550297200679779,3.8106417655944815,37.07571001565261,36.98573677738036,148.9125774988524,133.7340144782445,0.0001295089750783,0.0931148082017898,0,0,0
12335,453831.8717866232,2010-12-18 18:41:09,450.21380722335965,2,43,0.5501165986061096,3.8145270347595215,37.08029539248957,36.98573677738036,148.93005995753362,133.7340144782445,6.47544875391759e-05,0.0931148082017898,0,0,0
12336,453861.8842877328,2010-12-18 18:41:39,480.2263083180068,2,43,0.5501165986061096,3.8185741901397705,37.08488231857437,36.98573677738036,148.94756645411377,133.7340144782445,9.713172767078504e-05,0.0931148082017898,0,0,0
12337,453891.8992193507,2010-12-18 18:42:09,510.2412398607304,2,43,0.5501165986061096,3.8222975730896,37.08946961815724,36.98573677738036,148.96509205527406,133.7340144782445,9.713172767078504e-05,0.0931148082017898,0,0,0
12338,453921.9143169467,2010-12-18 18:42:39,540.2563374566711,2,43,0.550297200679779,3.826182842254639,37.0940568999306,36.98573677738036,148.9826351144336,133.7340144782445,9.713172767078504e-05,0.0931148082017898,0,0,0
12339,453951.9293893599,2010-12-18 18:43:09,570.2714098699456,2,43,0.5501165986061096,3.8300681114196777,37.09864422363801,36.98573677738036,149.00019589952103,133.7340144782445,0.0001295089750783,0.0931148082017898,0,0,0
12340,453981.9446497861,2010-12-18 18:43:39,600.286670296083,2,43,0.550297200679779,3.8339531421661377,37.10323155671503,36.98573677738036,149.01777429601736,133.7340144782445,0.0001295089750783,0.0931148082017898,0,0,0
12341,454011.9596216743,2010-12-18 18:44:09,630.3016421691672,2,43,0.550297200679779,3.837676525115967,37.10781877587071,36.98573677738036,149.03536982900837,133.7340144782445,9.713172767078504e-05,0.0931148082017898,0,0,0
12342,454041.9748141813,2010-12-18 18:44:39,660.316834691328,2,43,0.550297200679779,3.841561794281006,37.11240609279312,36.98573677738036,149.0529833520397,133.7340144782445,9.713172767078504e-05,0.0931148082017898,0,0,0
12343,454071.9898837576,2010-12-18 18:45:09,690.3319042575177,2,43,0.550297200679779,3.845447063446045,37.1169933977103,36.98573677738036,149.07061448039943,133.7340144782445,0.0001295089750783,0.0931148082017898,0,0,0
12344,454102.0051637975,2010-12-18 18:45:39,720.3471843074883,2,43,0.550297200679779,3.849170446395874,37.12158068955837,36.98573677738036,149.08826312734448,133.7340144782445,9.713172767078504e-05,0.0931148082017898,0,0,0
12345,454132.02010592655,2010-12-18 18:46:09,750.3621264365555,2,43,0.5501165986061096,3.852893829345703,37.12616794664071,36.98573677738036,149.10592900871418,133.7340144782445,9.713172767078504e-05,0.0931148082017898,0,0,0
12346,454162.03525402816,2010-12-18 18:46:39,780.3772746584772,2,43,0.5501165986061096,3.856617212295532,37.13075521243369,36.98573677738036,149.12361195578404,133.7340144782445,9.713172767078504e-05,0.0931148082017898,0,0,0
12347,454192.0503268324,2010-12-18 18:47:09,810.3923473424251,2,43,0.5501165986061096,3.860340595245361,37.135342486658416,36.98573677738036,149.14131168980418,133.7340144782445,9.713172767078504e-05,0.0931148082017898,0,0,0
12348,454222.0654434056,2010-12-18 18:47:39,840.4074639155899,2,43,0.550297200679779,3.8637402057647705,37.13992972165714,36.98573677738036,149.15902756715525,133.7340144782445,9.713172767078504e-05,0.0931148082017898,0,0,0
12349,454252.08132752375,2010-12-18 18:48:09,870.4233481039357,2,43,0.5501165986061096,3.8669779300689697,37.14451713188226,36.98573677738036,149.1767597842331,133.7340144782445,6.47544875391759e-05,0.0931148082017898,0,0,0
12350,454282.0956722311,2010-12-18 18:48:39,900.4376927411676,2,43,0.550297200679779,3.870215654373169,37.14910432824744,36.98573677738036,149.19450642610911,133.7340144782445,6.47544875391759e-05,0.0931148082017898,0,0,0
12351,454312.11076403264,2010-12-18 18:49:09,930.4527845477014,2,43,0.550297200679779,3.873615264892578,37.153691664284494,36.98573677738036,149.2122682506921,133.7340144782445,9.713172767078504e-05,0.0931148082017898,0,0,0
12352,454342.12773551175,2010-12-18 18:49:39,960.4697561019152,2,43,0.5499359965324402,3.876367330551148,37.15827930237864,36.98573677738036,149.2300451095004,133.7340144782445,9.713172767078504e-05,0.0931148082017898,0,0,0
12353,454372.1412047205,2010-12-18 18:50:09,990.483225310677,2,43,0.5501165986061096,3.879281282424927,37.16286638603603,36.98573677738036,149.24783312884446,133.7340144782445,6.47544875391759e-05,0.0931148082017898,0,0,0
12354,454402.156091978,2010-12-18 18:50:39,1020.4981125782234,2,43,0.5499359965324402,3.881871461868286,37.16745359211421,36.98573677738036,149.26563414841192,133.7340144782445,6.47544875391759e-05,0.0931148082017898,0,0,0
12355,454432.1712002956,2010-12-18 18:51:09,1050.51322080562,2,43,0.5501165986061096,3.8844616413116455,37.17204086286634,36.98573677738036,149.28344738444747,133.7340144782445,6.47544875391759e-05,0.0931148082017898,0,0,0
12356,454462.1864805762,2010-12-18 18:51:39,1080.5285010711268,2,43,0.550297200679779,3.886889934539795,37.17662819460924,36.98573677738036,149.30127209859378,133.7340144782445,9.713172767078504e-05,0.0931148082017898,0,0,0
12357,454492.2014465095,2010-12-18 18:52:09,1110.5434670194677,2,43,0.5501165986061096,3.8891563415527344,37.18121547862664,36.98573677738036,149.31910736940927,133.7340144782445,9.713172767078504e-05,0.0931148082017898,0,0,0
12358,454522.2166542997,2010-12-18 18:52:39,1140.5586748096223,2,43,0.5501165986061096,3.891098976135254,37.18580286368042,36.98573677738036,149.33695320742564,133.7340144782445,6.47544875391759e-05,0.0931148082017898,0,0,0
12359,454552.23164009233,2010-12-18 18:53:09,1170.57366059232,2,43,0.5501165986061096,3.893365383148194,37.190390213161336,36.98573677738036,149.35480858786744,133.7340144782445,6.47544875391759e-05,0.0931148082017898,0,0,0
12360,454582.2467622193,2010-12-18 18:53:39,1200.5887827293302,2,43,0.550297200679779,3.895146131515503,37.19497758216308,36.98573677738036,149.37267320894773,133.7340144782445,6.47544875391759e-05,0.0931148082017898,0,0,0
12361,454612.2619165814,2010-12-18 18:54:09,1230.603937096544,2,43,0.5501165986061096,3.8970887660980233,37.19956494838748,36.98573677738036,149.3905465684322,133.7340144782445,3.237724376958795e-05,0.0931148082017898,0,0,0
12362,454642.2769758872,2010-12-18 18:54:39,1260.6189964723756,2,43,0.5501165986061096,3.899031400680542,37.20415223847884,36.98573677738036,149.40842839637745,133.7340144782445,3.237724376958795e-05,0.0931148082017898,0,0,0
12363,454672.2921150366,2010-12-18 18:55:09,1290.6341355465331,2,43,0.5504778623580933,3.9009740352630615,37.20873962401657,36.98573677738036,149.42631911511734,133.7340144782445,6.47544875391759e-05,0.0931148082017898,0,0,0
12364,454702.3072083517,2010-12-18 18:55:39,1320.6492288618217,2,43,0.5501165986061096,3.902592897415161,37.21332691716431,36.98573677738036,149.44421778937803,133.7340144782445,3.237724376958795e-05,0.0931148082017898,0,0,0
12365,454732.3223061683,2010-12-18 18:56:09,1350.664326678311,2,43,0.550297200679779,3.9045355319976807,37.2179142172543,36.98573677738036,149.46212474959992,133.7340144782445,6.47544875391759e-05,0.0931148082017898,0,0,0
12366,454762.3375389256,2010-12-18 18:56:39,1380.6795594255705,2,43,0.550297200679779,3.9063162803649902,37.22250161285234,36.98573677738036,149.48004013869718,133.7340144782445,6.47544875391759e-05,0.0931148082017898,0,0,0
12367,454792.35271800926,2010-12-18 18:57:09,1410.69473858949,2,43,0.550297200679779,3.9080970287323,37.22708896876821,36.98573677738036,149.49796341948058,133.7340144782445,3.237724376958795e-05,0.0931148082017898,0,0,0
12368,454822.36764634406,2010-12-18 18:57:39,1440.7096668590684,2,43,0.550297200679779,3.9097158908844,37.23167623435948,36.98573677738036,149.51589431600044,133.7340144782445,3.237724376958795e-05,0.0931148082017898,0,0,0
12369,454852.3828727455,2010-12-18 18:58:09,1470.7248932555244,2,43,0.550297200679779,3.911496639251709,37.236263636900695,36.98573677738036,149.53383369067723,133.7340144782445,6.47544875391759e-05,0.0931148082017898,0,0,0
12370,454882.3978825832,2010-12-18 18:58:39,1500.7399030930817,2,43,0.550297200679779,3.9131155014038086,37.24085091051484,36.98573677738036,149.55178048706657,133.7340144782445,3.237724376958795e-05,0.0931148082017898,0,0,0
12371,454912.41297047486,2010-12-18 18:59:09,1530.7549909848738,2,43,0.5501165986061096,3.914896011352539,37.245438254344656,36.98573677738036,149.56973541577108,133.7340144782445,6.47544875391759e-05,0.0931148082017898,0,0,0
12372,454942.4299331971,2010-12-18 18:59:39,1560.7719537822968,2,43,0.550297200679779,3.916514873504639,37.25002588037627,36.98573677738036,149.58769920019196,133.7340144782445,0.0,0.0931148082017898,0,0,0
12373,454972.4431977516,2010-12-18 19:00:09,1590.7852182615973,2,43,0.5501165986061096,3.918295621871948,37.25461288960101,36.98573677738036,149.60566843591232,133.7340144782445,3.237724376958795e-05,0.0931148082017898,0,0,0
12374,455002.4583026507,2010-12-18 19:00:39,1620.8003231657235,2,43,0.5501165986061096,3.919914484024048,37.25920026225831,36.98573677738036,149.62364694621735,133.7340144782445,3.237724376958795e-05,0.0931148082017898,0,0,0
12375,455032.4734846216,2010-12-18 19:01:09,1650.815505131616,2,43,0.5501165986061096,3.921695232391357,37.26378758874995,36.98573677738036,149.6416331215841,133.7340144782445,6.47544875391759e-05,0.0931148082017898,0,0,0
12376,455062.4885380175,2010-12-18 19:01:39,1680.8305585275668,2,43,0.5501165986061096,3.923314094543457,37.26837487089973,36.98573677738036,149.65962696061746,133.7340144782445,3.237724376958795e-05,0.0931148082017898,0,0,0
12377,455092.5036584754,2010-12-18 19:02:09,1710.845678970361,2,43,0.5504778623580933,3.925256729125977,37.27296214082575,36.98573677738036,149.6776285682456,133.7340144782445,6.47544875391759e-05,0.0931148082017898,0,0,0
12378,455122.5187098463,2010-12-18 19:02:39,1740.86073035631,2,43,0.5501165986061096,3.926713705062866,37.27754943646925,36.98573677738036,149.6956380316309,133.7340144782445,3.237724376958795e-05,0.0931148082017898,0,0,0
12379,455152.53382483055,2010-12-18 19:03:09,1770.875845345533,2,43,0.550297200679779,3.928494453430176,37.28213670771865,36.98573677738036,149.71365526591762,133.7340144782445,3.237724376958795e-05,0.0931148082017898,0,0,0
12380,455182.548958817,2010-12-18 19:03:40,1800.8909793119803,2,43,0.5501165986061096,3.930275201797485,37.28672402462165,36.98573677738036,149.73168051905822,133.7340144782445,6.47544875391759e-05,0.0931148082017898,0,0,0
12381,455212.5642090478,2010-12-18 19:04:10,1830.9062296129216,2,43,0.550297200679779,3.932055950164795,37.2913114329987,36.98573677738036,149.7497140208126,133.7340144782445,6.47544875391759e-05,0.0931148082017898,0,0,0
12382,455242.5792796866,2010-12-18 19:04:40,1860.9213001966432,2,43,0.550297200679779,3.9336748123168954,37.29589873692974,36.98573677738036,149.7677549663517,133.7340144782445,3.237724376958795e-05,0.0931148082017898,0,0,0
12383,455272.5942860004,2010-12-18 19:05:10,1890.9363065806065,2,43,0.550297200679779,3.935455560684204,37.30048607903717,36.98573677738036,149.78580396000308,133.7340144782445,6.47544875391759e-05,0.0931148082017898,0,0,0
12384,455302.6095909022,2010-12-18 19:05:40,1920.9516115024696,2,43,0.5501165986061096,3.937074422836304,37.30507351862385,36.98573677738036,149.80386117301458,133.7340144782445,6.47544875391759e-05,0.0931148082017898,0,0,0
12385,455332.6245068411,2010-12-18 19:06:10,1950.966527426326,2,43,0.5501165986061096,3.938855171203613,37.30966082194271,36.98573677738036,149.82192586328935,133.7340144782445,3.237724376958795e-05,0.0931148082017898,0,0,0
12386,455362.63973227015,2010-12-18 19:06:40,1980.9817528754247,2,43,0.550297200679779,3.940635919570923,37.31424818467836,36.98573677738036,149.8399986802456,133.7340144782445,3.237724376958795e-05,0.0931148082017898,0,0,0
12387,455392.6547446541,2010-12-18 19:07:10,2010.996765254306,2,43,0.550297200679779,3.9422547817230233,37.318835529460856,36.98573677738036,149.85807940325435,133.7340144782445,0.0,0.0931148082017898,0,0,0
12388,455422.6698477086,2010-12-18 19:07:40,2041.0118682186053,2,43,0.550297200679779,3.944035530090332,37.32342290954071,36.98573677738036,149.87616821642004,133.7340144782445,0.0,0.0931148082017898,0,0,0
12389,455452.6849481766,2010-12-18 19:08:10,2071.0269687819305,2,43,0.550297200679779,3.9458162784576416,37.328010302418456,36.98573677738036,149.8942651039721,133.7340144782445,6.47544875391759e-05,0.0931148082017898,0,0,0
12390,455482.7001967233,2010-12-18 19:08:40,2101.042217223244,2,43,0.5501165986061096,3.947597026824951,37.3325977249749,36.98573677738036,149.91237008509125,133.7340144782445,3.237724376958795e-05,0.0931148082017898,0,0,0
12391,455512.71523624967,2010-12-18 19:09:10,2131.057256854943,2,43,0.5501165986061096,3.949215888977051,37.337185021014,36.98573677738036,149.9304826582832,133.7340144782445,3.237724376958795e-05,0.0931148082017898,0,0,0
12392,455542.7321910472,2010-12-18 19:09:40,2161.074211632408,2,43,0.550297200679779,3.9511585235595694,37.34177269378655,36.98573677738036,149.9486048358495,133.7340144782445,6.47544875391759e-05,0.0931148082017898,0,0,0
12393,455572.7453794022,2010-12-18 19:10:10,2191.0873998970515,2,43,0.550297200679779,3.95293927192688,37.34635979291557,36.98573677738036,149.966732883062,133.7340144782445,6.47544875391759e-05,0.0931148082017898,0,0,0
12394,455602.76053145353,2010-12-18 19:10:40,2221.1025520537646,2,43,0.550297200679779,3.9547200202941895,37.35094711769087,36.98573677738036,149.98486999035123,133.7340144782445,3.237724376958795e-05,0.0931148082017898,0,0,0
12395,455632.77561613725,2010-12-18 19:11:10,2251.117636632312,2,43,0.5501165986061096,3.956338882446289,37.3555344443469,36.98573677738036,150.0030153010679,133.7340144782445,3.237724376958795e-05,0.0931148082017898,0,0,0
12396,455662.79071580345,2010-12-18 19:11:40,2281.132736318454,2,43,0.550297200679779,3.9582815170288086,37.36012182817242,36.98573677738036,150.02116896761487,133.7340144782445,3.237724376958795e-05,0.0931148082017898,0,0,0
12397,455692.80581519386,2010-12-18 19:12:10,2311.1478357088604,2,43,0.5501165986061096,3.959900379180908,37.36470914561375,36.98573677738036,150.03933067421028,133.7340144782445,3.237724376958795e-05,0.0931148082017898,0,0,0
12398,455722.8209561327,2010-12-18 19:12:40,2341.1629766426454,2,43,0.550297200679779,3.9620048999786377,37.36929653577665,36.98573677738036,150.0575010671354,133.7340144782445,3.237724376958795e-05,0.0931148082017898,0,0,0
12399,455752.83892222674,2010-12-18 19:13:10,2371.180942826958,2,43,0.5501165986061096,3.963623762130737,37.37388436947516,36.98573677738036,150.07568161359052,133.7340144782445,6.47544875391759e-05,0.0931148082017898,0,0,0
12400,455782.8512903755,2010-12-18 19:13:40,2401.193310960737,2,43,0.550297200679779,3.965728282928467,37.378471299341406,36.98573677738036,150.09386705930555,133.7340144782445,6.47544875391759e-05,0.0931148082017898,0,0,0
12401,455812.866261602,2010-12-18 19:14:10,2431.208282096988,2,43,0.550297200679779,3.9673471450805664,37.38305865359454,36.98573677738036,150.1120627608248,133.7340144782445,3.237724376958795e-05,0.0931148082017898,0,0,0
12402,455842.8813675788,2010-12-18 19:14:40,2461.223388088821,2,43,0.5501165986061096,3.969289779663086,37.387646094857736,36.98573677738036,150.13026734928732,133.7340144782445,3.237724376958795e-05,0.0931148082017898,0,0,0
12403,455872.8964803124,2010-12-18 19:15:10,2491.238500822431,2,43,0.550297200679779,3.971394300460816,37.39223350032806,36.98573677738036,150.1484805069299,133.7340144782445,6.47544875391759e-05,0.0931148082017898,0,0,0
12404,455902.91172208206,2010-12-18 19:15:40,2521.2537425921428,2,43,0.5501165986061096,3.973013162612915,37.39682094645723,36.98573677738036,150.16670263480864,133.7340144782445,3.237724376958795e-05,0.0931148082017898,0,0,0
12405,455932.9267202055,2010-12-18 19:16:10,2551.268740685475,2,43,0.550297200679779,3.975117683410645,37.40140832843312,36.98573677738036,150.18493338359286,133.7340144782445,6.47544875391759e-05,0.0931148082017898,0,0,0
12406,455962.9418094708,2010-12-18 19:16:40,2581.283829985772,2,43,0.550297200679779,3.977060317993164,37.40599571353192,36.98573677738036,150.2031730451541,133.7340144782445,6.47544875391759e-05,0.0931148082017898,0,0,0
12407,455992.9573429865,2010-12-18 19:17:10,2611.2993635666444,2,43,0.550297200679779,3.979002952575684,37.41058314258681,36.98573677738036,150.2214215270395,133.7340144782445,6.47544875391759e-05,0.0931148082017898,0,0,0
12408,456022.97208074696,2010-12-18 19:17:40,2641.314101256974,2,43,0.550297200679779,3.981107473373413,37.415170444635486,36.98573677738036,150.23967907516635,133.7340144782445,6.47544875391759e-05,0.0931148082017898,0,0,0
12409,456052.9871455964,2010-12-18 19:18:10,2671.3291661064263,2,43,0.5501165986061096,3.982888221740722,37.4197577544405,36.98573677738036,150.25794589709193,133.7340144782445,3.237724376958795e-05,0.0931148082017898,0,0,0
12410,456083.0022578939,2010-12-18 19:18:40,2701.344278403951,2,43,0.5501165986061096,3.984992742538452,37.42434507754188,36.98573677738036,150.27622205751553,133.7340144782445,0.0,0.0931148082017898,0,0,0
12411,456113.0173628231,2010-12-18 19:19:10,2731.3593833331406,2,43,0.5501165986061096,3.987259149551392,37.42893243130455,36.98573677738036,150.2945077871649,133.7340144782445,9.713172767078504e-05,0.0931148082017898,0,0,0
12412,456143.0343485125,2010-12-18 19:19:40,2761.376369097716,2,43,0.550297200679779,3.989363670349121,37.43352008853331,36.98573677738036,150.3128041251958,133.7340144782445,9.713172767078504e-05,0.0931148082017898,0,0,0
12413,456173.0477240032,2010-12-18 19:20:10,2791.389744513077,2,43,0.5501165986061096,3.9913063049316406,37.43810711933102,36.98573677738036,150.33110753489564,133.7340144782445,6.47544875391759e-05,0.0931148082017898,0,0,0
12414,456203.06270024704,2010-12-18 19:20:40,2821.404720757038,2,43,0.550297200679779,3.99341082572937,37.44269441408677,36.98573677738036,150.34942175036053,133.7340144782445,6.47544875391759e-05,0.0931148082017898,0,0,0
12415,456233.0778119782,2010-12-18 19:21:10,2851.419832488153,2,43,0.5501165986061096,3.995515108108521,37.447281671364735,36.98573677738036,150.3677456566386,133.7340144782445,3.237724376958795e-05,0.0931148082017898,0,0,0
12416,456263.0929433982,2010-12-18 19:21:40,2881.434963908264,2,43,0.550297200679779,3.99794340133667,37.45186897944616,36.98573677738036,150.38607980283135,133.7340144782445,6.47544875391759e-05,0.0931148082017898,0,0,0
12417,456293.108249874,2010-12-18 19:22:10,2911.450270439131,2,43,0.5497553944587708,4.0000481605529785,37.456456390080206,36.98573677738036,150.4044243889736,133.7340144782445,6.480216688942164e-05,0.0931148082017898,0,0,0
12418,456323.12313953246,2010-12-18 19:22:40,2941.465160132715,2,43,0.5501165986061096,4.002314567565918,37.46104360294854,36.98573677738036,150.42277841166543,133.7340144782445,6.47544875391759e-05,0.0931148082017898,0,0,0
12419,456353.1383997481,2010-12-18 19:23:10,2971.4804202430664,2,43,0.550297200679779,4.004580974578857,37.46563100195322,36.98573677738036,150.44114352333372,133.7340144782445,6.47544875391759e-05,0.0931148082017898,0,0,0
12420,456383.1533721274,2010-12-18 19:23:40,3001.495392637448,2,43,0.5501165986061096,4.006685256958008,37.470218230603656,36.98573677738036,150.45951834194543,133.7340144782445,9.70840483205393e-05,0.0931148082017898,0,0,0
12421,456413.1684708312,2010-12-18 19:24:10,3031.510491341145,2,43,0.550297200679779,4.009275436401367,37.47480559893791,36.98573677738036,150.47790427833928,133.7340144782445,0.0001295089750783,0.0931148082017898,0,0,0
12422,456443.1835850735,2010-12-18 19:24:40,3061.52560558351,2,43,0.5501165986061096,4.011380195617676,37.47939292641755,36.98573677738036,150.49630067331262,133.7340144782445,3.24249267578125e-05,0.0931148082017898,0,0,0
12423,456473.19872161135,2010-12-18 19:25:10,3091.540742121356,2,43,0.550297200679779,4.013970375061035,37.48398022163395,36.98573677738036,150.51470770210557,133.7340144782445,9.71794142969884e-05,0.0931148082017898,0,0,0
12424,456503.2138165808,2010-12-18 19:25:40,3121.5558370907606,2,43,0.5501165986061096,4.0160746574401855,37.48856750884895,36.98573677738036,150.53312554634863,133.7340144782445,6.47544875391759e-05,0.0931148082017898,0,0,0
12425,456533.2289435848,2010-12-18 19:26:10,3151.5709640948826,2,43,0.550297200679779,4.018503189086914,37.49315485815234,36.98573677738036,150.55155464823676,133.7340144782445,6.47544875391759e-05,0.0931148082017898,0,0,0
12426,456563.2440422333,2010-12-18 19:26:40,3181.586062743442,2,43,0.5501165986061096,4.020931243896484,37.49774220195101,36.98573677738036,150.56999474584123,133.7340144782445,6.47544875391759e-05,0.0931148082017898,0,0,0
12427,456593.2592890206,2010-12-18 19:27:10,3211.60130953064,2,43,0.5501165986061096,4.023521423339844,37.502329530753904,36.98573677738036,150.58844609625075,133.7340144782445,6.47544875391759e-05,0.0931148082017898,0,0,0
12428,456623.2742936602,2010-12-18 19:27:40,3241.6163142604864,2,43,0.5501165986061096,4.025949954986572,37.50691693306311,36.98573677738036,150.60690913400924,133.7340144782445,6.47544875391759e-05,0.0931148082017898,0,0,0
12429,456653.2893615423,2010-12-18 19:28:10,3271.631382057273,2,43,0.550297200679779,4.0287017822265625,37.511504247013015,36.98573677738036,150.62538324189043,133.7340144782445,9.70840483205393e-05,0.0931148082017898,0,0,0
12430,456683.3044670328,2010-12-18 19:28:40,3301.646487542848,2,43,0.550297200679779,4.030968189239502,37.51609162052698,36.98573677738036,150.64386913304983,133.7340144782445,6.47544875391759e-05,0.0931148082017898,0,0,0
12431,456713.319789353,2010-12-18 19:29:10,3331.661809847968,2,43,0.5501165986061096,4.033396720886231,37.520678967683736,36.98573677738036,150.66236651414442,133.7340144782445,3.24249267578125e-05,0.0931148082017898,0,0,0
12432,456743.3365693957,2010-12-18 19:29:40,3361.678590015924,2,43,0.5504778623580933,4.036148548126221,37.52526653777692,36.98573677738036,150.68087652491394,133.7340144782445,9.71794142969884e-05,0.0931148082017898,0,0,0
12433,456773.3498269577,2010-12-18 19:30:10,3391.691847467737,2,43,0.5501165986061096,4.038576602935791,37.5298536662019,36.98573677738036,150.69939668134325,133.7340144782445,6.47544875391759e-05,0.0931148082017898,0,0,0
12434,456803.3649015765,2010-12-18 19:30:40,3421.7069220714625,2,43,0.550297200679779,4.04149055480957,37.534441010714254,36.98573677738036,150.71792959784787,133.7340144782445,0.0001295089750783,0.0931148082017898,0,0,0
12435,456833.3800155833,2010-12-18 19:31:10,3451.7220360982906,2,43,0.5501165986061096,4.043919086456299,37.539028364961965,36.98573677738036,150.73647468275925,133.7340144782445,6.47544875391759e-05,0.0931148082017898,0,0,0
12436,456863.3951424922,2010-12-18 19:31:40,3481.737163002163,2,43,0.5501165986061096,4.046509265899658,37.54361570759884,36.98573677738036,150.75503190391262,133.7340144782445,3.24249267578125e-05,0.0931148082017898,0,0,0
12437,456893.4102412961,2010-12-18 19:32:10,3511.75226180611,2,43,0.550297200679779,4.0494232177734375,37.54820308061553,36.98573677738036,150.77360154174585,133.7340144782445,9.71794142969884e-05,0.0931148082017898,0,0,0
12438,456923.4253477842,2010-12-18 19:32:40,3541.767368294178,2,43,0.5501165986061096,4.052013397216797,37.55279043128914,36.98573677738036,150.7921834596501,133.7340144782445,6.47544875391759e-05,0.0931148082017898,0,0,0
12439,456953.4404368439,2010-12-18 19:33:10,3571.782457358889,2,43,0.550297200679779,4.054765224456787,37.55737772166617,36.98573677738036,150.81077766200153,133.7340144782445,6.47544875391759e-05,0.0931148082017898,0,0,0
12440,456983.45558845927,2010-12-18 19:33:40,3601.797608969243,2,43,0.5501165986061096,4.0573554039001465,37.56196510032871,36.98573677738036,150.82938485821538,133.7340144782445,3.23295607813634e-05,0.0931148082017898,0,0,0
12441,457013.4706658148,2010-12-18 19:34:10,3631.812686309778,2,43,0.5501165986061096,4.060431480407715,37.56655246292341,36.98573677738036,150.8480047670549,133.7340144782445,0.0001295089750783,0.0931148082017898,0,0,0
12442,457043.4857635461,2010-12-18 19:34:40,3661.8277840560936,2,43,0.550297200679779,4.063021659851074,37.57113972811944,36.98573677738036,150.86663664609372,133.7340144782445,3.24249267578125e-05,0.0931148082017898,0,0,0
12443,457073.5008828911,2010-12-18 19:35:10,3691.842903406168,2,43,0.550297200679779,4.0659356117248535,37.575727033633015,36.98573677738036,150.88528175452825,133.7340144782445,3.24249267578125e-05,0.0931148082017898,0,0,0
12444,457103.5159967225,2010-12-18 19:35:41,3721.858017232498,2,43,0.550297200679779,4.068687438964844,37.58031441120642,36.98573677738036,150.90394017063005,133.7340144782445,6.47544875391759e-05,0.0931148082017898,0,0,0
12445,457133.53122577054,2010-12-18 19:36:11,3751.873246330677,2,43,0.5501165986061096,4.071763515472412,37.58490182570296,36.98573677738036,150.9226119435021,133.7340144782445,6.47544875391759e-05,0.0931148082017898,0,0,0
12446,457163.5464149294,2010-12-18 19:36:41,3781.888435439343,2,43,0.550297200679779,4.074677467346191,37.58948928740478,36.98573677738036,150.94129720960262,133.7340144782445,6.47544875391759e-05,0.0931148082017898,0,0,0
12447,457193.56133735937,2010-12-18 19:37:11,3811.9033578543526,2,43,0.5501165986061096,4.077429294586182,37.59407664066112,36.98573677738036,150.95999544249747,133.7340144782445,6.47544875391759e-05,0.0931148082017898,0,0,0
12448,457223.57658590097,2010-12-18 19:37:41,3841.918606466091,2,43,0.5501165986061096,4.080343246459961,37.59866413259589,36.98573677738036,150.97870782911738,133.7340144782445,6.47544875391759e-05,0.0931148082017898,0,0,0
12449,457253.5915368821,2010-12-18 19:38:11,3871.9335573770113,2,43,0.5501165986061096,4.08325719833374,37.60325160338425,36.98573677738036,150.99743374701245,133.7340144782445,0.0,0.0931148082017898,0,0,0
12450,457283.6066251498,2010-12-18 19:38:41,3901.948645734963,2,43,0.5499359965324402,4.08649492263794,37.60783902399078,36.98573677738036,151.01617321413786,133.7340144782445,6.47544875391759e-05,0.0931148082017898,0,0,0
12451,457313.6218216919,2010-12-18 19:39:11,3931.963842191916,2,43,0.550297200679779,4.089570999145508,37.61242641327219,36.98573677738036,151.03492638298906,133.7340144782445,9.71794142969884e-05,0.0931148082017898,0,0,0
12452,457343.63860341377,2010-12-18 19:39:41,3961.980623998951,2,43,0.5501165986061096,4.092484951019287,37.61701407224433,36.98573677738036,151.05369463303765,133.7340144782445,6.47544875391759e-05,0.0931148082017898,0,0,0
12453,457373.6520011397,2010-12-18 19:40:11,3991.994021654656,2,43,0.5501165986061096,4.095560550689697,37.62160116845103,36.98573677738036,151.07247459455033,133.7340144782445,9.70840483205393e-05,0.0931148082017898,0,0,0
12454,457403.6671363041,2010-12-18 19:40:41,4022.0091567990353,2,43,0.550297200679779,4.098636627197266,37.6261885538949,36.98573677738036,151.09126992757223,133.7340144782445,6.47544875391759e-05,0.0931148082017898,0,0,0
12455,457433.6822236144,2010-12-18 19:41:11,4052.0242441244177,2,43,0.5499359965324402,4.101874351501465,37.63077600625532,36.98573677738036,151.1100798693373,133.7340144782445,6.47544875391759e-05,0.0931148082017898,0,0,0
12456,457463.6973630845,2010-12-18 19:41:41,4082.0393835945606,2,43,0.5501165986061096,4.105112075805664,37.635363447046245,36.98573677738036,151.1289041907871,133.7340144782445,9.71794142969884e-05,0.0931148082017898,0,0,0
12457,457493.7125608898,2010-12-18 19:42:11,4112.05458138483,2,43,0.5501165986061096,4.108187675476074,37.63995084884693,36.98573677738036,151.14774303281658,133.7340144782445,9.70840483205393e-05,0.0931148082017898,0,0,0
12458,457523.72754522896,2010-12-18 19:42:41,4142.069565738973,2,43,0.550297200679779,4.111425399780273,37.644538152122976,36.98573677738036,151.16659611274054,133.7340144782445,6.47544875391759e-05,0.0931148082017898,0,0,0
12459,457553.7426562584,2010-12-18 19:43:11,4172.084676768343,2,43,0.550297200679779,4.114663124084473,37.64912554203666,36.98573677738036,151.1854642940802,133.7340144782445,9.70840483205393e-05,0.0931148082017898,0,0,0
12460,457583.7577791773,2010-12-18 19:43:41,4202.099799692312,2,43,0.550297200679779,4.117900848388672,37.65371298790994,36.98573677738036,151.20434759674254,133.7340144782445,6.47544875391759e-05,0.0931148082017898,0,0,0
12461,457613.77292414114,2010-12-18 19:44:11,4232.114944651113,2,43,0.550297200679779,4.121300220489502,37.65830037964693,36.98573677738036,151.22324574471634,133.7340144782445,0.0001295089750783,0.0931148082017898,0,0,0
12462,457643.7881464774,2010-12-18 19:44:41,4262.13016705764,2,43,0.5501165986061096,4.124537944793701,37.66288786173317,36.98573677738036,151.2421593636716,133.7340144782445,9.70840483205393e-05,0.0931148082017898,0,0,0
12463,457673.8059255662,2010-12-18 19:45:11,4292.147946166422,2,43,0.5499359965324402,4.1277756690979,37.66747565619142,36.98573677738036,151.2610895306236,133.7340144782445,6.47544875391759e-05,0.0931148082017898,0,0,0
12464,457703.8184036336,2010-12-18 19:45:41,4322.1604242187295,2,43,0.5501165986061096,4.13133716583252,37.67206264412501,36.98573677738036,151.28003164500996,133.7340144782445,0.0001295089750783,0.0931148082017898,0,0,0
12465,457733.8334499068,2010-12-18 19:46:11,4352.175470416768,2,43,0.5501165986061096,4.134413242340088,37.67665012621495,36.98573677738036,151.29899119416592,133.7340144782445,6.47544875391759e-05,0.0931148082017898,0,0,0
12466,457763.8484321958,2010-12-18 19:46:41,4382.190452705771,2,43,0.550297200679779,4.137974739074707,37.68123758691042,36.98573677738036,151.31796615675975,133.7340144782445,9.71794142969884e-05,0.0931148082017898,0,0,0
12467,457793.8635460621,2010-12-18 19:47:11,4412.205566572201,2,43,0.550297200679779,4.141536235809326,37.68582502233808,36.98573677738036,151.3369566254221,133.7340144782445,0.0001295089750783,0.0931148082017898,0,0,0
12468,457823.87881097954,2010-12-18 19:47:41,4442.220831474477,2,43,0.550297200679779,4.144935607910156,37.69041253376846,36.98573677738036,151.35596316976557,133.7340144782445,9.70840483205393e-05,0.0931148082017898,0,0,0
12469,457853.8938969866,2010-12-18 19:48:11,4472.235917501629,2,43,0.5501165986061096,4.1483354568481445,37.69499994353528,36.98573677738036,151.3749855322632,133.7340144782445,6.47544875391759e-05,0.0931148082017898,0,0,0
12470,457883.9090069833,2010-12-18 19:48:41,4502.251027498429,2,43,0.550297200679779,4.151896953582764,37.69958732828307,36.98573677738036,151.39402377955977,133.7340144782445,9.71794142969884e-05,0.0931148082017898,0,0,0
12471,457913.9239857938,2010-12-18 19:49:11,4532.266006303764,2,43,0.550297200679779,4.155458450317383,37.70417470267366,36.98573677738036,151.41307811366298,133.7340144782445,0.0001295089750783,0.0931148082017898,0,0,0
12472,457943.9409977435,2010-12-18 19:49:41,4562.283018328687,2,43,0.550297200679779,4.159019947052002,37.70876236449304,36.98573677738036,151.43214977464766,133.7340144782445,9.71794142969884e-05,0.0931148082017898,0,0,0
12473,457973.9542846837,2010-12-18 19:50:11,4592.296305283918,2,43,0.550297200679779,4.162419319152832,37.71334946788789,36.98573677738036,151.4512353984524,133.7340144782445,9.70840483205393e-05,0.0931148082017898,0,0,0
12474,458003.9693393127,2010-12-18 19:50:41,4622.311359812688,2,43,0.550297200679779,4.166304588317871,37.71793687048381,36.98573677738036,151.47033872006008,133.7340144782445,0.0001618385285837,0.0931148082017898,0,0,0
12475,458033.98457970907,2010-12-18 19:51:11,4652.326600203969,2,43,0.550297200679779,4.16986608505249,37.72252432640825,36.98573677738036,151.48945886047895,133.7340144782445,0.0001295089750783,0.0931148082017898,0,0,0
12476,458063.99955676496,2010-12-18 19:51:41,4682.341577264963,2,43,0.5501165986061096,4.173265933990479,37.72711164999806,36.98573677738036,151.50859507756692,133.7340144782445,9.71794142969884e-05,0.0931148082017898,0,0,0
12477,458094.0148893156,2010-12-18 19:52:11,4712.356909810567,2,43,0.5499359965324402,4.176827430725098,37.731699048132285,36.98573677738036,151.52774835662547,133.7340144782445,3.24249267578125e-05,0.0931148082017898,0,0,0
12478,458124.0298844867,2010-12-18 19:52:41,4742.371904996665,2,43,0.5501165986061096,4.180712699890137,37.736286405063325,36.98573677738036,151.54691833138568,133.7340144782445,9.71794142969884e-05,0.0931148082017898,0,0,0
12479,458154.0448312923,2010-12-18 19:53:11,4772.386851802369,2,43,0.5501165986061096,4.184435844421387,37.74087355083243,36.98573677738036,151.56610433488348,133.7340144782445,0.0001295089750783,0.0931148082017898,0,0,0
12480,458184.06007651566,2010-12-18 19:53:41,4802.402097025676,2,43,0.550297200679779,4.188159465789795,37.74546023888138,36.98573677738036,151.58530530464276,133.7340144782445,9.71794142969884e-05,0.0931148082017898,0,0,0
12481,458214.0752905664,2010-12-18 19:54:11,4832.417311141572,2,43,0.5501165986061096,4.191720962524414,37.75004700723102,36.98573677738036,151.60452396377113,133.7340144782445,6.47544875391759e-05,0.0931148082017898,0,0,0
12482,458244.0902087108,2010-12-18 19:54:41,4862.432229220792,2,43,0.5501165986061096,4.195605754852295,37.75463357760372,36.98573677738036,151.62375908237357,133.7340144782445,6.47544875391759e-05,0.0931148082017898,0,0,0
12483,458274.1052919209,2010-12-18 19:55:11,4892.447312430934,2,43,0.5499359965324402,4.199491024017334,37.75922016208779,36.98573677738036,151.643011620922,133.7340144782445,9.70840483205393e-05,0.0931148082017898,0,0,0
12484,458277.8239824192,2010-12-18 19:55:15,4896.1660029292125,2,43,0.550297200679779,4.200138568878174,37.75978842358476,36.98573677738036,151.645398171762,133.7340144782445,0.0001295089750783,0.0931148082017898,0,0,0
12485,458307.8419052305,2010-12-18 19:55:45,30.015170341966357,3,43,0.0,4.112558841705322,37.75978842358476,36.98573677738036,151.645398171762,133.7340144782445,-0.0004208564641885,0.0931148082017898,0,0,0
12486,458337.8568984767,2010-12-18 19:56:15,60.03016364337409,3,43,0.0,4.101550579071045,37.75978842358476,36.98573677738036,151.645398171762,133.7340144782445,-0.0002265930233988,0.0931148082017898,0,0,0
12487,458367.8720043232,2010-12-18 19:56:45,90.0452695249332,3,43,0.0,4.095236778259277,37.75978842358476,36.98573677738036,151.645398171762,133.7340144782445,-0.0001295089750783,0.0931148082017898,0,0,0
12488,458397.8402615337,2010-12-18 19:57:15,120.0135266451516,3,43,0.0,4.090866088867188,37.75978842358476,36.98573677738036,151.645398171762,133.7340144782445,-9.70840483205393e-05,0.0931148082017898,0,0,0
12489,458397.84505766525,2010-12-18 19:57:15,2.611498614e-06,4,43,1.0139212608337402,4.199814796447754,37.75978842432028,36.98573677738036,151.645398174851,133.7340144782445,0.0,0.0931148082017898,0,0,0
12490,458398.5325479183,2010-12-18 19:57:16,0.687492899638716,4,43,0.9638924598693848,4.199653148651123,37.75997602477559,36.98573677738036,151.64618605054193,133.7340144782445,-3.23295607813634e-05,0.0931148082017898,0,0,0
12491,458400.2981512443,2010-12-18 19:57:18,2.45309622560757,4,43,0.913863718509674,4.199653148651123,37.76043556049843,36.98573677738036,151.64811596471384,133.7340144782445,-3.23295607813634e-05,0.0931148082017898,0,0,0
12492,458403.017037804,2010-12-18 19:57:20,5.171982855413278,4,43,0.8634737133979797,4.199653148651123,37.76110573699603,36.98573677738036,151.65093053567196,133.7340144782445,0.0,0.0931148082017898,0,0,0
12493,458406.8292733304,2010-12-18 19:57:24,8.984218316734335,4,43,0.8134449124336243,4.199653148651123,37.76199253477302,36.98573677738036,151.654654874365,133.7340144782445,0.0,0.0931148082017898,0,0,0
12494,458411.84481066215,2010-12-18 19:57:29,13.999755643466626,4,43,0.7628743648529053,4.199814796447754,37.76308954628965,36.98573677738036,151.65926205455517,133.7340144782445,3.23295607813634e-05,0.0931148082017898,0,0,0
12495,458418.43843396014,2010-12-18 19:57:36,20.593378941442744,4,43,0.7128455638885498,4.199814796447754,37.76443966950792,36.98573677738036,151.66493225632576,133.7340144782445,3.23295607813634e-05,0.0931148082017898,0,0,0
12496,458427.1101951093,2010-12-18 19:57:44,29.26514009053298,4,43,0.662274956703186,4.199653148651123,37.76609362145813,36.98573677738036,151.67187845839825,133.7340144782445,-6.47544875391759e-05,0.0931148082017898,0,0,0
12497,458439.1099781177,2010-12-18 19:57:56,41.26492309901949,4,43,0.6122462153434753,4.199814796447754,37.7682137561583,36.98573677738036,151.68078254160446,133.7340144782445,0.0,0.0931148082017898,0,0,0
12498,458456.7502849478,2010-12-18 19:58:14,58.90522992909278,4,43,0.5622174143791199,4.199653148651123,37.77108261153234,36.98573677738036,151.69283105823254,133.7340144782445,0.0,0.0931148082017898,0,0,0
12499,458486.09355851554,2010-12-18 19:58:43,88.24850349677851,4,43,0.5121886730194092,4.199653148651123,37.77544318516795,36.98573677738036,151.711144461828,133.7340144782445,-3.23295607813634e-05,0.0931148082017898,0,0,0
12500,458539.49885527743,2010-12-18 19:59:37,141.65380026373322,4,43,0.4621599018573761,4.199653148651123,37.7826378008859,36.98573677738036,151.74136015075766,133.7340144782445,-3.23295607813634e-05,0.0931148082017898,0,0,0
12501,458628.49733493605,2010-12-18 20:01:06,230.65227992234523,4,43,0.4119505286216736,4.199653148651123,37.79341687372786,36.98573677738036,151.78662982792304,133.7340144782445,-3.23295607813634e-05,0.0931148082017898,0,0,0
12502,458744.80785734754,2010-12-18 20:03:02,346.9628023288722,4,43,0.3619217574596405,4.199653148651123,37.80590201500696,36.98573677738036,151.83906454313754,133.7340144782445,-3.23295607813634e-05,0.0931148082017898,0,0,0
12503,458882.3524942263,2010-12-18 20:05:20,484.5074391975416,4,43,0.3118929862976074,4.199976921081543,37.818759375001726,36.98573677738036,151.89306258015864,133.7340144782445,6.47544875391759e-05,0.0931148082017898,0,0,0
12504,459048.28702519945,2010-12-18 20:08:06,650.4419701858085,4,43,0.2618642151355743,4.199653148651123,37.83196345612824,36.98573677738036,151.94851675219724,133.7340144782445,-3.23295607813634e-05,0.0931148082017898,0,0,0
12505,459252.87727649097,2010-12-18 20:11:30,855.032221472279,4,43,0.2118354439735412,4.199976921081543,37.8453771319126,36.98573677738036,152.00485116233918,133.7340144782445,3.24249267578125e-05,0.0931148082017898,0,0,0
12506,459521.2477055969,2010-12-18 20:15:59,1123.4026505781696,4,43,0.1618066728115081,4.199814796447754,37.85923026936962,36.98573677738036,152.0630312648089,133.7340144782445,0.0,0.0931148082017898,0,0,0
12507,459926.9126229813,2010-12-18 20:22:44,1529.0675679625838,4,43,0.111597292125225,4.199653148651123,37.87446442980974,36.98573677738036,152.12701127561058,133.7340144782445,-3.23295607813634e-05,0.0931148082017898,0,0,0
12508,460683.97798503184,2010-12-18 20:35:21,2286.1329300131483,4,43,0.0615685209631919,4.199814796447754,37.89210927921454,36.98573677738036,152.20111569407564,133.7340144782445,0.0,0.0931148082017898,0,0,0
12509,460982.3789687429,2010-12-18 20:40:20,2584.5339137091146,4,43,0.0498289167881011,4.199653148651123,37.89674165193748,36.98573677738036,152.22057063634307,133.7340144782445,-3.23295607813634e-05,0.0931148082017898,0,0,0
12510,461012.3805659703,2010-12-18 20:40:50,30.01508862862585,5,43,0.0,4.191558837890625,37.89674165193748,36.98573677738036,152.22057063634307,133.7340144782445,-6.47544875391759e-05,0.0931148082017898,0,0,0
12511,461042.38010015234,2010-12-18 20:41:20,60.01462291085895,5,43,0.0,4.190425872802734,37.89674165193748,36.98573677738036,152.22057063634307,133.7340144782445,-3.23295607813634e-05,0.0931148082017898,0,0,0
12512,461042.5551280052,2010-12-18 20:41:20,0.187523956152425,6,43,-1.9243103452026844e-05,4.190425872802734,37.89674165193748,36.98573677838273,152.22057063634307,133.73401448244485,0.0,0.0970755815505981,0,0,0
12513,461047.3832644671,2010-12-18 20:41:25,5.015660367915543,6,43,0.0007031940040178,4.190263748168945,37.896742676040425,36.98573677846719,152.22057492781107,133.73401448279876,-6.47544875391759e-05,0.0970755815505981,0,0,0
12514,461077.3862284117,2010-12-18 20:41:55,30.01543989774554,7,43,-1.099568486213684,4.009761333465576,37.89674267608788,36.99490563535938,152.22057492800988,133.7709876806309,-0.0009713172912597,0.0970755815505981,0,0,0
12515,461107.4009931242,2010-12-18 20:42:25,60.03020463036865,7,43,-1.0997490882873535,3.981107473373413,37.89674267608788,37.00407432165734,152.22057492800988,133.80761054772816,-0.0006475448608398,0.0970755815505981,0,0,0
12516,461137.4161091762,2010-12-18 20:42:55,90.04532057697423,7,43,-1.0997490882873535,3.961357355117798,37.89674267608788,37.01324297853227,152.22057492800988,133.8440165269886,-0.0005180359003134,0.0970755815505981,0,0,0
12517,461167.4312403054,2010-12-18 20:43:25,120.0604517063616,7,43,-1.0997490882873535,3.945654392242432,37.89674267608788,37.022411687895,152.22057492800988,133.8802628810836,-0.0003885269106831,0.0970755815505981,0,0,0
12518,461197.4463366032,2010-12-18 20:43:55,150.07554808928373,7,43,-1.0997490882873535,3.932379722595215,37.89674267608788,37.03158032790656,152.22057492800988,133.91637786988534,-0.0003561496851034,0.0970755815505981,0,0,0
12519,461227.4614377078,2010-12-18 20:44:25,180.09064912378113,7,43,-1.099929690361023,3.920238256454468,37.89674267608788,37.04074898818202,152.22057492800988,133.95237635030625,-0.0003237724304199,0.0970755815505981,0,0,0
12520,461257.4765818847,2010-12-18 20:44:55,210.10579335577376,7,43,-1.099929690361023,3.9089064598083496,37.89674267608788,37.04991778391299,152.22057492800988,133.98826848624688,-0.0002913951757363,0.0970755815505981,0,0,0
12521,461287.4916752201,2010-12-18 20:45:25,240.12088662093748,7,43,-1.0997490882873535,3.898221969604492,37.89674267608788,37.0590865266411,152.22057492800988,134.02405947767286,-0.0002913951757363,0.0970755815505981,0,0,0
12522,461317.5068063746,2010-12-18 20:45:55,270.13601779042466,7,43,-1.0997490882873535,3.8880231380462646,37.89674267608788,37.068255232173584,152.22057492800988,134.05975385075175,-0.0002590179501567,0.0970755815505981,0,0,0
12523,461347.522012285,2010-12-18 20:46:25,300.1512236858644,7,43,-1.0997490882873535,3.877824306488037,37.89674267608788,37.0774239442153,152.22057492800988,134.0953546194269,-0.0002913951757363,0.0970755815505981,0,0,0
12524,461377.5371829778,2010-12-18 20:46:55,330.1663943787039,7,43,-1.099568486213684,3.86811113357544,37.89674267608788,37.08659264631906,152.22057492800988,134.13086392288824,-0.0002266406954731,0.0970755815505981,0,0,0
12525,461407.5521715024,2010-12-18 20:47:25,360.1813829984616,7,43,-1.099929690361023,3.858236074447632,37.89674267608788,37.09576129708357,152.22057492800988,134.1662837348708,-0.0002590179501567,0.0970755815505981,0,0,0
12526,461437.5672338857,2010-12-18 20:47:55,390.19644528654,7,43,-1.0993878841400146,3.849008560180664,37.89674267608788,37.10493000368023,152.22057492800988,134.20161651861287,-0.0002266406954731,0.0970755815505981,0,0,0
12527,461467.5823338525,2010-12-18 20:48:25,420.211545268418,7,43,-1.0997490882873535,3.8396191596984863,37.89674267608788,37.114098760096894,152.22057492800988,134.23686435077823,-0.0002590179501567,0.0970755815505981,0,0,0
12528,461497.5976495412,2010-12-18 20:48:55,450.22686102724856,7,43,-1.0997490882873535,3.830877542495728,37.89674267608788,37.12326751436327,152.22057492800988,134.2720289704616,-0.0002266406954731,0.0970755815505981,0,0,0
12529,461527.6144772574,2010-12-18 20:49:25,480.24368878362696,7,43,-1.0997490882873535,3.82197380065918,37.89674267608788,37.132436723832384,152.22057492800988,134.30711370212157,-0.0001942634553415,0.0970755815505981,0,0,0
12530,461557.6276735521,2010-12-18 20:49:55,510.25688497299046,7,43,-1.0997490882873535,3.813231945037842,37.89674267608788,37.141604822966265,152.22057492800988,134.34211454326982,-0.0002590179501567,0.0970755815505981,0,0,0
12531,461587.6428103957,2010-12-18 20:50:25,540.2720217965476,7,43,-1.099568486213684,3.804813861846924,37.89674267608788,37.1507735426167,152.22057492800988,134.37703894132235,-0.0002266406954731,0.0970755815505981,0,0,0
12532,461617.65788813226,2010-12-18 20:50:55,570.2870995330688,7,43,-1.099568486213684,3.796719551086426,37.89674267608788,37.15994221886628,152.22057492800988,134.41188687989958,-0.0002266406954731,0.0970755815505981,0,0,0
12533,461647.6730232466,2010-12-18 20:51:25,600.3022346624099,7,43,-1.099568486213684,3.788625240325928,37.89674267608788,37.16911093244623,152.22057492800988,134.44666048995376,-0.0002266406954731,0.0970755815505981,0,0,0
12534,461677.6881110932,2010-12-18 20:51:55,630.3173224940525,7,43,-1.099568486213684,3.78069281578064,37.89674267608788,37.17827965218227,152.22057492800988,134.48136155425755,-0.0002266406954731,0.0970755815505981,0,0,0
12535,461707.70322478417,2010-12-18 20:52:25,660.3324362050951,7,43,-1.0997490882873535,3.773084163665772,37.89674267608788,37.18744842947572,152.22057492800988,134.51599209474256,-0.0001942634553415,0.0970755815505981,0,0,0
12536,461737.7183337885,2010-12-18 20:52:55,690.3475452044125,7,43,-1.099929690361023,3.765637397766113,37.89674267608788,37.19661717022111,152.22057492800988,134.5505531139931,-0.0002266406954731,0.0970755815505981,0,0,0
12537,461767.7334614493,2010-12-18 20:53:25,720.3626728651683,7,43,-1.099568486213684,3.758514404296875,37.89674267608788,37.20578590834606,152.22057492800988,134.58504663580482,-0.0001618862152099,0.0970755815505981,0,0,0
12538,461797.7485856765,2010-12-18 20:53:55,750.3777970823548,7,43,-1.0997490882873535,3.751229763031006,37.89674267608788,37.21495465450106,152.22057492800988,134.6194745542273,-0.0002590179501567,0.0970755815505981,0,0,0
12539,461827.7637878376,2010-12-18 20:54:25,780.392999253527,7,43,-1.0997490882873535,3.744430541992188,37.89674267608788,37.22412339841319,152.22057492800988,134.6538383628875,-0.0001942634553415,0.0970755815505981,0,0,0
12540,461857.77890459634,2010-12-18 20:54:55,810.4081160121533,7,43,-1.099568486213684,3.737793207168579,37.89674267608788,37.23329216938902,152.22057492800988,134.68813963285274,-0.0001618862152099,0.0970755815505981,0,0,0
12541,461887.7939719269,2010-12-18 20:55:26,840.423183438017,7,43,-1.0997490882873535,3.7309939861297607,37.89674267608788,37.24246091725358,152.22057492800988,134.72237920548562,-0.0001942634553415,0.0970755815505981,0,0,0
12542,461917.8091322439,2010-12-18 20:55:56,870.4383438101737,7,43,-1.099568486213684,3.7245185375213614,37.89674267608788,37.251629728701495,152.22057492800988,134.75655915861816,-0.0001942634553415,0.0970755815505981,0,0,0
12543,461947.8241100517,2010-12-18 20:56:26,900.4533214526148,7,43,-1.0997490882873535,3.718366861343384,37.89674267608788,37.26079849918153,152.22057492800988,134.79067997899202,-0.0001295089750783,0.0970755815505981,0,0,0
12544,461977.83922019886,2010-12-18 20:56:56,930.4684316198386,7,43,-1.099568486213684,3.7120532989501953,37.89674267608788,37.26996733492288,152.22057492800988,134.82474306197753,-0.0001295089750783,0.0970755815505981,0,0,0
12545,462007.85448143707,2010-12-18 20:57:26,960.4836928379468,7,43,-1.0997490882873535,3.705739736557007,37.89674267608788,37.2791363042979,152.22057492800988,134.85874956989792,-0.0001942634553415,0.0970755815505981,0,0,0
12546,462037.8694468642,2010-12-18 20:57:56,990.4986582700028,7,43,-1.099929690361023,3.6997499465942383,37.89674267608788,37.28830511023789,152.22057492800988,134.89269958692765,-0.0001618862152099,0.0970755815505981,0,0,0
12547,462067.8845595726,2010-12-18 20:58:26,1020.5137709885754,7,43,-1.0997490882873535,3.69392204284668,37.89674267608788,37.29747382109364,152.22057492800988,134.92659467361594,-0.0001618862152099,0.0970755815505981,0,0,0
12548,462097.8996750882,2010-12-18 20:58:56,1050.5288864890713,7,43,-1.099568486213684,3.687932252883911,37.89674267608788,37.30664266392873,152.22057492800988,134.96043637519634,-0.0001942634553415,0.0970755815505981,0,0,0
12549,462127.91668535874,2010-12-18 20:59:26,1080.5458968849405,7,43,-1.0997490882873535,3.6822662353515625,37.89674267608788,37.31581202389375,152.22057492800988,134.994226983262,-0.0001618862152099,0.0970755815505981,0,0,0
12550,462157.9298973525,2010-12-18 20:59:56,1110.5591087733708,7,43,-1.099568486213684,3.676762104034424,37.89674267608788,37.324980181301,152.22057492800988,135.0279609940432,-9.713172767078504e-05,0.0970755815505981,0,0,0
12551,462187.94500104856,2010-12-18 21:00:26,1140.5742124694914,7,43,-1.099568486213684,3.671258211135864,37.89674267608788,37.33414896693175,152.22057492800988,135.0616462774537,-0.0001295089750783,0.0970755815505981,0,0,0
12552,462217.96014615777,2010-12-18 21:00:56,1170.589357578667,7,43,-1.099929690361023,3.665592193603516,37.89674267608788,37.34331781993011,152.22057492800988,135.09528140401366,-0.0001618862152099,0.0970755815505981,0,0,0
12553,462247.9752623851,2010-12-18 21:01:26,1200.6044737859213,7,43,-1.099568486213684,3.660411834716797,37.89674267608788,37.35248664072979,152.22057492800988,135.1288669843152,-0.0001295089750783,0.0970755815505981,0,0,0
12554,462277.9903378008,2010-12-18 21:01:56,1230.6195492217173,7,43,-1.099929690361023,3.655069589614868,37.89674267608788,37.361655433375226,152.22057492800988,135.16240378483323,-0.0001618862152099,0.0970755815505981,0,0,0
12555,462308.005449587,2010-12-18 21:02:26,1260.63466100797,7,43,-1.099568486213684,3.65005111694336,37.89674267608788,37.37082416992688,152.22057492800988,135.19589269390437,-9.713172767078504e-05,0.0970755815505981,0,0,0
12556,462338.0205585112,2010-12-18 21:02:56,1290.6497699170627,7,43,-1.099568486213684,3.6450326442718506,37.89674267608788,37.37999295783138,152.22057492800988,135.22933443801864,-9.713172767078504e-05,0.0970755815505981,0,0,0
12557,462368.0356767535,2010-12-18 21:03:26,1320.6648881744186,7,43,-1.099568486213684,3.639852285385132,37.89674267608788,37.389161746140495,152.22057492800988,135.2627301187043,-0.0001295089750783,0.0970755815505981,0,0,0
12558,462398.0507879984,2010-12-18 21:03:56,1350.6799994143116,7,43,-1.0997490882873535,3.634995698928833,37.89674267608788,37.39833056984659,152.22057492800988,135.29608055404407,-0.0001295089750783,0.0970755815505981,0,0,0
12559,462428.0659242756,2010-12-18 21:04:26,1380.6951356814843,7,43,-1.0997490882873535,3.630139112472534,37.89674267608788,37.40749931929956,152.22057492800988,135.32938658764022,-9.713172767078504e-05,0.0970755815505981,0,0,0
12560,462458.08393637417,2010-12-18 21:04:56,1410.7131478652648,7,43,-1.099568486213684,3.625444412231445,37.89674267608788,37.41666898417768,152.22057492800988,135.36265255257518,-0.0001295089750783,0.0970755815505981,0,0,0
12561,462488.0961552865,2010-12-18 21:05:26,1440.725366782725,7,43,-1.099568486213684,3.6209115982055664,37.89674267608788,37.42583692091995,152.22057492800988,135.3958700087017,-6.47544875391759e-05,0.0970755815505981,0,0,0
12562,462518.11123696296,2010-12-18 21:05:56,1470.7404483788505,7,43,-1.0997490882873535,3.6165406703948975,37.89674267608788,37.43500574417254,152.22057492800988,135.42904934309257,-9.713172767078504e-05,0.0970755815505981,0,0,0
12563,462548.1263463783,2010-12-18 21:06:26,1500.7555577942032,7,43,-1.0997490882873535,3.612169742584229,37.89674267608788,37.44417457251527,152.22057492800988,135.4621883536973,-9.713172767078504e-05,0.0970755815505981,0,0,0
12564,462578.1414524954,2010-12-18 21:06:56,1530.7706639013236,7,43,-1.0997490882873535,3.60779881477356,37.89674267608788,37.453343340962896,152.22057492800988,135.49528778924457,-0.0001295089750783,0.0970755815505981,0,0,0
12565,462608.15669603954,2010-12-18 21:07:26,1560.7859074554758,7,43,-1.099568486213684,3.603751659393311,37.89674267608788,37.46251214034963,152.22057492800988,135.5283489237158,-9.713172767078504e-05,0.0970755815505981,0,0,0
12566,462638.1717122831,2010-12-18 21:07:56,1590.8009237039864,7,43,-1.0997490882873535,3.5998663902282715,37.89674267608788,37.47168085219945,152.22057492800988,135.5613724270414,-6.47544875391759e-05,0.0970755815505981,0,0,0
12567,462668.1868266207,2010-12-18 21:08:26,1620.8160381117627,7,43,-1.0997490882873535,3.5956573486328125,37.89674267608788,37.48084965184654,152.22057492800988,135.594359779565,-0.0001295089750783,0.0970755815505981,0,0,0
12568,462698.20192881307,2010-12-18 21:08:56,1650.8311402840914,7,43,-1.0997490882873535,3.5920960903167725,37.89674267608788,37.49001848510077,152.22057492800988,135.6273116070567,-6.470680091297254e-05,0.0970755815505981,0,0,0
12569,462728.21902890207,2010-12-18 21:09:26,1680.8482403029848,7,43,-1.0997490882873535,3.588372707366944,37.89674267608788,37.49918788806921,152.22057492800988,135.66023130268238,-9.713172767078504e-05,0.0970755815505981,0,0,0
12570,462758.2321410925,2010-12-18 21:09:56,1710.8613524782825,7,43,-1.099929690361023,3.5846493244171143,37.89674267608788,37.5083561735232,152.22057492800988,135.69311359430978,-9.713172767078504e-05,0.0970755815505981,0,0,0
12571,462788.2472495906,2010-12-18 21:10:26,1740.87646099139,7,43,-1.099568486213684,3.581249713897705,37.89674267608788,37.51752497144722,152.22057492800988,135.72596480939822,-6.47544875391759e-05,0.0970755815505981,0,0,0
12572,462818.2623498932,2010-12-18 21:10:56,1770.8915613141162,7,43,-1.0997490882873535,3.577688217163086,37.89674267608788,37.526693809163895,152.22057492800988,135.7587838321599,-9.713172767078504e-05,0.0970755815505981,0,0,0
12573,462848.2775026464,2010-12-18 21:11:26,1800.9067140623013,7,43,-1.0997490882873535,3.5742886066436768,37.89674267608788,37.53586269603855,152.22057492800988,135.79157157397805,-9.713172767078504e-05,0.0970755815505981,0,0,0
12574,462878.2927040055,2010-12-18 21:11:56,1830.9219154916275,7,43,-1.0997490882873535,3.570888996124268,37.89674267608788,37.54503148165723,152.22057492800988,135.82432807283368,-9.713172767078504e-05,0.0970755815505981,0,0,0
12575,462908.3076854674,2010-12-18 21:12:26,1860.9368968683607,7,43,-1.099568486213684,3.5676512718200684,37.89674267608788,37.55420028790475,152.22057492800988,135.85705390776374,-9.713172767078504e-05,0.0970755815505981,0,0,0
12576,462938.32279647177,2010-12-18 21:12:56,1890.9520079628924,7,43,-1.099568486213684,3.564251661300659,37.89674267608788,37.56336909222432,152.22057492800988,135.88974899937176,-6.47544875391759e-05,0.0970755815505981,0,0,0
12577,462968.33804350457,2010-12-18 21:13:26,1920.9672549104887,7,43,-1.0997490882873535,3.56101393699646,37.89674267608788,37.57253791943085,152.22057492800988,135.92241403760164,-9.713172767078504e-05,0.0970755815505981,0,0,0
12578,462998.3532413601,2010-12-18 21:13:56,1950.9824528561453,7,43,-1.0997490882873535,3.557614326477051,37.89674267608788,37.58170676838645,152.22057492800988,135.95504902415732,-9.713172767078504e-05,0.0970755815505981,0,0,0
12579,463028.36826171377,2010-12-18 21:14:26,1980.997473119648,7,43,-1.0997490882873535,3.554376602172852,37.89674267608788,37.5908755636582,152.22057492800988,135.98765332980747,-9.713172767078504e-05,0.0970755815505981,0,0,0
12580,463058.3832612457,2010-12-18 21:14:56,2011.0124726615848,7,43,-1.0997490882873535,3.5509769916534424,37.89674267608788,37.60004474860138,152.22057492800988,136.02022802972238,-6.47544875391759e-05,0.0970755815505981,0,0,0
12581,463088.398361804,2010-12-18 21:15:26,2041.0275732198968,7,43,-1.0997490882873535,3.547577381134033,37.89674267608788,37.6092143620785,152.22057492800988,136.05277313231687,-6.47544875391759e-05,0.0970755815505981,0,0,0
12582,463118.4134113604,2010-12-18 21:15:56,2071.042622776293,7,43,-1.099929690361023,3.544177770614624,37.89674267608788,37.61838392538535,152.22057492800988,136.08528673756587,-6.47544875391759e-05,0.0970755815505981,0,0,0
12583,463148.4285647552,2010-12-18 21:16:26,2101.0577762412618,7,43,-1.0997490882873535,3.540616273880005,37.89674267608788,37.62755356239076,152.22057492800988,136.11776878227104,-9.713172767078504e-05,0.0970755815505981,0,0,0
12584,463178.4436788973,2010-12-18 21:16:56,2131.072890298165,7,43,-1.099568486213684,3.537216663360596,37.89674267608788,37.63672280919299,152.22057492800988,136.150217256186,-6.47544875391759e-05,0.0970755815505981,0,0,0
12585,463208.45879559073,2010-12-18 21:17:26,2161.088007061804,7,43,-1.099929690361023,3.5331695079803467,37.89674267608788,37.64589167818088,152.22057492800988,136.18263126145052,-0.0001295089750783,0.0970755815505981,0,0,0
12586,463238.4739391912,2010-12-18 21:17:56,2191.1031505970627,7,43,-1.099568486213684,3.529769897460937,37.89674267608788,37.655060507915394,152.22057492800988,136.21501101796153,-6.47544875391759e-05,0.0970755815505981,0,0,0
12587,463268.4891983442,2010-12-18 21:18:26,2221.118409815194,7,43,-1.099929690361023,3.5257227420806885,37.89674267608788,37.66422943493066,152.22057492800988,136.2473560563943,-6.47544875391759e-05,0.0970755815505981,0,0,0
12588,463298.5041156164,2010-12-18 21:18:56,2251.1333270372816,7,43,-1.099568486213684,3.5218374729156494,37.89674267608788,37.6733982553362,152.22057492800988,136.2796644019027,-9.713172767078504e-05,0.0970755815505981,0,0,0
12589,463328.5210480533,2010-12-18 21:19:26,2281.150259544328,7,43,-1.0997490882873535,3.5174665451049805,37.89674267608788,37.682567567328114,152.22057492800988,136.31193703426578,-0.0001295089750783,0.0970755815505981,0,0,0
12590,463358.53447116725,2010-12-18 21:19:56,2311.16368256816,7,43,-1.0997490882873535,3.513257503509521,37.89674267608788,37.691735824856416,152.22057492800988,136.34416709196168,-9.713172767078504e-05,0.0970755815505981,0,0,0
12591,463388.549575485,2010-12-18 21:20:26,2341.178786900865,7,43,-1.0997490882873535,3.5087249279022217,37.89674267608788,37.70090470229423,152.22057492800988,136.37635874561715,-0.0001295089750783,0.0970755815505981,0,0,0
12592,463418.56475974654,2010-12-18 21:20:56,2371.1939712326443,7,43,-1.0997490882873535,3.503868341445923,37.89674267608788,37.710073599012055,152.22057492800988,136.4085078394969,-0.0001618862152099,0.0970755815505981,0,0,0
12593,463448.5797115497,2010-12-18 21:21:26,2401.208923055835,7,43,-1.0997490882873535,3.498687982559204,37.89674267608788,37.71924237896256,152.22057492800988,136.4406114589032,-0.0001618862152099,0.0970755815505981,0,0,0
12594,463478.5948145591,2010-12-18 21:21:56,2431.224025959985,7,43,-1.0997490882873535,3.4933457374572754,37.89674267608788,37.72841126576032,152.22057492800988,136.47266706149335,-0.0001618862152099,0.0970755815505981,0,0,0
12595,463508.6098999948,2010-12-18 21:22:26,2461.2391114107027,7,43,-1.099568486213684,3.487517833709717,37.89674267608788,37.73758016552567,152.22057492800988,136.50467024549914,-0.0001295089750783,0.0970755815505981,0,0,0
12596,463538.6250043224,2010-12-18 21:22:56,2491.254215738395,7,43,-1.099568486213684,3.4803948402404785,37.89674267608788,37.74674907423765,152.22057492800988,136.5366155773446,-0.0002266406954731,0.0970755815505981,0,0,0
12597,463568.6401359983,2010-12-18 21:23:26,2521.269347419154,7,43,-1.099568486213684,3.4731099605560303,37.89674267608788,37.75591786292405,152.22057492800988,136.56849457068063,-0.0001942634553415,0.0970755815505981,0,0,0
12598,463598.6552526717,2010-12-18 21:23:56,2551.284464087556,7,43,-1.0997490882873535,3.4643681049346924,37.89674267608788,37.76508663801078,152.22057492800988,136.6002989461398,-0.0002266406954731,0.0970755815505981,0,0,0
12599,463628.6703604981,2010-12-18 21:24:26,2581.29957190393,7,43,-1.0997490882873535,3.454007387161255,37.89674267608788,37.77425548794816,152.22057492800988,136.63201662473364,-0.0002590179501567,0.0970755815505981,0,0,0
12600,463658.6854566304,2010-12-18 21:24:56,2611.314668031216,7,43,-1.0997490882873535,3.441542148590088,37.89674267608788,37.78342441893863,152.22057492800988,136.6636312720142,-0.0003885269106831,0.0970755815505981,0,0,0
12601,463688.70060866175,2010-12-18 21:25:26,2641.329820077655,7,43,-1.0997490882873535,3.4266488552093506,37.89674267608788,37.79259336763095,152.22057492800988,136.69512161287807,-0.0004532813909463,0.0970755815505981,0,0,0
12602,463718.71565780713,2010-12-18 21:25:56,2671.344869223028,7,43,-1.099568486213684,3.408031940460205,37.89674267608788,37.80176225939616,152.22057492800988,136.7264586008698,-0.0005180359003134,0.0970755815505981,0,0,0
12603,463748.7307668917,2010-12-18 21:26:26,2701.35997831257,7,43,-1.099568486213684,3.384072780609131,37.89674267608788,37.81093089459917,152.22057492800988,136.75760069508766,-0.0006799221155233,0.0970755815505981,0,0,0
12604,463778.74589002616,2010-12-18 21:26:56,2731.37510144205,7,43,-1.099568486213684,3.3523430824279785,37.89674267608788,37.820099612022105,152.22057492800988,136.78848920155448,-0.0009389400365762,0.0970755815505981,0,0,0
12605,463808.761004479,2010-12-18 21:27:27,2761.3902158949386,7,43,-1.0997490882873535,3.309443473815918,37.89674267608788,37.82926823656084,152.22057492800988,136.81903890501354,-0.0013274669181555,0.0970755815505981,0,0,0
12606,463838.7763885879,2010-12-18 21:27:57,2791.405600058993,7,43,-1.099568486213684,3.251164674758911,37.89674267608788,37.838436960145245,152.22057492800988,136.84912962208207,-0.0017807483673095,0.0970755815505981,0,0,0
12607,463868.7912320365,2010-12-18 21:28:27,2821.42044345236,7,43,-1.0997490882873535,3.16957426071167,37.89674267608788,37.84760569290925,152.22057492800988,136.87858682602513,-0.0025254250504076,0.0970755815505981,0,0,0
12608,463898.8063592512,2010-12-18 21:28:57,2851.4355706670062,7,43,-1.0997490882873535,3.049454927444458,37.89674267608788,37.85677456501181,152.22057492800988,136.90713699564506,-0.003885269165039,0.0970755815505981,0,0,0
12609,463928.1495914108,2010-12-18 21:29:26,2880.778802886799,7,43,-1.099929690361023,2.849040508270264,37.89674267608788,37.86573819064237,152.22057492800988,136.93366382158152,-0.006961059756577,0.0970755815505981,0,0,0
12610,463943.9930671257,2010-12-18 21:29:42,2896.6222785416016,7,43,-1.099929690361023,2.699781894683838,37.89674267608788,37.87057795007168,152.22057492800988,136.9470970580739,-0.0076733590103685,0.0970755815505981,0,0,0
12611,464004.0155766954,2010-12-18 21:30:42,60.016535425077016,8,43,0.0,3.4096508026123047,37.89674267608788,37.87057795007168,152.22057492800988,136.9470970580739,0.0013922214275225,0.0970755815505981,0,0,0
12612,464004.19432961073,2010-12-18 21:30:42,0.189311359035754,9,43,-1.9243103452026844e-05,3.409812688827514,37.89674267608788,37.8705779510836,152.22057492800988,136.94709706152435,0.0,0.0923885703086853,0,0,0
12613,464009.0207745683,2010-12-18 21:30:47,5.015756231468307,9,43,0.0007031940040178,3.4180688858032227,37.896743649885295,37.87057795117142,152.22057825329145,136.9470970618238,0.0011332035064697,0.0923885703086853,0,0,0
