Data_Point,Test_Time(s),Date_Time,Step_Time(s),Step_Index,Cycle_Index,Current(A),Voltage(V),Charge_Capacity(Ah),Discharge_Capacity(Ah),Charge_Energy(Wh),Discharge_Energy(Wh),dV/dt(V/s),Internal_Resistance(Ohm),Is_FC_Data,AC_Impedance(Ohm),ACI_Phase_Angle(Deg)
4733,175234.97703528203,2010-12-15 13:17:19,30.015124949007724,1,17,0.0,3.482499361038208,14.267615189580894,14.246750137474027,57.34225397248222,51.47985320076296,0.0007770538213662,0.0961798131465911,0,0,0
4734,175264.991921502,2010-12-15 13:17:49,60.03001116894734,1,17,0.0,3.5058109760284424,14.267615189580894,14.246750137474027,57.34225397248222,51.47985320076296,0.0005180359003134,0.0961798131465911,0,0,0
4735,175295.00712051528,2010-12-15 13:18:19,90.04521025243587,1,17,0.0,3.523294448852539,14.267615189580894,14.246750137474027,57.34225397248222,51.47985320076296,0.0004209041653666,0.0961798131465911,0,0,0
4736,175324.97508735317,2010-12-15 13:18:49,120.01317701511068,1,17,0.0,3.537216663360596,14.267615189580894,14.246750137474027,57.34225397248222,51.47985320076296,0.0003561496851034,0.0961798131465911,0,0,0
4737,175354.9980839748,2010-12-15 13:19:19,30.01481336865199,2,17,0.5504778623580933,3.683075666427612,14.272202510381284,14.246750137474027,57.35902046083342,51.47985320076296,0.0012627125252038,0.0961798131465911,0,0,0
4738,175385.0129739691,2010-12-15 13:19:49,60.02970336298405,2,17,0.5501165986061096,3.7185287475585938,14.27678978550126,14.246750137474027,57.37600215478767,51.47985320076296,0.0007770538213662,0.0961798131465911,0,0,0
4739,175415.02802299417,2010-12-15 13:20:19,90.04475238805797,2,17,0.550297200679779,3.7436211109161377,14.28137707828262,14.246750137474027,57.393120162807925,51.47985320076296,0.0006475448608398,0.0961798131465911,0,0,0
4740,175445.04315130154,2010-12-15 13:20:49,120.05988070043531,2,17,0.550297200679779,3.762075901031494,14.28596433001462,14.246750137474027,57.41033725442934,51.47985320076296,0.0004209041653666,0.0961798131465911,0,0,0
4741,175475.05802342642,2010-12-15 13:21:19,150.0747528202874,2,17,0.550297200679779,3.775188684463501,14.290551573701403,14.246750137474027,57.427626693947474,51.47985320076296,0.0002590179501567,0.0961798131465911,0,0,0
4742,175505.07580869552,2010-12-15 13:21:49,180.09253817962392,2,17,0.550297200679779,3.784092426300049,14.295139254120745,14.246750137474027,57.4449673201445,51.47985320076296,0.0001942634553415,0.0961798131465911,0,0,0
4743,175535.08818692944,2010-12-15 13:22:19,210.1049163333372,2,17,0.5501165986061096,3.790405988693237,14.299726113355996,14.246750137474027,57.46233935741702,51.47985320076296,0.0001295089750783,0.0961798131465911,0,0,0
4744,175565.1030597761,2010-12-15 13:22:49,240.11978915493555,2,17,0.5501165986061096,3.796072006225586,14.304313310240463,14.246750137474027,57.4797401173527,51.47985320076296,0.0001295089750783,0.0961798131465911,0,0,0
4745,175595.11811728228,2010-12-15 13:23:19,270.13484667615177,2,17,0.5501165986061096,3.801414251327514,14.30890050948913,14.246750137474027,57.49716538804789,51.47985320076296,0.0001618862152099,0.0961798131465911,0,0,0
4746,175625.1332466623,2010-12-15 13:23:49,300.1499761113232,2,17,0.5501165986061096,3.8062708377838135,14.313487690475927,14.246750137474027,57.51461353411585,51.47985320076296,0.0001618862152099,0.0961798131465911,0,0,0
4747,175655.14830506072,2010-12-15 13:24:19,330.1650344595976,2,17,0.5501165986061096,3.810803651809693,14.318075019428305,14.246750137474027,57.53208413947148,51.47985320076296,0.0001295089750783,0.0961798131465911,0,0,0
4748,175685.16317562168,2010-12-15 13:24:49,360.17990500052053,2,17,0.5501165986061096,3.815174579620361,14.322662319779818,14.246750137474027,57.54957566011196,51.47985320076296,9.713172767078504e-05,0.0961798131465911,0,0,0
4749,175715.1781787375,2010-12-15 13:25:19,390.1949081313885,2,17,0.5501165986061096,3.81938362121582,14.3272494790647,14.246750137474027,57.56708692954615,51.47985320076296,6.47544875391759e-05,0.0961798131465911,0,0,0
4750,175745.19319856493,2010-12-15 13:25:49,420.2099279638177,2,17,0.550297200679779,3.823754549026489,14.331836705137288,14.246750137474027,57.58461797884012,51.47985320076296,9.713172767078504e-05,0.0961798131465911,0,0,0
4751,175775.20823387586,2010-12-15 13:26:19,450.22496327476455,2,17,0.5501165986061096,3.8278017044067374,14.336423886802397,14.246750137474027,57.60216785294491,51.47985320076296,9.713172767078504e-05,0.0961798131465911,0,0,0
4752,175805.2232431019,2010-12-15 13:26:49,480.2399725008001,2,17,0.5501165986061096,3.8318488597869873,14.341011064399332,14.246750137474027,57.61973636980396,51.47985320076296,9.713172767078504e-05,0.0961798131465911,0,0,0
4753,175835.2382517966,2010-12-15 13:27:19,510.25498116543866,2,17,0.5501165986061096,3.835895776748657,14.345598229693524,14.246750137474027,57.637323021229776,51.47985320076296,9.713172767078504e-05,0.0961798131465911,0,0,0
4754,175865.2532932378,2010-12-15 13:27:49,540.2700226367152,2,17,0.5501165986061096,3.8396191596984863,14.35018544722536,14.246750137474027,57.65492791443612,51.47985320076296,6.47544875391759e-05,0.0961798131465911,0,0,0
4755,175895.2683349948,2010-12-15 13:28:19,570.2850644438275,2,17,0.550297200679779,3.843504428863525,14.354772631663325,14.246750137474027,57.672550469244406,51.47985320076296,6.47544875391759e-05,0.0961798131465911,0,0,0
4756,175925.28343861073,2010-12-15 13:28:49,600.3001680046115,2,17,0.550297200679779,3.847713470458984,14.359359882835236,14.246750137474027,57.69019113540797,51.47985320076296,0.0001295089750783,0.0961798131465911,0,0,0
4757,175955.29845076406,2010-12-15 13:29:19,630.3151801479065,2,17,0.550297200679779,3.8514368534088135,14.36394715985462,14.246750137474027,57.707849706644,51.47985320076296,9.713172767078504e-05,0.0961798131465911,0,0,0
4758,175985.313336588,2010-12-15 13:29:49,660.3300659818857,2,17,0.5499359965324402,3.8549983501434326,14.368534390914691,14.246750137474027,57.72552581625784,51.47985320076296,6.47544875391759e-05,0.0961798131465911,0,0,0
4759,176015.3283697386,2010-12-15 13:30:19,690.3450991224316,2,17,0.5501165986061096,3.8590455055236816,14.37312152711466,14.246750137474027,57.7432191586145,51.47985320076296,9.713172767078504e-05,0.0961798131465911,0,0,0
4760,176045.3435848369,2010-12-15 13:30:49,720.3603143310469,2,17,0.5501165986061096,3.8629307746887207,14.37770809833444,14.246750137474027,57.76092758710912,51.47985320076296,0.0001618862152099,0.0961798131465911,0,0,0
4761,176075.3584122806,2010-12-15 13:31:19,750.3751416744745,2,17,0.550297200679779,3.86665415763855,14.382294501878713,14.246750137474027,57.77865242552196,51.47985320076296,0.0001295089750783,0.0961798131465911,0,0,0
4762,176105.37341244408,2010-12-15 13:31:49,780.3901418379583,2,17,0.550297200679779,3.870215654373169,14.386880952783333,14.246750137474027,57.79639431533726,51.47985320076296,9.713172767078504e-05,0.0961798131465911,0,0,0
4763,176135.38843280784,2010-12-15 13:32:19,810.4051622017098,2,17,0.5501165986061096,3.873777151107788,14.391467373821728,14.246750137474027,57.81415258895798,51.47985320076296,0.0001295089750783,0.0961798131465911,0,0,0
4764,176165.40343982837,2010-12-15 13:32:49,840.4201692222568,2,17,0.5501165986061096,3.8770148754119873,14.39605444528502,14.246750137474027,57.83192937903151,51.47985320076296,6.47544875391759e-05,0.0961798131465911,0,0,0
4765,176195.41846013698,2010-12-15 13:33:19,870.4351895358835,2,17,0.5501165986061096,3.880414485931397,14.40064165408924,14.246750137474027,57.84972220625081,51.47985320076296,9.713172767078504e-05,0.0961798131465911,0,0,0
4766,176225.43374664304,2010-12-15 13:33:49,900.4504761271319,2,17,0.5501165986061096,3.8834903240203857,14.40522892843122,14.246750137474027,57.86753014945196,51.47985320076296,6.47544875391759e-05,0.0961798131465911,0,0,0
4767,176255.44851568135,2010-12-15 13:34:19,930.4652450802574,2,17,0.5501165986061096,3.886728048324585,14.409816121839311,14.246750137474027,57.88535198400948,51.47985320076296,0.0001295089750783,0.0961798131465911,0,0,0
4768,176285.46352833093,2010-12-15 13:34:49,960.4802577197872,2,17,0.5501165986061096,3.8894801139831534,14.41440333086476,14.246750137474027,57.90318754554594,51.47985320076296,6.47544875391759e-05,0.0961798131465911,0,0,0
4769,176315.47852640922,2010-12-15 13:35:19,990.4952558030946,2,17,0.550297200679779,3.8923940658569336,14.418990540142213,14.246750137474027,57.92103609070546,51.47985320076296,6.47544875391759e-05,0.0961798131465911,0,0,0
4770,176345.49354239207,2010-12-15 13:35:49,1020.5102717859444,2,17,0.5501165986061096,3.894822359085083,14.42357784912258,14.246750137474027,57.93889733536533,51.47985320076296,6.47544875391759e-05,0.0961798131465911,0,0,0
4771,176375.50858636957,2010-12-15 13:36:19,1050.5253157634577,2,17,0.550297200679779,3.8974125385284415,14.428165057634214,14.246750137474027,57.956769328369866,51.47985320076296,6.47544875391759e-05,0.0961798131465911,0,0,0
4772,176405.52360508422,2010-12-15 13:36:49,1080.5403344781053,2,17,0.5501165986061096,3.899678945541382,14.432752238648552,14.246750137474027,57.97465233602194,51.47985320076296,6.47544875391759e-05,0.0961798131465911,0,0,0
4773,176435.53859739818,2010-12-15 13:37:19,1110.5553267920554,2,17,0.550297200679779,3.901945352554321,14.437339431789512,14.246750137474027,57.99254576028408,51.47985320076296,6.47544875391759e-05,0.0961798131465911,0,0,0
4774,176465.5538119301,2010-12-15 13:37:49,1140.5705413941616,2,17,0.550297200679779,3.903887987136841,14.44192662691376,14.246750137474027,58.010449114534765,51.47985320076296,3.237724376958795e-05,0.0961798131465911,0,0,0
4775,176495.56868317275,2010-12-15 13:38:19,1170.5854126217937,2,17,0.5501165986061096,3.9059925079345694,14.446513853747696,14.246750137474027,58.028362044335886,51.47985320076296,6.47544875391759e-05,0.0961798131465911,0,0,0
4776,176525.58378135518,2010-12-15 13:38:49,1200.6005107540689,2,17,0.5501165986061096,3.90777325630188,14.45110104352314,14.246750137474027,58.046283908434646,51.47985320076296,3.237724376958795e-05,0.0961798131465911,0,0,0
4777,176555.5987978543,2010-12-15 13:39:19,1230.6155272381657,2,17,0.5501165986061096,3.9097158908844,14.455688217864306,14.246750137474027,58.06421454205936,51.47985320076296,3.237724376958795e-05,0.0961798131465911,0,0,0
4778,176585.61369169323,2010-12-15 13:39:49,1260.6304210870896,2,17,0.5499359965324402,3.911496639251709,14.46027541670778,14.246750137474027,58.08215375879208,51.47985320076296,3.237724376958795e-05,0.0961798131465911,0,0,0
4779,176615.62873600656,2010-12-15 13:40:19,1290.6454654555762,2,17,0.550297200679779,3.913439273834229,14.464862546247293,14.246750137474027,58.10010102024695,51.47985320076296,6.47544875391759e-05,0.0961798131465911,0,0,0
4780,176645.64373147336,2010-12-15 13:40:49,1320.6604608672349,2,17,0.550297200679779,3.915219783782959,14.469449753312793,14.246750137474027,58.11805680705077,51.47985320076296,3.237724376958795e-05,0.0961798131465911,0,0,0
4781,176675.65874828323,2010-12-15 13:41:19,1350.675477677143,2,17,0.5501165986061096,3.9168386459350586,14.474036947233012,14.246750137474027,58.1360204177856,51.47985320076296,3.237724376958795e-05,0.0961798131465911,0,0,0
4782,176705.67379063673,2010-12-15 13:41:49,1380.6905200256022,2,17,0.550297200679779,3.918781280517578,14.47862409241968,14.246750137474027,58.15399178257041,51.47985320076296,3.237724376958795e-05,0.0961798131465911,0,0,0
4783,176735.68880572237,2010-12-15 13:42:19,1410.7055351162314,2,17,0.550297200679779,3.9204001426696777,14.483211275034607,14.246750137474027,58.17197121770362,51.47985320076296,3.237724376958795e-05,0.0961798131465911,0,0,0
4784,176765.703832863,2010-12-15 13:42:49,1440.7205622518345,2,17,0.5501165986061096,3.9221808910369873,14.487798475145375,14.246750137474027,58.18995850285504,51.47985320076296,6.47544875391759e-05,0.0961798131465911,0,0,0
4785,176795.7188311167,2010-12-15 13:43:19,1470.7355604955408,2,17,0.5501165986061096,3.923637866973877,14.492385649691364,14.246750137474027,58.20795353544169,51.47985320076296,3.237724376958795e-05,0.0961798131465911,0,0,0
4786,176825.73383398692,2010-12-15 13:43:49,1500.75056338581,2,17,0.5501165986061096,3.925580501556397,14.496972813833148,14.246750137474027,58.22595634531682,51.47985320076296,3.237724376958795e-05,0.0961798131465911,0,0,0
4787,176855.74886788934,2010-12-15 13:44:20,1530.7655972832397,2,17,0.5501165986061096,3.927037477493286,14.501560004573822,14.246750137474027,58.24396692993364,51.47985320076296,3.237724376958795e-05,0.0961798131465911,0,0,0
4788,176885.7640038608,2010-12-15 13:44:50,1560.780733254676,2,17,0.5499359965324402,3.928818225860596,14.50614719881726,14.246750137474027,58.26198536095472,51.47985320076296,6.47544875391759e-05,0.0961798131465911,0,0,0
4789,176915.77903514673,2010-12-15 13:45:20,1590.7957645406068,2,17,0.550297200679779,3.930598974227905,14.51073434618783,14.246750137474027,58.2800114148091,51.47985320076296,6.47544875391759e-05,0.0961798131465911,0,0,0
4790,176945.79392012858,2010-12-15 13:45:50,1620.810649527478,2,17,0.5501165986061096,3.932217836380005,14.515321546804817,14.246750137474027,58.29804546124462,51.47985320076296,0.0,0.0961798131465911,0,0,0
4791,176975.80894236697,2010-12-15 13:46:20,1650.8256717458444,2,17,0.5501165986061096,3.933836698532105,14.519908753364604,14.246750137474027,58.3160873288185,51.47985320076296,3.237724376958795e-05,0.0961798131465911,0,0,0
4792,177005.82394935747,2010-12-15 13:46:50,1680.8406787363167,2,17,0.5501165986061096,3.935617446899414,14.524495997954178,14.246750137474027,58.334137166250684,51.47985320076296,3.237724376958795e-05,0.0961798131465911,0,0,0
4793,177035.83895904466,2010-12-15 13:47:20,1710.85568844355,2,17,0.550297200679779,3.937398195266724,14.529083169559632,14.246750137474027,58.35219438743494,51.47985320076296,6.47544875391759e-05,0.0961798131465911,0,0,0
4794,177065.85397207516,2010-12-15 13:47:50,1740.8707014690403,2,17,0.5499359965324402,3.9390170574188232,14.533670372007675,14.246750137474027,58.37025965873143,51.47985320076296,3.237724376958795e-05,0.0961798131465911,0,0,0
4795,177095.86901172693,2010-12-15 13:48:20,1770.8857411258016,2,17,0.5504778623580933,3.940797805786133,14.538257554201833,14.246750137474027,58.3883326646312,51.47985320076296,3.237724376958795e-05,0.0961798131465911,0,0,0
4796,177125.88403242652,2010-12-15 13:48:50,1800.9007618253886,2,17,0.5501165986061096,3.942416667938232,14.542844800684623,14.246750137474027,58.40641374178944,51.47985320076296,3.237724376958795e-05,0.0961798131465911,0,0,0
4797,177155.89903216893,2010-12-15 13:49:20,1830.91576153775,2,17,0.550297200679779,3.944197416305542,14.547431937794483,14.246750137474027,58.42450219068633,51.47985320076296,3.237724376958795e-05,0.0961798131465911,0,0,0
4798,177185.91407026682,2010-12-15 13:49:50,1860.930799660694,2,17,0.5504778623580933,3.945978164672852,14.55201913815546,14.246750137474027,58.44259878542464,51.47985320076296,6.47544875391759e-05,0.0961798131465911,0,0,0
4799,177215.92908102163,2010-12-15 13:50:20,1890.9458104205464,2,17,0.550297200679779,3.947758913040161,14.55660638008344,14.246750137474027,58.46070331352838,51.47985320076296,6.47544875391759e-05,0.0961798131465911,0,0,0
4800,177245.94408946074,2010-12-15 13:50:50,1920.9608188546115,2,17,0.550297200679779,3.949215888977051,14.561193520073555,14.246750137474027,58.47881528414676,51.47985320076296,3.237724376958795e-05,0.0961798131465911,0,0,0
4801,177275.95912626036,2010-12-15 13:51:20,1950.9758557494995,2,17,0.5501165986061096,3.95099663734436,14.565780722800946,14.246750137474027,58.49693535868124,51.47985320076296,6.47544875391759e-05,0.0961798131465911,0,0,0
4802,177305.9741275316,2010-12-15 13:51:50,1980.9908569255035,2,17,0.550297200679779,3.95293927192688,14.570367913036655,14.246750137474027,58.51506325653197,51.47985320076296,6.47544875391759e-05,0.0961798131465911,0,0,0
4803,177335.98915243166,2010-12-15 13:52:20,2011.0058818255427,2,17,0.5501165986061096,3.9543962478637695,14.574955124484108,14.246750137474027,58.53319912188066,51.47985320076296,3.237724376958795e-05,0.0961798131465911,0,0,0
4804,177366.00413560786,2010-12-15 13:52:50,2041.0208650017544,2,17,0.550297200679779,3.956176996231079,14.579542307069127,14.246750137474027,58.55134277639349,51.47985320076296,3.237724376958795e-05,0.0961798131465911,0,0,0
4805,177396.0193574179,2010-12-15 13:53:20,2071.0360868769594,2,17,0.550297200679779,3.9577958583831783,14.584129523466949,14.246750137474027,58.5694944014592,51.47985320076296,3.237724376958795e-05,0.0961798131465911,0,0,0
4806,177426.03681339763,2010-12-15 13:53:50,2101.0535428817097,2,17,0.5501165986061096,3.959576606750488,14.588717012339096,14.246750137474027,58.58765504339882,51.47985320076296,6.47544875391759e-05,0.0961798131465911,0,0,0
4807,177456.04921911992,2010-12-15 13:54:20,2131.0659485138017,2,17,0.550297200679779,3.961195468902588,14.593303757540124,14.246750137474027,58.60582070218703,51.47985320076296,6.47544875391759e-05,0.0961798131465911,0,0,0
4808,177486.06421441128,2010-12-15 13:54:50,2161.0809438101737,2,17,0.550297200679779,3.9631381034851074,14.597890994256748,14.246750137474027,58.62399634888942,51.47985320076296,6.47544875391759e-05,0.0961798131465911,0,0,0
4809,177516.07923337154,2010-12-15 13:55:20,2191.095962740358,2,17,0.550297200679779,3.964918851852417,14.60247814033708,14.246750137474027,58.6421797232208,51.47985320076296,6.47544875391759e-05,0.0961798131465911,0,0,0
4810,177546.0943789068,2010-12-15 13:55:50,2221.1111083708306,2,17,0.550297200679779,3.966699600219727,14.607065349967447,14.246750137474027,58.66037148038805,51.47985320076296,6.47544875391759e-05,0.0961798131465911,0,0,0
4811,177576.10940425794,2010-12-15 13:56:20,2251.1261336518182,2,17,0.550297200679779,3.968318462371826,14.61165258635162,14.246750137474027,58.67857147954637,51.47985320076296,3.237724376958795e-05,0.0961798131465911,0,0,0
4812,177606.12441037624,2010-12-15 13:56:50,2281.141139745058,2,17,0.550297200679779,3.970099210739136,14.616239785311755,14.246750137474027,58.69677949860655,51.47985320076296,6.47544875391759e-05,0.0961798131465911,0,0,0
4813,177636.13929815506,2010-12-15 13:57:20,2311.156027528889,2,17,0.5501165986061096,3.9720418453216553,14.62082699396951,14.246750137474027,58.7149957925184,51.47985320076296,6.47544875391759e-05,0.0961798131465911,0,0,0
4814,177666.15431961152,2010-12-15 13:57:50,2341.171048990372,2,17,0.5501165986061096,3.973822593688965,14.62541426863581,14.246750137474027,58.73322061663787,51.47985320076296,6.47544875391759e-05,0.0961798131465911,0,0,0
4815,177696.16936157402,2010-12-15 13:58:20,2371.1860909679085,2,17,0.550297200679779,3.9756033420562735,14.63000152585848,14.246750137474027,58.7514536429426,51.47985320076296,3.237724376958795e-05,0.0961798131465911,0,0,0
4816,177726.184376815,2010-12-15 13:58:50,2401.20110618385,2,17,0.5501165986061096,3.977545976638794,14.634588766814865,14.246750137474027,58.7696949988152,51.47985320076296,6.47544875391759e-05,0.0961798131465911,0,0,0
4817,177756.19940483783,2010-12-15 13:59:20,2431.216134231723,2,17,0.550297200679779,3.979326725006104,14.63917597505258,14.246750137474027,58.78794416038503,51.47985320076296,3.237724376958795e-05,0.0961798131465911,0,0,0
4818,177786.21440123193,2010-12-15 13:59:50,2461.231130605777,2,17,0.5499359965324402,3.980945587158203,14.643763167511477,14.246750137474027,58.80620224086655,51.47985320076296,0.0,0.0961798131465911,0,0,0
4819,177816.22943657797,2010-12-15 14:00:20,2491.2461659467986,2,17,0.5501165986061096,3.9830501079559326,14.648350351142993,14.246750137474027,58.82446885092804,51.47985320076296,6.47544875391759e-05,0.0961798131465911,0,0,0
4820,177846.24459120585,2010-12-15 14:00:50,2521.2613206548604,2,17,0.5501165986061096,3.984992742538452,14.65293751672476,14.246750137474027,58.84274396022455,51.47985320076296,9.713172767078504e-05,0.0961798131465911,0,0,0
4821,177876.2594553659,2010-12-15 14:01:20,2551.276184739718,2,17,0.550297200679779,3.986935377120972,14.65752465534944,14.246750137474027,58.861027673777215,51.47985320076296,6.47544875391759e-05,0.0961798131465911,0,0,0
4822,177906.2744768324,2010-12-15 14:01:50,2581.291206206213,2,17,0.5501165986061096,3.988716125488281,14.662111918526003,14.246750137474027,58.87932065000954,51.47985320076296,6.47544875391759e-05,0.0961798131465911,0,0,0
4823,177936.28964632723,2010-12-15 14:02:20,2611.306375706084,2,17,0.550297200679779,3.990658760070801,14.666699119974009,14.246750137474027,58.89762221709178,51.47985320076296,3.237724376958795e-05,0.0961798131465911,0,0,0
4824,177966.30475930145,2010-12-15 14:02:50,2641.321488850717,2,17,0.5501165986061096,3.99260139465332,14.671286214960569,14.246750137474027,58.91593227002343,51.47985320076296,3.237724376958795e-05,0.0961798131465911,0,0,0
4825,177996.31953918678,2010-12-15 14:03:20,2671.336268650835,2,17,0.550297200679779,3.9945437908172607,14.67587332715574,14.246750137474027,58.93425149153539,51.47985320076296,6.47544875391759e-05,0.0961798131465911,0,0,0
4826,178026.33460541465,2010-12-15 14:03:50,2701.351334873705,2,17,0.550297200679779,3.9968101978302,14.680460510768048,14.246750137474027,58.95258019982998,51.47985320076296,9.713172767078504e-05,0.0961798131465911,0,0,0
4827,178056.34957897695,2010-12-15 14:04:20,2731.366308375843,2,17,0.5501165986061096,3.9985909461975098,14.685047688782928,14.246750137474027,58.97091824733936,51.47985320076296,3.237724376958795e-05,0.0961798131465911,0,0,0
4828,178086.36471790072,2010-12-15 14:04:50,2761.3814472795766,2,17,0.5501165986061096,4.000695705413818,14.68963492050296,14.246750137474027,58.989265864099934,51.47985320076296,6.47544875391759e-05,0.0961798131465911,0,0,0
4829,178116.37962367432,2010-12-15 14:05:20,2791.3963531383865,2,17,0.5501165986061096,4.002799987792969,14.69422206076171,14.246750137474027,59.00762264852447,51.47985320076296,3.23295607813634e-05,0.0961798131465911,0,0,0
4830,178146.39463479508,2010-12-15 14:05:50,2821.4113641889626,2,17,0.5501165986061096,4.004904747009277,14.69880925956768,14.246750137474027,59.0259892360388,51.47985320076296,6.47544875391759e-05,0.0961798131465911,0,0,0
4831,178176.40968439658,2010-12-15 14:06:20,2851.4264137854584,2,17,0.5501165986061096,4.007009029388428,14.703396448947084,14.246750137474027,59.04436558917679,51.47985320076296,3.23295607813634e-05,0.0961798131465911,0,0,0
4832,178206.42469625417,2010-12-15 14:06:50,2881.4414256781297,2,17,0.5501165986061096,4.009275436401367,14.707983594551113,14.246750137474027,59.06275157169768,51.47985320076296,6.47544875391759e-05,0.0961798131465911,0,0,0
4833,178236.43971451267,2010-12-15 14:07:20,2911.456443881505,2,17,0.5501165986061096,4.011380195617676,14.71257072464702,14.246750137474027,59.0811474491974,51.47985320076296,9.71794142969884e-05,0.0961798131465911,0,0,0
4834,178266.45471663104,2010-12-15 14:07:50,2941.471446024916,2,17,0.550297200679779,4.013646602630615,14.717157872551187,14.246750137474027,59.09955349477863,51.47985320076296,6.47544875391759e-05,0.0961798131465911,0,0,0
4835,178296.46975012246,2010-12-15 14:08:20,2971.486479521347,2,17,0.5501165986061096,4.015913009643555,14.72174499013839,14.246750137474027,59.1179695833621,51.47985320076296,9.71794142969884e-05,0.0961798131465911,0,0,0
4836,178326.48488702622,2010-12-15 14:08:50,3001.5016164200915,2,17,0.5499359965324402,4.018179416656494,14.726332207988044,14.246750137474027,59.13639645519783,51.47985320076296,6.47544875391759e-05,0.0961798131465911,0,0,0
4837,178356.49977320104,2010-12-15 14:09:20,3031.5165025698566,2,17,0.550297200679779,4.0206074714660645,14.73091938609286,14.246750137474027,59.154833552051,51.47985320076296,9.70840483205393e-05,0.0961798131465911,0,0,0
4838,178386.5151615505,2010-12-15 14:09:50,3061.5318909243388,2,17,0.550297200679779,4.022873878479004,14.735506517333464,14.246750137474027,59.173281028328965,51.47985320076296,9.70840483205393e-05,0.0961798131465911,0,0,0
4839,178416.52982835445,2010-12-15 14:10:20,3091.54655774832,2,17,0.550297200679779,4.0249786376953125,14.740093617361527,14.246750137474027,59.191739053938925,51.47985320076296,3.24249267578125e-05,0.0961798131465911,0,0,0
4840,178446.54483327977,2010-12-15 14:10:50,3121.561562648591,2,17,0.550297200679779,4.027406692504883,14.744680754141577,14.246750137474027,59.21020800981864,51.47985320076296,6.47544875391759e-05,0.0961798131465911,0,0,0
4841,178476.55982723783,2010-12-15 14:11:20,3151.576556631695,2,17,0.550297200679779,4.029673099517822,14.749267895381616,14.246750137474027,59.22868792000732,51.47985320076296,3.23295607813634e-05,0.0961798131465911,0,0,0
4842,178506.57485028825,2010-12-15 14:11:50,3181.591579747294,2,17,0.5499359965324402,4.032101631164551,14.753855001418312,14.246750137474027,59.24717864391581,51.47985320076296,3.24249267578125e-05,0.0961798131465911,0,0,0
4843,178536.58987478225,2010-12-15 14:12:20,3211.606604171149,2,17,0.5501165986061096,4.034691333770752,14.758442127382509,14.246750137474027,59.26568062565908,51.47985320076296,6.47544875391759e-05,0.0961798131465911,0,0,0
4844,178566.6048910809,2010-12-15 14:12:50,3241.6216204747966,2,17,0.550297200679779,4.037281513214111,14.763029248117288,14.246750137474027,59.28419372994274,51.47985320076296,9.70840483205393e-05,0.0961798131465911,0,0,0
4845,178596.620055047,2010-12-15 14:13:20,3271.63678442586,2,17,0.5504778623580933,4.03971004486084,14.767616462839015,14.246750137474027,59.30271852495659,51.47985320076296,9.71794142969884e-05,0.0961798131465911,0,0,0
4846,178626.6349827953,2010-12-15 14:13:50,3301.651712279403,2,17,0.5501165986061096,4.041976451873779,14.772203711813102,14.246750137474027,59.32125482156901,51.47985320076296,3.24249267578125e-05,0.0961798131465911,0,0,0
4847,178656.65005957944,2010-12-15 14:14:20,3331.6667890635545,2,17,0.550297200679779,4.0447282791137695,14.776790974643584,14.246750137474027,59.33980279632963,51.47985320076296,9.70840483205393e-05,0.0961798131465911,0,0,0
4848,178686.66496988933,2010-12-15 14:14:50,3361.681699283216,2,17,0.550297200679779,4.047318458557129,14.781378187984412,14.246750137474027,59.35836228514383,51.47985320076296,6.47544875391759e-05,0.0961798131465911,0,0,0
4849,178716.67999183704,2010-12-15 14:15:20,3391.696721205847,2,17,0.5499359965324402,4.049584865570068,14.785965421282546,14.246750137474027,59.37693373615046,51.47985320076296,3.23295607813634e-05,0.0961798131465911,0,0,0
4850,178746.6950053387,2010-12-15 14:15:50,3421.711734732585,2,17,0.5501165986061096,4.052337169647217,14.790552702896004,14.246750137474027,59.39551723377497,51.47985320076296,3.24249267578125e-05,0.0961798131465911,0,0,0
4851,178776.7100445794,2010-12-15 14:16:21,3451.7267739783238,2,17,0.5501165986061096,4.055088996887207,14.795139997133392,14.246750137474027,59.414112901044646,51.47985320076296,6.47544875391759e-05,0.0961798131465911,0,0,0
4852,178806.72519974364,2010-12-15 14:16:51,3481.7419291174574,2,17,0.5501165986061096,4.057517528533936,14.799727319913744,14.246750137474027,59.43272083459452,51.47985320076296,3.24249267578125e-05,0.0961798131465911,0,0,0
4853,178836.74007197877,2010-12-15 14:17:21,3511.756801347584,2,17,0.5501165986061096,4.060431480407715,14.8043145826175,14.246750137474027,59.45134083740438,51.47985320076296,6.47544875391759e-05,0.0961798131465911,0,0,0
4854,178866.75508572606,2010-12-15 14:17:51,3541.7718150948704,2,17,0.5501165986061096,4.063021659851074,14.808901809790836,14.246750137474027,59.469972617685045,51.47985320076296,6.47544875391759e-05,0.0961798131465911,0,0,0
4855,178896.7701650365,2010-12-15 14:18:21,3571.7868945005457,2,17,0.550297200679779,4.0657734870910645,14.813489056869376,14.246750137474027,59.488617089446514,51.47985320076296,3.23295607813634e-05,0.0961798131465911,0,0,0
4856,178926.78514088946,2010-12-15 14:18:51,3601.8018702582967,2,17,0.5501165986061096,4.068525791168213,14.818076282650908,14.246750137474027,59.50727411634856,51.47985320076296,6.47544875391759e-05,0.0961798131465911,0,0,0
4857,178956.80013981988,2010-12-15 14:19:21,3631.816869213774,2,17,0.5501165986061096,4.071277618408203,14.82266353660911,14.246750137474027,59.52594406725759,51.47985320076296,6.47544875391759e-05,0.0961798131465911,0,0,0
4858,178986.8151723088,2010-12-15 14:19:51,3661.831901677636,2,17,0.550297200679779,4.074191570281982,14.827250736908258,14.246750137474027,59.54462662836155,51.47985320076296,6.47544875391759e-05,0.0961798131465911,0,0,0
4859,179016.83020209102,2010-12-15 14:20:21,3691.846931484888,2,17,0.5501165986061096,4.077105522155762,14.831837922385963,14.246750137474027,59.56332210649207,51.47985320076296,0.0001295089750783,0.0961798131465911,0,0,0
4860,179046.8452066805,2010-12-15 14:20:51,3721.8619360493226,2,17,0.5499359965324402,4.079695701599121,14.836425089352392,14.246750137474027,59.5820305441768,51.47985320076296,3.23295607813634e-05,0.0961798131465911,0,0,0
4861,179076.8602258563,2010-12-15 14:21:21,3751.8769553153434,2,17,0.550297200679779,4.0827717781066895,14.841012260466313,14.246750137474027,59.60075208492061,51.47985320076296,9.71794142969884e-05,0.0961798131465911,0,0,0
4862,179106.87525421995,2010-12-15 14:21:51,3781.891983588776,2,17,0.5501165986061096,4.08552360534668,14.845599145961796,14.246750137474027,59.61948571487848,51.47985320076296,6.47544875391759e-05,0.0961798131465911,0,0,0
4863,179136.89029674887,2010-12-15 14:22:21,3811.9070262379846,2,17,0.5501165986061096,4.088437557220459,14.850185559244425,14.246750137474027,59.63823070794513,51.47985320076296,6.47544875391759e-05,0.0961798131465911,0,0,0
4864,179166.90532069153,2010-12-15 14:22:51,3841.922050085405,2,17,0.550297200679779,4.091675281524658,14.854772375610478,14.246750137474027,59.65699101145385,51.47985320076296,9.70840483205393e-05,0.0961798131465911,0,0,0
4865,179196.92035820798,2010-12-15 14:23:21,3871.93708760184,2,17,0.5501165986061096,4.094427585601807,14.859359612468428,14.246750137474027,59.6757666571369,51.47985320076296,6.47544875391759e-05,0.0961798131465911,0,0,0
4866,179226.93538541373,2010-12-15 14:23:51,3901.9521148026047,2,17,0.550297200679779,4.097665309906006,14.863946877976932,14.246750137474027,59.694556247592274,51.47985320076296,9.71794142969884e-05,0.0961798131465911,0,0,0
4867,179256.95039545678,2010-12-15 14:24:21,3931.9671248556974,2,17,0.550297200679779,4.100579261779785,14.868534100320558,14.246750137474027,59.71335964408121,51.47985320076296,9.71794142969884e-05,0.0961798131465911,0,0,0
4868,179286.96539994102,2010-12-15 14:24:51,3961.9821293349214,2,17,0.5501165986061096,4.1034932136535645,14.873121366134232,14.246750137474027,59.732177203457006,51.47985320076296,3.24249267578125e-05,0.0961798131465911,0,0,0
4869,179316.98042076093,2010-12-15 14:25:21,3991.997150154808,2,17,0.5501165986061096,4.1068925857543945,14.877708610555652,14.246750137474027,59.75100885526564,51.47985320076296,0.0001295089750783,0.0961798131465911,0,0,0
4870,179346.99808273822,2010-12-15 14:25:51,4022.0148122223377,2,17,0.550297200679779,4.109968662261963,14.882296273002266,14.246750137474027,59.7698565233468,51.47985320076296,9.71794142969884e-05,0.0961798131465911,0,0,0
4871,179377.01055001872,2010-12-15 14:26:21,4052.02727950284,2,17,0.550297200679779,4.113044261932373,14.886883138923036,14.246750137474027,59.78871529062389,51.47985320076296,9.70840483205393e-05,0.0961798131465911,0,0,0
4872,179407.02548992727,2010-12-15 14:26:51,4082.0422194113817,2,17,0.550297200679779,4.116281986236572,14.891470406699554,14.246750137474027,59.80759018256761,51.47985320076296,9.71794142969884e-05,0.0961798131465911,0,0,0
4873,179437.0405602303,2010-12-15 14:27:21,4112.057289714405,2,17,0.550297200679779,4.119357585906982,14.896057586596738,14.246750137474027,59.82647934786024,51.47985320076296,6.47544875391759e-05,0.0961798131465911,0,0,0
4874,179467.05557745122,2010-12-15 14:27:51,4142.0723069152855,2,17,0.5499359965324402,4.122757434844971,14.900644870150591,14.246750137474027,59.84538380719068,51.47985320076296,6.47544875391759e-05,0.0961798131465911,0,0,0
4875,179497.07069154823,2010-12-15 14:28:21,4172.087420927076,2,17,0.550297200679779,4.12599515914917,14.905232164192611,14.246750137474027,59.86430312143006,51.47985320076296,9.71794142969884e-05,0.0961798131465911,0,0,0
4876,179527.08557287097,2010-12-15 14:28:51,4202.102302355092,2,17,0.5501165986061096,4.12907075881958,14.909819418139971,14.246750137474027,59.88323730707835,51.47985320076296,9.70840483205393e-05,0.0961798131465911,0,0,0
4877,179557.1005944177,2010-12-15 14:29:21,4232.117323816574,2,17,0.5501165986061096,4.132470607757568,14.914406688700703,14.246750137474027,59.902186642895984,51.47985320076296,9.71794142969884e-05,0.0961798131465911,0,0,0
4878,179587.1156089068,2010-12-15 14:29:51,4262.132338305707,2,17,0.5499359965324402,4.135708332061768,14.918993974900635,14.246750137474027,59.921151223341184,51.47985320076296,6.47544875391759e-05,0.0961798131465911,0,0,0
4879,179617.13084924797,2010-12-15 14:30:21,4292.147578707013,2,17,0.5501165986061096,4.139107704162598,14.92358126978468,14.246750137474027,59.94013121277184,51.47985320076296,6.47544875391759e-05,0.0961798131465911,0,0,0
4880,179647.14567806505,2010-12-15 14:30:51,4322.162407458946,2,17,0.550297200679779,4.142669200897217,14.928168506585646,14.246750137474027,59.95912647512839,51.47985320076296,0.0001295089750783,0.0961798131465911,0,0,0
4881,179677.16067748168,2010-12-15 14:31:21,4352.177406875571,2,17,0.550297200679779,4.146069049835205,14.9327556785063,14.246750137474027,59.978137150725466,51.47985320076296,9.71794142969884e-05,0.0961798131465911,0,0,0
4882,179707.1756950184,2010-12-15 14:31:51,4382.192424412287,2,17,0.550297200679779,4.149468421936035,14.937342922604564,14.246750137474027,59.997164014878365,51.47985320076296,9.70840483205393e-05,0.0961798131465911,0,0,0
4883,179737.19072953737,2010-12-15 14:32:21,4412.207458931263,2,17,0.5501165986061096,4.152868270874023,14.941930146858272,14.246750137474027,60.0162066135015,51.47985320076296,9.71794142969884e-05,0.0961798131465911,0,0,0
4884,179767.20590228034,2010-12-15 14:32:51,4442.222631659167,2,17,0.550297200679779,4.156591415405273,14.946517398740946,14.246750137474027,60.0352653167968,51.47985320076296,0.0001295089750783,0.0961798131465911,0,0,0
4885,179797.22088438887,2010-12-15 14:33:21,4472.23761378276,2,17,0.5501165986061096,4.159829139709473,14.95110459007982,14.246750137474027,60.0543398400733,51.47985320076296,6.47544875391759e-05,0.0961798131465911,0,0,0
4886,179827.23578766626,2010-12-15 14:33:51,4502.252517065158,2,17,0.550297200679779,4.163552761077881,14.955691796525644,14.246750137474027,60.07343056819998,51.47985320076296,0.0001295089750783,0.0961798131465911,0,0,0
4887,179857.25083542822,2010-12-15 14:34:21,4532.267564887238,2,17,0.5501165986061096,4.166952133178711,14.9602790178089,14.246750137474027,60.09253757864193,51.47985320076296,6.47544875391759e-05,0.0961798131465911,0,0,0
4888,179887.26604612058,2010-12-15 14:34:51,4562.282775594653,2,17,0.550297200679779,4.17051362991333,14.96486630790142,14.246750137474027,60.11166129164847,51.47985320076296,6.47544875391759e-05,0.0961798131465911,0,0,0
4889,179917.2808587223,2010-12-15 14:35:21,4592.297588211434,2,17,0.550297200679779,4.174237251281738,14.969453508849687,14.246750137474027,60.13080112557505,51.47985320076296,6.47544875391759e-05,0.0961798131465911,0,0,0
4890,179947.2958715523,2010-12-15 14:35:51,4622.312600946201,2,17,0.5501165986061096,4.177798748016357,14.97404077072053,14.246750137474027,60.14995767326051,51.47985320076296,9.71794142969884e-05,0.0961798131465911,0,0,0
4891,179977.31091695337,2010-12-15 14:36:21,4652.327646352269,2,17,0.5499359965324402,4.181360244750977,14.978628020073506,14.246750137474027,60.169130884959024,51.47985320076296,6.47544875391759e-05,0.0961798131465911,0,0,0
4892,180007.32591692638,2010-12-15 14:36:51,4682.342646320267,2,17,0.5501165986061096,4.185083389282227,14.98321533227108,14.246750137474027,60.18832119064679,51.47985320076296,9.70840483205393e-05,0.0961798131465911,0,0,0
4893,180037.34093754578,2010-12-15 14:37:21,4712.357666939653,2,17,0.550297200679779,4.188968658447266,14.987802537196677,14.246750137474027,60.20752792732113,51.47985320076296,9.70840483205393e-05,0.0961798131465911,0,0,0
4894,180067.35597347826,2010-12-15 14:37:51,4742.372702872147,2,17,0.5501165986061096,4.192530155181885,14.99238977604163,14.246750137474027,60.22675191048222,51.47985320076296,6.47544875391759e-05,0.0961798131465911,0,0,0
4895,180097.37111842705,2010-12-15 14:38:21,4772.387847820924,2,17,0.5501165986061096,4.196253299713135,14.996976990934929,14.246750137474027,60.2459929488167,51.47985320076296,6.47544875391759e-05,0.0961798131465911,0,0,0
4896,180125.54230632464,2010-12-15 14:38:49,4800.5590357185,2,17,0.550297200679779,4.200138568878174,15.00128243185331,14.246750137474027,60.26406780391565,51.47985320076296,0.0001295089750783,0.0961798131465911,0,0,0
4897,180155.55302161872,2010-12-15 14:39:19,30.015013902673196,3,17,0.0,4.107216358184815,15.00128243185331,14.246750137474027,60.26406780391565,51.47985320076296,-0.0004209518374409,0.0961798131465911,0,0,0
4898,180185.5680432306,2010-12-15 14:39:49,60.0300354192934,3,17,0.0,4.095560550689697,15.00128243185331,14.246750137474027,60.26406780391565,51.47985320076296,-0.0002266883820993,0.0961798131465911,0,0,0
4899,180215.5830748574,2010-12-15 14:40:20,90.04506705108481,3,17,0.0,4.088275909423828,15.00128243185331,14.246750137474027,60.26406780391565,51.47985320076296,-0.0001942634553415,0.0961798131465911,0,0,0
4900,180245.5512105003,2010-12-15 14:40:49,120.01320267396174,3,17,0.0,4.083743095397949,15.00128243185331,14.246750137474027,60.26406780391565,51.47985320076296,-9.70840483205393e-05,0.0961798131465911,0,0,0
4901,180245.5651353481,2010-12-15 14:40:50,0.015791055434099,4,17,1.013379454612732,4.199814796447754,15.001286876945144,14.246750137474027,60.264086472478105,51.47985320076296,0.0,0.0961798131465911,0,0,0
4902,180246.25257352152,2010-12-15 14:40:50,0.703229188789025,4,17,0.963170051574707,4.199814796447754,15.001474066281624,14.246750137474027,60.26487263452884,51.47985320076296,0.0,0.0961798131465911,0,0,0
4903,180248.14307834004,2010-12-15 14:40:52,2.593734007318211,4,17,0.9125994443893432,4.199814796447754,15.001965449913143,14.246750137474027,60.26693635305417,51.47985320076296,0.0,0.0961798131465911,0,0,0
4904,180251.0179908292,2010-12-15 14:40:55,5.468646496473918,4,17,0.8625706434249878,4.199814796447754,15.00267312774744,14.246750137474027,60.26990847262765,51.47985320076296,0.0,0.0961798131465911,0,0,0
4905,180254.98665008013,2010-12-15 14:40:59,9.437305747379057,4,17,0.8125419020652771,4.199814796447754,15.003595284385304,14.246750137474027,60.27378137162599,51.47985320076296,0.0,0.0961798131465911,0,0,0
4906,180260.2365497736,2010-12-15 14:41:04,14.687205430822084,4,17,0.7625131011009216,4.199653148651123,15.004742512347296,14.246750137474027,60.27859953361868,51.47985320076296,-3.23295607813634e-05,0.0961798131465911,0,0,0
4907,180267.11143279052,2010-12-15 14:41:11,21.56208843275381,4,17,0.7123037576675415,4.199976921081543,15.006149082103764,14.246750137474027,60.28450690108456,51.47985320076296,3.24249267578125e-05,0.0961798131465911,0,0,0
4908,180276.2362239324,2010-12-15 14:41:20,30.686879604631525,4,17,0.662274956703186,4.199814796447754,15.007888046511791,14.246750137474027,60.29181027251433,51.47985320076296,-3.24249267578125e-05,0.0961798131465911,0,0,0
4909,180288.642260026,2010-12-15 14:41:33,43.09291569829537,4,17,0.6122462153434753,4.199814796447754,15.010079418264564,14.246750137474027,60.30101369571971,51.47985320076296,3.23295607813634e-05,0.0961798131465911,0,0,0
4910,180307.36061337337,2010-12-15 14:41:51,61.81126904065116,4,17,0.5622174143791199,4.199976921081543,15.013123648895744,14.246750137474027,60.31379899302343,51.47985320076296,0.0,0.0961798131465911,0,0,0
4911,180338.9849507907,2010-12-15 14:42:23,93.43560643293118,4,17,0.5120080709457397,4.199814796447754,15.01782117852397,14.246750137474027,60.3335278584392,51.47985320076296,-3.24249267578125e-05,0.0961798131465911,0,0,0
4912,180399.37434814332,2010-12-15 14:43:23,153.82500381063647,4,17,0.4619792997837066,4.199814796447754,15.025948247522356,14.246750137474027,60.36766022723631,51.47985320076296,0.0,0.0961798131465911,0,0,0
4913,180497.3880273042,2010-12-15 14:45:02,251.83868297648377,4,17,0.4119505286216736,4.199976921081543,15.037812999245814,14.246750137474027,60.4174904052701,51.47985320076296,3.24249267578125e-05,0.0961798131465911,0,0,0
4914,180625.22920098796,2010-12-15 14:47:09,379.6798566301528,4,17,0.3617411255836487,4.199653148651123,15.051540659881056,14.246750137474027,60.47514458256819,51.47985320076296,-3.23295607813634e-05,0.0961798131465911,0,0,0
4915,180779.02298534013,2010-12-15 14:49:43,533.47364100743,4,17,0.3115317523479461,4.199653148651123,15.0659132054238,14.246750137474027,60.53550713609946,51.47985320076296,-3.23295607813634e-05,0.0961798131465911,0,0,0
4916,180963.22245947196,2010-12-15 14:52:47,717.6731151291868,4,17,0.2613223791122436,4.199814796447754,15.080554433723668,14.246750137474027,60.59699804569933,51.47985320076296,0.0,0.0961798131465911,0,0,0
4917,181191.2178805683,2010-12-15 14:56:35,945.6685362355554,4,17,0.2112936079502105,4.199653148651123,15.095486344996749,14.246750137474027,60.659709817871885,51.47985320076296,-3.23295607813634e-05,0.0961798131465911,0,0,0
4918,181489.3212741828,2010-12-15 15:01:33,1243.77192985005,4,17,0.161084234714508,4.199814796447754,15.11083062224976,14.246750137474027,60.7241535449805,51.47985320076296,0.0,0.0961798131465911,0,0,0
4919,181927.4374560758,2010-12-15 15:08:52,1681.8881117280307,4,17,0.1108748540282249,4.199814796447754,15.127207047009009,14.246750137474027,60.79293207101409,51.47985320076296,0.0,0.0961798131465911,0,0,0
4920,182748.07721912808,2010-12-15 15:22:32,2502.527874870543,4,17,0.0608460828661918,4.199814796447754,15.146143748523167,14.246750137474027,60.87246344354993,51.47985320076296,0.0,0.0961798131465911,0,0,0
4921,183061.28966590023,2010-12-15 15:27:45,2815.7403215675163,4,17,0.0496483072638511,4.199653148651123,15.150978623968294,14.246750137474027,60.892769204536535,51.47985320076296,-6.47544875391759e-05,0.0961798131465911,0,0,0
4922,183091.31250988232,2010-12-15 15:28:16,30.01503415306551,5,17,0.0,4.191235065460205,15.150978623968294,14.246750137474027,60.892769204536535,51.47985320076296,-6.47544875391759e-05,0.0961798131465911,0,0,0
4923,183121.3119001512,2010-12-15 15:28:46,60.014424441976765,5,17,0.0,4.1896162033081055,15.150978623968294,14.246750137474027,60.892769204536535,51.47985320076296,-9.71794142969884e-05,0.0961798131465911,0,0,0
4924,183121.4928948688,2010-12-15 15:28:46,0.187608932613079,6,17,-1.9243103452026844e-05,4.189778327941895,15.150978623968294,14.246750138476855,60.892769204536535,51.47985320496458,0.0,0.0987826660275459,0,0,0
4925,183126.32078945372,2010-12-15 15:28:51,5.015503497549672,6,17,0.0010644125286489,4.189939975738525,15.15097975122728,14.246750138559904,60.89277392768968,51.479853205312544,0.0,0.0987826660275459,0,0,0
4926,183156.33193275897,2010-12-15 15:29:21,30.01766223795368,7,17,-1.099568486213684,3.99713397026062,15.15097975122728,14.25591843860848,60.89277392768968,51.51672047728243,-0.0010361194144934,0.0987826660275459,0,0,0
4927,183186.3443282307,2010-12-15 15:29:51,60.03005761953785,7,17,-1.099568486213684,3.966052055358887,15.15097975122728,14.265085008555078,60.89277392768968,51.55320801628728,-0.0006799221155233,0.0987826660275459,0,0,0
4928,183216.3593911504,2010-12-15 15:30:21,90.04512061938748,7,17,-1.0993878841400146,3.944683074951172,15.15097975122728,14.274252361464413,60.89277392768968,51.58946266932302,-0.0004209041653666,0.0987826660275459,0,0,0
4929,183246.3744852376,2010-12-15 15:30:51,120.06021461637228,7,17,-1.099568486213684,3.927685022354126,15.15097975122728,14.283419742653876,60.89277392768968,51.625543575016565,-0.0004532813909463,0.0987826660275459,0,0,0
4930,183276.38934043533,2010-12-15 15:31:21,150.07506990433887,7,17,-1.099568486213684,3.9136011600494394,15.15097975122728,14.292587000289776,60.89277392768968,51.66148329792942,-0.0003561019839253,0.0987826660275459,0,0,0
4931,183306.40453318803,2010-12-15 15:31:51,180.09026257186153,7,17,-1.099568486213684,3.900812149047852,15.15097975122728,14.301754421534367,60.89277392768968,51.697301626359376,-0.0003237724304199,0.0987826660275459,0,0,0
4932,183336.41943979872,2010-12-15 15:32:21,210.10516919256767,7,17,-1.0993878841400146,3.8894801139831534,15.15097975122728,14.310921788969829,60.89277392768968,51.73300899836642,-0.0002913951757363,0.0987826660275459,0,0,0
4933,183366.4345111444,2010-12-15 15:32:51,240.12024053317293,7,17,-1.099568486213684,3.878309965133667,15.15097975122728,14.32008925994504,60.89277392768968,51.768613355000525,-0.0002913951757363,0.0987826660275459,0,0,0
4934,183396.44938249228,2010-12-15 15:33:21,270.1351118760917,7,17,-1.099568486213684,3.8676254749298096,15.15097975122728,14.329256644991093,60.89277392768968,51.80411859629223,-0.0003237724304199,0.0987826660275459,0,0,0
4935,183426.46463657264,2010-12-15 15:33:51,300.15036593638786,7,17,-1.099568486213684,3.857426643371582,15.15097975122728,14.33842415817287,60.89277392768968,51.83952909593695,-0.0003237724304199,0.0987826660275459,0,0,0
4936,183456.4795305268,2010-12-15 15:34:21,330.1652599156362,7,17,-1.099568486213684,3.847713470458984,15.15097975122728,14.347591547754922,60.89277392768968,51.874847493467705,-0.0002590179501567,0.0987826660275459,0,0,0
4937,183486.49453203368,2010-12-15 15:34:51,360.18026139740044,7,17,-1.0993878841400146,3.8380002975463863,15.15097975122728,14.356758907373887,60.89277392768968,51.91007618577101,-0.0002913951757363,0.0987826660275459,0,0,0
4938,183516.50955193624,2010-12-15 15:35:21,390.1952813000042,7,17,-1.099568486213684,3.828611135482788,15.15097975122728,14.365926280763803,60.89277392768968,51.945218263636,-0.0002590179501567,0.0987826660275459,0,0,0
4939,183546.52458649533,2010-12-15 15:35:51,420.21031588915486,7,17,-1.099568486213684,3.81970739364624,15.15097975122728,14.375093685113988,60.89277392768968,51.98027631884487,-0.0002266406954731,0.0987826660275459,0,0,0
4940,183576.5397497396,2010-12-15 15:36:21,450.2254791835838,7,17,-1.099568486213684,3.810803651809693,15.15097975122728,14.384261121869248,60.89277392768968,52.015252522575565,-0.0002266406954731,0.0987826660275459,0,0,0
4941,183606.5546292328,2010-12-15 15:36:51,480.24035862164686,7,17,-1.099568486213684,3.8020617961883545,15.15097975122728,14.393428383086174,60.89277392768968,52.05014712695072,-0.0002590179501567,0.0987826660275459,0,0,0
4942,183636.5696155268,2010-12-15 15:37:21,510.25534491561694,7,17,-1.0992072820663452,3.793967485427856,15.15097975122728,14.402595782519262,60.89277392768968,52.08496352221377,-0.0001942634553415,0.0987826660275459,0,0,0
4943,183666.58461731937,2010-12-15 15:37:51,540.2703467081545,7,17,-1.0993878841400146,3.7855494022369385,15.15097975122728,14.411763132049677,60.89277392768968,52.11970375218131,-0.0001942634553415,0.0987826660275459,0,0,0
4944,183696.60012030907,2010-12-15 15:38:21,570.2858497730891,7,17,-1.099568486213684,3.7776169776916495,15.15097975122728,14.420930637783751,60.89277392768968,52.15437041033687,-0.0001942634553415,0.0987826660275459,0,0,0
4945,183726.61465965083,2010-12-15 15:38:51,600.3003891248608,7,17,-1.0997490882873535,3.7696845531463614,15.15097975122728,14.430097926534428,60.89277392768968,52.18896395420396,-0.0001942634553415,0.0987826660275459,0,0,0
4946,183756.62982313076,2010-12-15 15:39:21,630.3155525897135,7,17,-1.099568486213684,3.762075901031494,15.15097975122728,14.439265277997476,60.89277392768968,52.2234869383572,-0.0001618862152099,0.0987826660275459,0,0,0
4947,183786.6447397664,2010-12-15 15:39:51,660.3304691501544,7,17,-1.0993878841400146,3.754629135131836,15.15097975122728,14.448432631097706,60.89277392768968,52.257941471477686,-0.0002266406954731,0.0987826660275459,0,0,0
4948,183816.6597367068,2010-12-15 15:40:21,690.3454660805928,7,17,-1.099568486213684,3.7475063800811768,15.15097975122728,14.45760004982438,60.89277392768968,52.29232939889218,-0.0001942634553415,0.0987826660275459,0,0,0
4949,183846.6748812245,2010-12-15 15:40:51,720.3606105982965,7,17,-1.099568486213684,3.740545272827149,15.15097975122728,14.466767540459816,60.89277392768968,52.32665284958234,-0.0001618862152099,0.0987826660275459,0,0,0
4950,183876.6897764068,2010-12-15 15:41:21,750.3755057705137,7,17,-1.099568486213684,3.73358416557312,15.15097975122728,14.475934902230582,60.89277392768968,52.360911662939984,-0.0001618862152099,0.0987826660275459,0,0,0
4951,183906.70493304465,2010-12-15 15:41:51,780.3906624384526,7,17,-1.099568486213684,3.7267849445343018,15.15097975122728,14.485102321705662,60.89277392768968,52.39510768938547,-0.0001942634553415,0.0987826660275459,0,0,0
4952,183936.71982239236,2010-12-15 15:42:21,810.4055517561007,7,17,-1.0993878841400146,3.720147609710693,15.15097975122728,14.494269652577929,60.89277392768968,52.42924207456689,-0.0001942634553415,0.0987826660275459,0,0,0
4953,183966.73485068584,2010-12-15 15:42:51,840.4205800545974,7,17,-1.0993878841400146,3.713834047317505,15.15097975122728,14.503437078729082,60.89277392768968,52.46331631313113,-0.0001295089750783,0.0987826660275459,0,0,0
4954,183996.74991278345,2010-12-15 15:43:21,870.4356421722517,7,17,-1.0993878841400146,3.707196712493897,15.15097975122728,14.512604462421706,60.89277392768968,52.49733102766954,-0.0001942634553415,0.0987826660275459,0,0,0
4955,184026.7649026212,2010-12-15 15:43:51,900.450631984978,7,17,-1.099568486213684,3.700883150100708,15.15097975122728,14.5217718784878,60.89277392768968,52.53128777413826,-0.0001618862152099,0.0987826660275459,0,0,0
4956,184056.77991565177,2010-12-15 15:44:21,930.4656450204932,7,17,-1.099568486213684,3.69456958770752,15.15097975122728,14.53093931828267,60.89277392768968,52.565186974142286,-0.0001618862152099,0.0987826660275459,0,0,0
4957,184086.7949606167,2010-12-15 15:44:51,960.4806899904764,7,17,-1.0993878841400146,3.688741683959961,15.15097975122728,14.540106737315469,60.89277392768968,52.5990295736455,-0.0001295089750783,0.0987826660275459,0,0,0
4958,184116.810180923,2010-12-15 15:45:21,990.4959103669516,7,17,-1.099568486213684,3.682428121566773,15.15097975122728,14.54927413789213,60.89277392768968,52.63281633406297,-0.0002266406954731,0.0987826660275459,0,0,0
4959,184146.8250485968,2010-12-15 15:45:51,1020.5107780808396,7,17,-1.0993878841400146,3.676762104034424,15.15097975122728,14.5584414963161,60.89277392768968,52.66654810630446,-9.713172767078504e-05,0.0987826660275459,0,0,0
4960,184176.84000552268,2010-12-15 15:46:21,1050.525734911491,7,17,-1.0993878841400146,3.6707725524902335,15.15097975122728,14.567608926031456,60.89277392768968,52.70022668430179,-0.0001618862152099,0.0987826660275459,0,0,0
4961,184206.85504566063,2010-12-15 15:46:51,1080.5407750594748,7,17,-1.0993878841400146,3.6651065349578857,15.15097975122728,14.576776433998942,60.89277392768968,52.73385240564488,-0.0001618862152099,0.0987826660275459,0,0,0
4962,184236.8700451274,2010-12-15 15:47:21,1110.555774501163,7,17,-1.099568486213684,3.659278631210327,15.15097975122728,14.585943899517025,60.89277392768968,52.76742589580351,-0.0001942634553415,0.0987826660275459,0,0,0
4963,184266.88508153104,2010-12-15 15:47:51,1140.570810919866,7,17,-1.0997490882873535,3.653774499893189,15.15097975122728,14.595111344416823,60.89277392768968,52.80094805277477,-0.0001618862152099,0.0987826660275459,0,0,0
4964,184296.90008837616,2010-12-15 15:48:21,1170.5858177248767,7,17,-1.099568486213684,3.64843225479126,15.15097975122728,14.60427870274454,60.89277392768968,52.83441999629267,-0.0001942634553415,0.0987826660275459,0,0,0
4965,184326.91512521592,2010-12-15 15:48:51,1200.6008545896905,7,17,-1.0997490882873535,3.643090009689331,15.15097975122728,14.613446038661545,60.89277392768968,52.86784210096462,-0.0001295089750783,0.0987826660275459,0,0,0
4966,184356.93026766847,2010-12-15 15:49:21,1230.6159971124298,7,17,-1.0993878841400146,3.637909650802612,15.15097975122728,14.622613442883392,60.89277392768968,52.90121593780746,-0.0001295089750783,0.0987826660275459,0,0,0
4967,184386.9453089292,2010-12-15 15:49:51,1260.6310383080204,7,17,-1.0993878841400146,3.6327292919158936,15.15097975122728,14.631780843707563,60.89277392768968,52.93454207738552,-0.0001295089750783,0.0987826660275459,0,0,0
4968,184416.96019691852,2010-12-15 15:50:21,1290.6459263124004,7,17,-1.099568486213684,3.6277108192443848,15.15097975122728,14.640948288786248,60.89277392768968,52.967821751947085,-0.0001295089750783,0.0987826660275459,0,0,0
4969,184446.9752203299,2010-12-15 15:50:51,1320.6609496936608,7,17,-1.0993878841400146,3.622854232788086,15.15097975122728,14.65011570901617,60.89277392768968,53.00105576359674,-0.0001295089750783,0.0987826660275459,0,0,0
4970,184476.990230383,2010-12-15 15:51:21,1350.6759597617918,7,17,-1.099568486213684,3.617835760116577,15.15097975122728,14.659283124182387,60.89277392768968,53.03424472918727,-0.0001295089750783,0.0987826660275459,0,0,0
4971,184507.0052499698,2010-12-15 15:51:52,1380.690979363647,7,17,-1.0997490882873535,3.612817287445069,15.15097975122728,14.668450615995113,60.89277392768968,53.06738918255225,-0.0001618862152099,0.0987826660275459,0,0,0
4972,184537.0203917808,2010-12-15 15:52:22,1410.7061211746154,7,17,-1.099568486213684,3.6082844734191895,15.15097975122728,14.677618151275412,60.89277392768968,53.10049002292436,-0.0001295089750783,0.0987826660275459,0,0,0
4973,184567.035286948,2010-12-15 15:52:52,1440.7210163167576,7,17,-1.0993878841400146,3.603913545608521,15.15097975122728,14.686785586258036,60.89277392768968,53.13354800003357,-9.713172767078504e-05,0.0987826660275459,0,0,0
4974,184597.0503099383,2010-12-15 15:53:22,1470.736039332107,7,17,-1.0993878841400146,3.599542617797852,15.15097975122728,14.695953070628102,60.89277392768968,53.16656497685904,-6.47544875391759e-05,0.0987826660275459,0,0,0
4975,184627.06535462252,2010-12-15 15:53:52,1500.7510840113669,7,17,-1.0993878841400146,3.5950098037719727,15.15097975122728,14.705120632509091,60.89277392768968,53.19954204267605,-9.713172767078504e-05,0.0987826660275459,0,0,0
4976,184657.080353172,2010-12-15 15:54:22,1530.7660825357716,7,17,-1.099568486213684,3.5908010005950928,15.15097975122728,14.714288094988444,60.89277392768968,53.23247929243865,-6.47544875391759e-05,0.0987826660275459,0,0,0
4977,184687.09537843795,2010-12-15 15:54:52,1560.781107801722,7,17,-1.0993878841400146,3.586591958999634,15.15097975122728,14.723455632176025,60.89277392768968,53.2653779153454,-0.0001295089750783,0.0987826660275459,0,0,0
4978,184717.1103974333,2010-12-15 15:55:22,1590.7961267970682,7,17,-1.0993878841400146,3.5825448036193848,15.15097975122728,14.73262312353631,60.89277392768968,53.2982389798994,-0.0001295089750783,0.0987826660275459,0,0,0
4979,184747.12543743596,2010-12-15 15:55:52,1620.81116679969,7,17,-1.0993878841400146,3.5786595344543457,15.15097975122728,14.7417906366671,60.89277392768968,53.3310638585561,-9.713172767078504e-05,0.0987826660275459,0,0,0
4980,184777.14044918827,2010-12-15 15:56:22,1650.8261785570246,7,17,-1.099568486213684,3.574774265289306,15.15097975122728,14.750958194481692,60.89277392768968,53.36385350122148,-0.0001295089750783,0.0987826660275459,0,0,0
4981,184807.1553818989,2010-12-15 15:56:52,1680.8411112877045,7,17,-1.0997490882873535,3.571050882339477,15.15097975122728,14.760125740593995,60.89277392768968,53.39660844306184,-6.47544875391759e-05,0.0987826660275459,0,0,0
4982,184837.1706442849,2010-12-15 15:57:22,1710.856373673719,7,17,-1.0993878841400146,3.5673274993896484,15.15097975122728,14.769294092773787,60.89277392768968,53.42933145725931,-9.713172767078504e-05,0.0987826660275459,0,0,0
4983,184867.1854760293,2010-12-15 15:57:52,1740.8712054982975,7,17,-1.0993878841400146,3.5634422302246094,15.15097975122728,14.778462197333877,60.89277392768968,53.462019946825706,-0.0001618862152099,0.0987826660275459,0,0,0
4984,184897.20050935028,2010-12-15 15:58:22,1770.886238739093,7,17,-1.099568486213684,3.56020450592041,15.15097975122728,14.787630281965608,60.89277392768968,53.49467587891015,-9.713172767078504e-05,0.0987826660275459,0,0,0
4985,184927.21552889692,2010-12-15 15:58:52,1800.9012582858113,7,17,-1.0997490882873535,3.556643009185791,15.15097975122728,14.796798451123864,60.89277392768968,53.52729952581012,-9.713172767078504e-05,0.0987826660275459,0,0,0
4986,184957.23055036349,2010-12-15 15:59:22,1830.9162797523063,7,17,-1.0997490882873535,3.552919626235962,15.15097975122728,14.805966697006085,60.89277392768968,53.559891111731964,-9.713172767078504e-05,0.0987826660275459,0,0,0
4987,184987.24559816552,2010-12-15 15:59:52,1860.9313275543373,7,17,-1.099568486213684,3.5498437881469727,15.15097975122728,14.815134859711678,60.89277392768968,53.59245093983019,-9.713172767078504e-05,0.0987826660275459,0,0,0
4988,185017.26060444425,2010-12-15 16:00:22,1890.9463338330384,7,17,-1.099568486213684,3.546282291412353,15.15097975122728,14.82430238624265,60.89277392768968,53.62497745704421,-0.0001295089750783,0.0987826660275459,0,0,0
4989,185047.27564843177,2010-12-15 16:00:52,1920.961377815564,7,17,-1.099568486213684,3.5428826808929443,15.15097975122728,14.833469854551284,60.89277392768968,53.65747263552793,-9.713172767078504e-05,0.0987826660275459,0,0,0
4990,185077.2932452068,2010-12-15 16:01:22,1950.9789746858528,7,17,-1.099568486213684,3.539483070373535,15.15097975122728,14.84263800981441,60.89277392768968,53.68993880337733,-6.47544875391759e-05,0.0987826660275459,0,0,0
4991,185107.305818862,2010-12-15 16:01:52,1980.9915482408144,7,17,-1.099568486213684,3.536083459854126,15.15097975122728,14.851804739150928,60.89277392768968,53.722368826758576,-0.0001295089750783,0.0987826660275459,0,0,0
4992,185137.3206993076,2010-12-15 16:02:22,2011.0064286964096,7,17,-1.0993878841400146,3.532683849334717,15.15097975122728,14.860972153053432,60.89277392768968,53.75477042966958,-9.713172767078504e-05,0.0987826660275459,0,0,0
4993,185167.3357198017,2010-12-15 16:02:52,2041.0214491954985,7,17,-1.099568486213684,3.529284238815308,15.15097975122728,14.870139626936924,60.89277392768968,53.787141452489145,-9.713172767078504e-05,0.0987826660275459,0,0,0
4994,185197.35091772725,2010-12-15 16:03:22,2071.036647186268,7,17,-1.0993878841400146,3.5258846282958984,15.15097975122728,14.879307110626772,60.89277392768968,53.819481054284935,-9.713172767078504e-05,0.0987826660275459,0,0,0
4995,185227.36590913896,2010-12-15 16:03:52,2101.051638527798,7,17,-1.099568486213684,3.5223231315612797,15.15097975122728,14.888474556417568,60.89277392768968,53.85178821576669,-6.47544875391759e-05,0.0987826660275459,0,0,0
4996,185257.38086782425,2010-12-15 16:04:22,2131.066597278227,7,17,-1.099568486213684,3.51876163482666,15.15097975122728,14.897641986003766,60.89277392768968,53.884062481125525,-6.47544875391759e-05,0.0987826660275459,0,0,0
4997,185287.395808204,2010-12-15 16:04:52,2161.081537592779,7,17,-1.099568486213684,3.515200138092041,15.15097975122728,14.906809429149977,60.89277392768968,53.91630390022946,-9.713172767078504e-05,0.0987826660275459,0,0,0
4998,185317.41083673303,2010-12-15 16:05:22,2191.0965661218493,7,17,-1.099568486213684,3.511315107345581,15.15097975122728,14.915976923945754,60.89277392768968,53.94851154901431,-9.70840483205393e-05,0.0987826660275459,0,0,0
4999,185347.42590097096,2010-12-15 16:05:52,2221.111630434967,7,17,-1.099568486213684,3.507591724395752,15.15097975122728,14.925144405500742,60.89277392768968,53.98068461628164,-6.47544875391759e-05,0.0987826660275459,0,0,0
5000,185377.4408839066,2010-12-15 16:06:22,2251.1266132953924,7,17,-1.0997490882873535,3.503544569015503,15.15097975122728,14.934311830214805,60.89277392768968,54.01282169903844,-0.0001295089750783,0.0987826660275459,0,0,0
5001,185407.45590599964,2010-12-15 16:06:52,2281.1416354836847,7,17,-1.099568486213684,3.499335527420044,15.15097975122728,14.943479297800575,60.89277392768968,54.04492097674181,-0.0001295089750783,0.0987826660275459,0,0,0
5002,185437.47094736065,2010-12-15 16:07:22,2311.156676734412,7,17,-1.099568486213684,3.495126485824585,15.15097975122728,14.9526467936052,60.89277392768968,54.07698121781763,-9.713172767078504e-05,0.0987826660275459,0,0,0
5003,185467.48597535337,2010-12-15 16:07:52,2341.171704747197,7,17,-1.0993878841400146,3.490431785583496,15.15097975122728,14.961814236666404,60.89277392768968,54.10899991452363,-9.713172767078504e-05,0.0987826660275459,0,0,0
5004,185497.5011124276,2010-12-15 16:08:22,2371.1868418163663,7,17,-1.099568486213684,3.4854133129119877,15.15097975122728,14.970981742243682,60.89277392768968,54.14097500813995,-0.0001295089750783,0.0987826660275459,0,0,0
5005,185527.51617355776,2010-12-15 16:08:52,2401.2019030217507,7,17,-1.0993878841400146,3.4800710678100586,15.15097975122728,14.980149237893077,60.89277392768968,54.17290312748606,-0.0001295089750783,0.0987826660275459,0,0,0
5006,185557.53101959272,2010-12-15 16:09:22,2431.2167490767406,7,17,-1.099568486213684,3.47408127784729,15.15097975122728,14.989316559418151,60.89277392768968,54.20477969978358,-0.0001942634553415,0.0987826660275459,0,0,0
5007,185587.5478729578,2010-12-15 16:09:52,2461.2336024719207,7,17,-1.099568486213684,3.4677677154541016,15.15097975122728,14.99848456970266,60.89277392768968,54.23660240361547,-0.0001295089750783,0.0987826660275459,0,0,0
5008,185617.56133335465,2010-12-15 16:10:22,2491.247062823642,7,17,-1.0992072820663452,3.4606447219848637,15.15097975122728,15.007651496487757,60.89277392768968,54.26835720786101,-0.0001618862152099,0.0987826660275459,0,0,0
5009,185647.57622404568,2010-12-15 16:10:52,2521.2619534194705,7,17,-1.0993878841400146,3.452064752578736,15.15097975122728,15.01681894596585,60.89277392768968,54.30004234065607,-0.0001942634553415,0.0987826660275459,0,0,0
5010,185677.59115026012,2010-12-15 16:11:22,2551.2768797191475,7,17,-1.0993878841400146,3.4423515796661377,15.15097975122728,15.025986406990045,60.89277392768968,54.3316450188439,-0.0002913951757363,0.0987826660275459,0,0,0
5011,185707.606275154,2010-12-15 16:11:52,2581.292004542843,7,17,-1.099568486213684,3.4305341243743896,15.15097975122728,15.035153866429242,60.89277392768968,54.36314840377028,-0.0003237247583456,0.0987826660275459,0,0,0
5012,185737.6212822748,2010-12-15 16:12:22,2611.30701166364,7,17,-1.099568486213684,3.416450023651123,15.15097975122728,15.044321378567805,60.89277392768968,54.39453487726059,-0.0003885269106831,0.0987826660275459,0,0,0
5013,185767.6361765448,2010-12-15 16:12:52,2641.321905938624,7,17,-1.0993878841400146,3.399613857269287,15.15097975122728,15.053488809420536,60.89277392768968,54.42577999818037,-0.0004532813909463,0.0987826660275459,0,0,0
5014,185797.6513273331,2010-12-15 16:13:22,2671.3370566968574,7,17,-1.099568486213684,3.378730535507202,15.15097975122728,15.062656337987024,60.89277392768968,54.45685384629321,-0.0006151676061563,0.0987826660275459,0,0,0
5015,185827.6662463346,2010-12-15 16:13:52,2701.351975723435,7,17,-1.099568486213684,3.352181196212769,15.15097975122728,15.071823745856204,60.89277392768968,54.487711597604125,-0.0007770538213662,0.0987826660275459,0,0,0
5016,185857.68125596663,2010-12-15 16:14:22,2731.3669853554807,7,17,-1.099568486213684,3.317699670791626,15.15097975122728,15.080991226719846,60.89277392768968,54.51829165603625,-0.0010360718006268,0.0987826660275459,0,0,0
5017,185887.6963025206,2010-12-15 16:14:52,2761.382031909405,7,17,-1.0993878841400146,3.271885871887207,15.15097975122728,15.09015863966218,60.89277392768968,54.54850599196912,-0.0013922214275225,0.0987826660275459,0,0,0
5018,185917.71131883428,2010-12-15 16:15:22,2791.3970482280906,7,17,-1.0993878841400146,3.210369348526001,15.15097975122728,15.099326110705745,60.89277392768968,54.57823376724042,-0.0018778800731524,0.0987826660275459,0,0,0
5019,185947.7264443196,2010-12-15 16:15:52,2821.4121737785954,7,17,-1.099568486213684,3.124408006668091,15.15097975122728,15.108493630346205,60.89277392768968,54.607294667064274,-0.0026873112656176,0.0987826660275459,0,0,0
5020,185977.74146258816,2010-12-15 16:16:22,2851.427191976958,7,17,-1.099568486213684,2.9948995113372803,15.15097975122728,15.117661151563007,60.89277392768968,54.63539081218743,-0.0042090415954589,0.0987826660275459,0,0,0
5021,186005.47516928057,2010-12-15 16:16:50,2879.160898654344,7,17,-1.099568486213684,2.7948086261749268,15.15097975122728,15.126131892462777,60.89277392768968,54.65998291190914,-0.0072525022551417,0.0987826660275459,0,0,0
5022,186015.7407491663,2010-12-15 16:17:00,2889.426478540059,7,17,-1.099568486213684,2.699620008468628,15.15097975122728,15.129267330266744,60.89277392768968,54.66859860701389,-0.0075762271881103,0.0987826660275459,0,0,0
5023,186075.75967083083,2010-12-15 16:18:00,60.01441236692848,8,17,0.0,3.4399232864379883,15.15097975122728,15.129267330266744,60.89277392768968,54.66859860701389,0.0013274669181555,0.0987826660275459,0,0,0
5024,186075.9527799189,2010-12-15 16:18:01,0.187264585719078,9,17,-1.9243103452026844e-05,3.4399232864379883,15.15097975122728,15.129267331267732,60.89277392768968,54.6685986104572,0.0,0.0970755815505981,0,0,0
5025,186080.7809259396,2010-12-15 16:18:06,5.015410591356183,9,17,0.0008838032954372,3.4478557109832764,15.150980827299252,15.129267331434765,60.89277763441783,54.66859861103179,0.0011332035064697,0.0970755815505981,0,0,0
