Data_Point,Test_Time(s),Date_Time,Step_Time(s),Step_Index,Cycle_Index,Current(A),Voltage(V),Charge_Capacity(Ah),Discharge_Capacity(Ah),Charge_Energy(Wh),Discharge_Energy(Wh),dV/dt(V/s),Internal_Resistance(Ohm),Is_FC_Data,AC_Impedance(Ohm),ACI_Phase_Angle(Deg)
1484,55073.63537760831,2010-12-14 03:54:23,30.015021957717856,1,6,0.0,3.4544930458068848,4.482077264401194,4.476049592348348,18.025776015088287,16.173177600556173,0.0008094310760498,0.0962666198611259,0,0,0
1485,55103.65041568112,2010-12-14 03:54:53,60.03006003053753,1,6,0.0,3.478937864303589,4.482077264401194,4.476049592348348,18.025776015088287,16.173177600556173,0.0005504131549969,0.0962666198611259,0,0,0
1486,55133.66561404783,2010-12-14 03:55:23,90.04525846741699,1,6,0.0,3.4973928928375244,4.482077264401194,4.476049592348348,18.025776015088287,16.173177600556173,0.0004209041653666,0.0962666198611259,0,0,0
1487,55163.63366957639,2010-12-14 03:55:53,120.01331392580768,1,6,0.0,3.512124300003052,4.482077264401194,4.476049592348348,18.025776015088287,16.173177600556173,0.0003561019839253,0.0962666198611259,0,0,0
1488,55193.64879894361,2010-12-14 03:56:23,30.0150541277718,2,6,0.550297200679779,3.6621925830841056,4.486664568819569,4.476049592348348,18.04243637423981,16.173177600556173,0.0012950897216796,0.0962666198611259,0,0,0
1489,55223.66384750754,2010-12-14 03:56:53,60.03010262152356,2,6,0.550297200679779,3.701045036315918,4.491251875972613,4.476049592348348,18.059330572843823,16.173177600556173,0.0008741855854168,0.0962666198611259,0,0,0
1490,55253.67887617696,2010-12-14 03:57:23,90.04513129094323,2,6,0.550297200679779,3.7285656929016113,4.495839175826021,4.476049592348348,18.07637385596153,16.173177600556173,0.0006799221155233,0.0962666198611259,0,0,0
1491,55283.69392595891,2010-12-14 03:57:53,120.06018107290063,2,6,0.550297200679779,3.749449014663696,4.500426468303425,4.476049592348348,18.09352714129363,16.173177600556173,0.0004856586456298,0.0962666198611259,0,0,0
1492,55313.70905208084,2010-12-14 03:58:23,150.0753071797897,2,6,0.5501165986061096,3.764827966690064,4.505013748742093,4.476049592348348,18.110764115713675,16.173177600556173,0.0003237724304199,0.0962666198611259,0,0,0
1493,55343.72411589772,2010-12-14 03:58:53,180.09037101170992,2,6,0.550297200679779,3.775512456893921,4.509601034321347,4.476049592348348,18.128060939750213,16.173177600556173,0.0002266406954731,0.0962666198611259,0,0,0
1494,55373.7391611083,2010-12-14 03:59:23,210.1054162222916,2,6,0.5501165986061096,3.782635450363159,4.514188320291011,4.476049592348348,18.145397719036943,16.173177600556173,0.0001618862152099,0.0962666198611259,0,0,0
1495,55403.754185060985,2010-12-14 03:59:53,240.12044017497388,2,6,0.5501165986061096,3.788139581680298,4.518775611621461,4.476049592348348,18.1627631581236,16.173177600556173,0.0001295089750783,0.0962666198611259,0,0,0
1496,55433.76923755469,2010-12-14 04:00:23,270.1354926686794,2,6,0.5501165986061096,3.7933199405670166,4.523362860202552,4.476049592348348,18.18015254741013,16.173177600556173,0.0001295089750783,0.0962666198611259,0,0,0
1497,55463.78442693404,2010-12-14 04:00:53,300.15068203298205,2,6,0.550297200679779,3.7980146408081055,4.527950185964434,4.476049592348348,18.197564375293208,16.173177600556173,0.0001295089750783,0.0962666198611259,0,0,0
1498,55493.79934643679,2010-12-14 04:01:23,330.1656015507822,2,6,0.550297200679779,3.8023855686187744,4.532537487937391,4.476049592348348,18.214997083580062,16.173177600556173,9.713172767078504e-05,0.0962666198611259,0,0,0
1499,55523.81441458946,2010-12-14 04:01:53,360.1806696884169,2,6,0.550297200679779,3.8065946102142334,4.537124813888269,4.476049592348348,18.232449910107466,16.173177600556173,9.713172767078504e-05,0.0962666198611259,0,0,0
1500,55553.82982607652,2010-12-14 04:02:23,390.1960812606756,2,6,0.550297200679779,3.8109655380249023,4.541712168839526,4.476049592348348,18.24992221145689,16.173177600556173,0.0001295089750783,0.0962666198611259,0,0,0
1501,55583.844516689685,2010-12-14 04:02:53,420.2107718036807,2,6,0.5501165986061096,3.815012693405152,4.5462994646191,4.476049592348348,18.267413190252917,16.173177600556173,9.713172767078504e-05,0.0962666198611259,0,0,0
1502,55613.85968857048,2010-12-14 04:03:23,450.22594366943895,2,6,0.5501165986061096,3.8188979625701904,4.550886806268694,4.476049592348348,18.284922719948064,16.173177600556173,9.713172767078504e-05,0.0962666198611259,0,0,0
1503,55643.87461336141,2010-12-14 04:03:53,480.2408684753984,2,6,0.550297200679779,3.8227832317352295,4.55547410402147,4.476049592348348,18.302449881846773,16.173177600556173,0.0001295089750783,0.0962666198611259,0,0,0
1504,55673.88966758942,2010-12-14 04:04:23,510.2559227034196,2,6,0.5501165986061096,3.8265066146850586,4.560061384433364,4.476049592348348,18.31999445448533,16.173177600556173,0.0001295089750783,0.0962666198611259,0,0,0
1505,55703.904729997805,2010-12-14 04:04:53,540.2709851117975,2,6,0.550297200679779,3.8300681114196777,4.564648694619775,4.476049592348348,18.337556425682784,16.173177600556173,6.47544875391759e-05,0.0962666198611259,0,0,0
1506,55733.919791854816,2010-12-14 04:05:23,570.2860469738157,2,6,0.5501165986061096,3.833791255950928,4.56923601706757,4.476049592348348,18.35513564690971,16.173177600556173,6.47544875391759e-05,0.0962666198611259,0,0,0
1507,55763.93482928103,2010-12-14 04:05:53,600.3010844000263,2,6,0.5501165986061096,3.837676525115967,4.573823282933849,4.476049592348348,18.372731820803416,16.173177600556173,9.713172767078504e-05,0.0962666198611259,0,0,0
1508,55793.94987989004,2010-12-14 04:06:23,630.3161350090418,2,6,0.5501165986061096,3.841399908065796,4.578410574449851,4.476049592348348,18.390345280074943,16.173177600556173,6.47544875391759e-05,0.0962666198611259,0,0,0
1509,55823.96494816802,2010-12-14 04:06:53,660.3312032820133,2,6,0.5501165986061096,3.845447063446045,4.582997908217675,4.476049592348348,18.407976170585567,16.173177600556173,0.0001295089750783,0.0962666198611259,0,0,0
1510,55853.97999598509,2010-12-14 04:07:23,690.3462511040937,2,6,0.5504778623580933,3.849170446395874,4.587585187161577,4.476049592348348,18.42562410442504,16.173177600556173,0.0001295089750783,0.0962666198611259,0,0,0
1511,55883.99503974707,2010-12-14 04:07:53,720.3612948560457,2,6,0.5504778623580933,3.852893829345703,4.592172551350695,4.476049592348348,18.443289655976947,16.173177600556173,6.47544875391759e-05,0.0962666198611259,0,0,0
1512,55914.01011327312,2010-12-14 04:08:23,750.3763684572763,2,6,0.5501165986061096,3.856617212295532,4.596759855360161,4.476049592348348,18.460972119203944,16.173177600556173,9.713172767078504e-05,0.0962666198611259,0,0,0
1513,55944.02516970161,2010-12-14 04:08:54,780.3914248105864,2,6,0.550297200679779,3.860340595245361,4.601347192864943,4.476049592348348,18.478671738090256,16.173177600556173,0.0001295089750783,0.0962666198611259,0,0,0
1514,55974.04034319141,2010-12-14 04:09:24,810.4065983805856,2,6,0.550297200679779,3.8637402057647705,4.605934551098344,4.476049592348348,18.49638827350945,16.173177600556173,6.47544875391759e-05,0.0962666198611259,0,0,0
1515,56004.05525656392,2010-12-14 04:09:54,840.4215116829188,2,6,0.5501165986061096,3.8674635887146,4.610521867519243,4.476049592348348,18.514121090088803,16.173177600556173,0.0001295089750783,0.0962666198611259,0,0,0
1516,56034.07030581455,2010-12-14 04:10:24,870.4365609285413,2,6,0.5501165986061096,3.870701313018799,4.615109242752727,4.476049592348348,18.53187027399037,16.173177600556173,6.47544875391759e-05,0.0962666198611259,0,0,0
1517,56064.08537690956,2010-12-14 04:10:54,900.4516320235355,2,6,0.5501165986061096,3.874100923538208,4.619696707220827,4.476049592348348,18.54963544794876,16.173177600556173,6.47544875391759e-05,0.0962666198611259,0,0,0
1518,56094.100416776826,2010-12-14 04:11:24,930.4666718908206,2,6,0.550297200679779,3.877500534057617,4.62428403433772,4.476049592348348,18.567415047351904,16.173177600556173,0.0001295089750783,0.0962666198611259,0,0,0
1519,56124.115470934674,2010-12-14 04:11:54,960.4817260536796,2,6,0.550297200679779,3.880414485931397,4.628871445656394,4.476049592348348,18.58520950100505,16.173177600556173,6.47544875391759e-05,0.0962666198611259,0,0,0
1520,56154.13070916057,2010-12-14 04:12:24,990.4969642595228,2,6,0.5501165986061096,3.8834903240203857,4.633458824253243,4.476049592348348,18.60301770560698,16.173177600556173,9.713172767078504e-05,0.0962666198611259,0,0,0
1521,56184.14571706832,2010-12-14 04:12:54,1020.5119722725398,2,6,0.550297200679779,3.886404275894165,4.638046229539333,4.476049592348348,18.620839206524792,16.173177600556173,0.0001295089750783,0.0962666198611259,0,0,0
1522,56214.16063546333,2010-12-14 04:13:24,1050.5268906525082,2,6,0.550297200679779,3.888994455337525,4.64263356125778,4.476049592348348,18.638672914474604,16.173177600556173,6.47544875391759e-05,0.0962666198611259,0,0,0
1523,56244.17568113005,2010-12-14 04:13:54,1080.5419362490509,2,6,0.5501165986061096,3.891422748565674,4.647220904981056,4.476049592348348,18.65651852400033,16.173177600556173,6.47544875391759e-05,0.0962666198611259,0,0,0
1524,56274.190722471,2010-12-14 04:14:24,1110.5569775849904,2,6,0.5501165986061096,3.893689155578613,4.6518082155158,4.476049592348348,18.67437519627273,16.173177600556173,3.237724376958795e-05,0.0962666198611259,0,0,0
1525,56304.20578775654,2010-12-14 04:14:54,1140.5720429256648,2,6,0.5501165986061096,3.895793676376343,4.656395591144117,4.476049592348348,18.692242439240463,16.173177600556173,3.237724376958795e-05,0.0962666198611259,0,0,0
1526,56334.22095445946,2010-12-14 04:15:24,1170.5872096285757,2,6,0.5501165986061096,3.898060083389282,4.660982926294921,4.476049592348348,18.710119476715416,16.173177600556173,3.237724376958795e-05,0.0962666198611259,0,0,0
1527,56364.23609122787,2010-12-14 04:15:54,1200.6023464070204,2,6,0.5504778623580933,3.900164604187012,4.665570308626048,4.476049592348348,18.72800628371713,16.173177600556173,6.47544875391759e-05,0.0962666198611259,0,0,0
1528,56394.25096987396,2010-12-14 04:16:24,1230.6172249929632,2,6,0.5501165986061096,3.901945352554321,4.670157608387976,4.476049592348348,18.745901899436955,16.173177600556173,6.47544875391759e-05,0.0962666198611259,0,0,0
1529,56424.26604183611,2010-12-14 04:16:54,1260.6322969551152,2,6,0.5501165986061096,3.904049873352051,4.674744932336852,4.476049592348348,18.76380643418311,16.173177600556173,6.47544875391759e-05,0.0962666198611259,0,0,0
1530,56454.2810801345,2010-12-14 04:17:24,1290.6473352484838,2,6,0.550297200679779,3.90583062171936,4.679332313082989,4.476049592348348,18.781719742043645,16.173177600556173,9.713172767078504e-05,0.0962666198611259,0,0,0
1531,56484.296129786126,2010-12-14 04:17:54,1320.662384905129,2,6,0.5501165986061096,3.90761137008667,4.683919686431975,4.476049592348348,18.799641325743952,16.173177600556173,3.237724376958795e-05,0.0962666198611259,0,0,0
1532,56514.31119435489,2010-12-14 04:18:24,1350.677449453833,2,6,0.5501165986061096,3.9092302322387695,4.688507035544985,4.476049592348348,18.81757091427597,16.173177600556173,3.237724376958795e-05,0.0962666198611259,0,0,0
1533,56544.32630377524,2010-12-14 04:18:54,1380.6925589794605,2,6,0.5501165986061096,3.911010980606079,4.693094385520454,4.476049592348348,18.835508506599652,16.173177600556173,0.0,0.0962666198611259,0,0,0
1534,56574.3413175476,2010-12-14 04:19:24,1410.7075726665971,2,6,0.5501165986061096,3.9127917289733887,4.697681701932442,4.476049592348348,18.85345383750917,16.173177600556173,3.237724376958795e-05,0.0962666198611259,0,0,0
1535,56604.3563413098,2010-12-14 04:19:54,1440.7225963987307,2,6,0.5501165986061096,3.914248466491699,4.70226904772762,4.476049592348348,18.87140699748927,16.173177600556173,0.0,0.0962666198611259,0,0,0
1536,56634.37139393384,2010-12-14 04:20:24,1470.737649047823,2,6,0.5501165986061096,3.916029214859009,4.706856451565783,4.476049592348348,18.889368024786087,16.173177600556173,3.237724376958795e-05,0.0962666198611259,0,0,0
1537,56664.38658821538,2010-12-14 04:20:54,1500.7528433143243,2,6,0.550297200679779,3.917971849441528,4.711443772704208,4.476049592348348,18.907336421079208,16.173177600556173,9.713172767078504e-05,0.0962666198611259,0,0,0
1538,56694.4015218082,2010-12-14 04:21:24,1530.7677769071497,2,6,0.550297200679779,3.919590711593628,4.716031075467047,4.476049592348348,18.92531237926842,16.173177600556173,6.47544875391759e-05,0.0962666198611259,0,0,0
1539,56724.416557871016,2010-12-14 04:21:54,1560.7828129850052,2,6,0.5504778623580933,3.921209573745728,4.720618421767436,4.476049592348348,18.943296123025576,16.173177600556173,6.47544875391759e-05,0.0962666198611259,0,0,0
1540,56754.43161804383,2010-12-14 04:22:24,1590.797873162832,2,6,0.5501165986061096,3.922990322113037,4.72520571321337,4.476049592348348,18.961287265040184,16.173177600556173,9.713172767078504e-05,0.0962666198611259,0,0,0
1541,56784.44669690315,2010-12-14 04:22:54,1620.812952022147,2,6,0.5501165986061096,3.924447298049927,4.729793080799263,4.476049592348348,18.979286320940385,16.173177600556173,6.47544875391759e-05,0.0962666198611259,0,0,0
1542,56814.461735111305,2010-12-14 04:23:24,1650.827990230304,2,6,0.5504778623580933,3.9260661602020255,4.734380478284044,4.476049592348348,18.997293095711512,16.173177600556173,6.47544875391759e-05,0.0962666198611259,0,0,0
1543,56844.4767746628,2010-12-14 04:23:54,1680.8430297818034,2,6,0.5501165986061096,3.927685022354126,4.738967870551567,4.476049592348348,19.015307358744952,16.173177600556173,3.237724376958795e-05,0.0962666198611259,0,0,0
1544,56874.49182393349,2010-12-14 04:24:24,1710.8580790524884,2,6,0.550297200679779,3.9296276569366455,4.743555206363304,4.476049592348348,19.03332900559625,16.173177600556173,0.0001295089750783,0.0962666198611259,0,0,0
1545,56904.507032310095,2010-12-14 04:24:54,1740.8732874090524,2,6,0.5501165986061096,3.931084632873535,4.748142508911901,4.476049592348348,19.051358149656288,16.173177600556173,6.47544875391759e-05,0.0962666198611259,0,0,0
1546,56934.5220698516,2010-12-14 04:25:24,1770.8883249655871,2,6,0.5501165986061096,3.9327034950256343,4.752729867368438,4.476049592348348,19.069395114581788,16.173177600556173,3.237724376958795e-05,0.0962666198611259,0,0,0
1547,56964.53700940927,2010-12-14 04:25:54,1800.9032645282684,2,6,0.550297200679779,3.9343223571777344,4.757317180575276,4.476049592348348,19.08743961094492,16.173177600556173,3.237724376958795e-05,0.0962666198611259,0,0,0
1548,56994.5520622739,2010-12-14 04:26:24,1830.9183173878844,2,6,0.550297200679779,3.936103105545044,4.761904533393017,4.476049592348348,19.10549195387371,16.173177600556173,6.47544875391759e-05,0.0962666198611259,0,0,0
1549,57024.56711418615,2010-12-14 04:26:54,1860.9333692800933,2,6,0.550297200679779,3.937721967697144,4.766491852429331,4.476049592348348,19.12355168535113,16.173177600556173,6.47544875391759e-05,0.0962666198611259,0,0,0
1550,57054.582443303225,2010-12-14 04:27:24,1890.9486984924024,2,6,0.5501165986061096,3.939502716064453,4.771079210706545,4.476049592348348,19.14161934418657,16.173177600556173,6.47544875391759e-05,0.0962666198611259,0,0,0
1551,57084.597204196296,2010-12-14 04:27:54,1920.9634593102835,2,6,0.5501165986061096,3.9411215782165527,4.775666445981358,4.476049592348348,19.15969423466528,16.173177600556173,3.237724376958795e-05,0.0962666198611259,0,0,0
1552,57114.612249462014,2010-12-14 04:28:24,1950.9785045810152,2,6,0.5501165986061096,3.942740440368652,4.780253782062768,4.476049592348348,19.177777158349983,16.173177600556173,6.47544875391759e-05,0.0962666198611259,0,0,0
1553,57144.62745044021,2010-12-14 04:28:54,1980.9937055391688,2,6,0.5501165986061096,3.944197416305542,4.784841120328492,4.476049592348348,19.195867853156585,16.173177600556173,0.0,0.0962666198611259,0,0,0
1554,57174.64236496559,2010-12-14 04:29:24,2011.0086200695573,2,6,0.550297200679779,3.9461400508880615,4.789428389096036,4.476049592348348,19.213966061655704,16.173177600556173,3.237724376958795e-05,0.0962666198611259,0,0,0
1555,57204.65743763952,2010-12-14 04:29:54,2041.023692753506,2,6,0.550297200679779,3.947920799255371,4.794015738794589,4.476049592348348,19.232072245336628,16.173177600556173,6.47544875391759e-05,0.0962666198611259,0,0,0
1556,57234.67247458954,2010-12-14 04:30:24,2071.0387297035318,2,6,0.5501165986061096,3.9493777751922607,4.798603103110644,4.476049592348348,19.25018624196628,16.173177600556173,0.0,0.0962666198611259,0,0,0
1557,57264.68754748903,2010-12-14 04:30:54,2101.0538026030163,2,6,0.550297200679779,3.95132040977478,4.803190421203054,4.476049592348348,19.26830785153807,16.173177600556173,6.47544875391759e-05,0.0962666198611259,0,0,0
1558,57294.70258304057,2010-12-14 04:31:24,2131.068838129499,2,6,0.5501165986061096,3.95293927192688,4.807777833852144,4.476049592348348,19.286437644468684,16.173177600556173,3.237724376958795e-05,0.0962666198611259,0,0,0
1559,57324.71776057543,2010-12-14 04:31:54,2161.0840156794025,2,6,0.5501165986061096,3.9547200202941895,4.812365189434678,4.476049592348348,19.304575004500727,16.173177600556173,6.47544875391759e-05,0.0962666198611259,0,0,0
1560,57354.73273991209,2010-12-14 04:32:24,2191.0989950110466,2,6,0.550297200679779,3.956338882446289,4.816952533903371,4.476049592348348,19.32272022805289,16.173177600556173,6.47544875391759e-05,0.0962666198611259,0,0,0
1561,57384.74776469184,2010-12-14 04:32:54,2221.114019790787,2,6,0.550297200679779,3.958119630813599,4.82153993993535,4.476049592348348,19.34087350551403,16.173177600556173,9.713172767078504e-05,0.0962666198611259,0,0,0
1562,57414.76282592229,2010-12-14 04:33:24,2251.129081036271,2,6,0.5504778623580933,3.959738492965698,4.826127243951583,4.476049592348348,19.359034318347764,16.173177600556173,6.47544875391759e-05,0.0962666198611259,0,0,0
1563,57444.77785483731,2010-12-14 04:33:54,2281.1441099513017,2,6,0.5501165986061096,3.961519241333008,4.830714540372756,4.476049592348348,19.37720307906608,16.173177600556173,6.47544875391759e-05,0.0962666198611259,0,0,0
1564,57474.7931178549,2010-12-14 04:34:24,2311.159373044075,2,6,0.550297200679779,3.963299989700317,4.835301951202189,4.476049592348348,19.39538028629765,16.173177600556173,3.237724376958795e-05,0.0962666198611259,0,0,0
1565,57504.80799898718,2010-12-14 04:34:54,2341.174254171341,2,6,0.550297200679779,3.965080738067627,4.839889213528544,4.476049592348348,19.413564941376443,16.173177600556173,6.47544875391759e-05,0.0962666198611259,0,0,0
1566,57534.82299468956,2010-12-14 04:35:24,2371.1892497985373,2,6,0.550297200679779,3.966699600219727,4.844476559371321,4.476049592348348,19.43175802160772,16.173177600556173,0.0,0.0962666198611259,0,0,0
1567,57564.83816556285,2010-12-14 04:35:54,2401.2044206768383,2,6,0.5501165986061096,3.968642234802246,4.849063633001441,4.476049592348348,19.44995797814781,16.173177600556173,6.47544875391759e-05,0.0962666198611259,0,0,0
1568,57594.85309580735,2010-12-14 04:36:24,2431.219350926344,2,6,0.5499359965324402,3.9702610969543457,4.853650190734634,4.476049592348348,19.468163977541124,16.173177600556173,3.237724376958795e-05,0.0962666198611259,0,0,0
1569,57624.8682536081,2010-12-14 04:36:54,2461.234508767201,2,6,0.550297200679779,3.9720418453216553,4.858236778052126,4.476049592348348,19.48637833062817,16.173177600556173,0.0,0.0962666198611259,0,0,0
1570,57654.88333692851,2010-12-14 04:37:24,2491.249592042506,2,6,0.550297200679779,3.9741463661193848,4.862823360455904,4.476049592348348,19.50460092033773,16.173177600556173,0.0001295089750783,0.0962666198611259,0,0,0
1571,57684.89827207019,2010-12-14 04:37:54,2521.264527184185,2,6,0.5501165986061096,3.975765228271485,4.867410322682817,4.476049592348348,19.522833523915672,16.173177600556173,3.237724376958795e-05,0.0962666198611259,0,0,0
1572,57714.91337064858,2010-12-14 04:38:24,2551.2796258327453,2,6,0.550297200679779,3.977707862854004,4.871997745684681,4.476049592348348,19.5410764835232,16.173177600556173,9.713172767078504e-05,0.0962666198611259,0,0,0
1573,57744.928521391776,2010-12-14 04:38:54,2581.2947765057665,2,6,0.550297200679779,3.979650497436523,4.876585160196449,4.476049592348348,19.559327504159544,16.173177600556173,6.47544875391759e-05,0.0962666198611259,0,0,0
1574,57774.94343256882,2010-12-14 04:39:24,2611.309687682811,2,6,0.5501165986061096,3.981431245803833,4.881172478733534,4.476049592348348,19.577587187990247,16.173177600556173,6.47544875391759e-05,0.0962666198611259,0,0,0
1575,57804.95849558872,2010-12-14 04:39:54,2641.324750687673,2,6,0.550297200679779,3.983373880386353,4.885759760361938,4.476049592348348,19.59585533047475,16.173177600556173,3.237724376958795e-05,0.0962666198611259,0,0,0
1576,57834.97355427784,2010-12-14 04:40:24,2671.3398093968453,2,6,0.5501165986061096,3.985154628753662,4.890347022175482,4.476049592348348,19.61413214037547,16.173177600556173,3.237724376958795e-05,0.0962666198611259,0,0,0
1577,57864.98873178263,2010-12-14 04:40:55,2701.3549868815862,2,6,0.550297200679779,3.987259149551392,4.894934278034612,4.476049592348348,19.63241779616913,16.173177600556173,6.47544875391759e-05,0.0962666198611259,0,0,0
1578,57895.00379496794,2010-12-14 04:41:25,2731.370050172159,2,6,0.5501165986061096,3.989201784133911,4.899521572460252,4.476049592348348,19.650712472154584,16.173177600556173,6.47544875391759e-05,0.0962666198611259,0,0,0
1579,57925.01870997453,2010-12-14 04:41:55,2761.3849650885086,2,6,0.5504778623580933,3.9913063049316406,4.904108814873247,4.476049592348348,19.66901596424102,16.173177600556173,9.713172767078504e-05,0.0962666198611259,0,0,0
1580,57955.03376869371,2010-12-14 04:42:25,2791.400023782644,2,6,0.550297200679779,3.99308705329895,4.908696073388789,4.476049592348348,19.68732866590199,16.173177600556173,3.237724376958795e-05,0.0962666198611259,0,0,0
1581,57985.04882128767,2010-12-14 04:42:55,2821.4150764016613,2,6,0.5501165986061096,3.99502944946289,4.913283335833685,4.476049592348348,19.70565056671909,16.173177600556173,3.237724376958795e-05,0.0962666198611259,0,0,0
1582,58015.06384910998,2010-12-14 04:43:25,2851.4301042189604,2,6,0.550297200679779,3.99713397026062,4.917870575067684,4.476049592348348,19.723981757700525,16.173177600556173,3.237724376958795e-05,0.0962666198611259,0,0,0
1583,58045.07908077454,2010-12-14 04:43:55,2881.445335883526,2,6,0.5504778623580933,3.99940037727356,4.922457891131164,4.476049592348348,19.74232263392731,16.173177600556173,9.713172767078504e-05,0.0962666198611259,0,0,0
1584,58075.094000282326,2010-12-14 04:44:25,2911.4602554614758,2,6,0.5501165986061096,4.001181125640869,4.927045111639583,4.476049592348348,19.760672670708946,16.173177600556173,0.0,0.0962666198611259,0,0,0
1585,58105.109146183466,2010-12-14 04:44:55,2941.4754012974595,2,6,0.5499359965324402,4.003285884857178,4.931632399355485,4.476049592348348,19.779032683998366,16.173177600556173,0.0,0.0962666198611259,0,0,0
1586,58135.12407860839,2010-12-14 04:45:25,2971.490333722378,2,6,0.5501165986061096,4.005552291870117,4.936219649683336,4.476049592348348,19.79740221761645,16.173177600556173,6.47544875391759e-05,0.0962666198611259,0,0,0
1587,58165.13912602947,2010-12-14 04:45:55,3001.505381148473,2,6,0.5501165986061096,4.007818698883057,4.940806902816775,4.476049592348348,19.81578165966776,16.173177600556173,9.71794142969884e-05,0.0962666198611259,0,0,0
1588,58195.15415539563,2010-12-14 04:46:25,3031.520410509614,2,6,0.5501165986061096,4.009922981262207,4.94539422168056,4.476049592348348,19.834171323453493,16.173177600556173,6.47544875391759e-05,0.0962666198611259,0,0,0
1589,58225.16922296685,2010-12-14 04:46:55,3061.53547808084,2,6,0.550297200679779,4.0121893882751465,4.949981504210064,4.476049592348348,19.852570912864927,16.173177600556173,9.70840483205393e-05,0.0962666198611259,0,0,0
1590,58255.18440907805,2010-12-14 04:47:25,3091.550664192047,2,6,0.5501165986061096,4.014294147491455,4.95456882718039,4.476049592348348,19.87098092195926,16.173177600556173,6.47544875391759e-05,0.0962666198611259,0,0,0
1591,58285.19945147664,2010-12-14 04:47:55,3121.565706575594,2,6,0.5501165986061096,4.0163984298706055,4.959156178227899,4.476049592348348,19.88940136963694,16.173177600556173,3.23295607813634e-05,0.0962666198611259,0,0,0
1592,58315.214373570845,2010-12-14 04:48:25,3151.5806286798306,2,6,0.5501165986061096,4.018826961517334,4.963743525587401,4.476049592348348,19.907832333801142,16.173177600556173,3.24249267578125e-05,0.0962666198611259,0,0,0
1593,58345.22947016931,2010-12-14 04:48:55,3181.595725283301,2,6,0.550297200679779,4.021255016326904,4.968330795676001,4.476049592348348,19.92627343693134,16.173177600556173,3.23295607813634e-05,0.0962666198611259,0,0,0
1594,58375.24448676869,2010-12-14 04:49:25,3211.6107418876973,2,6,0.5501165986061096,4.023521423339844,4.972918044050703,4.476049592348348,19.944725242921443,16.173177600556173,6.47544875391759e-05,0.0962666198611259,0,0,0
1595,58405.25966364191,2010-12-14 04:49:55,3241.625918740867,2,6,0.5501165986061096,4.025949954986572,4.977505385499706,4.476049592348348,19.96318821627561,16.173177600556173,6.47544875391759e-05,0.0962666198611259,0,0,0
1596,58435.27460743011,2010-12-14 04:50:25,3271.6408625441004,2,6,0.550297200679779,4.028378009796143,4.982092653048901,4.476049592348348,19.98166179368101,16.173177600556173,6.47544875391759e-05,0.0962666198611259,0,0,0
1597,58465.2899205624,2010-12-14 04:50:55,3301.6561757666195,2,6,0.5501165986061096,4.030806541442871,4.986680069998271,4.476049592348348,20.000146949258298,16.173177600556173,6.47544875391759e-05,0.0962666198611259,0,0,0
1598,58495.30473786586,2010-12-14 04:51:25,3331.670993055025,2,6,0.5504778623580933,4.033234596252441,4.991267236582717,4.476049592348348,20.018642206430915,16.173177600556173,9.70840483205393e-05,0.0962666198611259,0,0,0
1599,58525.319765517736,2010-12-14 04:51:55,3361.6860206166884,2,6,0.5501165986061096,4.035662651062012,4.995854477794167,4.476049592348348,20.037148994374213,16.173177600556173,6.47544875391759e-05,0.0962666198611259,0,0,0
1600,58555.33482073823,2010-12-14 04:52:25,3391.7010758522165,2,6,0.550297200679779,4.038252830505371,5.000441768341905,4.476049592348348,20.05566735404473,16.173177600556173,6.47544875391759e-05,0.0962666198611259,0,0,0
1601,58585.3500182478,2010-12-14 04:52:55,3421.716273416926,2,6,0.5501165986061096,4.0406813621521,5.005029116381496,4.476049592348348,20.074197347911525,16.173177600556173,9.71794142969884e-05,0.0962666198611259,0,0,0
1602,58615.36494376051,2010-12-14 04:53:25,3451.731198929644,2,6,0.550297200679779,4.042947769165039,5.009616374999455,4.476049592348348,20.09273849612492,16.173177600556173,3.24249267578125e-05,0.0962666198611259,0,0,0
1603,58645.379985211744,2010-12-14 04:53:55,3481.7462403106965,2,6,0.550297200679779,4.045861721038818,5.014203658354568,4.476049592348348,20.111291393231557,16.173177600556173,0.0001295089750783,0.0962666198611259,0,0,0
1604,58675.39506491315,2010-12-14 04:54:25,3511.7613200371693,2,6,0.5501165986061096,4.048289775848389,5.018790916986129,4.476049592348348,20.129855992474724,16.173177600556173,9.70840483205393e-05,0.0962666198611259,0,0,0
1605,58705.41011321643,2010-12-14 04:54:55,3541.7763683304224,2,6,0.550297200679779,4.050879955291748,5.023378213194402,4.476049592348348,20.14843262975624,16.173177600556173,6.47544875391759e-05,0.0962666198611259,0,0,0
1606,58735.42528305214,2010-12-14 04:55:25,3571.791538151092,2,6,0.550297200679779,4.0536322593688965,5.027965500116763,4.476049592348348,20.16702117076541,16.173177600556173,9.71794142969884e-05,0.0962666198611259,0,0,0
1607,58765.44020558243,2010-12-14 04:55:55,3601.8064607014376,2,6,0.5501165986061096,4.056060314178467,5.032552845971087,4.476049592348348,20.18562209977169,16.173177600556173,6.47544875391759e-05,0.0962666198611259,0,0,0
1608,58795.45525632679,2010-12-14 04:56:25,3631.8215115159646,2,6,0.5501165986061096,4.058812618255615,5.037140228486908,4.476049592348348,20.2042353873774,16.173177600556173,6.47544875391759e-05,0.0962666198611259,0,0,0
1609,58825.47031975771,2010-12-14 04:56:55,3661.836574876713,2,6,0.5501165986061096,4.061402797698975,5.041727623757483,4.476049592348348,20.22286088901524,16.173177600556173,6.47544875391759e-05,0.0962666198611259,0,0,0
1610,58855.48550523735,2010-12-14 04:57:25,3691.8517603362975,2,6,0.5501165986061096,4.064316749572754,5.046314946210681,4.476049592348348,20.241498418747383,16.173177600556173,9.71794142969884e-05,0.0962666198611259,0,0,0
1611,58885.50045517585,2010-12-14 04:57:55,3721.86671029485,2,6,0.550297200679779,4.067068576812744,5.050902220344566,4.476049592348348,20.26014834120664,16.173177600556173,9.70840483205393e-05,0.0962666198611259,0,0,0
1612,58915.51549084769,2010-12-14 04:58:25,3751.881745941632,2,6,0.5501165986061096,4.069820880889893,5.055489505209761,4.476049592348348,20.27881103431779,16.173177600556173,9.71794142969884e-05,0.0962666198611259,0,0,0
1613,58945.53054640904,2010-12-14 04:58:55,3781.896801507984,2,6,0.5501165986061096,4.072411060333252,5.060076796088771,4.476049592348348,20.297486516134988,16.173177600556173,3.24249267578125e-05,0.0962666198611259,0,0,0
1614,58975.5458117524,2010-12-14 04:59:25,3811.912066946594,2,6,0.5501165986061096,4.075325012207031,5.064664065501666,4.476049592348348,20.316174818890527,16.173177600556173,9.71794142969884e-05,0.0962666198611259,0,0,0
1615,59005.56076380116,2010-12-14 04:59:55,3841.927018970284,2,6,0.5501165986061096,4.0782389640808105,5.069251298913362,4.476049592348348,20.334876003364883,16.173177600556173,9.71794142969884e-05,0.0962666198611259,0,0,0
1616,59035.57569260206,2010-12-14 05:00:25,3871.9419477160473,2,6,0.550297200679779,4.08115291595459,5.073838606554304,4.476049592348348,20.353590672790222,16.173177600556173,6.47544875391759e-05,0.0962666198611259,0,0,0
1617,59065.59076540631,2010-12-14 05:00:55,3901.957020505258,2,6,0.550297200679779,4.084066867828369,5.078425885436795,4.476049592348348,20.372318504757715,16.173177600556173,0.0001295089750783,0.0962666198611259,0,0,0
1618,59095.6058221957,2010-12-14 05:01:25,3931.972077294653,2,6,0.550297200679779,4.086980819702148,5.083013182781539,4.476049592348348,20.391060228375625,16.173177600556173,6.47544875391759e-05,0.0962666198611259,0,0,0
1619,59125.62085762694,2010-12-14 05:01:55,3961.9871127459487,2,6,0.5501165986061096,4.090056419372559,5.087600428753358,4.476049592348348,20.409815806617075,16.173177600556173,9.70840483205393e-05,0.0962666198611259,0,0,0
1620,59155.63602849021,2010-12-14 05:02:25,3992.0022835891614,2,6,0.5499359965324402,4.093132495880127,5.092187660845776,4.476049592348348,20.4285854107284,16.173177600556173,6.47544875391759e-05,0.0962666198611259,0,0,0
1621,59185.65096858922,2010-12-14 05:02:55,4022.017223703215,2,6,0.5501165986061096,4.096370220184326,5.096774844879247,4.476049592348348,20.44736908241748,16.173177600556173,6.47544875391759e-05,0.0962666198611259,0,0,0
1622,59215.66613337737,2010-12-14 05:03:25,4052.0323884963736,2,6,0.5501165986061096,4.099445819854736,5.101362061409445,4.476049592348348,20.466167263954667,16.173177600556173,9.70840483205393e-05,0.0962666198611259,0,0,0
1623,59245.68119057277,2010-12-14 05:03:55,4082.0474456717297,2,6,0.5501165986061096,4.102683544158936,5.105949256006658,4.476049592348348,20.484979835302305,16.173177600556173,9.70840483205393e-05,0.0962666198611259,0,0,0
1624,59275.696107469055,2010-12-14 05:04:25,4112.0623625680055,2,6,0.5501165986061096,4.105921268463135,5.110536358632072,4.476049592348348,20.503806700768504,16.173177600556173,9.70840483205393e-05,0.0962666198611259,0,0,0
1625,59305.71132735431,2010-12-14 05:04:55,4142.077582538471,2,6,0.550297200679779,4.109158992767334,5.115123509498481,4.476049592348348,20.522648515722384,16.173177600556173,9.70840483205393e-05,0.0962666198611259,0,0,0
1626,59335.72622353403,2010-12-14 05:05:25,4172.09247864802,2,6,0.5499359965324402,4.112235069274902,5.119710663011097,4.476049592348348,20.54150522814464,16.173177600556173,3.24249267578125e-05,0.0962666198611259,0,0,0
1627,59365.74136967578,2010-12-14 05:05:55,4202.10762487999,2,6,0.5501165986061096,4.115796089172363,5.124297830891726,4.476049592348348,20.560377020634,16.173177600556173,9.70840483205393e-05,0.0962666198611259,0,0,0
1628,59395.75649512604,2010-12-14 05:06:25,4232.122750325233,2,6,0.550297200679779,4.1190338134765625,5.128884880320864,4.476049592348348,20.5792636158878,16.173177600556173,6.47544875391759e-05,0.0962666198611259,0,0,0
1629,59425.77069184017,2010-12-14 05:06:55,4262.136946919064,2,6,0.550297200679779,4.122433662414551,5.133455298983304,4.476049592348348,20.59809700094679,16.173177600556173,6.47544875391759e-05,0.0962666198611259,0,0,0
1630,59455.77076219639,2010-12-14 05:07:25,4292.137017300359,2,6,0.550297200679779,4.12567138671875,5.138056730617693,4.476049592348348,20.61707345555884,16.173177600556173,6.47544875391759e-05,0.0962666198611259,0,0,0
1631,59485.78577302642,2010-12-14 05:07:55,4322.152028215598,2,6,0.550297200679779,4.129232883453369,5.14264381112544,4.476049592348348,20.63600626515719,16.173177600556173,9.71794142969884e-05,0.0962666198611259,0,0,0
1632,59515.80094326313,2010-12-14 05:08:25,4352.167198362077,2,6,0.5501165986061096,4.132470607757568,5.14723100571899,4.476049592348348,20.65495507871996,16.173177600556173,9.71794142969884e-05,0.0962666198611259,0,0,0
1633,59545.81585583865,2010-12-14 05:08:55,4382.18211095264,2,6,0.5501165986061096,4.135869979858398,5.15181805902867,4.476049592348348,20.67391897014148,16.173177600556173,6.47544875391759e-05,0.0962666198611259,0,0,0
1634,59575.8309302068,2010-12-14 05:09:25,4412.197185320779,2,6,0.550297200679779,4.139431476593018,5.15640527417858,4.476049592348348,20.69289938091241,16.173177600556173,6.47544875391759e-05,0.0962666198611259,0,0,0
1635,59605.84593477123,2010-12-14 05:09:55,4442.212189870177,2,6,0.5501165986061096,4.142831325531006,5.160992471280208,4.476049592348348,20.711895585754167,16.173177600556173,9.71794142969884e-05,0.0962666198611259,0,0,0
1636,59635.86097145559,2010-12-14 05:10:25,4472.227226574591,2,6,0.550297200679779,4.146554470062256,5.165579588611472,4.476049592348348,20.7309075629132,16.173177600556173,9.70840483205393e-05,0.0962666198611259,0,0,0
1637,59665.876028686085,2010-12-14 05:10:55,4502.24228379506,2,6,0.5501165986061096,4.149954319000244,5.170166701458596,4.476049592348348,20.7499358428458,16.173177600556173,9.71794142969884e-05,0.0962666198611259,0,0,0
1638,59695.89106950072,2010-12-14 05:11:25,4532.257324669852,2,6,0.5501165986061096,4.153515815734863,5.174753848557834,4.476049592348348,20.768980574501228,16.173177600556173,6.47544875391759e-05,0.0962666198611259,0,0,0
1639,59725.90606968426,2010-12-14 05:11:55,4562.272324778199,2,6,0.5501165986061096,4.157077312469482,5.179340942737724,4.476049592348348,20.788041419539724,16.173177600556173,9.71794142969884e-05,0.0962666198611259,0,0,0
1640,59755.92110436364,2010-12-14 05:12:25,4592.287359452561,2,6,0.550297200679779,4.160800457000732,5.183928047185438,4.476049592348348,20.80711886253029,16.173177600556173,0.0001295089750783,0.0962666198611259,0,0,0
1641,59785.93613079248,2010-12-14 05:12:55,4622.302385906467,2,6,0.5501165986061096,4.164361953735352,5.188515169864842,4.476049592348348,20.826213106241745,16.173177600556173,0.0001295089750783,0.0962666198611259,0,0,0
1642,59815.951174679765,2010-12-14 05:13:26,4652.317429798769,2,6,0.550297200679779,4.16808557510376,5.193102292987859,4.476049592348348,20.84532401726705,16.173177600556173,9.71794142969884e-05,0.0962666198611259,0,0,0
1643,59845.96633010461,2010-12-14 05:13:56,4682.332585268727,2,6,0.550297200679779,4.17180871963501,5.19768943853162,4.476049592348348,20.864451855188584,16.173177600556173,0.0001295089750783,0.0962666198611259,0,0,0
1644,59875.9812425448,2010-12-14 05:14:26,4712.3474976587895,2,6,0.550297200679779,4.175370216369629,5.202276565422539,4.476049592348348,20.883596446471167,16.173177600556173,9.70840483205393e-05,0.0962666198611259,0,0,0
1645,59905.99627530941,2010-12-14 05:14:56,4742.3625304234,2,6,0.5501165986061096,4.179093837738037,5.206863749418068,4.476049592348348,20.90275822008374,16.173177600556173,9.71794142969884e-05,0.0962666198611259,0,0,0
1646,59936.011305061525,2010-12-14 05:15:26,4772.377560270751,2,6,0.550297200679779,4.182979106903076,5.211450895562588,4.476049592348348,20.92193693361108,16.173177600556173,0.0001295089750783,0.0962666198611259,0,0,0
1647,59966.0263094405,2010-12-14 05:15:56,4802.392564529426,2,6,0.550297200679779,4.186540603637695,5.216038077506614,4.476049592348348,20.941132951273865,16.173177600556173,9.71794142969884e-05,0.0962666198611259,0,0,0
1648,59996.04144136687,2010-12-14 05:16:26,4832.407696535996,2,6,0.550297200679779,4.190263748168945,5.220625207787303,4.476049592348348,20.960346060292817,16.173177600556173,9.70840483205393e-05,0.0962666198611259,0,0,0
1649,60026.056472733,2010-12-14 05:16:56,4862.422727846989,2,6,0.550297200679779,4.194149017333984,5.225212331650036,4.476049592348348,20.97957648872028,16.173177600556173,6.47544875391759e-05,0.0962666198611259,0,0,0
1650,60056.07151230956,2010-12-14 05:17:26,4892.437767408513,2,6,0.550297200679779,4.197872161865234,5.229799400408618,4.476049592348348,20.998824145710643,16.173177600556173,9.70840483205393e-05,0.0962666198611259,0,0,0
1651,60071.57107440871,2010-12-14 05:17:41,4907.937329522697,2,6,0.550297200679779,4.200138568878174,5.232168186808058,4.476049592348348,21.00877062920024,16.173177600556173,0.0001295089750783,0.0962666198611259,0,0,0
1652,60101.586356970765,2010-12-14 05:18:11,30.015022474002613,3,6,0.0,4.107378482818604,5.232168186808058,4.476049592348348,21.00877062920024,16.173177600556173,-0.0004856109735555,0.0962666198611259,0,0,0
1653,60131.60139554483,2010-12-14 05:18:41,60.03006104806962,3,6,0.0,4.096046447753906,5.232168186808058,4.476049592348348,21.00877062920024,16.173177600556173,-0.0002265930233988,0.0962666198611259,0,0,0
1654,60161.6164002396,2010-12-14 05:19:11,90.04506574784175,3,6,0.0,4.088923454284668,5.232168186808058,4.476049592348348,21.00877062920024,16.173177600556173,-0.0001618385285837,0.0962666198611259,0,0,0
1655,60191.58453868951,2010-12-14 05:19:41,120.01320419775364,3,6,0.0,4.084228515625,5.232168186808058,4.476049592348348,21.00877062920024,16.173177600556173,-0.0001295089750783,0.0962666198611259,0,0,0
1656,60191.59908975426,2010-12-14 05:19:41,0.015766940424826,4,6,1.007599949836731,4.199814796447754,5.232172599799275,4.476049592348348,21.00878916294605,16.173177600556173,0.0,0.0962666198611259,0,0,0
1657,60192.28657121544,2010-12-14 05:19:42,0.703248366512051,4,6,0.956848680973053,4.199653148651123,5.232358532189722,4.476049592348348,21.00957004283092,16.173177600556173,-3.23295607813634e-05,0.0962666198611259,0,0,0
1658,60194.19279592731,2010-12-14 05:19:44,2.609473043303914,4,6,0.9064587354660034,4.199653148651123,5.232850800954036,4.476049592348348,21.0116374777836,16.173177600556173,-3.23295607813634e-05,0.0962666198611259,0,0,0
1659,60197.14572784984,2010-12-14 05:19:47,5.562404965818788,4,6,0.856429934501648,4.199814796447754,5.233572799371712,4.476049592348348,21.014669729109382,16.173177600556173,0.0,0.0962666198611259,0,0,0
1660,60201.23960158216,2010-12-14 05:19:51,9.656278783357044,4,6,0.8060399889945984,4.199814796447754,5.234516900447702,4.476049592348348,21.01863479200949,16.173177600556173,0.0,0.0962666198611259,0,0,0
1661,60206.64551857367,2010-12-14 05:19:56,15.062195684646024,4,6,0.7560111880302429,4.199814796447754,5.235688324808185,4.476049592348348,21.023554584210725,16.173177600556173,-3.24249267578125e-05,0.0962666198611259,0,0,0
1662,60213.72352001804,2010-12-14 05:20:04,22.140197108959605,4,6,0.7056211829185486,4.199814796447754,5.237123198706989,4.476049592348348,21.029580837775963,16.173177600556173,-3.24249267578125e-05,0.0962666198611259,0,0,0
1663,60223.09846111839,2010-12-14 05:20:13,31.515138219338123,4,6,0.6555924415588379,4.199814796447754,5.238892497594068,4.476049592348348,21.037011617350966,16.173177600556173,0.0,0.0962666198611259,0,0,0
1664,60235.98868026296,2010-12-14 05:20:26,44.40535737893913,4,6,0.6055636405944824,4.199814796447754,5.24114517028121,4.476049592348348,21.046472495048693,16.173177600556173,-3.24249267578125e-05,0.0962666198611259,0,0,0
1665,60255.41016417869,2010-12-14 05:20:45,63.82684126962094,4,6,0.5553542971611023,4.199814796447754,5.244267505111488,4.476049592348348,21.059585820949383,16.173177600556173,0.0,0.0962666198611259,0,0,0
1666,60288.89386070967,2010-12-14 05:21:19,97.31053789082831,4,6,0.5051448941230774,4.199814796447754,5.249179085310222,4.476049592348348,21.08021370105027,16.173177600556173,-3.24249267578125e-05,0.0962666198611259,0,0,0
1667,60351.97076706511,2010-12-14 05:22:22,160.38744426630885,4,6,0.4551161229610443,4.199653148651123,5.257550979796159,4.476049592348348,21.11537434545215,16.173177600556173,-3.23295607813634e-05,0.0962666198611259,0,0,0
1668,60452.64055542653,2010-12-14 05:24:02,261.0572325375068,4,6,0.4050873517990112,4.199653148651123,5.269547202350632,4.476049592348348,21.165756313741365,16.173177600556173,-3.23295607813634e-05,0.0962666198611259,0,0,0
1669,60582.55978905753,2010-12-14 05:26:12,390.9764661685039,4,6,0.3550585806369781,4.199491024017334,5.283249597700134,4.476049592348348,21.223304163870143,16.173177600556173,-6.47544875391759e-05,0.0962666198611259,0,0,0
1670,60737.63481444879,2010-12-14 05:28:47,546.0514915447286,4,6,0.3050298392772674,4.199653148651123,5.297453141187702,4.476049592348348,21.28295690475348,16.173177600556173,-6.47544875391759e-05,0.0962666198611259,0,0,0
1671,60927.61537410455,2010-12-14 05:31:57,736.0320512205373,4,6,0.2550010681152344,4.199976921081543,5.312206996952369,4.476049592348348,21.344920884379427,16.173177600556173,3.24249267578125e-05,0.0962666198611259,0,0,0
1672,61160.79797450709,2010-12-14 05:35:51,969.214651618065,4,6,0.2049722820520401,4.199814796447754,5.327059269692401,4.476049592348348,21.40729821388419,16.173177600556173,0.0,0.0962666198611259,0,0,0
1673,61466.40108350486,2010-12-14 05:40:56,1274.8177606008028,4,6,0.154943510890007,4.199814796447754,5.342250741661387,4.476049592348348,21.47110012308476,16.173177600556173,-3.24249267578125e-05,0.0962666198611259,0,0,0
1674,61918.87616212011,2010-12-14 05:48:29,1727.292839236099,4,6,0.1049147471785545,4.199814796447754,5.358369686957802,4.476049592348348,21.538797322689643,16.173177600556173,-3.24249267578125e-05,0.0962666198611259,0,0,0
1675,62789.6550602065,2010-12-14 06:03:00,2598.0717373174784,4,6,0.0548859760165214,4.199653148651123,5.376931403728858,4.476049592348348,21.61675384871851,16.173177600556173,-3.23295607813634e-05,0.0962666198611259,0,0,0
1676,62949.23002240243,2010-12-14 06:05:39,2757.646699518417,4,6,0.0498289167881011,4.199814796447754,5.37927151815003,4.476049592348348,21.62658198463948,16.173177600556173,0.0,0.0962666198611259,0,0,0
1677,62979.24568592927,2010-12-14 06:06:09,30.015143299672648,5,6,0.0,4.191073417663574,5.37927151815003,4.476049592348348,21.62658198463948,16.173177600556173,-6.47544875391759e-05,0.0962666198611259,0,0,0
1678,63009.24506520579,2010-12-14 06:06:39,60.01452257116748,5,6,0.0,4.189778327941895,5.37927151815003,4.476049592348348,21.62658198463948,16.173177600556173,-3.23295607813634e-05,0.0962666198611259,0,0,0
1679,63009.43431659349,2010-12-14 06:06:40,0.187491620686863,6,6,-1.9243103452026844e-05,4.1896162033081055,5.37927151815003,4.476049593350548,21.62658198463948,16.173177604755004,0.0,0.0995923578739166,0,0,0
1680,63014.26234433984,2010-12-14 06:06:44,5.015519362027815,6,6,0.0008838032954372,4.1896162033081055,5.379272634830459,4.476049593436755,21.626586663327437,16.173177605116177,-6.47544875391759e-05,0.0995923578739166,0,0,0
1681,63044.279374818376,2010-12-14 06:07:15,30.015038784590885,7,6,-1.0993878841400146,3.99373459815979,5.379272634830459,4.485216697937861,21.626586663327437,16.21001242765861,-0.0010360240703448,0.0995923578739166,0,0,0
1682,63074.29444624921,2010-12-14 06:07:45,60.030110225445625,7,6,-1.099568486213684,3.962166786193848,5.379272634830459,4.494383756232269,21.626586663327437,16.246467930663215,-0.0006799221155233,0.0995923578739166,0,0,0
1683,63104.30932506071,2010-12-14 06:08:15,90.04498895675006,7,6,-1.0997490882873535,3.939826488494873,5.379272634830459,4.50355069216906,21.626586663327437,16.282681560241944,-0.0005504131549969,0.0995923578739166,0,0,0
1684,63134.32430132473,2010-12-14 06:08:45,120.05996525083576,7,6,-1.099568486213684,3.922828435897827,5.379272634830459,4.512717785044387,21.626586663327437,16.318718564155645,-0.0004209041653666,0.0995923578739166,0,0,0
1685,63164.33932558317,2010-12-14 06:09:15,150.0749895042664,7,6,-1.099568486213684,3.90874457359314,5.379272634830459,4.52188485465827,21.626586663327437,16.35461401301273,-0.0003561496851034,0.0995923578739166,0,0,0
1686,63194.35436620232,2010-12-14 06:09:45,180.0900301234225,7,6,-1.099568486213684,3.8962793350219727,5.379272634830459,4.531052014902565,21.626586663327437,16.390388321407983,-0.0003237724304199,0.0995923578739166,0,0,0
1687,63224.36939471636,2010-12-14 06:10:15,210.1050586374555,7,6,-1.099568486213684,3.8847854137420654,5.379272634830459,4.540219139849765,21.626586663327437,16.42605347858275,-0.0003237724304199,0.0995923578739166,0,0,0
1688,63254.38436023362,2010-12-14 06:10:45,240.12002415472347,7,6,-1.099568486213684,3.873939037322998,5.379272634830459,4.549386273267384,21.626586663327437,16.461616357937196,-0.0002913951757363,0.0995923578739166,0,0,0
1689,63284.39937986555,2010-12-14 06:11:15,270.1350437716163,7,6,-1.099568486213684,3.8637402057647705,5.379272634830459,4.558553365704332,21.626586663327437,16.497082413030366,-0.0002590179501567,0.0995923578739166,0,0,0
1690,63314.414500483785,2010-12-14 06:11:45,300.15016440488444,7,6,-1.0993878841400146,3.853541374206543,5.379272634830459,4.567720467351524,21.626586663327437,16.532456027739087,-0.0003237724304199,0.0995923578739166,0,0,0
1691,63344.42937579157,2010-12-14 06:12:15,330.1650397126696,7,6,-1.099568486213684,3.844151973724365,5.379272634830459,4.576887557853882,21.626586663327437,16.567740126100134,-0.0002590179501567,0.0995923578739166,0,0,0
1692,63374.44453926143,2010-12-14 06:12:45,360.1802031875475,7,6,-1.099568486213684,3.8349244594573975,5.379272634830459,4.586054730234801,21.626586663327437,16.602937865306174,-0.0002590179501567,0.0995923578739166,0,0,0
1693,63404.45940677983,2010-12-14 06:13:15,390.1950707560737,7,6,-1.099568486213684,3.8258590698242183,5.379272634830459,4.59522180724221,21.626586663327437,16.63805076409864,-0.0002590179501567,0.0995923578739166,0,0,0
1694,63434.47443143928,2010-12-14 06:13:45,420.2100954556146,7,6,-1.0993878841400146,3.816955327987671,5.379272634830459,4.604388923517957,21.626586663327437,16.673081240475728,-0.0002266406954731,0.0995923578739166,0,0,0
1695,63464.48952331097,2010-12-14 06:14:15,450.22518723708606,7,6,-1.0993878841400146,3.808213472366333,5.379272634830459,4.613556059494711,21.626586663327437,16.708031116448698,-0.0002266406954731,0.0995923578739166,0,0,0
1696,63494.50440184679,2010-12-14 06:14:45,480.2400658380663,7,6,-1.099568486213684,3.799795389175415,5.379272634830459,4.622723124692122,21.626586663327437,16.742901547983134,-0.0001942634553415,0.0995923578739166,0,0,0
1697,63524.51941964415,2010-12-14 06:15:15,510.2550835652566,7,6,-1.099568486213684,3.791377305984497,5.379272634830459,4.631890213403982,21.626586663327437,16.777695447628826,-0.0002266406954731,0.0995923578739166,0,0,0
1698,63554.53441892043,2010-12-14 06:15:45,540.2700828164702,7,6,-1.099568486213684,3.783444881439209,5.379272634830459,4.64105739509171,21.626586663327437,16.81241506262098,-0.0001942634553415,0.0995923578739166,0,0,0
1699,63584.549417194205,2010-12-14 06:16:15,570.2850811203263,7,6,-1.099568486213684,3.775512456893921,5.379272634830459,4.650224511529625,21.626586663327437,16.847061628317217,-0.0002266406954731,0.0995923578739166,0,0,0
1700,63614.56464288892,2010-12-14 06:16:45,600.3003069052604,7,6,-1.0997490882873535,3.7677419185638423,5.379272634830459,4.659391733966988,21.626586663327437,16.881637237507245,-0.0001942634553415,0.0995923578739166,0,0,0
1701,63644.57951253261,2010-12-14 06:17:15,630.3151765439383,7,6,-1.099568486213684,3.7604570388793945,5.379272634830459,4.668558857624425,21.626586663327437,16.916143041120556,-0.0001942634553415,0.0995923578739166,0,0,0
1702,63674.594441789646,2010-12-14 06:17:45,660.3301057007245,7,6,-1.0993878841400146,3.753010272979736,5.379272634830459,4.677726027157912,21.626586663327437,16.950581102362392,-0.0001942634553415,0.0995923578739166,0,0,0
1703,63704.60943737173,2010-12-14 06:18:15,690.345101297845,7,6,-1.099568486213684,3.745725631713867,5.379272634830459,4.686893204362743,21.626586663327437,16.98495276313463,-0.0001942634553415,0.0995923578739166,0,0,0
1704,63734.62444174068,2010-12-14 06:18:45,720.3601056517565,7,6,-1.0997490882873535,3.738764524459839,5.379272634830459,4.696060355105207,21.626586663327437,17.019259552587688,-0.0001942634553415,0.0995923578739166,0,0,0
1705,63764.6397169436,2010-12-14 06:19:15,750.3753808396278,7,6,-1.099568486213684,3.731965303421021,5.379272634830459,4.705227557925292,21.626586663327437,17.053502647351255,-0.0001942634553415,0.0995923578739166,0,0,0
1706,63794.65445819779,2010-12-14 06:19:45,780.3901221188881,7,6,-1.0993878841400146,3.725327968597412,5.379272634830459,4.714394591233022,21.626586663327437,17.087682725075155,-0.0001618862152099,0.0995923578739166,0,0,0
1707,63824.66960065536,2010-12-14 06:20:15,810.4052645814777,7,6,-1.0993878841400146,3.718690633773804,5.379272634830459,4.723561797253327,21.626586663327437,17.12180231781413,-0.0001618862152099,0.0995923578739166,0,0,0
1708,63854.68448173752,2010-12-14 06:20:45,840.4201456636322,7,6,-1.0993878841400146,3.712215185165405,5.379272634830459,4.732728924222672,21.626586663327437,17.155861888892677,-0.0001942634553415,0.0995923578739166,0,0,0
1709,63884.69950025667,2010-12-14 06:21:15,870.435164157731,7,6,-1.099568486213684,3.705739736557007,5.379272634830459,4.74189611040793,21.626586663327437,17.189862171597184,-0.0001295089750783,0.0995923578739166,0,0,0
1710,63914.71448858571,2010-12-14 06:21:45,900.4501524817526,7,6,-1.0993878841400146,3.6994261741638175,5.379272634830459,4.75106336333246,21.626586663327437,17.223804754899408,-0.0001942634553415,0.0995923578739166,0,0,0
1711,63944.72990251384,2010-12-14 06:22:15,930.4655665251609,7,6,-1.099568486213684,3.69311261177063,5.379272634830459,4.760230686483719,21.626586663327437,17.257690437777157,-0.0001942634553415,0.0995923578739166,0,0,0
1712,63974.74449853162,2010-12-14 06:22:45,960.4801624928184,7,6,-1.0993878841400146,3.687122821807861,5.379272634830459,4.769397784635869,21.626586663327437,17.291518966227095,-0.0001295089750783,0.0995923578739166,0,0,0
1713,64004.75949551218,2010-12-14 06:23:15,990.495159433282,7,6,-1.099568486213684,3.6811330318450928,5.379272634830459,4.778564974043176,21.626586663327437,17.32529269890181,-0.0002266406954731,0.0995923578739166,0,0,0
1714,64034.774647112514,2010-12-14 06:23:45,1020.5103111138102,7,6,-1.0997490882873535,3.675305128097534,5.379272634830459,4.787732232884244,21.626586663327437,17.359012675441925,-0.0001942634553415,0.0995923578739166,0,0,0
1715,64064.78956263537,2010-12-14 06:24:15,1050.5252265564695,7,6,-1.099568486213684,3.6696393489837646,5.379272634830459,4.796899413308083,21.626586663327437,17.392678727859995,-0.0001618862152099,0.0995923578739166,0,0,0
1716,64094.80450149129,2010-12-14 06:24:45,1080.540165417404,7,6,-1.099568486213684,3.663811445236206,5.379272634830459,4.806066605789954,21.626586663327437,17.426292387996842,-0.0001618862152099,0.0995923578739166,0,0,0
1717,64124.81951707816,2010-12-14 06:25:15,1110.5551809992558,7,6,-1.099568486213684,3.6583073139190674,5.379272634830459,4.815233902064432,21.626586663327437,17.45985480072949,-0.0001618862152099,0.0995923578739166,0,0,0
1718,64154.83474062252,2010-12-14 06:25:45,1140.5704046388512,7,6,-1.0993878841400146,3.6528031826019287,5.379272634830459,4.824401200149879,21.626586663327437,17.493366048758073,-0.0001618862152099,0.0995923578739166,0,0,0
1719,64184.849522557946,2010-12-14 06:26:15,1170.5851865492205,7,6,-1.0997490882873535,3.64729905128479,5.379272634830459,4.833568346070824,21.626586663327437,17.526826559730655,-0.0001295089750783,0.0995923578739166,0,0,0
1720,64214.86451797963,2010-12-14 06:26:45,1200.60018190073,7,6,-1.0993878841400146,3.6421186923980713,5.379272634830459,4.842735463260399,21.626586663327437,17.56023733521224,-9.713172767078504e-05,0.0995923578739166,0,0,0
1721,64244.87953564667,2010-12-14 06:27:15,1230.6151995677706,7,6,-1.099568486213684,3.636776447296143,5.379272634830459,4.851902634981347,21.626586663327437,17.593600038465485,-0.0001618862152099,0.0995923578739166,0,0,0
1722,64274.89455388513,2010-12-14 06:27:45,1260.6302178112458,7,6,-1.099568486213684,3.631434202194214,5.379272634830459,4.861069802361961,21.626586663327437,17.626915120218218,-0.0001618862152099,0.0995923578739166,0,0,0
1723,64304.90953790845,2010-12-14 06:28:15,1290.6452018044904,7,6,-1.0997490882873535,3.626577615737915,5.379272634830459,4.870236983028897,21.626586663327437,17.660183613152068,-0.0001618862152099,0.0995923578739166,0,0,0
1724,64334.9245378163,2010-12-14 06:28:45,1320.6602017374005,7,6,-1.0997490882873535,3.621397256851196,5.379272634830459,4.879404140853224,21.626586663327437,17.693406544648237,-0.0001942634553415,0.0995923578739166,0,0,0
1725,64364.93958244543,2010-12-14 06:29:15,1350.675246366535,7,6,-1.099568486213684,3.6165406703948975,5.379272634830459,4.888571373714915,21.626586663327437,17.726584427165335,-0.0001618862152099,0.0995923578739166,0,0,0
1726,64394.95455583228,2010-12-14 06:29:45,1380.690219753386,7,6,-1.0993878841400146,3.6118459701538086,5.379272634830459,4.897738519370264,21.626586663327437,17.759717325572936,-0.0001295089750783,0.0995923578739166,0,0,0
1727,64424.969552817856,2010-12-14 06:30:15,1410.7052167389618,7,6,-1.099568486213684,3.60715126991272,5.379272634830459,4.906905674129213,21.626586663327437,17.792806673484115,-0.0001295089750783,0.0995923578739166,0,0,0
1728,64454.98455831963,2010-12-14 06:30:45,1440.7202222457424,7,6,-1.0997490882873535,3.602456569671631,5.379272634830459,4.916072882735969,21.626586663327437,17.82585343953433,-0.0001618862152099,0.0995923578739166,0,0,0
1729,64484.99958398658,2010-12-14 06:31:15,1470.7352479026656,7,6,-1.0993878841400146,3.598085641860962,5.379272634830459,4.925240056901307,21.626586663327437,17.858858297409892,-0.0001295089750783,0.0995923578739166,0,0,0
1730,64515.01457192965,2010-12-14 06:31:45,1500.7502358557642,7,6,-1.0993878841400146,3.593714714050293,5.379272634830459,4.934407223351132,21.626586663327437,17.891822687981787,-0.0001295089750783,0.0995923578739166,0,0,0
1731,64545.02957695022,2010-12-14 06:32:15,1530.765240871322,7,6,-1.0993878841400146,3.589505910873413,5.379272634830459,4.943574421098559,21.626586663327437,17.924747693745694,-9.713172767078504e-05,0.0995923578739166,0,0,0
1732,64575.04495809174,2010-12-14 06:32:45,1560.7806220830298,7,6,-1.099568486213684,3.585296869277954,5.379272634830459,4.952741743064374,21.626586663327437,17.95763447077504,-9.713172767078504e-05,0.0995923578739166,0,0,0
1733,64605.05958692619,2010-12-14 06:33:15,1590.7952508473008,7,6,-1.099568486213684,3.581411600112915,5.379272634830459,4.961908767075475,21.626586663327437,17.990483018890227,-9.713172767078504e-05,0.0995923578739166,0,0,0
1734,64635.0745864932,2010-12-14 06:33:45,1620.8102504143003,7,6,-1.099929690361023,3.577364444732666,5.379272634830459,4.971075956294049,21.626586663327437,18.02329564699336,-0.0001295089750783,0.0995923578739166,0,0,0
1735,64665.08958996992,2010-12-14 06:34:15,1650.8252538860163,7,6,-1.099568486213684,3.573641061782837,5.379272634830459,4.980243193617278,21.626586663327437,18.05607261846841,-6.47544875391759e-05,0.0995923578739166,0,0,0
1736,64695.10461161687,2010-12-14 06:34:45,1680.840275532961,7,6,-1.099568486213684,3.569755792617798,5.379272634830459,4.989410387673594,21.626586663327437,18.088814691751043,-0.0001295089750783,0.0995923578739166,0,0,0
1737,64725.11961468758,2010-12-14 06:35:15,1710.8552785836291,7,6,-1.099568486213684,3.565870523452759,5.379272634830459,4.998577571424986,21.626586663327437,18.12152261923065,-0.0001618862152099,0.0995923578739166,0,0,0
1738,64755.13461139247,2010-12-14 06:35:45,1740.8702752935187,7,6,-1.0993878841400146,3.562794685363769,5.379272634830459,5.007744702500101,21.626586663327437,18.154196857422537,-6.47544875391759e-05,0.0995923578739166,0,0,0
1739,64785.14960511492,2010-12-14 06:36:15,1770.885269010962,7,6,-1.099568486213684,3.5589094161987305,5.379272634830459,5.016911883869139,21.626586663327437,18.186838894487128,-9.713172767078504e-05,0.0995923578739166,0,0,0
1740,64815.16460869691,2010-12-14 06:36:45,1800.9002726180147,7,6,-1.0997490882873535,3.5553479194641118,5.379272634830459,5.026079036836024,21.626586663327437,18.21944846830881,-9.713172767078504e-05,0.0995923578739166,0,0,0
1741,64845.17975393641,2010-12-14 06:37:15,1830.9154178424776,7,6,-1.099568486213684,3.551948308944702,5.379272634830459,5.035246277976995,21.626586663327437,18.252026279029952,-0.0001295089750783,0.0995923578739166,0,0,0
1742,64875.19476112738,2010-12-14 06:37:45,1860.9304250986108,7,6,-1.0993878841400146,3.548548698425293,5.379272634830459,5.044413497970544,21.626586663327437,18.28457267925014,-9.713172767078504e-05,0.0995923578739166,0,0,0
1743,64905.20973023359,2010-12-14 06:38:15,1890.9453942198472,7,6,-1.0993878841400146,3.5453109741210938,5.379272634830459,5.05358065805092,21.626586663327437,18.317087479061875,-6.47544875391759e-05,0.0995923578739166,0,0,0
1744,64935.22479644141,2010-12-14 06:38:45,1920.9604603374555,7,6,-1.099568486213684,3.541911363601685,5.379272634830459,5.062747832406762,21.626586663327437,18.34957150135257,-9.713172767078504e-05,0.0995923578739166,0,0,0
1745,64965.2396447069,2010-12-14 06:39:16,1950.9753086129715,7,6,-1.099568486213684,3.538349866867065,5.379272634830459,5.071915065154681,21.626586663327437,18.382024745530305,-9.713172767078504e-05,0.0995923578739166,0,0,0
1746,64995.25475813224,2010-12-14 06:39:46,1980.990422038303,7,6,-1.099568486213684,3.535112142562866,5.379272634830459,5.081082286712316,21.626586663327437,18.4144467411124,-6.47544875391759e-05,0.0995923578739166,0,0,0
1747,65025.26964104896,2010-12-14 06:40:16,2011.00530497006,7,6,-1.099568486213684,3.531712532043457,5.379272634830459,5.090249439914549,21.626586663327437,18.44683751110282,-9.713172767078504e-05,0.0995923578739166,0,0,0
1748,65055.28479238864,2010-12-14 06:40:46,2041.0204562947024,7,6,-1.099568486213684,3.528312921524048,5.379272634830459,5.099416685942212,21.626586663327437,18.479198401334017,-9.713172767078504e-05,0.0995923578739166,0,0,0
1749,65085.29979668742,2010-12-14 06:41:16,2071.0354605934767,7,6,-1.099568486213684,3.5249133110046387,5.379272634830459,5.108583854927423,21.626586663327437,18.51152764246747,-9.713172767078504e-05,0.0995923578739166,0,0,0
1750,65115.31467445632,2010-12-14 06:41:46,2101.050338377424,7,6,-1.0997490882873535,3.5213518142700195,5.379272634830459,5.117750913780923,21.626586663327437,18.54382464993311,-9.713172767078504e-05,0.0995923578739166,0,0,0
1751,65145.33011101074,2010-12-14 06:42:16,2131.0657750270866,7,6,-1.0993878841400146,3.5179522037506104,5.379272634830459,5.126918179056341,21.626586663327437,18.576090524550395,-9.713172767078504e-05,0.0995923578739166,0,0,0
1752,65175.34467175075,2010-12-14 06:42:46,2161.0803356718448,7,6,-1.099568486213684,3.514390707015991,5.379272634830459,5.136085208825953,21.626586663327437,18.608323533719386,-9.713172767078504e-05,0.0995923578739166,0,0,0
1753,65205.35968167853,2010-12-14 06:43:16,2191.095345599627,7,6,-1.099568486213684,3.510829448699951,5.379272634830459,5.145252440893318,21.626586663327437,18.640524782657742,-9.713172767078504e-05,0.0995923578739166,0,0,0
1754,65235.37467345614,2010-12-14 06:43:46,2221.1103373772426,7,6,-1.0993878841400146,3.507267951965332,5.379272634830459,5.154419647585724,21.626586663327437,18.672692267810955,-9.713172767078504e-05,0.0995923578739166,0,0,0
1755,65265.38967527876,2010-12-14 06:44:16,2251.1253392048675,7,6,-1.099568486213684,3.503220796585083,5.379272634830459,5.163586914490347,21.626586663327437,18.7048250871514,-9.713172767078504e-05,0.0995923578739166,0,0,0
1756,65295.40480368136,2010-12-14 06:44:46,2281.140467692682,7,6,-1.0993878841400146,3.499335527420044,5.379272634830459,5.172754122152123,21.626586663327437,18.736921755218464,-9.713172767078504e-05,0.0995923578739166,0,0,0
1757,65325.41971185592,2010-12-14 06:45:16,2311.1553757720176,7,6,-1.0993878841400146,3.495126485824585,5.379272634830459,5.18192132005907,21.626586663327437,18.768980888738103,-6.47544875391759e-05,0.0995923578739166,0,0,0
1758,65355.43471333268,2010-12-14 06:45:46,2341.1703772537817,7,6,-1.099568486213684,3.490755558013916,5.379272634830459,5.191088517072037,21.626586663327437,18.80100086874615,-9.713172767078504e-05,0.0995923578739166,0,0,0
1759,65385.44968949644,2010-12-14 06:46:16,2371.185353417543,7,6,-1.0992072820663452,3.486060857772827,5.379272634830459,5.200255704338083,21.626586663327437,18.832979411699043,-9.713172767078504e-05,0.0995923578739166,0,0,0
1760,65415.46469504332,2010-12-14 06:46:46,2401.2003589644232,7,6,-1.0993878841400146,3.4808804988861084,5.379272634830459,5.209422911843959,21.626586663327437,18.86491349742456,-0.0001618862152099,0.0995923578739166,0,0,0
1761,65445.47971100111,2010-12-14 06:47:16,2431.2153749222102,7,6,-1.0993878841400146,3.47553825378418,5.379272634830459,5.218590068524319,21.626586663327437,18.89679919991092,-0.0001618862152099,0.0995923578739166,0,0,0
1762,65475.49482777477,2010-12-14 06:47:46,2461.2304917008864,7,6,-1.099568486213684,3.469548463821411,5.379272634830459,5.227757306933597,21.626586663327437,18.9286335711796,-0.0001942634553415,0.0995923578739166,0,0,0
1763,65505.50970883688,2010-12-14 06:48:16,2491.2453727579787,7,6,-1.099568486213684,3.4629111289978027,5.379272634830459,5.236924417551324,21.626586663327437,18.960410428119765,-0.0002266406954731,0.0995923578739166,0,0,0
1764,65535.524919258576,2010-12-14 06:48:46,2521.260583174669,7,6,-1.0993878841400146,3.4557881355285645,5.379272634830459,5.24609174025197,21.626586663327437,18.99212421602852,-0.0001942634553415,0.0995923578739166,0,0,0
1765,65565.53978625569,2010-12-14 06:49:16,2551.2754502670105,7,6,-1.099568486213684,3.4470462799072266,5.379272634830459,5.255258863063283,21.626586663327437,19.023764622340952,-0.0002913951757363,0.0995923578739166,0,0,0
1766,65595.55472809402,2010-12-14 06:49:46,2581.2903920201425,7,6,-1.099568486213684,3.437333106994629,5.379272634830459,5.26442606587056,21.626586663327437,19.055320881480004,-0.0002590179501567,0.0995923578739166,0,0,0
1767,65625.5697406233,2010-12-14 06:50:16,2611.3054046145603,7,6,-1.0997490882873535,3.425515651702881,5.379272634830459,5.273593306967724,21.626586663327437,19.08677972856596,-0.0003885269106831,0.0995923578739166,0,0,0
1768,65655.58472762903,2010-12-14 06:50:46,2641.3203915501263,7,6,-1.099568486213684,3.411755323410034,5.379272634830459,5.282760430970819,21.626586663327437,19.1181216376136,-0.0004209041653666,0.0995923578739166,0,0,0
1769,65685.5999592986,2010-12-14 06:51:16,2671.335623269829,7,6,-1.0993878841400146,3.3947572708129883,5.379272634830459,5.291927825224895,21.626586663327437,19.1493229910823,-0.0005180359003134,0.0995923578739166,0,0,0
1770,65715.61474003104,2010-12-14 06:51:46,2701.350403952142,7,6,-1.099568486213684,3.3735501766204834,5.379272634830459,5.301094985735154,21.626586663327437,19.18034977597438,-0.0006151676061563,0.0995923578739166,0,0,0
1771,65745.62989928541,2010-12-14 06:52:16,2731.3655631914803,7,6,-1.0993878841400146,3.346353530883789,5.379272634830459,5.310262287998858,21.626586663327437,19.211156874766868,-0.0008094310760498,0.0995923578739166,0,0,0
1772,65775.6447417214,2010-12-14 06:52:46,2761.3804056425024,7,6,-1.099568486213684,3.3110623359680176,5.379272634830459,5.319429444547108,21.626586663327437,19.241679622618843,-0.0010684489971026,0.0995923578739166,0,0,0
1773,65805.65991796306,2010-12-14 06:53:16,2791.395581869113,7,6,-1.099568486213684,3.264439344406128,5.379272634830459,5.328596737615783,21.626586663327437,19.271829898096897,-0.0013921738136559,0.0995923578739166,0,0,0
1774,65835.67489123963,2010-12-14 06:53:46,2821.4105551507023,7,6,-1.099568486213684,3.2006561756134038,5.379272634830459,5.337764012658078,21.626586663327437,19.301479820468224,-0.0020073889754712,0.0995923578739166,0,0,0
1775,65865.68975488338,2010-12-14 06:54:16,2851.425418809499,7,6,-1.0993878841400146,3.111295223236084,5.379272634830459,5.346931165173561,21.626586663327437,19.33043577321218,-0.0027196884620934,0.0995923578739166,0,0,0
1776,65895.70481615393,2010-12-14 06:54:46,2881.4404801652577,7,6,-1.099568486213684,2.9733686447143555,5.379272634830459,5.356098447766448,21.626586663327437,19.358377701938377,-0.0045328140258789,0.0995923578739166,0,0,0
1777,65921.79822271256,2010-12-14 06:55:12,2907.5338866887987,7,6,-1.0993878841400146,2.773277997970581,5.379272634830459,5.364067993061022,21.626586663327437,19.38133837905669,-0.0072848321869969,0.0995923578739166,0,0,0
1778,65929.46969864034,2010-12-14 06:55:20,2915.205362561451,7,6,-1.099568486213684,2.699943780899048,5.379272634830459,5.366411011394319,21.626586663327437,19.38775135328936,-0.0077381134033203,0.0995923578739166,0,0,0
1779,65989.48771086965,2010-12-14 06:56:20,60.01437824702239,8,6,0.0,3.4344191551208496,5.379272634830459,5.366411011394319,21.626586663327437,19.38775135328936,0.0013274193042889,0.0995923578739166,0,0,0
1780,65989.67215871617,2010-12-14 06:56:20,0.187370033120882,9,6,-1.9243103452026844e-05,3.434742927551269,5.379272634830459,5.366411012395869,21.626586663327437,19.387751356729428,0.0,0.0962666198611259,0,0,0
1781,65994.5004236578,2010-12-14 06:56:25,5.015635029862774,9,6,0.0007031940040178,3.442513465881348,5.379273682408936,5.366411012562901,21.626590266313023,19.387751357303145,0.0011332035064697,0.0962666198611259,0,0,0
