Data_Point,Test_Time(s),Date_Time,Step_Time(s),Step_Index,Cycle_Index,Current(A),Voltage(V),Charge_Capacity(Ah),Discharge_Capacity(Ah),Charge_Energy(Wh),Discharge_Energy(Wh),dV/dt(V/s),Internal_Resistance(Ohm),Is_FC_Data,AC_Impedance(Ohm),ACI_Phase_Angle(Deg)
13802,506965.9830619782,2010-12-19 09:26:49,30.01507985679749,1,48,0.0,3.454331159591675,41.43597406741266,41.40791242123908,166.40942599461218,149.7940903689166,0.0007446765666827,0.0946486890316009,0,0,0
13803,506995.9981895487,2010-12-19 09:27:19,60.03020744737867,1,48,0.0,3.4795854091644287,41.43597406741266,41.40791242123908,166.40942599461218,149.7940903689166,0.0005827903514727,0.0946486890316009,0,0,0
13804,507026.013427499,2010-12-19 09:27:49,90.04544539257306,1,48,0.0,3.498526096343994,41.43597406741266,41.40791242123908,166.40942599461218,149.7940903689166,0.0004856586456298,0.0946486890316009,0,0,0
13805,507055.98169900494,2010-12-19 09:28:19,120.01371689858996,1,48,0.0,3.5135812759399414,41.43597406741266,41.40791242123908,166.40942599461218,149.7940903689166,0.0004208564641885,0.0946486890316009,0,0,0
13806,507086.01265064353,2010-12-19 09:28:49,30.0150219877927,2,48,0.550297200679779,3.659278631210327,41.4405615943805,41.40791242123908,166.42607464802234,149.7940903689166,0.0013274669181555,0.0946486890316009,0,0,0
13807,507116.0278319126,2010-12-19 09:29:19,60.03020327198837,2,48,0.550297200679779,3.697807312011719,41.44514904650061,41.40791242123908,166.44295539618335,149.7940903689166,0.0008741855854168,0.0946486890316009,0,0,0
13808,507146.0428847321,2010-12-19 09:29:49,90.04525600629258,2,48,0.5501165986061096,3.724680423736572,41.44973650259589,41.40791242123908,166.4599838830202,149.7940903689166,0.0005827903514727,0.0946486890316009,0,0,0
13809,507176.0599916883,2010-12-19 09:30:19,120.06236304264844,2,48,0.550297200679779,3.7454018592834473,41.45432424587683,41.40791242123908,166.4771217522947,149.7940903689166,0.0004856586456298,0.0946486890316009,0,0,0
13810,507206.0731449459,2010-12-19 09:30:49,150.07551621997817,2,48,0.5501165986061096,3.760295152664185,41.45891132755911,41.40791242123908,166.4943384320421,149.7940903689166,0.0003237724304199,0.0946486890316009,0,0,0
13811,507236.0883030223,2010-12-19 09:31:19,180.0906743665969,2,48,0.5499359965324402,3.770332098007202,41.46349872861213,41.40791242123908,166.5116135228552,149.7940903689166,0.0001942634553415,0.0946486890316009,0,0,0
13812,507266.10340338014,2010-12-19 09:31:49,210.1057746542357,2,48,0.550297200679779,3.7776169776916495,41.468086138594416,41.40791242123908,166.52892690401256,149.7940903689166,0.0001942634553415,0.0946486890316009,0,0,0
13813,507296.1185729903,2010-12-19 09:32:19,240.1209443345556,2,48,0.5501165986061096,3.783121109008789,41.47267354069587,41.40791242123908,166.54626874156838,149.7940903689166,0.0001942634553415,0.0946486890316009,0,0,0
13814,507326.1336032136,2010-12-19 09:32:49,270.13597447764243,2,48,0.550297200679779,3.788301467895508,41.47726099137319,41.40791242123908,166.56363532272152,149.7940903689166,0.0001295089750783,0.0946486890316009,0,0,0
13815,507356.1487864176,2010-12-19 09:33:19,300.15115778186487,2,48,0.550297200679779,3.7928342819213863,41.48184843805966,41.40791242123908,166.58102444927692,149.7940903689166,9.713172767078504e-05,0.0946486890316009,0,0,0
13816,507386.16384441993,2010-12-19 09:33:49,330.16621570909143,2,48,0.550297200679779,3.7973670959472656,41.4864358469213,41.40791242123908,166.598434626874,149.7940903689166,0.0001295089750783,0.0946486890316009,0,0,0
13817,507416.1790571424,2010-12-19 09:34:20,360.1814284866572,2,48,0.550297200679779,3.801738023757935,41.49102333110394,41.40791242123908,166.61586530651778,149.7940903689166,9.713172767078504e-05,0.0946486890316009,0,0,0
13818,507446.1942416195,2010-12-19 09:34:50,390.19661297883584,2,48,0.5501165986061096,3.8059470653533936,41.49561074630071,41.40791242123908,166.63331508092128,149.7940903689166,0.0001295089750783,0.0946486890316009,0,0,0
13819,507476.2093110403,2010-12-19 09:35:20,420.2116823996638,2,48,0.550297200679779,3.8099942207336426,41.50019820652364,41.40791242123908,166.65078387708562,149.7940903689166,0.0001295089750783,0.0946486890316009,0,0,0
13820,507506.2243335093,2010-12-19 09:35:50,450.22670479847926,2,48,0.550297200679779,3.8138794898986816,41.50478572929106,41.40791242123908,166.66827136748404,149.7940903689166,6.47544875391759e-05,0.0946486890316009,0,0,0
13821,507536.2395369136,2010-12-19 09:36:20,480.2419081876824,2,48,0.550297200679779,3.81792664527893,41.50937315635132,41.40791242123908,166.68577663422911,149.7940903689166,0.0001295089750783,0.0946486890316009,0,0,0
13822,507566.2545745804,2010-12-19 09:36:50,510.2569458595042,2,48,0.5499359965324402,3.82165002822876,41.51396061624627,41.40791242123908,166.70329974213308,149.7940903689166,0.0001295089750783,0.0946486890316009,0,0,0
13823,507596.2699013768,2010-12-19 09:37:20,540.2722727209633,2,48,0.5501165986061096,3.825373411178589,41.51854804954085,41.40791242123908,166.72084027033367,149.7940903689166,9.713172767078504e-05,0.0946486890316009,0,0,0
13824,507626.28482215264,2010-12-19 09:37:50,570.2871934267196,2,48,0.550297200679779,3.829258680343628,41.5231354080317,41.40791242123908,166.73839808802396,149.7940903689166,6.47544875391759e-05,0.0946486890316009,0,0,0
13825,507656.3000371056,2010-12-19 09:38:20,600.3024084498734,2,48,0.5499359965324402,3.833143949508667,41.52772290401643,41.40791242123908,166.7559739886288,149.7940903689166,9.713172767078504e-05,0.0946486890316009,0,0,0
13826,507686.3154224125,2010-12-19 09:38:50,630.3177938068965,2,48,0.5501165986061096,3.837028980255127,41.53231035747981,41.40791242123908,166.7735673090645,149.7940903689166,9.713172767078504e-05,0.0946486890316009,0,0,0
13827,507716.3302579564,2010-12-19 09:39:20,660.3326293156431,2,48,0.5501165986061096,3.840914249420166,41.536897790512455,41.40791242123908,166.79117829728267,149.7940903689166,9.713172767078504e-05,0.0946486890316009,0,0,0
13828,507746.3454497116,2010-12-19 09:39:50,690.3478210558583,2,48,0.5504778623580933,3.844799518585205,41.54148524334951,41.40791242123908,166.80880698715518,149.7940903689166,0.0001295089750783,0.0946486890316009,0,0,0
13829,507776.3623828904,2010-12-19 09:40:20,720.3647542546258,2,48,0.550297200679779,3.848684787750244,41.54607299816557,41.40791242123908,166.82645437788278,149.7940903689166,0.0001295089750783,0.0946486890316009,0,0,0
13830,507806.3755516564,2010-12-19 09:40:50,750.3779229305233,2,48,0.550297200679779,3.852408170700073,41.55066019401001,41.40791242123908,166.8441170446676,149.7940903689166,0.0001618862152099,0.0946486890316009,0,0,0
13831,507836.3907438628,2010-12-19 09:41:20,780.3931152271228,2,48,0.550297200679779,3.855969667434693,41.5552476485255,41.40791242123908,166.86179777168877,149.7940903689166,9.713172767078504e-05,0.0946486890316009,0,0,0
13832,507866.4058065218,2010-12-19 09:41:50,810.4081778109373,2,48,0.550297200679779,3.859531164169312,41.55983507473521,41.40791242123908,166.87949511957513,149.7940903689166,6.47544875391759e-05,0.0946486890316009,0,0,0
13833,507896.4209568389,2010-12-19 09:42:20,840.4233281330851,2,48,0.5501165986061096,3.86309266090393,41.56442252638932,41.40791242123908,166.89720889797735,149.7940903689166,9.713172767078504e-05,0.0946486890316009,0,0,0
13834,507926.43614440376,2010-12-19 09:42:50,870.4385156928972,2,48,0.550297200679779,3.86649227142334,41.56900999999734,41.40791242123908,166.91493845036194,149.7940903689166,6.47544875391759e-05,0.0946486890316009,0,0,0
13835,507956.4511627826,2010-12-19 09:43:20,900.4535340566716,2,48,0.550297200679779,3.869729995727539,41.5735973941679,41.40791242123908,166.93268286946284,149.7940903689166,9.713172767078504e-05,0.0946486890316009,0,0,0
13836,507986.46925184765,2010-12-19 09:43:50,930.471623211993,2,48,0.550297200679779,3.8729677200317374,41.57818525492046,41.40791242123908,166.95044365208315,149.7940903689166,9.713172767078504e-05,0.0946486890316009,0,0,0
13837,508016.4815002986,2010-12-19 09:44:20,960.4838716629456,2,48,0.5499359965324402,3.875719785690308,41.58277227991155,41.40791242123908,166.96821508554385,149.7940903689166,9.713172767078504e-05,0.0946486890316009,0,0,0
13838,508046.49651942926,2010-12-19 09:44:50,990.4988907034042,2,48,0.550297200679779,3.878633737564087,41.58735966808346,41.40791242123908,166.9860011167185,149.7940903689166,6.47544875391759e-05,0.0946486890316009,0,0,0
13839,508076.5117082372,2010-12-19 09:45:20,1020.514079591522,2,48,0.5499359965324402,3.8812239170074463,41.59194718526858,41.40791242123908,167.00380018143915,149.7940903689166,9.713172767078504e-05,0.0946486890316009,0,0,0
13840,508106.5267878484,2010-12-19 09:45:50,1050.5291591225086,2,48,0.5501165986061096,3.883652210235596,41.59653469820047,41.40791242123908,167.02161111286412,149.7940903689166,6.47544875391759e-05,0.0946486890316009,0,0,0
13841,508136.5422739512,2010-12-19 09:46:20,1080.544645315458,2,48,0.550297200679779,3.886242389678955,41.60112226330775,41.40791242123908,167.03943342029308,149.7940903689166,6.47544875391759e-05,0.0946486890316009,0,0,0
13842,508166.5571230989,2010-12-19 09:46:50,1110.5594943729204,2,48,0.550297200679779,3.8885087966918954,41.60570970666369,41.40791242123908,167.05726592418594,149.7940903689166,0.0001295089750783,0.0946486890316009,0,0,0
13843,508196.5721219139,2010-12-19 09:47:20,1140.5744931880488,2,48,0.550297200679779,3.890451431274414,41.61029714451976,41.40791242123908,167.07510854076628,149.7940903689166,0.0,0.0946486890316009,0,0,0
13844,508226.5873655583,2010-12-19 09:47:50,1170.5897368524752,2,48,0.550297200679779,3.892555952072144,41.61488460938836,41.40791242123908,167.092960905095,149.7940903689166,6.47544875391759e-05,0.0946486890316009,0,0,0
13845,508256.6026465106,2010-12-19 09:48:20,1200.6050178598282,2,48,0.550297200679779,3.894660472869873,41.61947211794179,41.40791242123908,167.11082278408608,149.7940903689166,6.47544875391759e-05,0.0946486890316009,0,0,0
13846,508286.6174803151,2010-12-19 09:48:50,1230.6198516091968,2,48,0.550297200679779,3.8966031074523926,41.62405943469006,41.40791242123908,167.12869247205873,149.7940903689166,9.713172767078504e-05,0.0946486890316009,0,0,0
13847,508316.6326325821,2010-12-19 09:49:20,1260.635003876184,2,48,0.550297200679779,3.898383855819702,41.62864684617235,41.40791242123908,167.1465713284376,149.7940903689166,6.47544875391759e-05,0.0946486890316009,0,0,0
13848,508346.647715306,2010-12-19 09:49:50,1290.6500865800665,2,48,0.5501165986061096,3.9000027179718018,41.63323417079798,41.40791242123908,167.16445833969945,149.7940903689166,3.237724376958795e-05,0.0946486890316009,0,0,0
13849,508376.6647893251,2010-12-19 09:50:20,1320.6671606894847,2,48,0.550297200679779,3.901945352554321,41.63782195308677,41.40791242123908,167.1823554263123,149.7940903689166,3.237724376958795e-05,0.0946486890316009,0,0,0
13850,508406.6781201446,2010-12-19 09:50:50,1350.6804914888205,2,48,0.550297200679779,3.903887987136841,41.64240921534843,41.40791242123908,167.20025873002737,149.7940903689166,9.713172767078504e-05,0.0946486890316009,0,0,0
13851,508436.69315968605,2010-12-19 09:51:20,1380.695531030295,2,48,0.5501165986061096,3.9053449630737305,41.646996653593696,41.40791242123908,167.21817082913748,149.7940903689166,3.237724376958795e-05,0.0946486890316009,0,0,0
13852,508466.7082237085,2010-12-19 09:51:50,1410.7105950877765,2,48,0.550297200679779,3.90712571144104,41.651584110453534,41.40791242123908,167.23609100704982,149.7940903689166,3.237724376958795e-05,0.0946486890316009,0,0,0
13853,508496.72341935337,2010-12-19 09:52:20,1440.7257906474958,2,48,0.5501165986061096,3.9089064598083496,41.65617160353848,41.40791242123908,167.2540193460993,149.7940903689166,3.237724376958795e-05,0.0946486890316009,0,0,0
13854,508526.7387084359,2010-12-19 09:52:50,1470.741079800118,2,48,0.5501165986061096,3.910525321960449,41.66075912463487,41.40791242123908,167.27195577629485,149.7940903689166,0.0,0.0946486890316009,0,0,0
13855,508556.75387633167,2010-12-19 09:53:20,1500.7562476759474,2,48,0.5501165986061096,3.912306070327759,41.66534666132766,41.40791242123908,167.28990019610774,149.7940903689166,0.0,0.0946486890316009,0,0,0
13856,508586.768688362,2010-12-19 09:53:50,1530.771059621057,2,48,0.550297200679779,3.914248466491699,41.66993403009698,41.40791242123908,167.3078518576018,149.7940903689166,6.47544875391759e-05,0.0946486890316009,0,0,0
13857,508616.7840446918,2010-12-19 09:54:20,1560.7864160360589,2,48,0.550297200679779,3.915867328643799,41.674521587094205,41.40791242123908,167.32581215287564,149.7940903689166,6.47544875391759e-05,0.0946486890316009,0,0,0
13858,508646.79920284345,2010-12-19 09:54:50,1590.8015741927024,2,48,0.550297200679779,3.917648077011109,41.67910909243916,41.40791242123908,167.34378007484327,149.7940903689166,6.47544875391759e-05,0.0946486890316009,0,0,0
13859,508676.8141197045,2010-12-19 09:55:20,1620.816490978705,2,48,0.5501165986061096,3.919105052947998,41.683696501578936,41.40791242123908,167.36175548305127,149.7940903689166,3.237724376958795e-05,0.0946486890316009,0,0,0
13860,508706.8292041128,2010-12-19 09:55:50,1650.8315754570026,2,48,0.550297200679779,3.9210476875305176,41.688283883599546,41.40791242123908,167.3797386393204,149.7940903689166,6.47544875391759e-05,0.0946486890316009,0,0,0
13861,508736.84454669326,2010-12-19 09:56:20,1680.8469180375782,2,48,0.550297200679779,3.922828435897827,41.69287132455714,41.40791242123908,167.39772986358125,149.7940903689166,9.713172767078504e-05,0.0946486890316009,0,0,0
13862,508766.85942032695,2010-12-19 09:56:50,1710.86179161606,2,48,0.550297200679779,3.924447298049927,41.69745872014308,41.40791242123908,167.41572881504553,149.7940903689166,3.237724376958795e-05,0.0946486890316009,0,0,0
13863,508796.8746132902,2010-12-19 09:57:20,1740.8769846344558,2,48,0.5501165986061096,3.925904273986816,41.70204619273717,41.40791242123908,167.43373595680612,149.7940903689166,0.0,0.0946486890316009,0,0,0
13864,508826.8897064852,2010-12-19 09:57:50,1770.8920778294448,2,48,0.5501165986061096,3.927846908569336,41.70663358678578,41.40791242123908,167.45175056265597,149.7940903689166,6.47544875391759e-05,0.0946486890316009,0,0,0
13865,508856.9050364945,2010-12-19 09:58:20,1800.9074078387373,2,48,0.5501165986061096,3.9296276569366455,41.71122107625846,41.40791242123908,167.46977347843398,149.7940903689166,6.47544875391759e-05,0.0946486890316009,0,0,0
13866,508886.9199353108,2010-12-19 09:58:50,1830.9223066550223,2,48,0.5504778623580933,3.931246519088745,41.71580849829957,41.40791242123908,167.4878040631002,149.7940903689166,3.237724376958795e-05,0.0946486890316009,0,0,0
13867,508916.93507014937,2010-12-19 09:59:20,1860.93744149364,2,48,0.550297200679779,3.933027267456055,41.720395968997565,41.40791242123908,167.50584266855128,149.7940903689166,3.237724376958795e-05,0.0946486890316009,0,0,0
13868,508946.95038687566,2010-12-19 09:59:50,1890.952758234915,2,48,0.5501165986061096,3.934808015823364,41.72498341803135,41.40791242123908,167.52388912758434,149.7940903689166,6.47544875391759e-05,0.0946486890316009,0,0,0
13869,508976.96741606825,2010-12-19 10:00:20,1920.9697874325725,2,48,0.5501165986061096,3.936264991760254,41.72957120490714,41.40791242123908,167.54194486901287,149.7940903689166,0.0,0.0946486890316009,0,0,0
13870,509006.9808272075,2010-12-19 10:00:50,1950.9831985517808,2,48,0.5501165986061096,3.938207626342773,41.734158430580365,41.40791242123908,167.5600062803475,149.7940903689166,3.237724376958795e-05,0.0946486890316009,0,0,0
13871,509036.9955255901,2010-12-19 10:01:20,1980.997896879157,2,48,0.550297200679779,3.939826488494873,41.738745852709854,41.40791242123908,167.57807649662664,149.7940903689166,0.0,0.0946486890316009,0,0,0
13872,509067.01063182746,2010-12-19 10:01:50,2011.0130031166016,2,48,0.550297200679779,3.9417691230773926,41.74333331443443,41.40791242123908,167.59615484310928,149.7940903689166,6.47544875391759e-05,0.0946486890316009,0,0,0
13873,509097.0258944541,2010-12-19 10:02:20,2041.02826573319,2,48,0.550297200679779,3.943549871444702,41.74792081265736,41.40791242123908,167.61424133753815,149.7940903689166,6.47544875391759e-05,0.0946486890316009,0,0,0
13874,509127.0408751842,2010-12-19 10:02:50,2071.0432464733394,2,48,0.550297200679779,3.945330619812012,41.7525082444977,41.40791242123908,167.63233561175116,149.7940903689166,6.47544875391759e-05,0.0946486890316009,0,0,0
13875,509157.0560162834,2010-12-19 10:03:20,2101.0583875574985,2,48,0.550297200679779,3.9469494819641113,41.75709563309971,41.40791242123908,167.65043774099593,149.7940903689166,6.47544875391759e-05,0.0946486890316009,0,0,0
13876,509187.0711204056,2010-12-19 10:03:50,2131.073491694717,2,48,0.550297200679779,3.948730230331421,41.76168310143853,41.40791242123908,167.66854821654266,149.7940903689166,6.47544875391759e-05,0.0946486890316009,0,0,0
13877,509217.08625085326,2010-12-19 10:04:20,2161.088622127371,2,48,0.550297200679779,3.9505109786987305,41.76627055217883,41.40791242123908,167.6866667674528,149.7940903689166,3.237724376958795e-05,0.0946486890316009,0,0,0
13878,509247.10136341146,2010-12-19 10:04:50,2191.103734700582,2,48,0.5501165986061096,3.95229172706604,41.770858038440544,41.40791242123908,167.70479363406258,149.7940903689166,3.237724376958795e-05,0.0946486890316009,0,0,0
13879,509277.1164771175,2010-12-19 10:05:20,2221.118848411624,2,48,0.5501165986061096,3.95391058921814,41.77544547112653,41.40791242123908,167.72292848473728,149.7940903689166,0.0,0.0946486890316009,0,0,0
13880,509307.1316244873,2010-12-19 10:05:50,2251.133995761375,2,48,0.5501165986061096,3.955691337585449,41.78003291765502,41.40791242123908,167.74107165343594,149.7940903689166,3.237724376958795e-05,0.0946486890316009,0,0,0
13881,509337.1467387748,2010-12-19 10:06:21,2281.1491100638896,2,48,0.550297200679779,3.9576339721679688,41.784620439701,41.40791242123908,167.75922336461693,149.7940903689166,3.237724376958795e-05,0.0946486890316009,0,0,0
13882,509367.162116593,2010-12-19 10:06:51,2311.164487867115,2,48,0.550297200679779,3.959576606750488,41.78920792437391,41.40791242123908,167.77738329333738,149.7940903689166,9.713172767078504e-05,0.0946486890316009,0,0,0
13883,509397.17697244737,2010-12-19 10:07:21,2341.1793437415413,2,48,0.550297200679779,3.961357355117798,41.7937953478166,41.40791242123908,167.79555133067797,149.7940903689166,3.237724376958795e-05,0.0946486890316009,0,0,0
13884,509427.192204924,2010-12-19 10:07:51,2371.19457620309,2,48,0.550297200679779,3.963299989700317,41.79838285032944,41.40791242123908,167.8137281378493,149.7940903689166,9.713172767078504e-05,0.0946486890316009,0,0,0
13885,509457.20721760864,2010-12-19 10:08:21,2401.2095888977574,2,48,0.550297200679779,3.965080738067627,41.80297034457951,41.40791242123908,167.83191342540275,149.7940903689166,0.0,0.0946486890316009,0,0,0
13886,509487.2223305077,2010-12-19 10:08:51,2431.2247017817413,2,48,0.550297200679779,3.9670233726501465,41.80755786929978,41.40791242123908,167.85010749167324,149.7940903689166,6.47544875391759e-05,0.0946486890316009,0,0,0
13887,509517.23744880006,2010-12-19 10:09:21,2461.239820074185,2,48,0.5501165986061096,3.968642234802246,41.812145337823765,41.40791242123908,167.86830990079255,149.7940903689166,3.237724376958795e-05,0.0946486890316009,0,0,0
13888,509547.2525605011,2010-12-19 10:09:51,2491.2549317902626,2,48,0.550297200679779,3.970746755599976,41.81673282741103,41.40791242123908,167.88652115314426,149.7940903689166,6.47544875391759e-05,0.0946486890316009,0,0,0
13889,509577.26977644354,2010-12-19 10:10:21,2521.272147837889,2,48,0.5501165986061096,3.972527503967285,41.821320628241416,41.40791242123908,167.90474243833347,149.7940903689166,3.237724376958795e-05,0.0946486890316009,0,0,0
13890,509607.28293916455,2010-12-19 10:10:51,2551.285310438668,2,48,0.550297200679779,3.974632024765015,41.8259078759175,41.40791242123908,167.92297037158133,149.7940903689166,6.47544875391759e-05,0.0946486890316009,0,0,0
13891,509637.2979916232,2010-12-19 10:11:21,2581.3003629173368,2,48,0.550297200679779,3.976736545562744,41.83049534076996,41.40791242123908,167.94120816611016,149.7940903689166,9.713172767078504e-05,0.0946486890316009,0,0,0
13892,509667.3130531343,2010-12-19 10:11:51,2611.315424413444,2,48,0.550297200679779,3.9785172939300537,41.83508288704176,41.40791242123908,167.95945498903615,149.7940903689166,0.0001295089750783,0.0946486890316009,0,0,0
13893,509697.3284248123,2010-12-19 10:12:21,2641.3307961565897,2,48,0.5501165986061096,3.980459928512573,41.83967040706085,41.40791242123908,167.97771129162024,149.7940903689166,3.237724376958795e-05,0.0946486890316009,0,0,0
13894,509727.3432906966,2010-12-19 10:12:51,2671.3456619707504,2,48,0.5501165986061096,3.982564449310303,41.84425782877305,41.40791242123908,167.99597646249563,149.7940903689166,6.47544875391759e-05,0.0946486890316009,0,0,0
13895,509757.3586160694,2010-12-19 10:13:21,2701.360987413679,2,48,0.5501165986061096,3.984668970108032,41.8488453485036,41.40791242123908,168.01425136554582,149.7940903689166,6.47544875391759e-05,0.0946486890316009,0,0,0
13896,509787.37357541634,2010-12-19 10:13:51,2731.3759466904185,2,48,0.5501165986061096,3.986611604690552,41.85343273821647,41.40791242123908,168.03253520767274,149.7940903689166,0.0,0.0946486890316009,0,0,0
13897,509817.38871182885,2010-12-19 10:14:21,2761.391083173127,2,48,0.5501165986061096,3.988878011703491,41.85802025140987,41.40791242123908,168.05082905163283,149.7940903689166,6.47544875391759e-05,0.0946486890316009,0,0,0
13898,509847.4039210176,2010-12-19 10:14:51,2791.406292381812,2,48,0.550297200679779,3.9908206462860103,41.86260766930662,41.40791242123908,168.06913214253424,149.7940903689166,3.237724376958795e-05,0.0946486890316009,0,0,0
13899,509877.41895300016,2010-12-19 10:15:21,2821.421324359464,2,48,0.5501165986061096,3.99308705329895,41.86719503401657,41.40791242123908,168.08744480614436,149.7940903689166,6.47544875391759e-05,0.0946486890316009,0,0,0
13900,509907.4369705523,2010-12-19 10:15:51,2851.439341916616,2,48,0.550297200679779,3.995515108108521,41.87178285805496,41.40791242123908,168.10576916767994,149.7940903689166,0.0001295089750783,0.0946486890316009,0,0,0
13901,509937.44923655695,2010-12-19 10:16:21,2881.4516079162377,2,48,0.5501165986061096,3.99729585647583,41.87636981971488,41.40791242123908,168.12410011370773,149.7940903689166,3.237724376958795e-05,0.0946486890316009,0,0,0
13902,509967.4645454336,2010-12-19 10:16:51,2911.466916777905,2,48,0.550297200679779,3.99972414970398,41.88095732898546,41.40791242123908,168.14244329967067,149.7940903689166,6.47544875391759e-05,0.0946486890316009,0,0,0
13903,509997.4794661996,2010-12-19 10:17:21,2941.4818375638606,2,48,0.5501165986061096,4.001828670501709,41.88554471891055,41.40791242123908,168.16079625560383,149.7940903689166,6.47544875391759e-05,0.0946486890316009,0,0,0
13904,510027.4944987386,2010-12-19 10:17:51,2971.496870012685,2,48,0.5501165986061096,4.004095077514648,41.89013211276367,41.40791242123908,168.17915957622577,149.7940903689166,9.70840483205393e-05,0.0946486890316009,0,0,0
13905,510057.5099692725,2010-12-19 10:18:21,3001.5123406168427,2,48,0.5501165986061096,4.006523609161377,41.89471956193691,41.40791242123908,168.19753358428397,149.7940903689166,6.47544875391759e-05,0.0946486890316009,0,0,0
13906,510087.524871768,2010-12-19 10:18:51,3031.527243047121,2,48,0.5501165986061096,4.008627891540527,41.89930696283548,41.40791242123908,168.21591803539226,149.7940903689166,3.23295607813634e-05,0.0946486890316009,0,0,0
13907,510117.53994711855,2010-12-19 10:19:21,3061.542318477904,2,48,0.5501165986061096,4.011056423187256,41.9038943860572,41.40791242123908,168.2343132013554,149.7940903689166,6.47544875391759e-05,0.0946486890316009,0,0,0
13908,510147.5551061224,2010-12-19 10:19:51,3091.5574774014567,2,48,0.5501165986061096,4.013484477996826,41.90848185119104,41.40791242123908,168.2527194108806,149.7940903689166,3.23295607813634e-05,0.0946486890316009,0,0,0
13909,510177.5720695062,2010-12-19 10:20:21,3121.574440870551,2,48,0.5501165986061096,4.015750885009766,41.9130695686665,41.40791242123908,168.27113755958158,149.7940903689166,6.47544875391759e-05,0.0946486890316009,0,0,0
13910,510207.58526699885,2010-12-19 10:20:51,3151.5876382729334,2,48,0.5501165986061096,4.018341064453125,41.91765671159003,41.40791242123908,168.2895644993438,149.7940903689166,9.70840483205393e-05,0.0946486890316009,0,0,0
13911,510237.6003600585,2010-12-19 10:21:21,3181.6027313325853,2,48,0.550297200679779,4.0207695960998535,41.922244198168606,41.40791242123908,168.30800395263938,149.7940903689166,6.47544875391759e-05,0.0946486890316009,0,0,0
13912,510267.61548631074,2010-12-19 10:21:51,3211.617857584836,2,48,0.5501165986061096,4.023197650909424,41.92683166662619,41.40791242123908,168.32645468129957,149.7940903689166,9.70840483205393e-05,0.0946486890316009,0,0,0
13913,510297.6307254038,2010-12-19 10:22:21,3241.6330966979367,2,48,0.550297200679779,4.025626182556152,41.9314191395476,41.40791242123908,168.34491682243802,149.7940903689166,3.24249267578125e-05,0.0946486890316009,0,0,0
13914,510327.64583135553,2010-12-19 10:22:51,3271.648202634633,2,48,0.5501165986061096,4.028216361999512,41.93600657862158,41.40791242123908,168.36339028437152,149.7940903689166,6.47544875391759e-05,0.0946486890316009,0,0,0
13915,510357.6608201056,2010-12-19 10:23:21,3301.6631913797028,2,48,0.5501165986061096,4.030806541442871,41.9405940005285,41.40791242123908,168.38187525965094,149.7940903689166,6.47544875391759e-05,0.0946486890316009,0,0,0
13916,510387.6760788776,2010-12-19 10:23:51,3331.678450241948,2,48,0.5501165986061096,4.033234596252441,41.94518138742408,41.40791242123908,168.4003717506918,149.7940903689166,6.47544875391759e-05,0.0946486890316009,0,0,0
13917,510417.6910947453,2010-12-19 10:24:21,3361.6934660192865,2,48,0.550297200679779,4.035986423492432,41.94976880875499,41.40791242123908,168.4188802068994,149.7940903689166,9.70840483205393e-05,0.0946486890316009,0,0,0
13918,510447.7064115416,2010-12-19 10:24:51,3391.708782815699,2,48,0.550297200679779,4.038576602935791,41.95435634468551,41.40791242123908,168.43740108072367,149.7940903689166,6.47544875391759e-05,0.0946486890316009,0,0,0
13919,510477.7213369691,2010-12-19 10:25:21,3421.723708263255,2,48,0.5504778623580933,4.04132890701294,41.958943815679774,41.40791242123908,168.45593370518884,149.7940903689166,9.71794142969884e-05,0.0946486890316009,0,0,0
13920,510507.7365527592,2010-12-19 10:25:51,3451.7389240332677,2,48,0.550297200679779,4.043919086456299,41.96353124326558,41.40791242123908,168.47447825028135,149.7940903689166,9.71794142969884e-05,0.0946486890316009,0,0,0
13921,510537.751566326,2010-12-19 10:26:21,3481.753937615142,2,48,0.5501165986061096,4.046347141265869,41.96811868971007,41.40791242123908,168.49303516374363,149.7940903689166,3.23295607813634e-05,0.0946486890316009,0,0,0
13922,510567.7668022612,2010-12-19 10:26:51,3511.76917354031,2,48,0.550297200679779,4.049261093139648,41.97270614784074,41.40791242123908,168.51160444832442,149.7940903689166,6.47544875391759e-05,0.0946486890316009,0,0,0
13923,510597.78180177306,2010-12-19 10:27:21,3541.7841731323715,2,48,0.550297200679779,4.051689624786377,41.97729363307155,41.40791242123908,168.53018623271433,149.7940903689166,6.47544875391759e-05,0.0946486890316009,0,0,0
13924,510627.7969437946,2010-12-19 10:27:51,3571.799315068652,2,48,0.550297200679779,4.054765224456787,41.9818810685643,41.40791242123908,168.5487803543423,149.7940903689166,9.70840483205393e-05,0.0946486890316009,0,0,0
13925,510657.8120416261,2010-12-19 10:28:21,3601.814412915216,2,48,0.5501165986061096,4.0573554039001465,41.9864685435798,41.40791242123908,168.5673872922104,149.7940903689166,6.47544875391759e-05,0.0946486890316009,0,0,0
13926,510687.8271516881,2010-12-19 10:28:51,3631.8295229771775,2,48,0.5501165986061096,4.060107707977295,41.99105593080138,41.40791242123908,168.58600663927564,149.7940903689166,6.47544875391759e-05,0.0946486890316009,0,0,0
13927,510717.8422657149,2010-12-19 10:29:21,3661.844637009018,2,48,0.550297200679779,4.062859535217285,41.99564336733163,41.40791242123908,168.60463867068697,149.7940903689166,3.23295607813634e-05,0.0946486890316009,0,0,0
13928,510747.85739637807,2010-12-19 10:29:51,3691.8597676722457,2,48,0.550297200679779,4.0657734870910645,42.000230710604086,41.40791242123908,168.6232833726373,149.7940903689166,6.47544875391759e-05,0.0946486890316009,0,0,0
13929,510777.8743815312,2010-12-19 10:30:21,3721.876752910512,2,48,0.5501165986061096,4.068849563598633,42.00481835561176,41.40791242123908,168.641942483702,149.7940903689166,0.0001295089750783,0.0946486890316009,0,0,0
13930,510807.887644216,2010-12-19 10:30:51,3751.8900155051215,2,48,0.550297200679779,4.071601390838623,42.009405559980166,41.40791242123908,168.66061307129013,149.7940903689166,9.70840483205393e-05,0.0946486890316009,0,0,0
13931,510837.90280877857,2010-12-19 10:31:21,3781.905180067707,2,48,0.5501165986061096,4.074515342712402,42.0139929865318,41.40791242123908,168.6792978266679,149.7940903689166,9.70840483205393e-05,0.0946486890316009,0,0,0
13932,510867.9175879973,2010-12-19 10:31:51,3811.919959040767,2,48,0.5501165986061096,4.077267646789551,42.01858038513222,41.40791242123908,168.6979958510246,149.7940903689166,3.24249267578125e-05,0.0946486890316009,0,0,0
13933,510897.9175957879,2010-12-19 10:32:21,3841.91996708193,2,48,0.550297200679779,4.08050537109375,42.0231655198056,41.40791242123908,168.7166982557926,149.7940903689166,0.0001295089750783,0.0946486890316009,0,0,0
13934,510927.9325159171,2010-12-19 10:32:51,3871.93488720624,2,48,0.550297200679779,4.083419322967529,42.02775301331111,41.40791242123908,168.73542386055107,149.7940903689166,3.24249267578125e-05,0.0946486890316009,0,0,0
13935,510957.94763415447,2010-12-19 10:33:21,3901.9500054485584,2,48,0.5499359965324402,4.086333274841309,42.03234045618706,41.40791242123908,168.7541630388987,149.7940903689166,6.47544875391759e-05,0.0946486890316009,0,0,0
13936,510987.9628000754,2010-12-19 10:33:51,3931.965171419648,2,48,0.550297200679779,4.089408874511719,42.03692784709085,41.40791242123908,168.77291588328816,149.7940903689166,6.47544875391759e-05,0.0946486890316009,0,0,0
13937,511017.9778673008,2010-12-19 10:34:21,3961.980238594888,2,48,0.5501165986061096,4.092322826385498,42.04151526770667,41.40791242123908,168.79168287104153,149.7940903689166,3.23295607813634e-05,0.0946486890316009,0,0,0
13938,511047.9929960893,2010-12-19 10:34:51,3991.995367448613,2,48,0.550297200679779,4.095560550689697,42.046102652849534,41.40791242123908,168.81046377093887,149.7940903689166,9.70840483205393e-05,0.0946486890316009,0,0,0
13939,511078.00824951305,2010-12-19 10:35:21,4022.010620792125,2,48,0.5501165986061096,4.098636627197266,42.050690155221936,41.40791242123908,168.82925941689425,149.7940903689166,6.47544875391759e-05,0.0946486890316009,0,0,0
13940,511108.0232298872,2010-12-19 10:35:51,4052.0256012666127,2,48,0.550297200679779,4.101874351501465,42.05527763049484,41.40791242123908,168.84806930499994,149.7940903689166,9.71794142969884e-05,0.0946486890316009,0,0,0
13941,511138.03835147794,2010-12-19 10:36:21,4082.040722772052,2,48,0.550297200679779,4.104949951171875,42.05986502986654,41.40791242123908,168.86689321492238,149.7940903689166,6.47544875391759e-05,0.0946486890316009,0,0,0
13942,511168.0534931234,2010-12-19 10:36:51,4112.055864412596,2,48,0.550297200679779,4.108349800109863,42.06445243428944,41.40791242123908,168.88573179624842,149.7940903689166,0.0001295089750783,0.0946486890316009,0,0,0
13943,511198.06861840334,2010-12-19 10:37:21,4142.070989692426,2,48,0.550297200679779,4.111587524414063,42.0690398362373,41.40791242123908,168.90458505456488,149.7940903689166,0.0001295089750783,0.0946486890316009,0,0,0
13944,511228.0837160794,2010-12-19 10:37:51,4172.08608737358,2,48,0.550297200679779,4.114663124084473,42.07362727020894,41.40791242123908,168.92345326216935,149.7940903689166,9.70840483205393e-05,0.0946486890316009,0,0,0
13945,511258.09883807605,2010-12-19 10:38:21,4202.10120937024,2,48,0.550297200679779,4.117900848388672,42.07821462234293,41.40791242123908,168.94233600936647,149.7940903689166,9.71794142969884e-05,0.0946486890316009,0,0,0
13946,511288.1139700175,2010-12-19 10:38:52,4232.116341306636,2,48,0.550297200679779,4.121138572692871,42.0828020259008,41.40791242123908,168.9612339743336,149.7940903689166,6.47544875391759e-05,0.0946486890316009,0,0,0
13947,511318.12920686,2010-12-19 10:39:22,4262.131578219261,2,48,0.550297200679779,4.124537944793701,42.08738947977711,41.40791242123908,168.9801472447307,149.7940903689166,0.0001295089750783,0.0946486890316009,0,0,0
13948,511348.14435361326,2010-12-19 10:39:52,4292.14672499759,2,48,0.550297200679779,4.1277756690979,42.0919769653885,41.40791242123908,168.9990760016485,149.7940903689166,9.70840483205393e-05,0.0946486890316009,0,0,0
13949,511378.1594503971,2010-12-19 10:40:22,4322.161821691286,2,48,0.5504778623580933,4.131175518035889,42.09656440267759,41.40791242123908,169.0180198970973,149.7940903689166,9.71794142969884e-05,0.0946486890316009,0,0,0
13950,511408.1763396916,2010-12-19 10:40:52,4352.178711071012,2,48,0.550297200679779,4.134413242340088,42.10115213868708,41.40791242123908,169.03698054413553,149.7940903689166,6.47544875391759e-05,0.0946486890316009,0,0,0
13951,511438.1895711387,2010-12-19 10:41:22,4382.191942427888,2,48,0.550297200679779,4.138136386871338,42.10573934393141,41.40791242123908,169.0559546023324,149.7940903689166,0.0001295089750783,0.0946486890316009,0,0,0
13952,511468.2046878522,2010-12-19 10:41:52,4412.207059231627,2,48,0.5501165986061096,4.141374111175537,42.11032678814794,41.40791242123908,169.074945372753,149.7940903689166,9.70840483205393e-05,0.0946486890316009,0,0,0
13953,511498.2199301834,2010-12-19 10:42:22,4442.222301472511,2,48,0.550297200679779,4.145097732543945,42.114914284446535,41.40791242123908,169.09395226605653,149.7940903689166,9.71794142969884e-05,0.0946486890316009,0,0,0
13954,511528.2349400109,2010-12-19 10:42:52,4472.237311300043,2,48,0.550297200679779,4.148497104644775,42.11950161477797,41.40791242123908,169.11297467615296,149.7940903689166,9.70840483205393e-05,0.0946486890316009,0,0,0
13955,511558.250097511,2010-12-19 10:43:22,4502.252468800052,2,48,0.5501165986061096,4.151896953582764,42.12408893917031,41.40791242123908,169.13201301738334,149.7940903689166,6.47544875391759e-05,0.0946486890316009,0,0,0
13956,511588.2651642301,2010-12-19 10:43:52,4532.26753552417,2,48,0.550297200679779,4.155458450317383,42.1286762528565,41.40791242123908,169.15106739716143,149.7940903689166,9.71794142969884e-05,0.0946486890316009,0,0,0
13957,511618.2803344919,2010-12-19 10:44:22,4562.282705836062,2,48,0.5501165986061096,4.159019947052002,42.13326357176359,41.40791242123908,169.17013801710985,149.7940903689166,9.71794142969884e-05,0.0946486890316009,0,0,0
13958,511648.2954233159,2010-12-19 10:44:52,4592.297794610049,2,48,0.5501165986061096,4.162419319152832,42.13785092395326,41.40791242123908,169.18922510330157,149.7940903689166,6.47544875391759e-05,0.0946486890316009,0,0,0
13959,511678.3105300045,2010-12-19 10:45:22,4622.312901298616,2,48,0.550297200679779,4.166304588317871,42.142438286007454,41.40791242123908,169.20832854036087,149.7940903689166,0.0001618385285837,0.0946486890316009,0,0,0
13960,511708.3257724409,2010-12-19 10:45:52,4652.328143734987,2,48,0.5501165986061096,4.169704437255859,42.14702571427593,41.40791242123908,169.22744876513318,149.7940903689166,6.47544875391759e-05,0.0946486890316009,0,0,0
13961,511738.34076824354,2010-12-19 10:46:22,4682.343139537618,2,48,0.550297200679779,4.173427581787109,42.15161306424191,41.40791242123908,169.24658531300085,149.7940903689166,0.0001295089750783,0.0946486890316009,0,0,0
13962,511768.3559138037,2010-12-19 10:46:52,4712.358285097916,2,48,0.550297200679779,4.177151203155518,42.15620046567545,41.40791242123908,169.2657388126105,149.7940903689166,9.71794142969884e-05,0.0946486890316009,0,0,0
13963,511798.37102823664,2010-12-19 10:47:22,4742.373399530756,2,48,0.5501165986061096,4.180712699890137,42.16078789217136,41.40791242123908,169.28490932822976,149.7940903689166,6.47544875391759e-05,0.0946486890316009,0,0,0
13964,511828.3861550603,2010-12-19 10:47:52,4772.388526349416,2,48,0.5499359965324402,4.184274196624756,42.16537526653227,41.40791242123908,169.3040966381452,149.7940903689166,6.47544875391759e-05,0.0946486890316009,0,0,0
13965,511858.4040529747,2010-12-19 10:48:22,4802.406424354066,2,48,0.550297200679779,4.188321113586426,42.169963049405006,41.40791242123908,169.3233027770756,149.7940903689166,9.70840483205393e-05,0.0946486890316009,0,0,0
13966,511888.4164238904,2010-12-19 10:48:52,4832.418795184555,2,48,0.5501165986061096,4.192044734954834,42.17454987369837,41.40791242123908,169.34252225440034,149.7940903689166,9.71794142969884e-05,0.0946486890316009,0,0,0
13967,511918.4314350764,2010-12-19 10:49:22,4862.433806365456,2,48,0.5501165986061096,4.195767879486084,42.1791364063174,41.40791242123908,169.36175783954545,149.7940903689166,9.71794142969884e-05,0.0946486890316009,0,0,0
13968,511948.44656513806,2010-12-19 10:49:52,4892.448936432199,2,48,0.5501165986061096,4.199653148651123,42.183723039522015,41.40791242123908,169.38101114735966,149.7940903689166,6.47544875391759e-05,0.0946486890316009,0,0,0
13969,511950.74343875976,2010-12-19 10:49:54,4894.745810048852,2,48,0.550297200679779,4.200138568878174,42.18407409756127,41.40791242123908,169.38248551664168,149.7940903689166,0.0001295089750783,0.0946486890316009,0,0,0
13970,511980.763205495,2010-12-19 10:50:24,30.0152415541752,3,48,0.0,4.112558841705322,42.18407409756127,41.40791242123908,169.38248551664168,149.7940903689166,-0.0004856109735555,0.0946486890316009,0,0,0
13971,512010.77833575726,2010-12-19 10:50:54,60.03037172618015,3,48,0.0,4.101874351501465,42.18407409756127,41.40791242123908,169.38248551664168,149.7940903689166,-0.0002265930233988,0.0946486890316009,0,0,0
13972,512040.7933285626,2010-12-19 10:51:24,90.04536453135303,3,48,0.0,4.095398902893066,42.18407409756127,41.40791242123908,169.38248551664168,149.7940903689166,-0.0001295089750783,0.0946486890316009,0,0,0
13973,512070.7615893368,2010-12-19 10:51:54,120.01362530566448,3,48,0.0,4.091189861297607,42.18407409756127,41.40791242123908,169.38248551664168,149.7940903689166,-9.70840483205393e-05,0.0946486890316009,0,0,0
13974,512070.7682083406,2010-12-19 10:51:54,0.015728625078561,4,48,1.0056132078170776,4.199653148651123,42.18407851008951,41.40791242123908,169.3825040477298,149.7940903689166,0.0,0.0946486890316009,0,0,0
13975,512071.6742742057,2010-12-19 10:51:55,0.92179449514754,4,48,0.9555844664573668,4.199653148651123,42.18432410607867,41.40791242123908,169.38353548047053,149.7940903689166,0.0,0.0946486890316009,0,0,0
13976,512073.5961245815,2010-12-19 10:51:57,2.84364486587778,4,48,0.9051944613456726,4.199814796447754,42.18481971452794,41.40791242123908,169.38561690331105,149.7940903689166,3.23295607813634e-05,0.0946486890316009,0,0,0
13977,512076.47118544986,2010-12-19 10:52:00,5.718705804444135,4,48,0.8551656603813171,4.199491024017334,42.18552150255434,41.40791242123908,169.38856423257266,149.7940903689166,-6.47544875391759e-05,0.0946486890316009,0,0,0
13978,512080.43981309707,2010-12-19 10:52:04,9.687333381530191,4,48,0.8051369190216064,4.199814796447754,42.1864354053903,41.40791242123908,169.39240238193025,149.7940903689166,0.0,0.0946486890316009,0,0,0
13979,512085.6915527542,2010-12-19 10:52:09,14.939073113864117,4,48,0.7549275159835815,4.199653148651123,42.187571779783255,41.40791242123908,169.3971748423333,149.7940903689166,0.0,0.0946486890316009,0,0,0
13980,512092.50211140246,2010-12-19 10:52:16,21.7496316919411,4,48,0.7048987746238708,4.199653148651123,42.18895066859216,41.40791242123908,169.40296581182832,149.7940903689166,0.0,0.0946486890316009,0,0,0
13981,512101.5175762049,2010-12-19 10:52:25,30.76509649435325,4,48,0.6548699736595154,4.199814796447754,42.190650456724505,41.40791242123908,169.41010449785904,149.7940903689166,0.0,0.0946486890316009,0,0,0
13982,512114.095482526,2010-12-19 10:52:38,43.34300281546772,4,48,0.6048412322998047,4.199814796447754,42.19284609608884,41.40791242123908,169.41932562724028,149.7940903689166,0.0,0.0946486890316009,0,0,0
13983,512132.92332095787,2010-12-19 10:52:57,62.17084123222018,4,48,0.5548124313354492,4.199814796447754,42.19586922851936,41.40791242123908,169.43202202182985,149.7940903689166,0.0,0.0946486890316009,0,0,0
13984,512164.8292844909,2010-12-19 10:53:29,94.07680483048202,4,48,0.5047836899757385,4.199653148651123,42.20054475275549,41.40791242123908,169.45165803587395,149.7940903689166,-3.23295607813634e-05,0.0946486890316009,0,0,0
13985,512222.8905444482,2010-12-19 10:54:27,152.13806473262312,4,48,0.454574316740036,4.199653148651123,42.20824856449563,41.40791242123908,169.4840121355031,149.7940903689166,-3.23295607813634e-05,0.0946486890316009,0,0,0
13986,512316.27959575545,2010-12-19 10:56:00,245.52711603991472,4,48,0.4045455455780029,4.199653148651123,42.2193684727316,41.40791242123908,169.53071307465137,149.7940903689166,0.0,0.0946486890316009,0,0,0
13987,512433.9338828738,2010-12-19 10:57:58,363.1814031381939,4,48,0.3545167744159698,4.199653148651123,42.23175787971636,41.40791242123908,169.58274563331867,149.7940903689166,-3.23295607813634e-05,0.0946486890316009,0,0,0
13988,512574.90027091367,2010-12-19 11:00:19,504.1477912031093,4,48,0.3043074011802673,4.199814796447754,42.2446447603743,41.40791242123908,169.63686745230032,149.7940903689166,0.0,0.0946486890316009,0,0,0
13989,512744.1474060549,2010-12-19 11:03:08,673.3949263444032,4,48,0.2542786300182342,4.199814796447754,42.25775673256219,41.40791242123908,169.6919345128714,149.7940903689166,3.23295607813634e-05,0.0946486890316009,0,0,0
13990,512954.95635765296,2010-12-19 11:06:39,884.2038779223685,4,48,0.2042498439550399,4.199814796447754,42.27114016683245,41.40791242123908,169.74814165309078,149.7940903689166,0.0,0.0946486890316009,0,0,0
13991,513236.4360127284,2010-12-19 11:11:20,1165.6835330129206,4,48,0.1542210727930069,4.199653148651123,42.285074413329504,41.40791242123908,169.80666210088577,149.7940903689166,-3.23295607813634e-05,0.0946486890316009,0,0,0
13992,513670.31935486256,2010-12-19 11:18:34,1599.5668751520127,4,48,0.1041923090815544,4.199653148651123,42.300438462716535,41.40791242123908,169.8711873027961,149.7940903689166,-3.23295607813634e-05,0.0946486890316009,0,0,0
13993,514513.6802511711,2010-12-19 11:32:37,2442.927771525681,4,48,0.0541635416448116,4.199653148651123,42.318272930733,41.40791242123908,169.9460877142467,149.7940903689166,-3.23295607813634e-05,0.0946486890316009,0,0,0
13994,514634.50635217625,2010-12-19 11:34:38,2563.753872445663,4,48,0.0498289167881011,4.199653148651123,42.32003087867772,41.40791242123908,169.95347066461363,149.7940903689166,-3.23295607813634e-05,0.0946486890316009,0,0,0
13995,514664.50847017096,2010-12-19 11:35:08,30.015110107074143,5,48,0.0,4.191720962524414,42.32003087867772,41.40791242123908,169.95347066461363,149.7940903689166,-6.47544875391759e-05,0.0946486890316009,0,0,0
13996,514694.50797161646,2010-12-19 11:35:38,60.01461155259434,5,48,0.0,4.190425872802734,42.32003087867772,41.40791242123908,169.95347066461363,149.7940903689166,-3.23295607813634e-05,0.0946486890316009,0,0,0
13997,514694.6991454248,2010-12-19 11:35:39,0.187498282263941,6,48,-1.9243103452026844e-05,4.190263748168945,42.32003087867772,41.4079124222413,169.95347066461363,149.7940903731162,0.0,0.0962666198611259,0,0,0
13998,514699.52730786137,2010-12-19 11:35:43,5.015660708763731,6,48,0.0008838032954372,4.190425872802734,42.32003189492903,41.40791242232627,169.9534749232192,149.79409037347224,-3.23295607813634e-05,0.0962666198611259,0,0,0
13999,514729.5304277153,2010-12-19 11:36:14,30.01511016722382,7,48,-1.099568486213684,4.010246753692627,42.32003189492903,41.41708148258461,169.9534749232192,149.83106987496743,-0.0009713172912597,0.0962666198611259,0,0,0
14000,514759.5455438173,2010-12-19 11:36:44,60.03022626420361,7,48,-1.0997490882873535,3.981755018234253,42.32003189492903,41.4262504523609,169.9534749232192,149.86769965619257,-0.0006151676061563,0.0962666198611259,0,0,0
14001,514789.5606670821,2010-12-19 11:37:14,90.04534953403277,7,48,-1.099568486213684,3.9620048999786377,42.32003189492903,41.43541937635644,169.9534749232192,149.9041129364367,-0.0004532813909463,0.0962666198611259,0,0,0
14002,514819.5758109582,2010-12-19 11:37:44,120.06049339510244,7,48,-1.099568486213684,3.9464638233184814,42.32003189492903,41.44458830518237,169.9534749232192,149.9403668330385,-0.0003885269106831,0.0962666198611259,0,0,0
14003,514849.5908253471,2010-12-19 11:38:14,150.07550779902294,7,48,-1.0993878841400146,3.9333510398864746,42.32003189492903,41.45375719419632,169.9534749232192,149.97648950149085,-0.0003237724304199,0.0962666198611259,0,0,0
14004,514879.60601336806,2010-12-19 11:38:44,180.0906958049454,7,48,-1.0997490882873535,3.9210476875305176,42.32003189492903,41.462926195629024,169.9534749232192,150.01249697481313,-0.0003237724304199,0.0962666198611259,0,0,0
14005,514909.62117586046,2010-12-19 11:39:14,210.1058582973785,7,48,-1.099568486213684,3.90987777709961,42.32003189492903,41.47209514863549,169.9534749232192,150.04839763109638,-0.0002913951757363,0.0962666198611259,0,0,0
14006,514939.636269271,2010-12-19 11:39:44,240.1209517079039,7,48,-1.0997490882873535,3.899031400680542,42.32003189492903,41.48126399471708,169.9534749232192,150.08419704217133,-0.0002913951757363,0.0962666198611259,0,0,0
14007,514969.65137873153,2010-12-19 11:40:14,270.13606116335654,7,48,-1.0997490882873535,3.8888325691223145,42.32003189492903,41.49043292606295,169.9534749232192,150.11990011254818,-0.0002590179501567,0.0962666198611259,0,0,0
14008,514999.6664997006,2010-12-19 11:40:44,300.1511821474978,7,48,-1.0997490882873535,3.878633737564087,42.32003189492903,41.49960180781303,169.9534749232192,150.15550948218828,-0.0002913951757363,0.0962666198611259,0,0,0
14009,515029.6817948832,2010-12-19 11:41:14,330.1664774053125,7,48,-1.099568486213684,3.868920564651489,42.32003189492903,41.50877076972015,169.9534749232192,150.19102799726474,-0.0002266406954731,0.0962666198611259,0,0,0
14010,515059.69862690027,2010-12-19 11:41:44,360.1833094222932,7,48,-1.0997490882873535,3.859207391738892,42.32003189492903,41.51794019012685,169.9534749232192,150.22645950184338,-0.0002590179501567,0.0962666198611259,0,0,0
14011,515089.7119604915,2010-12-19 11:42:14,390.1966430286135,7,48,-1.0997490882873535,3.849979877471924,42.32003189492903,41.52710847931387,169.9534749232192,150.2617996799651,-0.0002266406954731,0.0962666198611259,0,0,0
14012,515119.7270073862,2010-12-19 11:42:44,420.21168981812434,7,48,-1.0997490882873535,3.840590476989746,42.32003189492903,41.53627733536776,169.9534749232192,150.29705653306314,-0.0002590179501567,0.0962666198611259,0,0,0
14013,515149.74511516286,2010-12-19 11:43:14,450.22979770004594,7,48,-1.0997490882873535,3.8318488597869873,42.32003189492903,41.54544715049293,169.9534749232192,150.33223374686412,-0.0001942634553415,0.0962666198611259,0,0,0
14014,515179.7574038289,2010-12-19 11:43:44,480.2420862658231,7,48,-1.0997490882873535,3.82294511795044,42.32003189492903,41.55461506450272,169.9534749232192,150.36732214348498,-0.0002590179501567,0.0962666198611259,0,0,0
14015,515209.7725024123,2010-12-19 11:44:14,510.2571848442085,7,48,-1.0997490882873535,3.814365148544312,42.32003189492903,41.56378394239803,169.9534749232192,150.40233434032302,-0.0001942634553415,0.0962666198611259,0,0,0
14016,515239.7876443336,2010-12-19 11:44:44,540.2723268356256,7,48,-1.099568486213684,3.8059470653533936,42.32003189492903,41.57295274493959,169.9534749232192,150.43726774405025,-0.0001618862152099,0.0962666198611259,0,0,0
14017,515269.8026193946,2010-12-19 11:45:14,570.2873018415056,7,48,-1.0997490882873535,3.797528982162476,42.32003189492903,41.582121547540105,169.9534749232192,150.47212481462736,-0.0002266406954731,0.0962666198611259,0,0,0
14018,515299.81800646585,2010-12-19 11:45:44,600.3026889178069,7,48,-1.099568486213684,3.7897584438323975,42.32003189492903,41.59129047195719,169.9534749232192,150.50690795809749,-0.0001942634553415,0.0962666198611259,0,0,0
14019,515329.8328646911,2010-12-19 11:46:14,630.3175471230331,7,48,-1.099929690361023,3.7816641330718994,42.32003189492903,41.60045921883474,169.9534749232192,150.54161779553513,-0.0002266406954731,0.0962666198611259,0,0,0
14020,515359.8480172187,2010-12-19 11:46:44,660.3326997559311,7,48,-1.0997490882873535,3.7740554809570312,42.32003189492903,41.60962806662023,169.9534749232192,150.57625730946478,-0.0002590179501567,0.0962666198611259,0,0,0
14021,515389.8632309437,2010-12-19 11:47:14,690.3479133956422,7,48,-1.099568486213684,3.766770601272583,42.32003189492903,41.61879689359614,169.9534749232192,150.61082769391592,-0.0001618862152099,0.0962666198611259,0,0,0
14022,515419.87825438014,2010-12-19 11:47:44,720.3629368270273,7,48,-1.0997490882873535,3.759323835372925,42.32003189492903,41.62796573309589,169.9534749232192,150.64533023742112,-0.0001618862152099,0.0962666198611259,0,0,0
14023,515449.893370036,2010-12-19 11:48:14,750.3780524728845,7,48,-1.099929690361023,3.7522010803222656,42.32003189492903,41.63713465770367,169.9534749232192,150.67976696968026,-0.0002265930233988,0.0962666198611259,0,0,0
14024,515479.9084986141,2010-12-19 11:48:44,780.3931810509229,7,48,-1.0997490882873535,3.745239973068237,42.32003189492903,41.64630353758941,169.9534749232192,150.7141392769589,-0.0001942634553415,0.0962666198611259,0,0,0
14025,515509.9235959594,2010-12-19 11:49:14,810.4082783912273,7,48,-1.0993878841400146,3.738440752029419,42.32003189492903,41.6554723968981,169.9534749232192,150.74844825775472,-0.0001942634553415,0.0962666198611259,0,0,0
14026,515539.9387314746,2010-12-19 11:49:44,840.4234139215663,7,48,-1.0997490882873535,3.7318034172058105,42.32003189492903,41.66464123051145,169.9534749232192,150.7826952171365,-0.0001618862152099,0.0962666198611259,0,0,0
14027,515569.9539703973,2010-12-19 11:50:14,870.4386528441929,7,48,-1.0997490882873535,3.725327968597412,42.32003189492903,41.67381010495798,169.9534749232192,150.81688207543095,-0.0001618862152099,0.0962666198611259,0,0,0
14028,515599.96895953326,2010-12-19 11:50:44,900.4536419651981,7,48,-1.0997490882873535,3.7188525199890137,42.32003189492903,41.68297888176293,169.9534749232192,150.8510093699361,-0.0001618862152099,0.0962666198611259,0,0,0
14029,515629.9842094533,2010-12-19 11:51:14,930.4688919002286,7,48,-1.099568486213684,3.712700843811035,42.32003189492903,41.6921478118752,169.9534749232192,150.88507907927303,-0.0001618862152099,0.0962666198611259,0,0,0
14030,515660.0010471444,2010-12-19 11:51:44,960.4857296665164,7,48,-1.099568486213684,3.7065491676330566,42.32003189492903,41.70131716477552,169.9534749232192,150.91909318521516,-0.0001618862152099,0.0962666198611259,0,0,0
14031,515690.0146836194,2010-12-19 11:52:14,990.4993660512891,7,48,-1.0997490882873535,3.700397491455078,42.32003189492903,41.71048557421518,169.9534749232192,150.953047565964,-0.0001295089750783,0.0962666198611259,0,0,0
14032,515720.0296938128,2010-12-19 11:52:44,1020.5143763399692,7,48,-1.0997490882873535,3.6944077014923096,42.32003189492903,41.71965442433332,169.9534749232192,150.98694870202235,-0.0001618862152099,0.0962666198611259,0,0,0
14033,515750.04457326594,2010-12-19 11:53:14,1050.5292556978327,7,48,-1.0997490882873535,3.688579797744751,42.32003189492903,41.728823236986905,169.9534749232192,151.0207958378475,-0.0001618862152099,0.0962666198611259,0,0,0
14034,515780.05970874615,2010-12-19 11:53:44,1080.544391178047,7,48,-1.0997490882873535,3.6829137802124015,42.32003189492903,41.73799204311676,169.9534749232192,151.05458979635804,-0.0001295089750783,0.0962666198611259,0,0,0
14035,515810.074818001,2010-12-19 11:54:14,1110.5595004380132,7,48,-1.099568486213684,3.6772477626800537,42.32003189492903,41.74716091083113,169.9534749232192,151.08833165776053,-0.0001295089750783,0.0962666198611259,0,0,0
14036,515840.089935667,2010-12-19 11:54:44,1140.574618113922,7,48,-1.0997490882873535,3.671743869781494,42.32003189492903,41.75632981748968,169.9534749232192,151.12202254283574,-0.0001618385285837,0.0962666198611259,0,0,0
14037,515870.1051236077,2010-12-19 11:55:14,1170.5898060396448,7,48,-1.099568486213684,3.666401624679565,42.32003189492903,41.765498753654114,169.9534749232192,151.15566308021715,-9.713172767078504e-05,0.0962666198611259,0,0,0
14038,515900.12020642695,2010-12-19 11:55:44,1200.604888858814,7,48,-1.099568486213684,3.6610593795776367,42.32003189492903,41.7746676445588,169.9534749232192,151.18925359223556,-9.713172767078504e-05,0.0962666198611259,0,0,0
14039,515930.13531165686,2010-12-19 11:56:14,1230.6199941037892,7,48,-1.099568486213684,3.655555248260498,42.32003189492903,41.7838365107089,169.9534749232192,151.22279498231714,-0.0001295089750783,0.0962666198611259,0,0,0
14040,515960.15052288055,2010-12-19 11:56:44,1260.6352054177123,7,48,-1.0997490882873535,3.6503748893737793,42.32003189492903,41.79300536840312,169.9534749232192,151.25628846856935,-0.0001295089750783,0.0962666198611259,0,0,0
14041,515990.165550763,2010-12-19 11:57:14,1290.6502331949118,7,48,-1.0997490882873535,3.645194530487061,42.32003189492903,41.802174191346296,169.9534749232192,151.28973448938308,-0.0001295089750783,0.0962666198611259,0,0,0
14042,516020.1806985188,2010-12-19 11:57:44,1320.6653809657107,7,48,-1.099568486213684,3.640499830245972,42.32003189492903,41.811343012083405,169.9534749232192,151.32313442301736,-6.47544875391759e-05,0.0962666198611259,0,0,0
14043,516050.1957947112,2010-12-19 11:58:14,1350.680477158159,7,48,-1.0997490882873535,3.635481357574463,42.32003189492903,41.82051188949307,169.9534749232192,151.35648904699107,-9.713172767078504e-05,0.0962666198611259,0,0,0
14044,516080.21094071766,2010-12-19 11:58:44,1380.695623154542,7,48,-1.099568486213684,3.630786657333374,42.32003189492903,41.82968077321693,169.9534749232192,151.3897993942582,-0.0001295089750783,0.0962666198611259,0,0,0
14045,516110.2262592183,2010-12-19 11:59:14,1410.7109417203578,7,48,-1.099568486213684,3.625768184661865,42.32003189492903,41.83884970396516,169.9534749232192,151.4230665285009,-0.0001942634553415,0.0962666198611259,0,0,0
14046,516140.2415148626,2010-12-19 11:59:44,1440.7261973746206,7,48,-1.0997490882873535,3.6212353706359854,42.32003189492903,41.84801860358731,169.9534749232192,151.4562911638452,-0.0001618862152099,0.0962666198611259,0,0,0
14047,516170.2562836703,2010-12-19 12:00:14,1470.740966102185,7,48,-1.099568486213684,3.616864442825317,42.32003189492903,41.85718738008039,169.9534749232192,151.48947397497923,-0.0001295089750783,0.0962666198611259,0,0,0
14048,516200.27140383737,2010-12-19 12:00:44,1500.7560862843306,7,48,-1.0997490882873535,3.612493515014648,42.32003189492903,41.8663561946976,169.9534749232192,151.52261652002838,-9.713172767078504e-05,0.0962666198611259,0,0,0
14049,516230.28652504215,2010-12-19 12:01:14,1530.7712074890208,7,48,-1.099929690361023,3.60812258720398,42.32003189492903,41.87552507527948,169.9534749232192,151.55571985445624,-0.0001618862152099,0.0962666198611259,0,0,0
14050,516260.30352231534,2010-12-19 12:01:44,1560.7882048674971,7,48,-1.099929690361023,3.6040754318237305,42.32003189492903,41.88469454788754,169.9534749232192,151.58878686042473,-9.713172767078504e-05,0.0962666198611259,0,0,0
14051,516290.31680802745,2010-12-19 12:02:14,1590.8014904593354,7,48,-1.0997490882873535,3.600028276443481,42.32003189492903,41.89386285259847,169.9534749232192,151.6218123781537,-0.0001295089750783,0.0962666198611259,0,0,0
14052,516320.33189506206,2010-12-19 12:02:44,1620.8165774939948,7,48,-1.0997490882873535,3.5963048934936523,42.32003189492903,41.9030317336156,169.9534749232192,151.6548035326472,-6.47544875391759e-05,0.0962666198611259,0,0,0
14053,516350.3470145376,2010-12-19 12:03:14,1650.8316969894313,7,48,-1.0997490882873535,3.5924196243286133,42.32003189492903,41.91220066729103,169.9534749232192,151.68775942825144,-0.0001295089750783,0.0962666198611259,0,0,0
14054,516380.3622781666,2010-12-19 12:03:44,1680.846960603502,7,48,-1.0997490882873535,3.5886964797973637,42.32003189492903,41.92136958492234,169.9534749232192,151.72068082567583,-6.47544875391759e-05,0.0962666198611259,0,0,0
14055,516410.3772614982,2010-12-19 12:04:14,1710.8619439451247,7,48,-1.099929690361023,3.584973096847534,42.32003189492903,41.9305384023417,169.9534749232192,151.75356819169917,-0.0001295089750783,0.0962666198611259,0,0,0
14056,516440.3923817305,2010-12-19 12:04:44,1740.8770641773954,7,48,-1.0997490882873535,3.581573486328125,42.32003189492903,41.9397071754943,169.9534749232192,151.78642273583256,-9.713172767078504e-05,0.0962666198611259,0,0,0
14057,516470.40752187726,2010-12-19 12:05:14,1770.8922043091848,7,48,-1.0997490882873535,3.578011989593506,42.32003189492903,41.94887601683168,169.9534749232192,151.81924522367095,-6.47544875391759e-05,0.0962666198611259,0,0,0
14058,516500.4227003696,2010-12-19 12:05:45,1800.907382891657,7,48,-1.099568486213684,3.574774265289306,42.32003189492903,41.9580449533696,169.9534749232192,151.8520363369147,-9.713172767078504e-05,0.0962666198611259,0,0,0
14059,516530.4378712027,2010-12-19 12:06:15,1830.922553649659,7,48,-1.099568486213684,3.571374654769897,42.32003189492903,41.96721390598552,169.9534749232192,151.8847962947789,-3.237724376958795e-05,0.0962666198611259,0,0,0
14060,516560.45286956674,2010-12-19 12:06:45,1860.9375521038896,7,48,-1.0997490882873535,3.5678131580352783,42.32003189492903,41.97638272326632,169.9534749232192,151.91752477353108,-6.47544875391759e-05,0.0962666198611259,0,0,0
14061,516590.4679906913,2010-12-19 12:07:15,1890.952673143168,7,48,-1.099568486213684,3.564575433731079,42.32003189492903,41.985551653967214,169.9534749232192,151.95022267943318,-6.47544875391759e-05,0.0962666198611259,0,0,0
14062,516620.4831217755,2010-12-19 12:07:45,1920.9678042224305,7,48,-1.099929690361023,3.56133770942688,42.32003189492903,41.99472046795487,169.9534749232192,151.98288987089015,-9.713172767078504e-05,0.0962666198611259,0,0,0
14063,516650.49823771714,2010-12-19 12:08:15,1950.9829201640232,7,48,-1.099568486213684,3.5577762126922607,42.32003189492903,42.00388930917241,169.9534749232192,152.01552698572863,-0.0001295089750783,0.0962666198611259,0,0,0
14064,516680.51335770375,2010-12-19 12:08:45,1980.9980401506828,7,48,-1.099568486213684,3.554538488388061,42.32003189492903,42.01305817614821,169.9534749232192,152.04813379725056,-0.0001295089750783,0.0962666198611259,0,0,0
14065,516710.5284937604,2010-12-19 12:09:15,2011.013176192294,7,48,-1.099929690361023,3.5511388778686523,42.32003189492903,42.02222702943304,169.9534749232192,152.0807098884386,-9.713172767078504e-05,0.0962666198611259,0,0,0
14066,516740.5436118824,2010-12-19 12:09:45,2041.0282943293505,7,48,-1.099568486213684,3.547901153564453,42.32003189492903,42.03139592928069,169.9534749232192,152.11325508810253,-9.713172767078504e-05,0.0962666198611259,0,0,0
14067,516770.5587259995,2010-12-19 12:10:15,2071.043408431366,7,48,-1.0997490882873535,3.544339656829834,42.32003189492903,42.04056483193285,169.9534749232192,152.14576872192058,-9.713172767078504e-05,0.0962666198611259,0,0,0
14068,516800.5738321116,2010-12-19 12:10:45,2101.058514558536,7,48,-1.0997490882873535,3.540778160095215,42.32003189492903,42.049733931769424,169.9534749232192,152.1782507043557,-6.47544875391759e-05,0.0962666198611259,0,0,0
14069,516830.5891703664,2010-12-19 12:11:15,2131.0738528835213,7,48,-1.099929690361023,3.537216663360596,42.32003189492903,42.05890367913714,169.9534749232192,152.21070224143867,-0.0001295089750783,0.0962666198611259,0,0,0
14070,516860.6059842834,2010-12-19 12:11:45,2161.0906668255234,7,48,-1.099929690361023,3.5334932804107666,42.32003189492903,42.068073900033625,169.9534749232192,152.2431219229854,-0.0001295089750783,0.0962666198611259,0,0,0
14071,516890.6191909538,2010-12-19 12:12:15,2191.103873400732,7,48,-1.099929690361023,3.5296080112457275,42.32003189492903,42.07724297095839,169.9534749232192,152.27550324067667,-9.713172767078504e-05,0.0962666198611259,0,0,0
14072,516920.63433400285,2010-12-19 12:12:45,2221.119016434744,7,48,-1.099929690361023,3.5255608558654785,42.32003189492903,42.08641237369785,169.9534749232192,152.3078504695783,-0.0001618862152099,0.0962666198611259,0,0,0
14073,516950.6494219448,2010-12-19 12:13:15,2251.13410437666,7,48,-1.0997490882873535,3.5216755867004395,42.32003189492903,42.09558124563857,169.9534749232192,152.34015933417595,-9.713172767078504e-05,0.0962666198611259,0,0,0
14074,516980.66456184094,2010-12-19 12:13:45,2281.1492442929134,7,48,-1.0997490882873535,3.5174665451049805,42.32003189492903,42.10475008391698,169.9534749232192,152.37243066121613,-9.713172767078504e-05,0.0962666198611259,0,0,0
14075,517010.6796794016,2010-12-19 12:14:15,2311.1643618485227,7,48,-1.099568486213684,3.5130956172943115,42.32003189492903,42.11391895564604,169.9534749232192,152.40466285628793,-0.0001295089750783,0.0962666198611259,0,0,0
14076,517040.694785569,2010-12-19 12:14:45,2341.179468015793,7,48,-1.099929690361023,3.508563041687012,42.32003189492903,42.123087861357,169.9534749232192,152.43685424651557,-0.0001295089750783,0.0962666198611259,0,0,0
14077,517070.7128646792,2010-12-19 12:15:15,2371.197547221355,7,48,-1.0997490882873535,3.503706455230713,42.32003189492903,42.132257666220696,169.9534749232192,152.4690055947483,-0.0001618862152099,0.0962666198611259,0,0,0
14078,517100.72505754686,2010-12-19 12:15:45,2401.209739978716,7,48,-1.0997490882873535,3.498526096343994,42.32003189492903,42.141425768311485,169.9534749232192,152.50110495063456,-0.0001618862152099,0.0962666198611259,0,0,0
14079,517130.74031162215,2010-12-19 12:16:15,2431.2249940540496,7,48,-1.0997490882873535,3.492860078811645,42.32003189492903,42.1505947524215,169.9534749232192,152.5331582972636,-0.0001942634553415,0.0962666198611259,0,0,0
14080,517160.7552522776,2010-12-19 12:16:45,2461.2399347244877,7,48,-1.0997490882873535,3.486870288848877,42.32003189492903,42.15976362821935,169.9534749232192,152.565157769696,-0.0001618862152099,0.0962666198611259,0,0,0
14081,517190.77037275047,2010-12-19 12:17:15,2491.255055182319,7,48,-1.0997490882873535,3.4800710678100586,42.32003189492903,42.16893258127466,169.9534749232192,152.59709804535396,-0.0001942634553415,0.0962666198611259,0,0,0
14082,517220.785632966,2010-12-19 12:17:45,2521.27031541297,7,48,-1.0997490882873535,3.4723005294799805,42.32003189492903,42.178101527511146,169.9534749232192,152.62897110160648,-0.0001942634553415,0.0962666198611259,0,0,0
14083,517250.8009037379,2010-12-19 12:18:15,2551.285586245002,7,48,-1.099568486213684,3.4632349014282227,42.32003189492903,42.1872704345131,169.9534749232192,152.6607673211449,-0.0002590179501567,0.0962666198611259,0,0,0
14084,517280.8157419184,2010-12-19 12:18:45,2581.300424365247,7,48,-1.0997490882873535,3.452550411224365,42.32003189492903,42.19643923621067,169.9534749232192,152.69247364044224,-0.0003237724304199,0.0962666198611259,0,0,0
14085,517310.8309874825,2010-12-19 12:19:15,2611.315669914364,7,48,-1.099568486213684,3.4399232864379883,42.32003189492903,42.20560821254904,169.9534749232192,152.72407393096512,-0.0003885269106831,0.0962666198611259,0,0,0
14086,517340.8460229939,2010-12-19 12:19:45,2641.33070542581,7,48,-1.0997490882873535,3.424382448196411,42.32003189492903,42.21477706138749,169.9534749232192,152.75554478979848,-0.0004856586456298,0.0962666198611259,0,0,0
14087,517370.86111037945,2010-12-19 12:20:15,2671.34579282638,7,48,-1.0997490882873535,3.404632329940796,42.32003189492903,42.22394599416543,169.9534749232192,152.7868555781029,-0.0005827903514727,0.0962666198611259,0,0,0
14088,517400.87622906285,2010-12-19 12:20:45,2701.360911509796,7,48,-1.0997490882873535,3.379378080368042,42.32003189492903,42.2331149173029,169.9534749232192,152.81796172427457,-0.0007446765666827,0.0962666198611259,0,0,0
14089,517430.8913484932,2010-12-19 12:21:15,2731.3760309400705,7,48,-1.099568486213684,3.345705986022949,42.32003189492903,42.242283834634605,169.9534749232192,152.84879884594787,-0.0009713172912597,0.0962666198611259,0,0,0
14090,517460.9083459719,2010-12-19 12:21:45,2761.3930284037588,7,48,-1.099929690361023,3.2998921871185303,42.32003189492903,42.25145337899421,169.9534749232192,152.8792776833538,-0.0013922214275225,0.0962666198611259,0,0,0
14091,517490.92174397846,2010-12-19 12:22:15,2791.4064264103367,7,48,-1.0997490882873535,3.2377281188964844,42.32003189492903,42.26062177129474,169.9534749232192,152.90926310235977,-0.0018778800731524,0.0962666198611259,0,0,0
14092,517520.9367148942,2010-12-19 12:22:45,2821.4213973310507,7,48,-1.0997490882873535,3.1504716873168945,42.32003189492903,42.26979070632986,169.9534749232192,152.93857385580756,-0.0026873112656176,0.0962666198611259,0,0,0
14093,517550.9518693967,2010-12-19 12:23:15,2851.436551828589,7,48,-1.0997490882873535,3.020639419555664,42.32003189492903,42.27895968109664,169.9534749232192,152.96691027855007,-0.0042089940980076,0.0962666198611259,0,0,0
14094,517578.3107491166,2010-12-19 12:23:42,2878.795431548508,7,48,-1.0997490882873535,2.8205485343933105,42.32003189492903,42.28731724899048,169.9534749232192,152.991391210094,-0.0070906160399317,0.0962666198611259,0,0,0
14095,517591.2186933745,2010-12-19 12:23:55,2891.703375896558,7,48,-1.099929690361023,2.699458122253418,42.32003189492903,42.291260327715136,169.9534749232192,153.0022760784921,-0.0075762271881103,0.0962666198611259,0,0,0
14096,517651.221186234,2010-12-19 12:24:55,60.01461958257664,8,48,0.0,3.4094889163970947,42.32003189492903,42.291260327715136,169.9534749232192,153.0022760784921,0.0013598442310467,0.0962666198611259,0,0,0
14097,517651.41421702906,2010-12-19 12:24:56,0.186646241994502,9,48,-1.9243103452026844e-05,3.4099745750427246,42.32003189492903,42.291260328712816,169.9534749232192,153.00227608189417,0.0,0.0939245000481605,0,0,0
14098,517656.24238079385,2010-12-19 12:25:01,5.014810006824675,9,48,0.0008838032954372,3.4182307720184326,42.32003287257304,42.29126032879773,169.95347826167765,153.00227608218373,0.0011655807029455,0.0939245000481605,0,0,0
