Data_Point,Test_Time(s),Date_Time,Step_Time(s),Step_Index,Cycle_Index,Current(A),Voltage(V),Charge_Capacity(Ah),Discharge_Capacity(Ah),Charge_Energy(Wh),Discharge_Energy(Wh),dV/dt(V/s),Internal_Resistance(Ohm),Is_FC_Data,AC_Impedance(Ohm),ACI_Phase_Angle(Deg)
886,33165.91644340106,2010-12-13 21:49:13,30.015050042606024,1,4,0.0,3.469548463821411,2.686819221349268,2.678425619072593,10.816383033679296,9.664195619287508,0.0007446765666827,0.0956302732229232,0,0,0
887,33195.931442942994,2010-12-13 21:49:43,60.03004952439339,1,4,0.0,3.4939932823181152,2.686819221349268,2.678425619072593,10.816383033679296,9.664195619287508,0.0006151676061563,0.0956302732229232,0,0,0
888,33225.94643500131,2010-12-13 21:50:13,90.04504158270774,1,4,0.0,3.5122861862182617,2.686819221349268,2.678425619072593,10.816383033679296,9.664195619287508,0.0004208564641885,0.0956302732229232,0,0,0
889,33255.91456619316,2010-12-13 21:50:43,120.01317276954576,1,4,0.0,3.5265321731567383,2.686819221349268,2.678425619072593,10.816383033679296,9.664195619287508,0.0003237724304199,0.0956302732229232,0,0,0
890,33285.92920945671,2010-12-13 21:51:13,30.015229017979355,2,4,0.5501165986061096,3.674171924591065,2.691405762978896,2.678425619072593,10.83310150006697,9.664195619287508,0.0012626647949218,0.0956302732229232,0,0,0
891,33315.94406482488,2010-12-13 21:51:43,60.03008447637004,2,4,0.550297200679779,3.7112438678741455,2.695992625499269,2.678425619072593,10.850044910206734,9.664195619287508,0.0008741855854168,0.0956302732229232,0,0,0
892,33345.959032693,2010-12-13 21:52:13,90.04505225426348,2,4,0.5501165986061096,3.7371456623077393,2.700579849080988,2.678425619072593,10.867131783234736,9.664195619287508,0.0005827903514727,0.0956302732229232,0,0,0
893,33375.974165541666,2010-12-13 21:52:43,120.0601850878918,2,4,0.550297200679779,3.757057428359986,2.705167052367776,2.678425619072593,10.884322845255944,9.664195619287508,0.0004856586456298,0.0956302732229232,0,0,0
894,33405.989052378136,2010-12-13 21:53:13,150.07507193940305,2,4,0.5501165986061096,3.771141529083252,2.709754207595279,2.678425619072593,10.901591438906827,9.664195619287508,0.0003237724304199,0.0956302732229232,0,0,0
895,33436.00423734148,2010-12-13 21:53:43,180.0902568927292,2,4,0.550297200679779,3.78069281578064,2.714341379636244,2.678425619072593,10.918914127951153,9.664195619287508,0.0001942634553415,0.0956302732229232,0,0,0
896,33466.01911134603,2010-12-13 21:54:13,210.10513090228372,2,4,0.5499359965324402,3.787330150604248,2.718928561212517,2.678425619072593,10.936272998043322,9.664195619287508,0.0001618862152099,0.0956302732229232,0,0,0
897,33496.03409678287,2010-12-13 21:54:43,240.1201163441333,2,4,0.550297200679779,3.7928342819213863,2.723515751885938,2.678425619072593,10.953659184606884,9.664195619287508,0.0001295089750783,0.0956302732229232,0,0,0
898,33526.04911093616,2010-12-13 21:55:13,270.13513049743017,2,4,0.550297200679779,3.797852754592896,2.728102908935785,2.678425619072593,10.971068995574123,9.664195619287508,9.713172767078504e-05,0.0956302732229232,0,0,0
899,33556.06415261796,2010-12-13 21:55:43,300.1501721842431,2,4,0.550297200679779,3.8023855686187744,2.732690106694959,2.678425619072593,10.988501069709836,9.664195619287508,0.0001295089750783,0.0956302732229232,0,0,0
900,33586.07921202888,2010-12-13 21:56:13,330.16523168538635,2,4,0.550297200679779,3.807242155075073,2.737277309372861,2.678425619072593,11.005954086429412,9.664195619287508,0.0001618862152099,0.0956302732229232,0,0,0
901,33616.094229590664,2010-12-13 21:56:43,360.1802492421526,2,4,0.550297200679779,3.811289310455322,2.741864590378366,2.678425619072593,11.02342769282888,9.664195619287508,6.47544875391759e-05,0.0956302732229232,0,0,0
902,33646.109172621975,2010-12-13 21:57:13,390.19519218324064,2,4,0.5499359965324402,3.8153364658355713,2.746451780802777,2.678425619072593,11.04092060739071,9.664195619287508,6.47544875391759e-05,0.0956302732229232,0,0,0
903,33676.12421528622,2010-12-13 21:57:43,420.2102348474858,2,4,0.550297200679779,3.81970739364624,2.751038979000041,2.678425619072593,11.058432602750168,9.664195619287508,9.713172767078504e-05,0.0956302732229232,0,0,0
904,33706.13934830029,2010-12-13 21:58:13,450.2253679568002,2,4,0.5501165986061096,3.8235926628112793,2.75562620531977,2.678425619072593,11.075963161185568,9.664195619287508,9.713172767078504e-05,0.0956302732229232,0,0,0
905,33736.154219006625,2010-12-13 21:58:43,480.2402385678977,2,4,0.5501165986061096,3.827316045761109,2.760213349865186,2.678425619072593,11.093511385271905,9.664195619287508,6.47544875391759e-05,0.0956302732229232,0,0,0
906,33766.16923098952,2010-12-13 21:59:13,510.2552505507937,2,4,0.5501165986061096,3.831363201141357,2.764800526101793,2.678425619072593,11.111077414564647,9.664195619287508,0.0001295089750783,0.0956302732229232,0,0,0
907,33796.184262541115,2010-12-13 21:59:43,540.270282107398,2,4,0.550297200679779,3.8352482318878174,2.7693877583067,2.678425619072593,11.12866118493494,9.664195619287508,0.0001295089750783,0.0956302732229232,0,0,0
908,33826.199489584185,2010-12-13 22:00:13,570.2855092206376,2,4,0.550297200679779,3.8389716148376474,2.773974981146276,2.678425619072593,11.146262379654786,9.664195619287508,9.713172767078504e-05,0.0956302732229232,0,0,0
909,33856.21427450204,2010-12-13 22:00:43,600.3002940633037,2,4,0.5501165986061096,3.842694997787476,2.778562129808138,2.678425619072593,11.163880820737957,9.664195619287508,9.713172767078504e-05,0.0956302732229232,0,0,0
910,33886.22931389815,2010-12-13 22:01:13,630.3153334544038,2,4,0.5501165986061096,3.846580266952514,2.783149360067188,2.678425619072593,11.181516948244065,9.664195619287508,0.0001295089750783,0.0956302732229232,0,0,0
911,33916.2443099113,2010-12-13 22:01:43,660.3303294725721,2,4,0.550297200679779,3.8504655361175537,2.787736572409735,2.678425619072593,11.199170515465228,9.664195619287508,0.0001295089750783,0.0956302732229232,0,0,0
912,33946.25931449078,2010-12-13 22:02:13,690.3453340570574,2,4,0.5501165986061096,3.854027032852173,2.792323775155345,2.678425619072593,11.216841471781644,9.664195619287508,9.713172767078504e-05,0.0956302732229232,0,0,0
913,33976.274329210486,2010-12-13 22:02:43,720.3603487717513,2,4,0.550297200679779,3.857912302017212,2.796910956603999,2.678425619072593,11.234529761487002,9.664195619287508,9.713172767078504e-05,0.0956302732229232,0,0,0
914,34006.28934130867,2010-12-13 22:03:13,750.3753608749464,2,4,0.550297200679779,3.861635684967041,2.80149810435395,2.678425619072593,11.252235092330128,9.664195619287508,9.713172767078504e-05,0.0956302732229232,0,0,0
915,34036.304381541864,2010-12-13 22:03:43,780.3904011031298,2,4,0.5501165986061096,3.86519718170166,2.806085334198337,2.678425619072593,11.269957791110851,9.664195619287508,9.713172767078504e-05,0.0956302732229232,0,0,0
916,34066.31938802106,2010-12-13 22:04:13,810.4054075823299,2,4,0.5499359965324402,3.8687586784362793,2.810672515154495,2.678425619072593,11.287697004712989,9.664195619287508,6.47544875391759e-05,0.0956302732229232,0,0,0
917,34096.33453370166,2010-12-13 22:04:43,840.4205532478899,2,4,0.5504778623580933,3.872482061386109,2.815259770504452,2.678425619072593,11.305452829544809,9.664195619287508,6.47544875391759e-05,0.0956302732229232,0,0,0
918,34126.349404648594,2010-12-13 22:05:13,870.4354241948232,2,4,0.5501165986061096,3.8758816719055176,2.819846994290645,2.678425619072593,11.323224454621643,9.664195619287508,3.237724376958795e-05,0.0956302732229232,0,0,0
919,34156.364431097485,2010-12-13 22:05:43,900.4504507489792,2,4,0.550297200679779,3.879281282424927,2.824434213155343,2.678425619072593,11.341011553110132,9.664195619287508,6.47544875391759e-05,0.0956302732229232,0,0,0
920,34186.379444463826,2010-12-13 22:06:13,930.4654640100556,2,4,0.550297200679779,3.882357120513916,2.829021454964301,2.678425619072593,11.358813646839153,9.664195619287508,9.713172767078504e-05,0.0956302732229232,0,0,0
921,34216.394446486935,2010-12-13 22:06:43,960.4804660482044,2,4,0.550297200679779,3.885432958602905,2.833608708609055,2.678425619072593,11.376630151608069,9.664195619287508,6.47544875391759e-05,0.0956302732229232,0,0,0
922,34246.409663409824,2010-12-13 22:07:13,990.4956830412603,2,4,0.5501165986061096,3.888346910476685,2.838195912761182,2.678425619072593,11.394460178519054,9.664195619287508,9.713172767078504e-05,0.0956302732229232,0,0,0
923,34276.42453701336,2010-12-13 22:07:43,1020.5105566448044,2,4,0.5501165986061096,3.890937089920044,2.842783063894105,2.678425619072593,11.412303001916753,9.664195619287508,3.237724376958795e-05,0.0956302732229232,0,0,0
924,34306.43951858057,2010-12-13 22:08:13,1050.5255381368252,2,4,0.550297200679779,3.8938510417938232,2.847370311583035,2.678425619072593,11.430158584502175,9.664195619287508,9.713172767078504e-05,0.0956302732229232,0,0,0
925,34336.4545100023,2010-12-13 22:08:43,1080.5405295635678,2,4,0.550297200679779,3.8961174488067623,2.851957574496892,2.678425619072593,11.448025676542452,9.664195619287508,6.47544875391759e-05,0.0956302732229232,0,0,0
926,34366.46952688238,2010-12-13 22:09:13,1110.5555465338748,2,4,0.550297200679779,3.898545742034912,2.856544735327454,2.678425619072593,11.465903382073012,9.664195619287508,6.47544875391759e-05,0.0956302732229232,0,0,0
927,34396.484566479,2010-12-13 22:09:43,1140.5705860402616,2,4,0.550297200679779,3.900812149047852,2.861131953936326,2.678425619072593,11.48379183300767,9.664195619287508,6.47544875391759e-05,0.0956302732229232,0,0,0
928,34426.4995654445,2010-12-13 22:10:13,1170.585585075939,2,4,0.550297200679779,3.902754783630371,2.865719175727853,2.678425619072593,11.50169029519383,9.664195619287508,3.237724376958795e-05,0.0956302732229232,0,0,0
929,34456.51459396855,2010-12-13 22:10:43,1200.6006136050094,2,4,0.550297200679779,3.905021190643311,2.87030646130534,2.678425619072593,11.519598571241303,9.664195619287508,9.713172767078504e-05,0.0956302732229232,0,0,0
930,34486.52959067343,2010-12-13 22:11:13,1230.6156102346995,2,4,0.550297200679779,3.90680193901062,2.874893684890276,2.678425619072593,11.53751560940729,9.664195619287508,6.47544875391759e-05,0.0956302732229232,0,0,0
931,34516.54463919726,2010-12-13 22:11:43,1260.6306587535137,2,4,0.5499359965324402,3.9085826873779297,2.879480963498678,2.678425619072593,11.55544169478062,9.664195619287508,3.237724376958795e-05,0.0956302732229232,0,0,0
932,34546.559628639065,2010-12-13 22:12:13,1290.645648200329,2,4,0.550297200679779,3.910525321960449,2.884068227895411,2.678425619072593,11.573376306490523,9.664195619287508,6.47544875391759e-05,0.0956302732229232,0,0,0
933,34576.574638907696,2010-12-13 22:12:43,1320.6606584689594,2,4,0.550297200679779,3.9124679565429688,2.888655406727053,2.678425619072593,11.59131884201192,9.664195619287508,6.47544875391759e-05,0.0956302732229232,0,0,0
934,34606.58966930141,2010-12-13 22:13:13,1350.6756889579067,2,4,0.550297200679779,3.914248466491699,2.893242610546567,2.678425619072593,11.609269616023196,9.664195619287508,9.713172767078504e-05,0.0956302732229232,0,0,0
935,34636.60468458251,2010-12-13 22:13:44,1380.690704143773,2,4,0.5501165986061096,3.915867328643799,2.897829805307603,2.678425619072593,11.627228325764976,9.664195619287508,6.47544875391759e-05,0.0956302732229232,0,0,0
936,34666.61982726564,2010-12-13 22:14:14,1410.7058468269115,2,4,0.5501165986061096,3.9174861907958975,2.90241704614433,2.678425619072593,11.645195071639778,9.664195619287508,3.237724376958795e-05,0.0956302732229232,0,0,0
937,34696.63470785157,2010-12-13 22:14:44,1440.7207274128314,2,4,0.5501165986061096,3.919105052947998,2.9070041980229,2.678425619072593,11.663169359099186,9.664195619287508,3.237724376958795e-05,0.0956302732229232,0,0,0
938,34726.64986245937,2010-12-13 22:15:14,1470.7358820056063,2,4,0.5501165986061096,3.920885801315308,2.911591432904593,2.678425619072593,11.681151820727488,9.664195619287508,3.237724376958795e-05,0.0956302732229232,0,0,0
939,34756.66487561018,2010-12-13 22:15:44,1500.7508951764585,2,4,0.550297200679779,3.922666549682617,2.916178642167604,2.678425619072593,11.69914191387982,9.664195619287508,6.47544875391759e-05,0.0956302732229232,0,0,0
940,34786.67975167986,2010-12-13 22:16:14,1530.7657712461394,2,4,0.5501165986061096,3.924285411834717,2.920765830446138,2.678425619072593,11.717139735179671,9.664195619287508,3.237724376958795e-05,0.0956302732229232,0,0,0
941,34816.69478980782,2010-12-13 22:16:44,1560.7808094292334,2,4,0.5501165986061096,3.9260661602020255,2.925353071526234,2.678425619072593,11.735145485485324,9.664195619287508,3.237724376958795e-05,0.0956302732229232,0,0,0
942,34846.70979037731,2010-12-13 22:17:14,1590.795809938578,2,4,0.5501165986061096,3.927685022354126,2.929940286359969,2.678425619072593,11.753158709492425,9.664195619287508,6.47544875391759e-05,0.0956302732229232,0,0,0
943,34876.72482029483,2010-12-13 22:17:44,1620.8108398561037,2,4,0.5501165986061096,3.929465770721436,2.934527466271477,2.678425619072593,11.77117948307376,9.664195619287508,6.47544875391759e-05,0.0956302732229232,0,0,0
944,34906.739827500845,2010-12-13 22:18:14,1650.8258470621122,2,4,0.550297200679779,3.931084632873535,2.939114687148964,2.678425619072593,11.789208135432784,9.664195619287508,3.237724376958795e-05,0.0956302732229232,0,0,0
945,34936.75485575924,2010-12-13 22:18:44,1680.8408753154968,2,4,0.550297200679779,3.9327034950256343,2.943701926676529,2.678425619072593,11.807244451526095,9.664195619287508,6.47544875391759e-05,0.0956302732229232,0,0,0
946,34966.76980568772,2010-12-13 22:19:14,1710.8558252539974,2,4,0.5501165986061096,3.9343223571777344,2.948289153908326,2.678425619072593,11.825288468888232,9.664195619287508,3.237724376958795e-05,0.0956302732229232,0,0,0
947,34996.784861870605,2010-12-13 22:19:44,1740.870881436883,2,4,0.550297200679779,3.936103105545044,2.952876397623803,2.678425619072593,11.843340254063222,9.664195619287508,3.237724376958795e-05,0.0956302732229232,0,0,0
948,35026.79986706661,2010-12-13 22:20:14,1770.885886627878,2,4,0.5501165986061096,3.937721967697144,2.957463587734317,2.678425619072593,11.861399361688717,9.664195619287508,6.47544875391759e-05,0.0956302732229232,0,0,0
949,35056.81489143032,2010-12-13 22:20:44,1800.9009109915828,2,4,0.550297200679779,3.939340829849243,2.962050749567921,2.678425619072593,11.879466150868222,9.664195619287508,0.0,0.0956302732229232,0,0,0
950,35086.82990063129,2010-12-13 22:21:14,1830.915920187544,2,4,0.5501165986061096,3.940959692001343,2.966637903257831,2.678425619072593,11.897540641458711,9.664195619287508,0.0,0.0956302732229232,0,0,0
951,35116.84492963654,2010-12-13 22:21:44,1860.930949202824,2,4,0.550297200679779,3.9429023265838623,2.971225156990175,2.678425619072593,11.91562317543112,9.664195619287508,6.47544875391759e-05,0.0956302732229232,0,0,0
952,35146.85993902799,2010-12-13 22:22:14,1890.9459585842465,2,4,0.5501165986061096,3.944359302520752,2.975812385610328,2.678425619072593,11.933713327699197,9.664195619287508,3.237724376958795e-05,0.0956302732229232,0,0,0
953,35176.87493166775,2010-12-13 22:22:44,1920.96095122902,2,4,0.550297200679779,3.946301937103272,2.980399648579913,2.678425619072593,11.951811394983457,9.664195619287508,6.47544875391759e-05,0.0956302732229232,0,0,0
954,35206.89016690621,2010-12-13 22:23:14,1950.976186462466,2,4,0.550297200679779,3.947920799255371,2.984987018167268,2.678425619072593,11.969917539600829,9.664195619287508,9.713172767078504e-05,0.0956302732229232,0,0,0
955,35236.90503789826,2010-12-13 22:23:44,1980.9910575798235,2,4,0.5501165986061096,3.949539661407471,2.989574300278902,2.678425619072593,11.98803107551572,9.664195619287508,3.237724376958795e-05,0.0956302732229232,0,0,0
956,35266.92002449799,2010-12-13 22:24:14,2011.0060441494795,2,4,0.550297200679779,3.9511585235595694,2.99416153067194,2.678425619072593,12.006152115597796,9.664195619287508,3.237724376958795e-05,0.0956302732229232,0,0,0
957,35296.935010190464,2010-12-13 22:24:44,2041.0210297517283,2,4,0.550297200679779,3.95293927192688,2.998748748765182,2.678425619072593,12.02428083956738,9.664195619287508,6.47544875391759e-05,0.0956302732229232,0,0,0
958,35326.95003307048,2010-12-13 22:25:14,2071.036052721966,2,4,0.550297200679779,3.95455813407898,3.003335951431416,2.678425619072593,12.042417311996344,9.664195619287508,6.47544875391759e-05,0.0956302732229232,0,0,0
959,35356.96523510631,2010-12-13 22:25:44,2101.0512547628136,2,4,0.5504778623580933,3.956338882446289,3.007923237470662,2.678425619072593,12.060561936274777,9.664195619287508,6.47544875391759e-05,0.0956302732229232,0,0,0
960,35386.98018469394,2010-12-13 22:26:14,2131.066204255204,2,4,0.550297200679779,3.9579577445983887,3.012510540748294,2.678425619072593,12.07871433567126,9.664195619287508,3.237724376958795e-05,0.0956302732229232,0,0,0
961,35416.99507476346,2010-12-13 22:26:44,2161.0810943146985,2,4,0.5501165986061096,3.959738492965698,3.01709770867359,2.678425619072593,12.096874023044432,9.664195619287508,9.713172767078504e-05,0.0956302732229232,0,0,0
962,35447.01010162839,2010-12-13 22:27:14,2191.096121189653,2,4,0.5501165986061096,3.961357355117798,3.021684972341791,2.678425619072593,12.115041895677631,9.664195619287508,6.47544875391759e-05,0.0956302732229232,0,0,0
963,35477.02515595665,2010-12-13 22:27:44,2221.111175517924,2,4,0.550297200679779,3.9629762172698975,3.026272239810124,2.678425619072593,12.133217643176778,9.664195619287508,3.237724376958795e-05,0.0956302732229232,0,0,0
964,35507.04013960905,2010-12-13 22:28:14,2251.12615917032,2,4,0.550297200679779,3.964756965637207,3.03085945303089,2.678425619072593,12.151401094525196,9.664195619287508,3.237724376958795e-05,0.0956302732229232,0,0,0
965,35537.05519481952,2010-12-13 22:28:44,2281.1412145010854,2,4,0.5501165986061096,3.9665377140045166,3.035446736288265,2.678425619072593,12.169592789468007,9.664195619287508,6.47544875391759e-05,0.0956302732229232,0,0,0
966,35567.070201268645,2010-12-13 22:29:14,2311.156220824899,2,4,0.5501165986061096,3.968156576156616,3.040034054839793,2.678425619072593,12.18779257272712,9.664195619287508,3.237724376958795e-05,0.0956302732229232,0,0,0
967,35597.08521315631,2010-12-13 22:29:44,2341.171232707545,2,4,0.5501165986061096,3.969775438308716,3.044621332622311,2.678425619072593,12.206000217696351,9.664195619287508,0.0,0.0956302732229232,0,0,0
968,35627.100483983326,2010-12-13 22:30:14,2371.1865035295523,2,4,0.5501165986061096,3.971879959106445,3.049208711864999,2.678425619072593,12.224216370148216,9.664195619287508,6.47544875391759e-05,0.0956302732229232,0,0,0
969,35657.11536637875,2010-12-13 22:30:44,2401.201385945025,2,4,0.550297200679779,3.973660707473755,3.053795972982619,2.678425619072593,12.242440133943042,9.664195619287508,6.47544875391759e-05,0.0956302732229232,0,0,0
970,35687.13025537058,2010-12-13 22:31:14,2431.216274931849,2,4,0.5501165986061096,3.975441455841065,3.058383237933112,2.678425619072593,12.260672080478976,9.664195619287508,6.47544875391759e-05,0.0956302732229232,0,0,0
971,35717.145287338215,2010-12-13 22:31:44,2461.2313068994767,2,4,0.5506584644317627,3.977222204208374,3.06297056750557,2.678425619072593,12.27891252066146,9.664195619287508,6.47544875391759e-05,0.0956302732229232,0,0,0
972,35747.16052529844,2010-12-13 22:32:14,2491.246544914846,2,4,0.550297200679779,3.979002952575684,3.067557856851397,2.678425619072593,12.29716060998436,9.664195619287508,6.47544875391759e-05,0.0956302732229232,0,0,0
973,35777.17528696844,2010-12-13 22:32:44,2521.2613065297105,2,4,0.5501165986061096,3.980783700942993,3.072145018348327,2.678425619072593,12.315417045652026,9.664195619287508,3.237724376958795e-05,0.0956302732229232,0,0,0
974,35807.19029101158,2010-12-13 22:33:14,2551.2763105678364,2,4,0.5501165986061096,3.982564449310303,3.076732132701887,2.678425619072593,12.333681741722687,9.664195619287508,0.0,0.0956302732229232,0,0,0
975,35837.20535629712,2010-12-13 22:33:44,2581.291375858386,2,4,0.5501165986061096,3.9845070838928223,3.081319295483866,2.678425619072593,12.351955047453911,9.664195619287508,6.47544875391759e-05,0.0956302732229232,0,0,0
976,35867.22051513546,2010-12-13 22:34:14,2611.3065347669008,2,4,0.550297200679779,3.986449718475342,3.085906514144326,2.678425619072593,12.370237188558235,9.664195619287508,6.47544875391759e-05,0.0956302732229232,0,0,0
977,35897.23538261376,2010-12-13 22:34:44,2641.321402175028,2,4,0.5501165986061096,3.9882304668426514,3.090493560981894,2.678425619072593,12.388527331592329,9.664195619287508,3.237724376958795e-05,0.0956302732229232,0,0,0
978,35927.25052702119,2010-12-13 22:35:14,2671.3365466726814,2,4,0.5501165986061096,3.990173101425171,3.095080701766825,2.678425619072593,12.406826557929648,9.664195619287508,3.237724376958795e-05,0.0956302732229232,0,0,0
979,35957.26544475455,2010-12-13 22:35:44,2701.351464315817,2,4,0.5501165986061096,3.9921157360076895,3.099667781826156,2.678425619072593,12.42513439485488,9.664195619287508,6.47544875391759e-05,0.0956302732229232,0,0,0
980,35987.28046404563,2010-12-13 22:36:14,2731.366483606899,2,4,0.550297200679779,3.994058132171631,3.104254922973636,2.678425619072593,12.443451388705377,9.664195619287508,0.0,0.0956302732229232,0,0,0
981,36017.295472359394,2010-12-13 22:36:44,2761.381491925677,2,4,0.5499359965324402,3.9960007667541504,3.108842156258274,2.678425619072593,12.461777721399615,9.664195619287508,6.47544875391759e-05,0.0956302732229232,0,0,0
982,36047.310490246986,2010-12-13 22:37:14,2791.3965098132658,2,4,0.550297200679779,3.99810528755188,3.113429338612864,2.678425619072593,12.480112913646613,9.664195619287508,6.47544875391759e-05,0.0956302732229232,0,0,0
983,36077.32551173855,2010-12-13 22:37:44,2821.4115312998115,2,4,0.5499359965324402,4.0000481605529785,3.118016553280114,2.678425619072593,12.498457301121933,9.664195619287508,3.24249267578125e-05,0.0956302732229232,0,0,0
984,36107.34065363973,2010-12-13 22:38:14,2851.4266731859666,2,4,0.5501165986061096,4.002152442932129,3.1226037402808,2.678425619072593,12.516810919041005,9.664195619287508,9.70840483205393e-05,0.0956302732229232,0,0,0
985,36137.35554782951,2010-12-13 22:38:44,2881.441567390776,2,4,0.550297200679779,4.004095077514648,3.127190940981492,2.678425619072593,12.535174022113344,9.664195619287508,6.47544875391759e-05,0.0956302732229232,0,0,0
986,36167.37077194529,2010-12-13 22:39:14,2911.456791581744,2,4,0.5501165986061096,4.006199836730957,3.131778197559274,2.678425619072593,12.553546858017446,9.664195619287508,3.24249267578125e-05,0.0956302732229232,0,0,0
987,36197.38561824589,2010-12-13 22:39:44,2941.471637802146,2,4,0.5501165986061096,4.008304119110107,3.136365380623376,2.678425619072593,12.571929042632352,9.664195619287508,3.23295607813634e-05,0.0956302732229232,0,0,0
988,36227.40061271019,2010-12-13 22:40:14,2971.486632276473,2,4,0.550297200679779,4.010408878326416,3.140952534539437,2.678425619072593,12.59032076545682,9.664195619287508,3.24249267578125e-05,0.0956302732229232,0,0,0
989,36257.41566393575,2010-12-13 22:40:44,3001.501683552147,2,4,0.550297200679779,4.012675285339356,3.145539698353354,2.678425619072593,12.608722357100415,9.664195619287508,6.47544875391759e-05,0.0956302732229232,0,0,0
990,36287.43064891143,2010-12-13 22:41:14,3031.516668472699,2,4,0.5501165986061096,4.014941692352295,3.150126924032497,2.678425619072593,12.627134160134494,9.664195619287508,9.71794142969884e-05,0.0956302732229232,0,0,0
991,36317.445682287565,2010-12-13 22:41:44,3061.5317018337937,2,4,0.5501165986061096,4.017045974731445,3.154714079610319,2.678425619072593,12.645555707203169,9.664195619287508,6.47544875391759e-05,0.0956302732229232,0,0,0
992,36347.46070259618,2010-12-13 22:42:14,3091.546722162458,2,4,0.5501165986061096,4.019150733947754,3.159301307721266,2.678425619072593,12.663987802100667,9.664195619287508,6.47544875391759e-05,0.0956302732229232,0,0,0
993,36377.47571914044,2010-12-13 22:42:44,3121.5617387016923,2,4,0.550297200679779,4.021578788757324,3.163888533987537,2.678425619072593,12.68243011727844,9.664195619287508,6.47544875391759e-05,0.0956302732229232,0,0,0
994,36407.49075768943,2010-12-13 22:43:14,3151.576777250697,2,4,0.5501165986061096,4.023683547973633,3.168475689081481,2.678425619072593,12.700882672762402,9.664195619287508,3.24249267578125e-05,0.0956302732229232,0,0,0
995,36437.50577657951,2010-12-13 22:43:44,3181.591796115719,2,4,0.5501165986061096,4.026111602783203,3.173062880433204,2.678425619072593,12.719345917663542,9.664195619287508,9.70840483205393e-05,0.0956302732229232,0,0,0
996,36467.520786983485,2010-12-13 22:44:14,3211.6068066149223,2,4,0.550297200679779,4.028540134429932,3.177650050228779,2.678425619072593,12.737819794967024,9.664195619287508,6.47544875391759e-05,0.0956302732229232,0,0,0
997,36497.53580257536,2010-12-13 22:44:44,3241.621822136625,2,4,0.550297200679779,4.030968189239502,3.182237223525611,2.678425619072593,12.756304385417303,9.664195619287508,9.70840483205393e-05,0.0956302732229232,0,0,0
998,36527.55082857815,2010-12-13 22:45:14,3271.6368481394084,2,4,0.5501165986061096,4.033234596252441,3.186824394808127,2.678425619072593,12.77479988268368,9.664195619287508,6.47544875391759e-05,0.0956302732229232,0,0,0
999,36557.56585994928,2010-12-13 22:45:45,3301.651879510551,2,4,0.5499359965324402,4.035662651062012,3.1914116158025,2.678425619072593,12.793306623547531,9.664195619287508,6.47544875391759e-05,0.0956302732229232,0,0,0
1000,36587.581008547146,2010-12-13 22:46:15,3331.6670281785828,2,4,0.5501165986061096,4.037929058074951,3.195998770493721,2.678425619072593,12.81182418548208,9.664195619287508,3.23295607813634e-05,0.0956302732229232,0,0,0
1001,36617.59607704067,2010-12-13 22:46:45,3361.6820965868915,2,4,0.5501165986061096,4.040519237518311,3.200585972771161,2.678425619072593,12.830353119331912,9.664195619287508,9.70840483205393e-05,0.0956302732229232,0,0,0
1002,36647.61107350996,2010-12-13 22:47:15,3391.6970931413944,2,4,0.5499359965324402,4.042947769165039,3.205173076965612,2.678425619072593,12.848892937932172,9.664195619287508,6.47544875391759e-05,0.0956302732229232,0,0,0
1003,36677.62609749773,2010-12-13 22:47:45,3421.7121171141266,2,4,0.5501165986061096,4.045375823974609,3.209760261760057,2.678425619072593,12.867444553529458,9.664195619287508,6.47544875391759e-05,0.0956302732229232,0,0,0
1004,36707.64096739204,2010-12-13 22:48:15,3451.726986953304,2,4,0.550297200679779,4.048128128051758,3.214347364526389,2.678425619072593,12.886007351066304,9.664195619287508,9.71794142969884e-05,0.0956302732229232,0,0,0
1005,36737.65598731468,2010-12-13 22:48:45,3481.742006875957,2,4,0.5501165986061096,4.050556182861328,3.218934578349503,2.678425619072593,12.90458232300436,9.664195619287508,6.47544875391759e-05,0.0956302732229232,0,0,0
1006,36767.67102711682,2010-12-13 22:49:15,3511.75704667808,2,4,0.550297200679779,4.053146362304688,3.223521793639998,2.678425619072593,12.923169118130028,9.664195619287508,6.47544875391759e-05,0.0956302732229232,0,0,0
1007,36797.68606151549,2010-12-13 22:49:45,3541.772081166981,2,4,0.5504778623580933,4.055736541748047,3.228109038968886,2.678425619072593,12.94176803555016,9.664195619287508,6.47544875391759e-05,0.0956302732229232,0,0,0
1008,36827.70120842915,2010-12-13 22:50:15,3571.787227995435,2,4,0.5501165986061096,4.058326721191406,3.232696268512347,2.678425619072593,12.960378859492184,9.664195619287508,6.47544875391759e-05,0.0956302732229232,0,0,0
1009,36857.71608605771,2010-12-13 22:50:45,3601.802105623995,2,4,0.550297200679779,4.060755252838135,3.23728352392662,2.678425619072593,12.97900182273249,9.664195619287508,3.24249267578125e-05,0.0956302732229232,0,0,0
1010,36887.73123724702,2010-12-13 22:51:15,3631.817256813301,2,4,0.550297200679779,4.063669204711914,3.241870718649589,2.678425619072593,12.997636471967445,9.664195619287508,6.47544875391759e-05,0.0956302732229232,0,0,0
1011,36917.74614296047,2010-12-13 22:51:45,3661.832162516724,2,4,0.5501165986061096,4.066421031951904,3.246457909996815,2.678425619072593,13.016283517117255,9.664195619287508,9.70840483205393e-05,0.0956302732229232,0,0,0
1012,36947.76115342458,2010-12-13 22:52:15,3691.847172985853,2,4,0.5501165986061096,4.069011211395264,3.251045088964455,2.678425619072593,13.03494295118332,9.664195619287508,3.23295607813634e-05,0.0956302732229232,0,0,0
1013,36977.776206750365,2010-12-13 22:52:45,3721.862226381804,2,4,0.5501165986061096,4.071763515472412,3.255632181006913,2.678425619072593,13.053614558720792,9.664195619287508,3.24249267578125e-05,0.0956302732229232,0,0,0
1014,37007.791206227135,2010-12-13 22:53:15,3751.877225788404,2,4,0.550297200679779,4.074677467346191,3.260219298414688,2.678425619072593,13.07229896292087,9.664195619287508,6.47544875391759e-05,0.0956302732229232,0,0,0
1015,37037.806382614144,2010-12-13 22:53:45,3781.8924021754137,2,4,0.5501165986061096,4.077591419219971,3.264806505229081,2.678425619072593,13.090996688584282,9.664195619287508,6.47544875391759e-05,0.0956302732229232,0,0,0
1016,37067.82125028292,2010-12-13 22:54:15,3811.907269829152,2,4,0.550297200679779,4.08050537109375,3.269393662407553,2.678425619072593,13.10970718776736,9.664195619287508,0.0001295089750783,0.0956302732229232,0,0,0
1017,37097.836276135335,2010-12-13 22:54:45,3841.9222956815615,2,4,0.550297200679779,4.08325719833374,3.273980855480517,2.678425619072593,13.128430919002822,9.664195619287508,6.47544875391759e-05,0.0956302732229232,0,0,0
1018,37127.85208135717,2010-12-13 22:55:15,3871.938101008664,2,4,0.5501165986061096,4.086009502410889,3.27856813312697,2.678425619072593,13.147168085136508,9.664195619287508,9.71794142969884e-05,0.0956302732229232,0,0,0
1019,37157.86639054118,2010-12-13 22:55:45,3901.952410192672,2,4,0.5501165986061096,4.088761329650879,3.283155202716726,2.678425619072593,13.165917724500154,9.664195619287508,6.47544875391759e-05,0.0956302732229232,0,0,0
1020,37187.88136308093,2010-12-13 22:56:15,3931.967382732415,2,4,0.5501165986061096,4.091675281524658,3.287742440829867,2.678425619072593,13.184681482876876,9.664195619287508,3.23295607813634e-05,0.0956302732229232,0,0,0
1021,37217.89638572535,2010-12-13 22:56:45,3961.982405286617,2,4,0.5501165986061096,4.094913005828857,3.29232960651142,2.678425619072593,13.203458487162749,9.664195619287508,6.47544875391759e-05,0.0956302732229232,0,0,0
1022,37247.9114575271,2010-12-13 22:57:15,3991.997477083358,2,4,0.5501165986061096,4.097665309906006,3.296916760183664,2.678425619072593,13.222249225250208,9.664195619287508,3.24249267578125e-05,0.0956302732229232,0,0,0
1023,37277.92655810547,2010-12-13 22:57:45,4022.012577671745,2,4,0.5501165986061096,4.100903034210205,3.301503915988226,2.678425619072593,13.241053752356397,9.664195619287508,9.71794142969884e-05,0.0956302732229232,0,0,0
1024,37307.94145054087,2010-12-13 22:58:15,4052.027470102139,2,4,0.550297200679779,4.103978633880615,3.306091083456773,2.678425619072593,13.259872206399091,9.664195619287508,9.70840483205393e-05,0.0956302732229232,0,0,0
1025,37337.95647236826,2010-12-13 22:58:45,4082.042491999707,2,4,0.5501165986061096,4.1068925857543945,3.31067829955154,2.678425619072593,13.278705016462991,9.664195619287508,3.23295607813634e-05,0.0956302732229232,0,0,0
1026,37367.97150765916,2010-12-13 22:59:15,4112.05752722043,2,4,0.550297200679779,4.110130310058594,3.315265508374457,2.678425619072593,13.297551927940756,9.664195619287508,0.0001295089750783,0.0956302732229232,0,0,0
1027,37397.986554178,2010-12-13 22:59:45,4142.072573739267,2,4,0.550297200679779,4.113206386566162,3.319852768786856,2.678425619072593,13.31641325714712,9.664195619287508,9.71794142969884e-05,0.0956302732229232,0,0,0
1028,37428.001560281264,2010-12-13 23:00:15,4172.087579842531,2,4,0.550297200679779,4.116443634033203,3.324439960505963,2.678425619072593,13.335288624708854,9.664195619287508,9.70840483205393e-05,0.0956302732229232,0,0,0
1029,37458.01672064841,2010-12-13 23:00:45,4202.102740209675,2,4,0.550297200679779,4.119519710540772,3.329027220856744,2.678425619072593,13.35417873969779,9.664195619287508,6.47544875391759e-05,0.0956302732229232,0,0,0
1030,37488.03160442727,2010-12-13 23:01:15,4232.117623993553,2,4,0.550297200679779,4.122757434844971,3.333614392788902,2.678425619072593,13.373083119694552,9.664195619287508,6.47544875391759e-05,0.0956302732229232,0,0,0
1031,37518.04665738714,2010-12-13 23:01:45,4262.132676948406,2,4,0.550297200679779,4.126156806945801,3.338201669745623,2.678425619072593,13.3920025987071,9.664195619287508,0.0001295089750783,0.0956302732229232,0,0,0
1032,37548.06179488237,2010-12-13 23:02:15,4292.147814443635,2,4,0.5499359965324402,4.129232883453369,3.34278890163797,2.678425619072593,13.410936820469386,9.664195619287508,6.47544875391759e-05,0.0956302732229232,0,0,0
1033,37578.07681365215,2010-12-13 23:02:45,4322.16283321342,2,4,0.550297200679779,4.132632255554199,3.347376098155277,2.678425619072593,13.42988592437004,9.664195619287508,9.70840483205393e-05,0.0956302732229232,0,0,0
1034,37608.091738954354,2010-12-13 23:03:15,4352.177758605839,2,4,0.550297200679779,4.135869979858398,3.351963353417487,2.678425619072593,13.448850328936208,9.664195619287508,0.0001295089750783,0.0956302732229232,0,0,0
1035,37638.10677349838,2010-12-13 23:03:45,4382.1927930696775,2,4,0.5501165986061096,4.139269828796387,3.356550611446917,2.678425619072593,13.46783000524592,9.664195619287508,0.0001295089750783,0.0956302732229232,0,0,0
1036,37668.12215812358,2010-12-13 23:04:15,4412.208177795129,2,4,0.550297200679779,4.142507553100586,3.36113791282243,2.678425619072593,13.486825266803391,9.664195619287508,9.71794142969884e-05,0.0956302732229232,0,0,0
1037,37698.13680929863,2010-12-13 23:04:45,4442.222828930067,2,4,0.5504778623580933,4.146069049835205,3.365725045060414,2.678425619072593,13.505835445234409,9.664195619287508,9.71794142969884e-05,0.0956302732229232,0,0,0
1038,37728.15182444941,2010-12-13 23:05:15,4472.237843995636,2,4,0.550297200679779,4.149306774139404,3.370312272891951,2.678425619072593,13.524861826695927,9.664195619287508,6.47544875391759e-05,0.0956302732229232,0,0,0
1039,37758.16687521883,2010-12-13 23:05:45,4502.252894780087,2,4,0.550297200679779,4.152868270874023,3.374899415505847,2.678425619072593,13.543903567909322,9.664195619287508,6.47544875391759e-05,0.0956302732229232,0,0,0
1040,37788.18201838315,2010-12-13 23:06:15,4532.268037944423,2,4,0.5501165986061096,4.1562676429748535,3.379486619146707,2.678425619072593,13.56296129671672,9.664195619287508,6.47544875391759e-05,0.0956302732229232,0,0,0
1041,37818.19691393632,2010-12-13 23:06:45,4562.282933482551,2,4,0.5501165986061096,4.159667491912842,3.384073794502716,2.678425619072593,13.582034835932095,9.664195619287508,6.47544875391759e-05,0.0956302732229232,0,0,0
1042,37848.21194939263,2010-12-13 23:07:15,4592.297968953897,2,4,0.550297200679779,4.163228988647461,3.388660988312681,2.678425619072593,13.601124465944126,9.664195619287508,9.71794142969884e-05,0.0956302732229232,0,0,0
1043,37878.22698510959,2010-12-13 23:07:45,4622.313004665842,2,4,0.5501165986061096,4.16679048538208,3.393248204541797,2.678425619072593,13.620230238191771,9.664195619287508,9.71794142969884e-05,0.0956302732229232,0,0,0
1044,37908.2419912329,2010-12-13 23:08:15,4652.328010794168,2,4,0.5501165986061096,4.170351982116699,3.397835442953106,2.678425619072593,13.639352301100075,9.664195619287508,9.71794142969884e-05,0.0956302732229232,0,0,0
1045,37938.25714190592,2010-12-13 23:08:45,4682.34316146719,2,4,0.5501165986061096,4.173913478851318,3.402422618031441,2.678425619072593,13.658490422329436,9.664195619287508,9.71794142969884e-05,0.0956302732229232,0,0,0
1046,37968.27204709807,2010-12-13 23:09:15,4712.358066659341,2,4,0.5501165986061096,4.1774749755859375,3.407009810796682,2.678425619072593,13.67764509605266,9.664195619287508,9.71794142969884e-05,0.0956302732229232,0,0,0
1047,37998.28708897036,2010-12-13 23:09:45,4742.373108536628,2,4,0.5501165986061096,4.181036472320557,3.411597054978482,2.678425619072593,13.696816588069405,9.664195619287508,9.71794142969884e-05,0.0956302732229232,0,0,0
1048,38028.30211358467,2010-12-13 23:10:15,4772.3881331509565,2,4,0.5499359965324402,4.184597969055176,3.416184304658935,2.678425619072593,13.716004755748816,9.664195619287508,6.47544875391759e-05,0.0956302732229232,0,0,0
1049,38058.31725940061,2010-12-13 23:10:45,4802.403278966891,2,4,0.550297200679779,4.188483238220215,3.42077155697641,2.678425619072593,13.73520957153608,9.664195619287508,9.71794142969884e-05,0.0956302732229232,0,0,0
1050,38088.33238259525,2010-12-13 23:11:15,4832.418402226695,2,4,0.550297200679779,4.192206382751465,3.425358802477692,2.678425619072593,13.754431240915345,9.664195619287508,0.0001295089750783,0.0956302732229232,0,0,0
1051,38118.3472085803,2010-12-13 23:11:45,4862.433228141567,2,4,0.5501165986061096,4.195767879486084,3.429945977610825,2.678425619072593,13.77366950444262,9.664195619287508,9.71794142969884e-05,0.0956302732229232,0,0,0
1052,38148.36222141532,2010-12-13 23:12:15,4892.44824096656,2,4,0.5501165986061096,4.199653148651123,3.434533190370636,2.678425619072593,13.792924968728164,9.664195619287508,0.0001619339018361,0.0956302732229232,0,0,0
1053,38151.97167993902,2010-12-13 23:12:19,4896.057699500296,2,4,0.550297200679779,4.200138568878174,3.43508481701394,2.678425619072593,13.79524166318534,9.664195619287508,0.0001295089750783,0.0956302732229232,0,0,0
1054,38181.98712675146,2010-12-13 23:12:49,30.015155154172117,3,4,0.0,4.108026027679443,3.43508481701394,2.678425619072593,13.79524166318534,9.664195619287508,-0.0004208564641885,0.0956302732229232,0,0,0
1055,38212.00229380524,2010-12-13 23:13:19,60.03032227813058,3,4,0.0,4.096370220184326,3.43508481701394,2.678425619072593,13.79524166318534,9.664195619287508,-0.0002590179501567,0.0956302732229232,0,0,0
1056,38242.01706092881,2010-12-13 23:13:49,90.045089396691,3,4,0.0,4.089408874511719,3.43508481701394,2.678425619072593,13.79524166318534,9.664195619287508,-0.0001942634553415,0.0956302732229232,0,0,0
1057,38271.98521303271,2010-12-13 23:14:19,120.01324142038072,3,4,0.0,4.08487606048584,3.43508481701394,2.678425619072593,13.79524166318534,9.664195619287508,-0.0001295089750783,0.0956302732229232,0,0,0
1058,38271.999887402686,2010-12-13 23:14:19,0.015757582137087,4,4,1.0014592409133911,4.199976921081543,3.435089239250369,2.678425619072593,13.795260236117745,9.664195619287508,3.24249267578125e-05,0.0956302732229232,0,0,0
1059,38272.89036726758,2010-12-13 23:14:20,0.906237366832078,4,4,0.9507079720497132,4.199814796447754,3.435329173466679,2.678425619072593,13.796267912352391,9.664195619287508,0.0,0.0956302732229232,0,0,0
1060,38274.93731507348,2010-12-13 23:14:22,2.953185187755684,4,4,0.9006792306900024,4.199814796447754,3.43585449119316,2.678425619072593,13.798474130591558,9.664195619287508,0.0,0.0956302732229232,0,0,0
1061,38278.04651566456,2010-12-13 23:14:25,6.062385778841964,4,4,0.8504698276519775,4.199814796447754,3.436609562201114,2.678425619072593,13.80164526919765,9.664195619287508,0.0,0.0956302732229232,0,0,0
1062,38282.29641324623,2010-12-13 23:14:30,10.312283355503888,4,4,0.8004410862922668,4.199814796447754,3.437582742233203,2.678425619072593,13.805732421183182,9.664195619287508,0.0,0.0956302732229232,0,0,0
1063,38287.93706006389,2010-12-13 23:14:35,15.952930158124255,4,4,0.7502316832542419,4.199814796447754,3.438795897412749,2.678425619072593,13.810827443458043,9.664195619287508,0.0,0.0956302732229232,0,0,0
1064,38295.20242310037,2010-12-13 23:14:42,23.218293209640912,4,4,0.7000223398208618,4.199814796447754,3.440257317854948,2.678425619072593,13.81696511483734,9.664195619287508,-3.24249267578125e-05,0.0956302732229232,0,0,0
1065,38305.07744259658,2010-12-13 23:14:52,33.093312796073306,4,4,0.6498129367828369,4.199814796447754,3.442105877877448,2.678425619072593,13.824728718758273,9.664195619287508,0.0,0.0956302732229232,0,0,0
1066,38318.7802036805,2010-12-13 23:15:06,46.7960738599515,4,4,0.599603533744812,4.199653148651123,3.444478937999475,2.678425619072593,13.834695131196948,9.664195619287508,-6.47544875391759e-05,0.0956302732229232,0,0,0
1067,38339.90466149128,2010-12-13 23:15:27,67.92053160055985,4,4,0.5495747923851013,4.199814796447754,3.447839782226851,2.678425619072593,13.848810077892828,9.664195619287508,0.0,0.0956302732229232,0,0,0
1068,38376.38843915378,2010-12-13 23:16:04,104.4043092530258,4,4,0.4995460212230682,4.199814796447754,3.45313256138866,2.678425619072593,13.871038797289406,9.664195619287508,0.0,0.0956302732229232,0,0,0
1069,38446.23066918196,2010-12-13 23:17:13,174.24653929123625,4,4,0.4495172500610351,4.199653148651123,3.462299099427254,2.678425619072593,13.909536612189694,9.664195619287508,-3.23295607813634e-05,0.0956302732229232,0,0,0
1070,38553.58793437226,2010-12-13 23:19:01,281.6038044865492,4,4,0.3994884788990021,4.199653148651123,3.474928990464108,2.678425619072593,13.962579916154192,9.664195619287508,-3.23295607813634e-05,0.0956302732229232,0,0,0
1071,38687.22590850597,2010-12-13 23:21:14,415.24177862025886,4,4,0.349459707736969,4.199653148651123,3.488815404004796,2.678425619072593,14.020900501784668,9.664195619287508,-3.23295607813634e-05,0.0956302732229232,0,0,0
1072,38848.25411673376,2010-12-13 23:23:56,576.2699868279913,4,4,0.299069732427597,4.199653148651123,3.503314593682436,2.678425619072593,14.081794547275392,9.664195619287508,-3.23295607813634e-05,0.0956302732229232,0,0,0
1073,39042.73448504529,2010-12-13 23:27:10,770.7503551294952,4,4,0.2490409463644027,4.199653148651123,3.518106058995066,2.678425619072593,14.143915861028098,9.664195619287508,-3.23295607813634e-05,0.0956302732229232,0,0,0
1074,39284.41726144386,2010-12-13 23:31:12,1012.4331315380967,4,4,0.1990121752023697,4.199814796447754,3.533101869423002,2.678425619072593,14.206895029250587,9.664195619287508,3.23295607813634e-05,0.0956302732229232,0,0,0
1075,39601.39556860475,2010-12-13 23:36:29,1329.411438769168,4,4,0.1489834040403366,4.199976921081543,3.548337431336831,2.678425619072593,14.270881596693757,9.664195619287508,3.24249267578125e-05,0.0956302732229232,0,0,0
1076,40074.74568002626,2010-12-13 23:44:22,1802.761550140542,4,4,0.0989546403288841,4.199814796447754,3.564419532467026,2.678425619072593,14.33842347853644,9.664195619287508,0.0,0.0956302732229232,0,0,0
1077,41017.43032566483,2010-12-14 00:00:05,2745.446195774099,4,4,0.0498289167881011,4.199814796447754,3.582993759911072,2.678425619072593,14.416431889226342,9.664195619287508,0.0,0.0956302732229232,0,0,0
1078,41047.44729368504,2010-12-14 00:00:35,30.015029070417537,5,4,0.0,4.191235065460205,3.582993759911072,2.678425619072593,14.416431889226342,9.664195619287508,-6.47544875391759e-05,0.0956302732229232,0,0,0
1079,41077.44673409368,2010-12-14 00:01:05,60.01446947403731,5,4,0.0,4.189939975738525,3.582993759911072,2.678425619072593,14.416431889226342,9.664195619287508,-3.24249267578125e-05,0.0956302732229232,0,0,0
1080,41077.633600119465,2010-12-14 00:01:05,0.187671322868831,6,4,-1.9243103452026844e-05,4.189939975738525,3.582993759911072,2.678425620075754,14.416431889226342,9.664195623490691,0.0,0.0986935049295425,0,0,0
1081,41082.461461702325,2010-12-14 00:01:10,5.015532830543699,6,4,0.0008838032954372,4.189939975738525,3.582994856306867,2.678425620158702,14.416436483137144,9.664195623838244,-3.24249267578125e-05,0.0986935049295425,0,0,0
1082,41112.47556715157,2010-12-14 00:01:40,30.014792341326302,7,4,-1.099568486213684,3.99875283241272,3.582994856306867,2.687593197841746,14.416436483137144,9.701074417312466,-0.0011008739238604,0.0986935049295425,0,0,0
1083,41142.49061069801,2010-12-14 00:02:10,60.02983579754234,7,4,-1.099568486213684,3.968480348587036,3.582994856306867,2.696760846926795,14.416436483137144,9.737585783684006,-0.0006475448608398,0.0986935049295425,0,0,0
1084,41172.50565288608,2010-12-14 00:02:40,90.04487798560264,7,4,-1.0997490882873535,3.9472732543945312,3.582994856306867,2.705928431753552,14.416436483137144,9.77386509213779,-0.0005180359003134,0.0986935049295425,0,0,0
1085,41202.52069529468,2010-12-14 00:03:10,120.05992039922424,7,4,-1.099568486213684,3.931084632873535,3.582994856306867,2.715095997150952,14.416436483137144,9.809974692002658,-0.0003885269106831,0.0986935049295425,0,0,0
1086,41232.53574893625,2010-12-14 00:03:40,150.07497403076115,7,4,-1.099568486213684,3.917324304580689,3.582994856306867,2.724263599533791,14.416436483137144,9.845948022474952,-0.0003237724304199,0.0986935049295425,0,0,0
1087,41262.55079199648,2010-12-14 00:04:10,180.0900171912413,7,4,-1.0993878841400146,3.905183076858521,3.582994856306867,2.7334312183921,14.416436483137144,9.881803397865486,-0.0003237724304199,0.0986935049295425,0,0,0
1088,41292.565873046246,2010-12-14 00:04:40,210.10509823599497,7,4,-1.0993878841400146,3.894012928009033,3.582994856306867,2.742598758481685,14.416436483137144,9.917551640934708,-0.0002590179501567,0.0986935049295425,0,0,0
1089,41322.58086016727,2010-12-14 00:05:10,240.12008526679853,7,4,-1.0997490882873535,3.883328437805176,3.582994856306867,2.751766315178193,14.416436483137144,9.953200629987066,-0.0002913951757363,0.0986935049295425,0,0,0
1090,41352.59589827017,2010-12-14 00:05:40,270.1351234398677,7,4,-1.099568486213684,3.873291492462158,3.582994856306867,2.760933882395524,14.416436483137144,9.988755003086064,-0.0002590179501567,0.0986935049295425,0,0,0
1091,41382.61094062364,2010-12-14 00:06:10,300.15016572316495,7,4,-1.099568486213684,3.863416433334351,3.582994856306867,2.770101456574857,14.416436483137144,10.02421843061429,-0.0002266406954731,0.0986935049295425,0,0,0
1092,41412.62599128278,2010-12-14 00:06:40,330.1652163823052,7,4,-1.0993878841400146,3.854027032852173,3.582994856306867,2.779269074430624,14.416436483137144,10.059593748031498,-0.0002590179501567,0.0986935049295425,0,0,0
1093,41442.64103873894,2010-12-14 00:07:10,360.1802638334625,7,4,-1.099568486213684,3.844799518585205,3.582994856306867,2.788436671689606,14.416436483137144,10.094882746329024,-0.0002590179501567,0.0986935049295425,0,0,0
1094,41472.6560669823,2010-12-14 00:07:40,390.1952920818344,7,4,-1.099568486213684,3.8357338905334473,3.582994856306867,2.797604314509704,14.416436483137144,10.130088048927188,-0.0001942634553415,0.0986935049295425,0,0,0
1095,41502.67130693249,2010-12-14 00:08:10,420.2105320320181,7,4,-1.0997490882873535,3.8268303871154794,3.582994856306867,2.806771974579192,14.416436483137144,10.16521189515514,-0.0002590179501567,0.0986935049295425,0,0,0
1096,41532.68628144715,2010-12-14 00:08:40,450.2255065316383,7,4,-1.0997490882873535,3.818250417709351,3.582994856306867,2.815939600248004,14.416436483137144,10.200255817271929,-0.0002590179501567,0.0986935049295425,0,0,0
1097,41562.701186930026,2010-12-14 00:09:10,480.2404120295504,7,4,-1.099568486213684,3.809670448303223,3.582994856306867,2.825107162071667,14.416436483137144,10.235221296993933,-0.0002266406954731,0.0986935049295425,0,0,0
1098,41592.716227188284,2010-12-14 00:09:40,510.2554522627461,7,4,-1.0993878841400146,3.801738023757935,3.582994856306867,2.834274723124192,14.416436483137144,10.270110323816647,-0.0001942634553415,0.0986935049295425,0,0,0
1099,41622.73128586237,2010-12-14 00:10:10,540.270510966906,7,4,-1.099568486213684,3.7934818267822266,3.582994856306867,2.843442316944136,14.416436483137144,10.304924878326094,-0.0002266406954731,0.0986935049295425,0,0,0
1100,41652.7463331431,2010-12-14 00:10:40,570.2855582426268,7,4,-1.099568486213684,3.7855494022369385,3.582994856306867,2.852609993654489,14.416436483137144,10.339666453893088,-0.0002266406954731,0.0986935049295425,0,0,0
1101,41682.76148943511,2010-12-14 00:11:10,600.3007145346304,7,4,-1.0997490882873535,3.7779407501220703,3.582994856306867,2.861777690176693,14.416436483137144,10.374337181528462,-0.0001942634553415,0.0986935049295425,0,0,0
1102,41712.776399850256,2010-12-14 00:11:40,630.3156249547914,7,4,-1.099568486213684,3.770493984222412,3.582994856306867,2.870945327223712,14.416436483137144,10.408938424814677,-0.0002266406954731,0.0986935049295425,0,0,0
1103,41742.7914391762,2010-12-14 00:12:10,660.3306642757169,7,4,-1.099568486213684,3.763209104537964,3.582994856306867,2.880112987510128,14.416436483137144,10.443472413372278,-0.0002590179501567,0.0986935049295425,0,0,0
1104,41772.8066208664,2010-12-14 00:12:40,690.3458459709354,7,4,-1.099568486213684,3.756247997283936,3.582994856306867,2.889280650130436,14.416436483137144,10.477939955305333,-0.0001618862152099,0.0986935049295425,0,0,0
1105,41802.82152411872,2010-12-14 00:13:10,720.360749218247,7,4,-1.099568486213684,3.749125242233277,3.582994856306867,2.898448246929059,14.416436483137144,10.51234204960199,-0.0001618862152099,0.0986935049295425,0,0,0
1106,41832.836566833095,2010-12-14 00:13:40,750.3757919075546,7,4,-1.099568486213684,3.742002248764038,3.582994856306867,2.907615952320282,14.416436483137144,10.546680779186694,-0.0001942634553415,0.0986935049295425,0,0,0
1107,41862.851626178846,2010-12-14 00:14:10,780.3908512733609,7,4,-1.0997490882873535,3.7353649139404297,3.582994856306867,2.916783681202211,14.416436483137144,10.580957130724366,-0.0001618862152099,0.0986935049295425,0,0,0
1108,41892.86678109744,2010-12-14 00:14:41,810.4060061969593,7,4,-1.099929690361023,3.7288894653320312,3.582994856306867,2.925951404538706,14.416436483137144,10.615172175975328,-0.0001618862152099,0.0986935049295425,0,0,0
1109,41922.881817862,2010-12-14 00:15:11,840.4210430316981,7,4,-1.0993878841400146,3.7225759029388423,3.582994856306867,2.935119068312929,14.416436483137144,10.64932825804795,-0.0001618862152099,0.0986935049295425,0,0,0
1110,41952.89673253775,2010-12-14 00:15:41,870.435957612212,7,4,-1.099568486213684,3.7162623405456543,3.582994856306867,2.944286705027682,14.416436483137144,10.683425831889409,-0.0001618862152099,0.0986935049295425,0,0,0
1111,41982.91177390878,2010-12-14 00:16:11,900.4509990083014,7,4,-1.099568486213684,3.709786891937256,3.582994856306867,2.953454398211398,14.416436483137144,10.717465766385745,-0.0002266406954731,0.0986935049295425,0,0,0
1112,42012.92683007663,2010-12-14 00:16:41,930.46605517615,7,4,-1.099568486213684,3.7037971019744873,3.582994856306867,2.962622081729331,14.416436483137144,10.751448813831503,-0.0001618862152099,0.0986935049295425,0,0,0
1113,42042.94185879116,2010-12-14 00:17:11,960.4810838906818,7,4,-1.0993878841400146,3.6979691982269287,3.582994856306867,2.971789766578259,14.416436483137144,10.785375836746256,-0.0001295089750783,0.0986935049295425,0,0,0
1114,42072.95694401632,2010-12-14 00:17:41,990.4961691108258,7,4,-1.0993878841400146,3.69181752204895,3.582994856306867,2.980957451405803,14.416436483137144,10.819248198119116,-0.0001618862152099,0.0986935049295425,0,0,0
1115,42102.97210039854,2010-12-14 00:18:11,1020.5113254830288,7,4,-1.099568486213684,3.685989618301392,3.582994856306867,2.990125187362346,14.416436483137144,10.853066528099133,-0.0001618862152099,0.0986935049295425,0,0,0
1116,42132.98703674823,2010-12-14 00:18:41,1050.5262619179266,7,4,-1.099568486213684,3.680161714553833,3.582994856306867,2.999292837293469,14.416436483137144,10.886831279956938,-0.0001295089750783,0.0986935049295425,0,0,0
1117,42163.002198173,2010-12-14 00:19:11,1080.5414233527276,7,4,-1.099568486213684,3.674495697021485,3.582994856306867,3.008460529311043,14.416436483137144,10.920543660525562,-0.0001295089750783,0.0986935049295425,0,0,0
1118,42193.01703912529,2010-12-14 00:19:41,1110.556264224821,7,4,-1.099568486213684,3.668991804122925,3.582994856306867,3.017628134572023,14.416436483137144,10.954204519009444,-0.0001295089750783,0.0986935049295425,0,0,0
1119,42223.032096496136,2010-12-14 00:20:11,1140.5713215906503,7,4,-1.099568486213684,3.663487672805786,3.582994856306867,3.026795796599889,14.416436483137144,10.987815443211314,-0.0001618862152099,0.0986935049295425,0,0,0
1120,42253.04716664377,2010-12-14 00:20:41,1170.5863917432998,7,4,-1.099568486213684,3.6581454277038574,3.582994856306867,3.035963479645304,14.416436483137144,11.021376697646003,-0.0001295089750783,0.0986935049295425,0,0,0
1121,42283.06219561394,2010-12-14 00:21:11,1200.601420713468,7,4,-1.099568486213684,3.6528031826019287,3.582994856306867,3.045131165031523,14.416436483137144,11.054889044801536,-0.0001295089750783,0.0986935049295425,0,0,0
1122,42313.07723263916,2010-12-14 00:21:41,1230.616457808855,7,4,-1.099929690361023,3.6474609375,3.582994856306867,3.054298859954665,14.416436483137144,11.08835309906453,-0.0001618862152099,0.0986935049295425,0,0,0
1123,42343.09229333327,2010-12-14 00:22:11,1260.631518523017,7,4,-1.099568486213684,3.642280578613281,3.582994856306867,3.063466487576455,14.416436483137144,11.121768766807447,-0.0001942634553415,0.0986935049295425,0,0,0
1124,42373.10745798107,2010-12-14 00:22:41,1290.6466830655515,7,4,-1.099568486213684,3.637262105941773,3.582994856306867,3.072634169077625,14.416436483137144,11.155137561440412,-0.0001295089750783,0.0986935049295425,0,0,0
1125,42403.12248118689,2010-12-14 00:23:11,1320.6617062763876,7,4,-1.099568486213684,3.632243633270264,3.582994856306867,3.081801830706707,14.416436483137144,11.18845997440664,-0.0001618862152099,0.0986935049295425,0,0,0
1126,42433.13739550174,2010-12-14 00:23:41,1350.6766206764526,7,4,-1.099568486213684,3.627387046813965,3.582994856306867,3.090969464603929,14.416436483137144,11.221736739921548,-9.713172767078504e-05,0.0986935049295425,0,0,0
1127,42463.15267258934,2010-12-14 00:24:11,1380.691897663802,7,4,-1.0993878841400146,3.622530460357666,3.582994856306867,3.100137153062574,14.416436483137144,11.25496918996896,-0.0001295089750783,0.0986935049295425,0,0,0
1128,42493.16756124535,2010-12-14 00:24:41,1410.7067864350904,7,4,-1.099568486213684,3.617835760116577,3.582994856306867,3.109304828780873,14.416436483137144,11.288157989458648,-0.0001295089750783,0.0986935049295425,0,0,0
1129,42523.18253406578,2010-12-14 00:25:11,1440.7217591653075,7,4,-1.099568486213684,3.613302946090698,3.582994856306867,3.118472409318402,14.416436483137144,11.321303799295642,-0.0001295089750783,0.0986935049295425,0,0,0
1130,42553.1975744694,2010-12-14 00:25:41,1470.7367995438651,7,4,-1.0993878841400146,3.6087701320648193,3.582994856306867,3.127640076463993,14.416436483137144,11.35440825757424,-9.713172767078504e-05,0.0986935049295425,0,0,0
1131,42583.21261443694,2010-12-14 00:26:11,1500.751839536462,7,4,-1.0993878841400146,3.6043992042541504,3.582994856306867,3.136807765141744,14.416436483137144,11.38747194927504,-9.713172767078504e-05,0.0986935049295425,0,0,0
1132,42613.227808853815,2010-12-14 00:26:41,1530.7670339533377,7,4,-1.099568486213684,3.600028276443481,3.582994856306867,3.145975462987535,14.416436483137144,11.42049580092945,-0.0001295089750783,0.0986935049295425,0,0,0
1133,42643.24270119899,2010-12-14 00:27:11,1560.78192629852,7,4,-1.0993878841400146,3.5958192348480225,3.582994856306867,3.155143073434759,14.416436483137144,11.453480362019748,-0.0001295089750783,0.0986935049295425,0,0,0
1134,42673.25783328577,2010-12-14 00:27:41,1590.797058455464,7,4,-1.0993878841400146,3.5917723178863525,3.582994856306867,3.164310745684827,14.416436483137144,11.486427301454036,-9.70840483205393e-05,0.0986935049295425,0,0,0
1135,42703.27280773025,2010-12-14 00:28:11,1620.8120328297723,7,4,-1.099568486213684,3.5880489349365234,3.582994856306867,3.173478452963901,14.416436483137144,11.519337244152055,-3.237724376958795e-05,0.0986935049295425,0,0,0
1136,42733.28775114752,2010-12-14 00:28:41,1650.8269762470454,7,4,-1.099568486213684,3.5840017795562744,3.582994856306867,3.182646135013689,14.416436483137144,11.552211124197834,-6.47544875391759e-05,0.0986935049295425,0,0,0
1137,42763.30291250713,2010-12-14 00:29:11,1680.842137681847,7,4,-1.0997490882873535,3.580116510391236,3.582994856306867,3.191813816558823,14.416436483137144,11.58505037814281,-0.0001295089750783,0.0986935049295425,0,0,0
1138,42793.318031772,2010-12-14 00:29:41,1710.8572568765353,7,4,-1.0997490882873535,3.5763931274414062,3.582994856306867,3.200981539674574,14.416436483137144,11.617855444845688,-0.0001295089750783,0.0986935049295425,0,0,0
1139,42823.33293356569,2010-12-14 00:30:11,1740.8721586652173,7,4,-1.099568486213684,3.572831630706787,3.582994856306867,3.210149167002979,14.416436483137144,11.650626580828202,-9.713172767078504e-05,0.0986935049295425,0,0,0
1140,42853.34814308014,2010-12-14 00:30:41,1770.8873682347996,7,4,-1.0997490882873535,3.569432020187378,3.582994856306867,3.219316918239777,14.416436483137144,11.683365640096286,-6.47544875391759e-05,0.0986935049295425,0,0,0
1141,42883.36316199027,2010-12-14 00:31:11,1800.9023871298964,7,4,-1.099568486213684,3.565870523452759,3.582994856306867,3.228484535935595,14.416436483137144,11.716072122719773,-9.713172767078504e-05,0.0986935049295425,0,0,0
1142,42913.37809746277,2010-12-14 00:31:41,1830.9173225372367,7,4,-1.099568486213684,3.5624709129333496,3.582994856306867,3.23765206585426,14.416436483137144,11.748746746579284,-0.0001295089750783,0.0986935049295425,0,0,0
1143,42943.39312015232,2010-12-14 00:32:11,1860.932345226776,7,4,-1.099568486213684,3.5592331886291504,3.582994856306867,3.246819646701461,14.416436483137144,11.781391131805057,-9.713172767078504e-05,0.0986935049295425,0,0,0
1144,42973.40817837528,2010-12-14 00:32:41,1890.9474034547509,7,4,-1.099568486213684,3.5556716918945312,3.582994856306867,3.255987263310221,14.416436483137144,11.814004808556492,-0.0001618862152099,0.0986935049295425,0,0,0
1145,43003.42343455084,2010-12-14 00:33:11,1920.9626597455976,7,4,-1.099568486213684,3.552433967590332,3.582994856306867,3.265154932527902,14.416436483137144,11.846588428657965,-9.713172767078504e-05,0.0986935049295425,0,0,0
1146,43033.43825364875,2010-12-14 00:33:41,1950.9774787232072,7,4,-1.0997490882873535,3.549196243286133,3.582994856306867,3.274322476695767,14.416436483137144,11.879141880247907,-9.713172767078504e-05,0.0986935049295425,0,0,0
1147,43063.4533221974,2010-12-14 00:34:11,1980.9925472718649,7,4,-1.099568486213684,3.546120405197144,3.582994856306867,3.28349007023452,14.416436483137144,11.911665569846928,-6.47544875391759e-05,0.0986935049295425,0,0,0
1148,43093.46835868126,2010-12-14 00:34:41,2011.0075837557304,7,4,-1.0993878841400146,3.5427207946777344,3.582994856306867,3.292657715133549,14.416436483137144,11.944159200967531,-0.0001295089750783,0.0986935049295425,0,0,0
1149,43123.48340537554,2010-12-14 00:35:11,2041.0226304700543,7,4,-1.099568486213684,3.539483070373535,3.582994856306867,3.301825273961012,14.416436483137144,11.97662247738718,-9.713172767078504e-05,0.0986935049295425,0,0,0
1150,43153.49842833576,2010-12-14 00:35:41,2071.037653410217,7,4,-1.0997490882873535,3.536083459854126,3.582994856306867,3.310992928055716,14.416436483137144,12.009055654712013,-0.0001295089750783,0.0986935049295425,0,0,0
1151,43183.513476132764,2010-12-14 00:36:11,2101.0527012122475,7,4,-1.099568486213684,3.532683849334717,3.582994856306867,3.320160557608708,14.416436483137144,12.041458150461889,-9.713172767078504e-05,0.0986935049295425,0,0,0
1152,43213.52853170916,2010-12-14 00:36:41,2131.0677567836115,7,4,-1.099568486213684,3.5294461250305176,3.582994856306867,3.329328144474074,14.416436483137144,12.073829853152764,-6.47544875391759e-05,0.0986935049295425,0,0,0
1153,43243.5435775914,2010-12-14 00:37:11,2161.082802746064,7,4,-1.099568486213684,3.5260465145111084,3.582994856306867,3.33849577544513,14.416436483137144,12.106170637618238,-6.47544875391759e-05,0.0986935049295425,0,0,0
1154,43273.55860817559,2010-12-14 00:37:41,2191.097833250049,7,4,-1.099568486213684,3.5224850177764893,3.582994856306867,3.34766340631559,14.416436483137144,12.13847962778839,-9.713172767078504e-05,0.0986935049295425,0,0,0
1155,43303.573661245726,2010-12-14 00:38:11,2221.1128863201893,7,4,-1.0993878841400146,3.51892352104187,3.582994856306867,3.356830934106891,14.416436483137144,12.170755653788314,-9.713172767078504e-05,0.0986935049295425,0,0,0
1156,43333.5887603855,2010-12-14 00:38:41,2251.127985560221,7,4,-1.0993878841400146,3.515362024307251,3.582994856306867,3.365998584512468,14.416436483137144,12.202999280623354,-6.47544875391759e-05,0.0986935049295425,0,0,0
1157,43363.60387634715,2010-12-14 00:39:11,2281.1431014316395,7,4,-1.0993878841400146,3.511476993560791,3.582994856306867,3.375166307470471,14.416436483137144,12.235209188785245,-9.70840483205393e-05,0.0986935049295425,0,0,0
1158,43393.618802416255,2010-12-14 00:39:41,2311.15802751578,7,4,-1.099568486213684,3.507429838180542,3.582994856306867,3.384333899811999,14.416436483137144,12.267383613090583,-0.0001618862152099,0.0986935049295425,0,0,0
1159,43423.634172209546,2010-12-14 00:40:11,2341.173397294036,7,4,-1.0997490882873535,3.503220796585083,3.582994856306867,3.393501656734089,14.416436483137144,12.299521731948028,-0.0001942634553415,0.0986935049295425,0,0,0
1160,43453.649475778046,2010-12-14 00:40:41,2371.188700972805,7,4,-1.099568486213684,3.499173641204834,3.582994856306867,3.402669361971301,14.416436483137144,12.331620906367675,-0.0001295089750783,0.0986935049295425,0,0,0
1161,43483.66391878005,2010-12-14 00:41:11,2401.203143944739,7,4,-1.099568486213684,3.494640827178955,3.582994856306867,3.411836831841435,14.416436483137144,12.363678927873636,-0.0001295089750783,0.0986935049295425,0,0,0
1162,43513.6789588328,2010-12-14 00:41:41,2431.218183927312,7,4,-1.0997490882873535,3.489784240722656,3.582994856306867,3.421004418267446,14.416436483137144,12.395694238108208,-0.0001295089750783,0.0986935049295425,0,0,0
1163,43543.6939752768,2010-12-14 00:42:11,2461.2332003713086,7,4,-1.0997490882873535,3.4844419956207275,3.582994856306867,3.430171993203071,14.416436483137144,12.427662979003404,-0.0001295089750783,0.0986935049295425,0,0,0
1164,43573.70910431097,2010-12-14 00:42:41,2491.248329410495,7,4,-1.099568486213684,3.478775978088379,3.582994856306867,3.439339562264479,14.416436483137144,12.459580881662998,-0.0001942634553415,0.0986935049295425,0,0,0
1165,43603.724147441375,2010-12-14 00:43:11,2521.2633725409,7,4,-1.099568486213684,3.4723005294799805,3.582994856306867,3.448507087409395,14.416436483137144,12.49144286786246,-0.0001942634553415,0.0986935049295425,0,0,0
1166,43633.7393238334,2010-12-14 00:43:41,2551.278548917884,7,4,-1.099568486213684,3.465177536010742,3.582994856306867,3.457674672800462,14.416436483137144,12.523243303996496,-0.0002266406954731,0.0986935049295425,0,0,0
1167,43663.75422776241,2010-12-14 00:44:11,2581.2934528619294,7,4,-1.099568486213684,3.456759452819824,3.582994856306867,3.466842228884298,14.416436483137144,12.55497318741964,-0.0002590179501567,0.0986935049295425,0,0,0
1168,43693.76939815952,2010-12-14 00:44:41,2611.3086232640453,7,4,-1.0997490882873535,3.4472081661224365,3.582994856306867,3.476009855282809,14.416436483137144,12.586621910085317,-0.0002913951757363,0.0986935049295425,0,0,0
1169,43723.78430101585,2010-12-14 00:45:11,2641.323526115372,7,4,-1.0993878841400146,3.436038017272949,3.582994856306867,3.48517732541752,14.416436483137144,12.618174693185278,-0.0003237724304199,0.0986935049295425,0,0,0
1170,43753.79936673747,2010-12-14 00:45:41,2671.3385918319814,7,4,-1.099568486213684,3.422439813613892,3.582994856306867,3.494344849938876,14.416436483137144,12.649614210395544,-0.0004209041653666,0.0986935049295425,0,0,0
1171,43783.81442722607,2010-12-14 00:46:11,2701.353652330607,7,4,-1.099568486213684,3.405603647232056,3.582994856306867,3.503512477693414,14.416436483137144,12.680915953637754,-0.0004856586456298,0.0986935049295425,0,0,0
1172,43813.82955570887,2010-12-14 00:46:42,2731.3687808936083,7,4,-1.0997490882873535,3.384396553039551,3.582994856306867,3.512680133772558,14.416436483137144,12.71204498405236,-0.0006151676061563,0.0986935049295425,0,0,0
1173,43843.84465660303,2010-12-14 00:47:12,2761.3838816875077,7,4,-1.099568486213684,3.3571996688842773,3.582994856306867,3.52184779519593,14.416436483137144,12.742953774684588,-0.0008094310760498,0.0986935049295425,0,0,0
1174,43873.85956866727,2010-12-14 00:47:42,2791.3987937667966,7,4,-1.0993878841400146,3.321261167526245,3.582994856306867,3.531015461748494,14.416436483137144,12.773574790185622,-0.0011008263099938,0.0986935049295425,0,0,0
1175,43903.87461078516,2010-12-14 00:48:12,2821.4138358846826,7,4,-1.099568486213684,3.272857189178467,3.582994856306867,3.540183555839053,14.416436483137144,12.803813998294194,-0.0014893531333655,0.0986935049295425,0,0,0
1176,43933.889673173486,2010-12-14 00:48:42,2851.4288982730104,7,4,-1.0997490882873535,3.206807851791382,3.582994856306867,3.54935188185862,14.416436483137144,12.833534587041203,-0.0020397664047777,0.0986935049295425,0,0,0
1177,43963.904728965405,2010-12-14 00:49:12,2881.4439540649228,7,4,-1.099929690361023,3.112590312957764,3.582994856306867,3.558520305535536,14.416436483137144,12.862531466423963,-0.0029139518737792,0.0986935049295425,0,0,0
1178,43993.91975329903,2010-12-14 00:49:42,2911.458978403566,7,4,-1.099568486213684,2.9646267890930176,3.582994856306867,3.567688705034293,14.416436483137144,12.89045311216768,-0.0049860952422022,0.0986935049295425,0,0,0
1179,44017.68492012262,2010-12-14 00:50:05,2935.2241452221488,7,4,-1.0997490882873535,2.764374256134033,3.582994856306867,3.574947675548238,14.416436483137144,12.911298702444418,-0.0079323770478367,0.0986935049295425,0,0,0
1180,44024.0285489991,2010-12-14 00:50:12,2941.5677740885976,7,4,-1.099568486213684,2.699781894683838,3.582994856306867,3.576885243510105,14.416436483137144,12.916592918020902,-0.0081913946196436,0.0986935049295425,0,0,0
1181,44084.04452538442,2010-12-14 00:51:12,60.01436623713626,8,4,0.0,3.412888526916504,3.582994856306867,3.576885243510105,14.416436483137144,12.916592918020902,0.0013598442310467,0.0986935049295425,0,0,0
1182,44084.23075893046,2010-12-14 00:51:12,0.187487886394219,9,4,-1.9243103452026844e-05,3.413050413131714,3.582994856306867,3.576885244512285,14.416436483137144,12.916592921441392,0.0,0.0940094217658042,0,0,0
1183,44089.05889071069,2010-12-14 00:51:17,5.015619646582072,9,4,0.0008838032954372,3.421306610107422,3.582995911272102,3.576885244679266,14.416440088830726,12.916592922011308,0.0011655807029455,0.0940094217658042,0,0,0
