Data_Point,Test_Time(s),Date_Time,Step_Time(s),Step_Index,Cycle_Index,Current(A),Voltage(V),Charge_Capacity(Ah),Discharge_Capacity(Ah),Charge_Energy(Wh),Discharge_Energy(Wh),dV/dt(V/s),Internal_Resistance(Ohm),Is_FC_Data,AC_Impedance(Ohm),ACI_Phase_Angle(Deg)
2962,109732.67392368516,2010-12-14 19:05:29,30.015143580371152,1,11,0.0,3.4769952297210693,8.934019695849985,8.918034755036212,35.91665766165604,32.21239294519233,0.0007446765666827,0.0969880521297454,0,0,0
2963,109762.68893472574,2010-12-14 19:05:59,60.03015461590958,1,11,0.0,3.500630617141724,8.934019695849985,8.918034755036212,35.91665766165604,32.21239294519233,0.0005504131549969,0.0969880521297454,0,0,0
2964,109792.70370142824,2010-12-14 19:06:29,90.04492132845967,1,11,0.0,3.5182759761810303,8.934019695849985,8.918034755036212,35.91665766165604,32.21239294519233,0.0004209041653666,0.0969880521297454,0,0,0
2965,109822.67198628747,2010-12-14 19:06:59,120.013206287955,1,11,0.0,3.531874418258667,8.934019695849985,8.918034755036212,35.91665766165604,32.21239294519233,0.0003237724304199,0.0969880521297454,0,0,0
2966,109852.6912003949,2010-12-14 19:07:29,30.01495239461275,2,11,0.5501165986061096,3.679352283477783,8.938606792832633,8.918034755036212,35.933404876853714,32.21239294519233,0.0012950897216796,0.0969880521297454,0,0,0
2967,109882.7063138102,2010-12-14 19:07:59,60.0300658099193,2,11,0.5501165986061096,3.715452909469605,8.943193925630522,8.918034755036212,35.95037143775285,32.21239294519233,0.0007446765666827,0.0969880521297454,0,0,0
2968,109912.7213095076,2010-12-14 19:08:29,90.04506149225188,2,11,0.5499359965324402,3.741192817687988,8.947780993368145,8.918034755036212,35.96747686183316,32.21239294519233,0.0005827903514727,0.0969880521297454,0,0,0
2969,109942.73631902432,2010-12-14 19:08:59,120.06007102906078,2,11,0.550297200679779,3.760295152664185,8.952368028573238,8.918034755036212,35.9846839840188,32.21239294519233,0.0004209041653666,0.0969880521297454,0,0,0
2970,109972.75156465363,2010-12-14 19:09:29,150.07531664835187,2,11,0.550297200679779,3.774217367172241,8.9569551156706,8.918034755036212,36.00196648125245,32.21239294519233,0.0002913951757363,0.0969880521297454,0,0,0
2971,110002.76640745557,2010-12-14 19:09:59,180.09015954548434,2,11,0.5501165986061096,3.783282995223999,8.961542145074658,8.918034755036212,36.0193005744367,32.21239294519233,0.0001942634553415,0.0969880521297454,0,0,0
2972,110032.78134144437,2010-12-14 19:10:29,210.10509341900809,2,11,0.5501165986061096,3.7897584438323975,8.966129225255967,8.918034755036212,36.03667030692597,32.21239294519233,0.0001295089750783,0.0969880521297454,0,0,0
2973,110062.79634103642,2010-12-14 19:10:59,240.12009303613223,2,11,0.5501165986061096,3.795262575149536,8.97071634490895,8.918034755036212,36.05406765540879,32.21239294519233,9.713172767078504e-05,0.0969880521297454,0,0,0
2974,110092.81134199188,2010-12-14 19:11:29,270.1350939915868,2,11,0.5501165986061096,3.800442934036255,8.975303520576343,8.918034755036212,36.07148963862986,32.21239294519233,0.0001295089750783,0.0969880521297454,0,0,0
2975,110122.82649826884,2010-12-14 19:11:59,300.1502502685529,2,11,0.5499359965324402,3.805137634277344,8.979890699186246,8.918034755036212,36.08893420932253,32.21239294519233,9.713172767078504e-05,0.0969880521297454,0,0,0
2976,110152.84135554176,2010-12-14 19:12:29,330.16510752642154,2,11,0.550297200679779,3.8099942207336426,8.984477810722446,8.918034755036212,36.10640010715306,32.21239294519233,0.0001618862152099,0.0969880521297454,0,0,0
2977,110182.85639091783,2010-12-14 19:12:59,360.18014291756793,2,11,0.5501165986061096,3.814365148544312,8.989064960701294,8.918034755036212,36.12388705701061,32.21239294519233,9.713172767078504e-05,0.0969880521297454,0,0,0
2978,110212.87139372292,2010-12-14 19:13:29,390.19514581786206,2,11,0.550297200679779,3.818736076354981,8.993652069674255,8.918034755036212,36.14139408962068,32.21239294519233,0.0001295089750783,0.0969880521297454,0,0,0
2979,110242.88639912444,2010-12-14 19:13:59,420.21015111411856,2,11,0.550297200679779,3.82294511795044,8.998239218337028,8.918034755036212,36.15892076439502,32.21239294519233,0.0001618862152099,0.0969880521297454,0,0,0
2980,110272.90138293724,2010-12-14 19:14:29,450.2251349369392,2,11,0.5501165986061096,3.826992273330689,9.002826292398366,8.918034755036212,36.17646603094234,32.21239294519233,9.713172767078504e-05,0.0969880521297454,0,0,0
2981,110302.91638953172,2010-12-14 19:14:59,480.2401415314262,2,11,0.5499359965324402,3.8307156562805176,9.007413365986183,8.918034755036212,36.19402970045849,32.21239294519233,3.237724376958795e-05,0.0969880521297454,0,0,0
2982,110332.93138434188,2010-12-14 19:15:29,510.25513634158847,2,11,0.5501165986061096,3.8349244594573975,9.012000514122253,8.918034755036212,36.211611764547904,32.21239294519233,0.0001295089750783,0.0969880521297454,0,0,0
2983,110362.9464102344,2010-12-14 19:15:59,540.2701622340979,2,11,0.550297200679779,3.8386478424072266,9.016587614950046,8.918034755036212,36.22921144775293,32.21239294519233,6.47544875391759e-05,0.0969880521297454,0,0,0
2984,110392.96154268707,2010-12-14 19:16:29,570.2852947419154,2,11,0.5501165986061096,3.8425331115722656,9.021174702333912,8.918034755036212,36.24682890943235,32.21239294519233,6.47544875391759e-05,0.0969880521297454,0,0,0
2985,110422.97639956398,2010-12-14 19:16:59,600.3001515536739,2,11,0.550297200679779,3.846256494522095,9.025761796781058,8.918034755036212,36.264463985687975,32.21239294519233,6.47544875391759e-05,0.0969880521297454,0,0,0
2986,110452.9915655802,2010-12-14 19:17:29,630.3153176751377,2,11,0.5497553944587708,3.850141763687134,9.030348897962062,8.918034755036212,36.282116665980126,32.21239294519233,6.47544875391759e-05,0.0969880521297454,0,0,0
2987,110483.0064295698,2010-12-14 19:17:59,660.3301815695211,2,11,0.5501165986061096,3.854027032852173,9.034936023311964,8.918034755036212,36.29978686386414,32.21239294519233,0.0001295089750783,0.0969880521297454,0,0,0
2988,110513.02164325464,2010-12-14 19:18:29,690.345395334544,2,11,0.5501165986061096,3.857750415802002,9.039523152738132,8.918034755036212,36.31747451382554,32.21239294519233,6.47544875391759e-05,0.0969880521297454,0,0,0
2989,110543.03654863726,2010-12-14 19:18:59,720.3603006419821,2,11,0.5501165986061096,3.861635684967041,9.044110236978826,8.918034755036212,36.33517930362436,32.21239294519233,0.0001295089750783,0.0969880521297454,0,0,0
2990,110573.0514557542,2010-12-14 19:19:29,750.3752077589232,2,11,0.5501165986061096,3.86519718170166,9.04869727796336,8.918034755036212,36.35290106930846,32.21239294519233,3.237724376958795e-05,0.0969880521297454,0,0,0
2991,110603.06666479749,2010-12-14 19:19:59,780.3904168874083,2,11,0.5501165986061096,3.868920564651489,9.053284394243908,8.918034755036212,36.37064003658342,32.21239294519233,6.47544875391759e-05,0.0969880521297454,0,0,0
2992,110633.08143241226,2010-12-14 19:20:29,810.4051843869167,2,11,0.550297200679779,3.8723201751708975,9.05787146961474,8.918034755036212,36.38839536342126,32.21239294519233,6.47544875391759e-05,0.0969880521297454,0,0,0
2993,110663.09644222978,2010-12-14 19:20:59,840.4201942294864,2,11,0.550297200679779,3.876043558120728,9.06245862681608,8.918034755036212,36.40616719326204,32.21239294519233,0.0001295089750783,0.0969880521297454,0,0,0
2994,110693.11144334564,2010-12-14 19:21:29,870.4351953503526,2,11,0.550297200679779,3.879281282424927,9.067045721878698,8.918034755036212,36.423954431926674,32.21239294519233,9.713172767078504e-05,0.0969880521297454,0,0,0
2995,110723.12653348802,2010-12-14 19:21:59,900.4502855779574,2,11,0.5501165986061096,3.882519006729126,9.07163287329746,8.918034755036212,36.44175704174332,32.21239294519233,9.713172767078504e-05,0.0969880521297454,0,0,0
2996,110753.14177462616,2010-12-14 19:22:29,930.46552668101,2,11,0.5501165986061096,3.885756731033325,9.07622005126631,8.918034755036212,36.45957428628695,32.21239294519233,9.713172767078504e-05,0.0969880521297454,0,0,0
2997,110783.15646512908,2010-12-14 19:22:59,960.480217128778,2,11,0.550297200679779,3.888670682907105,9.080807116499363,8.918034755036212,36.47740494136248,32.21239294519233,6.47544875391759e-05,0.0969880521297454,0,0,0
2998,110813.17161411792,2010-12-14 19:23:29,990.495366117608,2,11,0.5504778623580933,3.891584634780884,9.08539428547368,8.918034755036212,36.49524927719463,32.21239294519233,6.47544875391759e-05,0.0969880521297454,0,0,0
2999,110843.1866118754,2010-12-14 19:23:59,1020.5103638751044,2,11,0.550297200679779,3.894012928009033,9.089981469806826,8.918034755036212,36.51310628946893,32.21239294519233,0.0,0.0969880521297454,0,0,0
3000,110873.2014810028,2010-12-14 19:24:29,1050.5252330075225,2,11,0.5501165986061096,3.896441221237183,9.094568608605162,8.918034755036212,36.53097463568561,32.21239294519233,3.237724376958795e-05,0.0969880521297454,0,0,0
3001,110903.21648414872,2010-12-14 19:24:59,1080.5402361484153,2,11,0.5501165986061096,3.899031400680542,9.099155691945786,8.918034755036212,36.548853977356,32.21239294519233,9.713172767078504e-05,0.0969880521297454,0,0,0
3002,110933.23170352267,2010-12-14 19:25:29,1110.5554556878076,2,11,0.5499359965324402,3.901135921478272,9.103742802841246,8.918034755036212,36.56674407667031,32.21239294519233,3.237724376958795e-05,0.0969880521297454,0,0,0
3003,110963.2465224652,2010-12-14 19:25:59,1140.5702744649186,2,11,0.5501165986061096,3.903402328491211,9.108329951250187,8.918034755036212,36.58464446417093,32.21239294519233,9.713172767078504e-05,0.0969880521297454,0,0,0
3004,110993.26150713013,2010-12-14 19:26:29,1170.585259134847,2,11,0.550297200679779,3.9053449630737305,9.112917074743782,8.918034755036212,36.602554385196136,32.21239294519233,3.237724376958795e-05,0.0969880521297454,0,0,0
3005,111023.27652399016,2010-12-14 19:26:59,1200.6002759848548,2,11,0.550297200679779,3.90744948387146,9.117504237357034,8.918034755036212,36.62047361505523,32.21239294519233,3.237724376958795e-05,0.0969880521297454,0,0,0
3006,111053.29152193812,2010-12-14 19:27:29,1230.61527394285,2,11,0.5501165986061096,3.9092302322387695,9.122091316633304,8.918034755036212,36.63840144425392,32.21239294519233,3.237724376958795e-05,0.0969880521297454,0,0,0
3007,111083.3065284875,2010-12-14 19:27:59,1260.6302804872123,2,11,0.5501165986061096,3.911010980606079,9.126678466603432,8.918034755036212,36.65633817674386,32.21239294519233,6.47544875391759e-05,0.0969880521297454,0,0,0
3008,111113.3215352474,2010-12-14 19:28:29,1290.6452872521236,2,11,0.550297200679779,3.912953615188599,9.131265533892636,8.918034755036212,36.67428295704952,32.21239294519233,6.47544875391759e-05,0.0969880521297454,0,0,0
3009,111143.33652884956,2010-12-14 19:28:59,1320.660280849267,2,11,0.550297200679779,3.914896011352539,9.135851980351026,8.918034755036212,36.69223334589263,32.21239294519233,9.713172767078504e-05,0.0969880521297454,0,0,0
3010,111173.35153513828,2010-12-14 19:29:29,1350.675287137993,2,11,0.5501165986061096,3.916514873504639,9.140438380656285,8.918034755036212,36.710191472228935,32.21239294519233,3.237724376958795e-05,0.0969880521297454,0,0,0
3011,111203.36683080712,2010-12-14 19:29:59,1380.690582861968,2,11,0.550297200679779,3.9181337356567374,9.145025472524178,8.918034755036212,36.728160441349424,32.21239294519233,3.237724376958795e-05,0.0969880521297454,0,0,0
3012,111233.38159149968,2010-12-14 19:30:29,1410.7053434994004,2,11,0.5501165986061096,3.919914484024048,9.149612535158198,8.918034755036212,36.74613711705194,32.21239294519233,6.47544875391759e-05,0.0969880521297454,0,0,0
3013,111263.39657002932,2010-12-14 19:30:59,1440.7203220290494,2,11,0.5501165986061096,3.921533346176148,9.154199611130936,8.918034755036212,36.76412165904535,32.21239294519233,6.47544875391759e-05,0.0969880521297454,0,0,0
3014,111293.41157410757,2010-12-14 19:31:29,1470.7353260822124,2,11,0.550297200679779,3.923314094543457,9.158786693368471,8.918034755036212,36.782114068466406,32.21239294519233,6.47544875391759e-05,0.0969880521297454,0,0,0
3015,111323.42659323826,2010-12-14 19:32:00,1500.7503452429698,2,11,0.5501165986061096,3.9247710704803462,9.163373818793332,8.918034755036212,36.800114429203326,32.21239294519233,0.0,0.0969880521297454,0,0,0
3016,111353.44172902923,2010-12-14 19:32:30,1530.7654810690449,2,11,0.5501165986061096,3.926551818847656,9.167960999607754,8.918034755036212,36.81812270213788,32.21239294519233,6.47544875391759e-05,0.0969880521297454,0,0,0
3017,111383.45671505253,2010-12-14 19:33:00,1560.780467057254,2,11,0.550297200679779,3.928332567214966,9.17254809663728,8.918034755036212,36.83613834798851,32.21239294519233,3.237724376958795e-05,0.0969880521297454,0,0,0
3018,111413.47161489638,2010-12-14 19:33:30,1590.7953669662584,2,11,0.550297200679779,3.9299514293670654,9.177135183468351,8.918034755036212,36.85416164501483,32.21239294519233,3.237724376958795e-05,0.0969880521297454,0,0,0
3019,111443.48675226628,2010-12-14 19:34:00,1620.8105042660004,2,11,0.5501165986061096,3.931732177734375,9.181722340859464,8.918034755036212,36.87219297064309,32.21239294519233,6.47544875391759e-05,0.0969880521297454,0,0,0
3020,111473.5016225616,2010-12-14 19:34:30,1650.8253745613122,2,11,0.5501165986061096,3.9333510398864746,9.186309446640925,8.918034755036212,36.890231789226,32.21239294519233,3.237724376958795e-05,0.0969880521297454,0,0,0
3021,111503.51661284048,2010-12-14 19:35:00,1680.8403648401986,2,11,0.550297200679779,3.935131788253784,9.190896529204077,8.918034755036212,36.90827817186312,32.21239294519233,6.47544875391759e-05,0.0969880521297454,0,0,0
3022,111533.53161477338,2010-12-14 19:35:30,1710.8553667730855,2,11,0.5501165986061096,3.936588764190674,9.195483704539658,8.918034755036212,36.92633256183208,32.21239294519233,3.237724376958795e-05,0.0969880521297454,0,0,0
3023,111563.54664943772,2010-12-14 19:36:00,1740.8704014374232,2,11,0.5501165986061096,3.938369512557984,9.20007089406154,8.918034755036212,36.94439480825189,32.21239294519233,6.47544875391759e-05,0.0969880521297454,0,0,0
3024,111593.56162526064,2010-12-14 19:36:30,1770.885377260336,2,11,0.550297200679779,3.939988374710083,9.204658058577015,8.918034755036212,36.96246465644538,32.21239294519233,3.237724376958795e-05,0.0969880521297454,0,0,0
3025,111623.57662663212,2010-12-14 19:37:00,1800.900378631826,2,11,0.5499359965324402,3.9417691230773926,9.209245234911991,8.918034755036212,36.98054226511789,32.21239294519233,6.47544875391759e-05,0.0969880521297454,0,0,0
3026,111653.59168066966,2010-12-14 19:37:30,1830.9154326693736,2,11,0.5501165986061096,3.943387985229492,9.213832342291065,8.918034755036212,36.998627340258,32.21239294519233,3.237724376958795e-05,0.0969880521297454,0,0,0
3027,111683.60665380588,2010-12-14 19:38:00,1860.9304058106136,2,11,0.550297200679779,3.9451687335968018,9.21841945006498,8.918034755036212,37.01672021272326,32.21239294519233,6.47544875391759e-05,0.0969880521297454,0,0,0
3028,111713.62164600956,2010-12-14 19:38:30,1890.9453979842149,2,11,0.5501165986061096,3.946787595748901,9.223006609063065,8.918034755036212,37.03482109917862,32.21239294519233,3.237724376958795e-05,0.0969880521297454,0,0,0
3029,111743.63676764032,2010-12-14 19:39:00,1920.960519640027,2,11,0.550297200679779,3.948730230331421,9.22759380464078,8.918034755036212,37.05292983432578,32.21239294519233,9.713172767078504e-05,0.0969880521297454,0,0,0
3030,111773.65165165476,2010-12-14 19:39:30,1950.975403654479,2,11,0.5499359965324402,3.950187206268311,9.232180947636095,8.918034755036212,37.07104622228661,32.21239294519233,3.237724376958795e-05,0.0969880521297454,0,0,0
3031,111803.6666663444,2010-12-14 19:40:00,1980.99041834411,2,11,0.5501165986061096,3.95180606842041,9.236768007406004,8.918034755036212,37.089170132230045,32.21239294519233,3.237724376958795e-05,0.0969880521297454,0,0,0
3032,111833.68166468837,2010-12-14 19:40:30,2011.0054166930784,2,11,0.550297200679779,3.9537487030029297,9.241355071198228,8.918034755036212,37.10730186116103,32.21239294519233,6.47544875391759e-05,0.0969880521297454,0,0,0
3033,111863.69668140804,2010-12-14 19:41:00,2041.0204333826869,2,11,0.5501165986061096,3.955367565155029,9.24594218147062,8.918034755036212,37.1254416482536,32.21239294519233,6.47544875391759e-05,0.0969880521297454,0,0,0
3034,111893.71185953438,2010-12-14 19:41:30,2071.035611534087,2,11,0.5499359965324402,3.956986427307129,9.250529329078416,8.918034755036212,37.14358949407305,32.21239294519233,3.237724376958795e-05,0.0969880521297454,0,0,0
3035,111923.71370002552,2010-12-14 19:42:00,2101.0374520903943,2,11,0.550297200679779,3.9587671756744394,9.255114379510571,8.918034755036212,37.16173680676593,32.21239294519233,3.237724376958795e-05,0.0969880521297454,0,0,0
3036,111953.72624949054,2010-12-14 19:42:30,2131.0500015654334,2,11,0.5501165986061096,3.960547924041748,9.259701111094069,8.918034755036212,37.17989877970046,32.21239294519233,6.47544875391759e-05,0.0969880521297454,0,0,0
3037,111983.74107196183,2010-12-14 19:43:00,2161.0648239615502,2,11,0.5501165986061096,3.962166786193848,9.26428819942905,8.918034755036212,37.19807015584497,32.21239294519233,0.0,0.0969880521297454,0,0,0
3038,112013.75609593456,2010-12-14 19:43:30,2191.079847934283,2,11,0.5501165986061096,3.963947534561157,9.268875353543931,8.918034755036212,37.216249775534735,32.21239294519233,3.237724376958795e-05,0.0969880521297454,0,0,0
3039,112043.77107573238,2010-12-14 19:44:00,2221.094827732087,2,11,0.5499359965324402,3.965728282928467,9.273462451890891,8.918034755036212,37.23443722561422,32.21239294519233,3.237724376958795e-05,0.0969880521297454,0,0,0
3040,112073.78621413486,2010-12-14 19:44:30,2251.109966119536,2,11,0.5499359965324402,3.967509031295776,9.278049664166083,8.918034755036212,37.25263324316992,32.21239294519233,3.237724376958795e-05,0.0969880521297454,0,0,0
3041,112103.8010830768,2010-12-14 19:45:00,2281.12483508153,2,11,0.550297200679779,3.969451665878296,9.282636784576868,8.918034755036212,37.27083691538956,32.21239294519233,3.237724376958795e-05,0.0969880521297454,0,0,0
3042,112133.81623355436,2010-12-14 19:45:30,2311.1399855390146,2,11,0.5501165986061096,3.971070528030396,9.287223911509551,8.918034755036212,37.28904874929256,32.21239294519233,3.237724376958795e-05,0.0969880521297454,0,0,0
3043,112163.83108966936,2010-12-14 19:46:00,2341.154841759301,2,11,0.5501165986061096,3.972851276397705,9.291811122652623,8.918034755036212,37.30726922271407,32.21239294519233,3.237724376958795e-05,0.0969880521297454,0,0,0
3044,112193.84612109564,2010-12-14 19:46:30,2371.169873070294,2,11,0.5501165986061096,3.974632024765015,9.29639824828352,8.918034755036212,37.32549767811841,32.21239294519233,3.237724376958795e-05,0.0969880521297454,0,0,0
3045,112223.86124900704,2010-12-14 19:47:00,2401.1850009916984,2,11,0.5501165986061096,3.976574659347534,9.300985435030851,8.918034755036212,37.34373474991708,32.21239294519233,3.237724376958795e-05,0.0969880521297454,0,0,0
3046,112253.8761190467,2010-12-14 19:47:30,2431.1998710213493,2,11,0.550297200679779,3.978193521499634,9.30557267567459,8.918034755036212,37.36198001947516,32.21239294519233,6.47544875391759e-05,0.0969880521297454,0,0,0
3047,112283.8911172052,2010-12-14 19:48:00,2461.2148691798434,2,11,0.5501165986061096,3.980136156082153,9.310159791011356,8.918034755036212,37.38023351837763,32.21239294519233,3.237724376958795e-05,0.0969880521297454,0,0,0
3048,112313.9060336704,2010-12-14 19:48:30,2491.229785645048,2,11,0.5501165986061096,3.982078790664673,9.314746891803477,8.918034755036212,37.39849552326042,32.21239294519233,6.47544875391759e-05,0.0969880521297454,0,0,0
3049,112343.92123618242,2010-12-14 19:49:00,2521.244988227242,2,11,0.550297200679779,3.9838595390319824,9.31933407700444,8.918034755036212,37.41676640684502,32.21239294519233,3.237724376958795e-05,0.0969880521297454,0,0,0
3050,112373.93604862376,2010-12-14 19:49:30,2551.259800628487,2,11,0.5501165986061096,3.985802173614502,9.323921106957894,8.918034755036212,37.43504534629497,32.21239294519233,6.47544875391759e-05,0.0969880521297454,0,0,0
3051,112403.95116101152,2010-12-14 19:50:00,2581.274912986162,2,11,0.5501165986061096,3.987906694412232,9.328508199628637,8.918034755036212,37.4533333677421,32.21239294519233,6.47544875391759e-05,0.0969880521297454,0,0,0
3052,112433.9663142058,2010-12-14 19:50:30,2611.290066180457,2,11,0.5501165986061096,3.989687442779541,9.333095253544164,8.918034755036212,37.4716299158324,32.21239294519233,0.0,0.0969880521297454,0,0,0
3053,112463.9813996064,2010-12-14 19:51:00,2641.3051516813,2,11,0.5499359965324402,3.9914681911468506,9.337682383458754,8.918034755036212,37.48993577370305,32.21239294519233,0.0,0.0969880521297454,0,0,0
3054,112493.9961520384,2010-12-14 19:51:30,2671.319904103288,2,11,0.550297200679779,3.99357271194458,9.342269401653464,8.918034755036212,37.50825013382852,32.21239294519233,3.237724376958795e-05,0.0969880521297454,0,0,0
3055,112524.01118718895,2010-12-14 19:52:00,2701.334939183661,2,11,0.5501165986061096,3.995515108108521,9.346856511209108,8.918034755036212,37.52657395498937,32.21239294519233,0.0,0.0969880521297454,0,0,0
3056,112554.02622409388,2010-12-14 19:52:30,2731.3499760935865,2,11,0.5501165986061096,3.99745774269104,9.351443635861362,8.918034755036212,37.54490702212768,32.21239294519233,3.237724376958795e-05,0.0969880521297454,0,0,0
3057,112584.04119422262,2010-12-14 19:53:00,2761.364946217317,2,11,0.5499359965324402,3.9995622634887695,9.356030680747784,8.918034755036212,37.56324900420751,32.21239294519233,0.0,0.0969880521297454,0,0,0
3058,112614.05619789484,2010-12-14 19:53:30,2791.379949894545,2,11,0.5501165986061096,4.001667022705078,9.360617713637634,8.918034755036212,37.58160036235509,32.21239294519233,3.24249267578125e-05,0.0969880521297454,0,0,0
3059,112644.07126136584,2010-12-14 19:54:00,2821.395013365567,2,11,0.550297200679779,4.003933429718018,9.365204803691134,8.918034755036212,37.59996150309057,32.21239294519233,6.47544875391759e-05,0.0969880521297454,0,0,0
3060,112674.08629253149,2010-12-14 19:54:30,2851.4100445311988,2,11,0.5501165986061096,4.005876064300537,9.369791866971193,8.918034755036212,37.618332149698645,32.21239294519233,3.24249267578125e-05,0.0969880521297454,0,0,0
3061,112704.10125168292,2010-12-14 19:55:00,2881.4250036826256,2,11,0.5501165986061096,4.007980346679688,9.374378944707958,8.918034755036212,37.63671260106269,32.21239294519233,6.47544875391759e-05,0.0969880521297454,0,0,0
3062,112734.11626288889,2010-12-14 19:55:30,2911.4400148936006,2,11,0.5501165986061096,4.010246753692627,9.378966018677902,8.918034755036212,37.65510278980828,32.21239294519233,6.47544875391759e-05,0.0969880521297454,0,0,0
3063,112764.13123240108,2010-12-14 19:56:00,2941.45498440581,2,11,0.550297200679779,4.012513160705566,9.383553098298718,8.918034755036212,37.67350299064768,32.21239294519233,9.70840483205393e-05,0.0969880521297454,0,0,0
3064,112794.14625294028,2010-12-14 19:56:30,2971.4700049399853,2,11,0.550297200679779,4.014779567718506,9.38814022929925,8.918034755036212,37.69191347195504,32.21239294519233,6.47544875391759e-05,0.0969880521297454,0,0,0
3065,112824.16125019152,2010-12-14 19:57:00,3001.4850022613964,2,11,0.550297200679779,4.016884326934815,9.392727342594332,8.918034755036212,37.71033404831847,32.21239294519233,9.71794142969884e-05,0.0969880521297454,0,0,0
3066,112854.17645249802,2010-12-14 19:57:30,3031.5002045879555,2,11,0.5499359965324402,4.018826961517334,9.397314497980323,8.918034755036212,37.72876513902115,32.21239294519233,0.0,0.0969880521297454,0,0,0
3067,112884.19144961894,2010-12-14 19:58:00,3061.5152016888183,2,11,0.5501165986061096,4.021255016326904,9.401901560648756,8.918034755036212,37.747206108439,32.21239294519233,3.23295607813634e-05,0.0969880521297454,0,0,0
3068,112914.20636269572,2010-12-14 19:58:30,3091.53011474554,2,11,0.550297200679779,4.023683547973633,9.406488679663378,8.918034755036212,37.765657895949616,32.21239294519233,6.47544875391759e-05,0.0969880521297454,0,0,0
3069,112944.22126397312,2010-12-14 19:59:00,3121.545015972825,2,11,0.550297200679779,4.026111602783203,9.411075797760889,8.918034755036212,37.784120257127896,32.21239294519233,9.70840483205393e-05,0.0969880521297454,0,0,0
3070,112974.23638895722,2010-12-14 19:59:30,3151.5601409418823,2,11,0.5501165986061096,4.028378009796143,9.415662939752597,8.918034755036212,37.80259345354303,32.21239294519233,6.47544875391759e-05,0.0969880521297454,0,0,0
3071,113004.25127123734,2010-12-14 20:00:00,3181.575023242068,2,11,0.550297200679779,4.030806541442871,9.42025007213494,8.918034755036212,37.821077406312845,32.21239294519233,6.47544875391759e-05,0.0969880521297454,0,0,0
3072,113034.26679986088,2010-12-14 20:00:30,3211.590551940791,2,11,0.5501165986061096,4.0330729484558105,9.424837275749114,8.918034755036212,37.8395726243776,32.21239294519233,6.47544875391759e-05,0.0969880521297454,0,0,0
3073,113064.28132429052,2010-12-14 20:01:00,3241.605076285218,2,11,0.5501165986061096,4.035662651062012,9.429424352770567,8.918034755036212,37.85807846624023,32.21239294519233,9.70840483205393e-05,0.0969880521297454,0,0,0
3074,113094.29641127506,2010-12-14 20:01:30,3271.6201633148644,2,11,0.5501165986061096,4.037929058074951,9.4340114673434,8.918034755036212,37.8765956981326,32.21239294519233,6.47544875391759e-05,0.0969880521297454,0,0,0
3075,113124.31132276788,2010-12-14 20:02:00,3301.6350747675947,2,11,0.550297200679779,4.040519237518311,9.438598609404416,8.918034755036212,37.895124375457314,32.21239294519233,9.70840483205393e-05,0.0969880521297454,0,0,0
3076,113154.3263719333,2010-12-14 20:02:30,3331.6501240282546,2,11,0.5501165986061096,4.042947769165039,9.44318575502675,8.918034755036212,37.91366453633645,32.21239294519233,6.47544875391759e-05,0.0969880521297454,0,0,0
3077,113184.34131017773,2010-12-14 20:03:00,3361.665062247593,2,11,0.550297200679779,4.045699596405029,9.447772919304162,8.918034755036212,37.93221642726591,32.21239294519233,6.47544875391759e-05,0.0969880521297454,0,0,0
3078,113214.3563061207,2010-12-14 20:03:30,3391.680058125412,2,11,0.5501165986061096,4.048128128051758,9.452360064107564,8.918034755036212,37.95077991522109,32.21239294519233,9.71794142969884e-05,0.0969880521297454,0,0,0
3079,113244.37131225402,2010-12-14 20:04:00,3421.6950642587512,2,11,0.5501165986061096,4.050718307495117,9.45694727387496,8.918034755036212,37.96935548789011,32.21239294519233,6.47544875391759e-05,0.0969880521297454,0,0,0
3080,113274.38635491328,2010-12-14 20:04:31,3451.710106912972,2,11,0.550297200679779,4.053308486938477,9.461534464976136,8.918034755036212,37.987942864598594,32.21239294519233,9.71794142969884e-05,0.0969880521297454,0,0,0
3081,113304.40145233375,2010-12-14 20:05:01,3481.725204333476,2,11,0.550297200679779,4.056222438812256,9.466121735378955,8.918034755036212,38.00654259718085,32.21239294519233,0.0001295089750783,0.0969880521297454,0,0,0
3082,113334.41633354624,2010-12-14 20:05:31,3511.7400855259048,2,11,0.5501165986061096,4.058650493621826,9.470708889435231,8.918034755036212,38.02515410313192,32.21239294519233,9.70840483205393e-05,0.0969880521297454,0,0,0
3083,113364.43145676094,2010-12-14 20:06:01,3541.7552087456093,2,11,0.550297200679779,4.061402797698975,9.475296085607908,8.918034755036212,38.04377792761174,32.21239294519233,9.71794142969884e-05,0.0969880521297454,0,0,0
3084,113394.44634436934,2010-12-14 20:06:31,3571.770096354004,2,11,0.5501165986061096,4.063992977142334,9.479883208553176,8.918034755036212,38.06241367790512,32.21239294519233,6.47544875391759e-05,0.0969880521297454,0,0,0
3085,113424.46146760909,2010-12-14 20:07:01,3601.7852196138083,2,11,0.5501165986061096,4.066744804382324,9.484470369471245,8.918034755036212,38.08106211390314,32.21239294519233,9.70840483205393e-05,0.0969880521297454,0,0,0
3086,113454.47634684666,2010-12-14 20:07:31,3631.8000988513727,2,11,0.550297200679779,4.069497108459473,9.489057485225295,8.918034755036212,38.09972305866559,32.21239294519233,6.47544875391759e-05,0.0969880521297454,0,0,0
3087,113484.4913668495,2010-12-14 20:08:01,3661.815118849213,2,11,0.5501165986061096,4.072411060333252,9.493644694806004,8.918034755036212,38.11839717053286,32.21239294519233,9.71794142969884e-05,0.0969880521297454,0,0,0
3088,113514.50650246003,2010-12-14 20:08:31,3691.83025443469,2,11,0.5499359965324402,4.075001239776611,9.498231841989725,8.918034755036212,38.13708388905997,32.21239294519233,3.24249267578125e-05,0.0969880521297454,0,0,0
3089,113544.52138292063,2010-12-14 20:09:01,3721.845135015597,2,11,0.5501165986061096,4.077915191650391,9.502818951923352,8.918034755036212,38.15578338606272,32.21239294519233,6.47544875391759e-05,0.0969880521297454,0,0,0
3090,113574.5365119448,2010-12-14 20:09:31,3751.860263944508,2,11,0.5501165986061096,4.08082914352417,9.507406158397687,8.918034755036212,38.17449632126559,32.21239294519233,6.47544875391759e-05,0.0969880521297454,0,0,0
3091,113604.55151731124,2010-12-14 20:10:01,3781.8752692959015,2,11,0.550297200679779,4.083743095397949,9.511993292227556,8.918034755036212,38.19322203283793,32.21239294519233,0.0001295089750783,0.0969880521297454,0,0,0
3092,113634.56638454892,2010-12-14 20:10:31,3811.8901365536544,2,11,0.550297200679779,4.0866570472717285,9.51658040439294,8.918034755036212,38.21196109023101,32.21239294519233,9.71794142969884e-05,0.0969880521297454,0,0,0
3093,113664.58173726471,2010-12-14 20:11:01,3841.905489339626,2,11,0.550297200679779,4.089570999145508,9.521167575209542,8.918034755036212,38.23071382803344,32.21239294519233,6.47544875391759e-05,0.0969880521297454,0,0,0
3094,113694.59640447969,2010-12-14 20:11:31,3871.9201564543314,2,11,0.5499359965324402,4.092322826385498,9.525754659135345,8.918034755036212,38.24947981306136,32.21239294519233,6.47544875391759e-05,0.0969880521297454,0,0,0
3095,113724.61139700416,2010-12-14 20:12:01,3901.935149003867,2,11,0.5501165986061096,4.095398902893066,9.530341773832491,8.918034755036212,38.268259598737686,32.21239294519233,6.47544875391759e-05,0.0969880521297454,0,0,0
3096,113754.6264068768,2010-12-14 20:12:31,3931.950158876511,2,11,0.550297200679779,4.098636627197266,9.534929001495854,8.918034755036212,38.287053684149015,32.21239294519233,9.71794142969884e-05,0.0969880521297454,0,0,0
3097,113784.64139741634,2010-12-14 20:13:01,3961.9651494210593,2,11,0.5501165986061096,4.101550579071045,9.539516194365603,8.918034755036212,38.305861572990025,32.21239294519233,6.47544875391759e-05,0.0969880521297454,0,0,0
3098,113814.656403279,2010-12-14 20:13:31,3991.980155278713,2,11,0.5501165986061096,4.104626178741455,9.54410332084275,8.918034755036212,38.3246831802831,32.21239294519233,3.23295607813634e-05,0.0969880521297454,0,0,0
3099,113844.67220127786,2010-12-14 20:14:01,4021.9959532775792,2,11,0.5501165986061096,4.107863903045654,9.548690537208422,8.918034755036212,38.34351934547654,32.21239294519233,9.70840483205393e-05,0.0969880521297454,0,0,0
3100,113874.68648395092,2010-12-14 20:14:31,4052.01023604084,2,11,0.5501165986061096,4.110939979553223,9.55327753641407,8.918034755036212,38.36236896849068,32.21239294519233,9.71794142969884e-05,0.0969880521297454,0,0,0
3101,113904.70147283132,2010-12-14 20:15:01,4082.0252248310217,2,11,0.5501165986061096,4.114015579223633,9.557864664209932,8.918034755036212,38.38123342040623,32.21239294519233,6.47544875391759e-05,0.0969880521297454,0,0,0
3102,113934.71642305052,2010-12-14 20:15:31,4112.040175025159,2,11,0.5499359965324402,4.117253303527832,9.562451777735406,8.918034755036212,38.40011237243852,32.21239294519233,6.47544875391759e-05,0.0969880521297454,0,0,0
3103,113964.73142242704,2010-12-14 20:16:01,4142.055174426747,2,11,0.5499359965324402,4.120167255401611,9.567038936993203,8.918034755036212,38.41900621104984,32.21239294519233,0.0,0.0969880521297454,0,0,0
3104,113994.74656039845,2010-12-14 20:16:31,4172.07031239816,2,11,0.5501165986061096,4.123566627502441,9.57162624285885,8.918034755036212,38.43791547675497,32.21239294519233,6.47544875391759e-05,0.0969880521297454,0,0,0
3105,114024.76143220252,2010-12-14 20:17:01,4202.085184207239,2,11,0.5501165986061096,4.12696647644043,9.57621336521582,8.918034755036212,38.45683883823113,32.21239294519233,0.0001295089750783,0.0969880521297454,0,0,0
3106,114054.7764426967,2010-12-14 20:17:31,4232.100194671355,2,11,0.550297200679779,4.13036584854126,9.580800560000585,8.918034755036212,38.47577748704761,32.21239294519233,9.70840483205393e-05,0.0969880521297454,0,0,0
3107,114084.79144536644,2010-12-14 20:18:01,4262.115197341076,2,11,0.5499359965324402,4.133441925048828,9.585387794594382,8.918034755036212,38.49473138793702,32.21239294519233,6.47544875391759e-05,0.0969880521297454,0,0,0
3108,114114.80650024608,2010-12-14 20:18:31,4292.130252245781,2,11,0.550297200679779,4.136841297149658,9.589974992744455,8.918034755036212,38.51370034473042,32.21239294519233,0.0001295089750783,0.0969880521297454,0,0,0
3109,114144.8214565404,2010-12-14 20:19:01,4322.14520854511,2,11,0.5501165986061096,4.140241146087647,9.59456214222026,8.918034755036212,38.53268442724977,32.21239294519233,6.47544875391759e-05,0.0969880521297454,0,0,0
3110,114174.83646048328,2010-12-14 20:19:31,4352.160212487999,2,11,0.550297200679779,4.143640518188477,9.599149353244693,8.918034755036212,38.55168429035203,32.21239294519233,0.0001295089750783,0.0969880521297454,0,0,0
3111,114204.85145220076,2010-12-14 20:20:01,4382.175204205466,2,11,0.550297200679779,4.147040367126465,9.60373656564976,8.918034755036212,38.57069991437785,32.21239294519233,6.47544875391759e-05,0.0969880521297454,0,0,0
3112,114234.86664512892,2010-12-14 20:20:31,4412.190397203812,2,11,0.5504778623580933,4.150763511657715,9.608323710883528,8.918034755036212,38.589731113472254,32.21239294519233,0.0001295089750783,0.0969880521297454,0,0,0
3113,114264.88159210002,2010-12-14 20:21:01,4442.205344099741,2,11,0.5501165986061096,4.153839588165283,9.61291090112176,8.918034755036212,38.60877840326365,32.21239294519233,6.47544875391759e-05,0.0969880521297454,0,0,0
3114,114294.896618584,2010-12-14 20:21:31,4472.22037055866,2,11,0.5501165986061096,4.157562732696533,9.617498098953272,8.918034755036212,38.62784157308374,32.21239294519233,0.0001295089750783,0.0969880521297454,0,0,0
3115,114324.91162321862,2010-12-14 20:22:01,4502.235375203295,2,11,0.550297200679779,4.161286354064941,9.622085285760718,8.918034755036212,38.64692072621349,32.21239294519233,0.0001619339018361,0.0969880521297454,0,0,0
3116,114354.92648704784,2010-12-14 20:22:31,4532.250239052566,2,11,0.5501165986061096,4.164361953735352,9.626672408758573,8.918034755036212,38.66601574662799,32.21239294519233,6.47544875391759e-05,0.0969880521297454,0,0,0
3117,114384.9417039256,2010-12-14 20:23:01,4562.265455910284,2,11,0.5501165986061096,4.16808557510376,9.63125950378162,8.918034755036212,38.68512691831389,32.21239294519233,9.71794142969884e-05,0.0969880521297454,0,0,0
3118,114414.95648512422,2010-12-14 20:23:31,4592.28023712392,2,11,0.550297200679779,4.171647071838379,9.635846689800244,8.918034755036212,38.7042549902054,32.21239294519233,9.71794142969884e-05,0.0969880521297454,0,0,0
3119,114444.97161579746,2010-12-14 20:24:01,4622.295367797173,2,11,0.550297200679779,4.175532341003418,9.640433889313602,8.918034755036212,38.72339967071963,32.21239294519233,0.0001619339018361,0.0969880521297454,0,0,0
3120,114474.986632863,2010-12-14 20:24:31,4652.310384847679,2,11,0.550297200679779,4.178931713104248,9.645021089186985,8.918034755036212,38.74256105062892,32.21239294519233,6.47544875391759e-05,0.0969880521297454,0,0,0
3121,114505.00150969456,2010-12-14 20:25:01,4682.325261694294,2,11,0.550297200679779,4.182655334472656,9.649608301816446,8.918034755036212,38.761739301628616,32.21239294519233,9.71794142969884e-05,0.0969880521297454,0,0,0
3122,114535.01668830212,2010-12-14 20:25:31,4712.340440377015,2,11,0.550297200679779,4.186540603637695,9.654195537865892,8.918034755036212,38.78093450704168,32.21239294519233,0.0001295089750783,0.0969880521297454,0,0,0
3123,114565.03163964913,2010-12-14 20:26:01,4742.355391638809,2,11,0.550297200679779,4.1901021003723145,9.658782702068075,8.918034755036212,38.80014634172487,32.21239294519233,9.71794142969884e-05,0.0969880521297454,0,0,0
3124,114595.04652774372,2010-12-14 20:26:31,4772.370279743439,2,11,0.5501165986061096,4.1938252449035645,9.663369878307082,8.918034755036212,38.81937520463175,32.21239294519233,9.70840483205393e-05,0.0969880521297454,0,0,0
3125,114625.06165751976,2010-12-14 20:27:01,4802.385409519458,2,11,0.550297200679779,4.197548389434815,9.667957094515584,8.918034755036212,38.83862137843478,32.21239294519233,0.0001295089750783,0.0969880521297454,0,0,0
3126,114644.49876056307,2010-12-14 20:27:21,4821.822512547763,2,11,0.550297200679779,4.200138568878174,9.670927634163975,8.918034755036212,38.85109389554254,32.21239294519233,0.0001295089750783,0.0969880521297454,0,0,0
3127,114674.51587061922,2010-12-14 20:27:51,30.01496282055731,3,11,0.0,4.106730937957764,9.670927634163975,8.918034755036212,38.85109389554254,32.21239294519233,-0.0003885269106831,0.0969880521297454,0,0,0
3128,114704.53087316365,2010-12-14 20:28:21,60.02996536997836,3,11,0.0,4.094913005828857,9.670927634163975,8.918034755036212,38.85109389554254,32.21239294519233,-0.0002266883820993,0.0969880521297454,0,0,0
3129,114734.5460883622,2010-12-14 20:28:51,90.04518062871838,3,11,0.0,4.087790012359619,9.670927634163975,8.918034755036212,38.85109389554254,32.21239294519233,-0.0001619339018361,0.0969880521297454,0,0,0
3130,114764.51400974696,2010-12-14 20:29:21,120.01310197838468,3,11,0.0,4.08293342590332,9.670927634163975,8.918034755036212,38.85109389554254,32.21239294519233,-9.71794142969884e-05,0.0969880521297454,0,0,0
3131,114764.52661370071,2010-12-14 20:29:21,0.015645713756926,4,11,1.0025428533554075,4.199814796447754,9.670932023827303,8.918034755036212,38.85111233167143,32.21239294519233,-3.24249267578125e-05,0.0969880521297454,0,0,0
3132,114765.41722686731,2010-12-14 20:29:22,0.906258905430051,4,11,0.9521528482437134,4.199814796447754,9.671172405525816,8.918034755036212,38.852121890292345,32.21239294519233,-3.24249267578125e-05,0.0969880521297454,0,0,0
3133,114767.46418341498,2010-12-14 20:29:24,2.953215453069754,4,11,0.9021241068840028,4.199814796447754,9.671698676501316,8.918034755036212,38.85433214446312,32.21239294519233,-3.24249267578125e-05,0.0969880521297454,0,0,0
3134,114770.57334651276,2010-12-14 20:29:27,6.062378590955184,4,11,0.8517341017723083,4.199814796447754,9.672455025421543,8.918034755036212,38.85750866853612,32.21239294519233,-3.24249267578125e-05,0.0969880521297454,0,0,0
3135,114774.82327665549,2010-12-14 20:29:31,10.31230869355666,4,11,0.8015246987342834,4.199653148651123,9.673429810631868,8.918034755036212,38.86160261046287,32.21239294519233,-3.23295607813634e-05,0.0969880521297454,0,0,0
3136,114780.43251424243,2010-12-14 20:29:37,15.921546285564462,4,11,0.7514959573745728,4.199814796447754,9.674638300875994,8.918034755036212,38.866678066671454,32.21239294519233,0.0,0.0969880521297454,0,0,0
3137,114787.72925876555,2010-12-14 20:29:44,23.218290798641235,4,11,0.7012865543365479,4.199653148651123,9.676108568873971,8.918034755036212,38.87285297394328,32.21239294519233,-6.47544875391759e-05,0.0969880521297454,0,0,0
3138,114797.47905807616,2010-12-14 20:29:54,32.96809011424583,4,11,0.6512578129768372,4.199653148651123,9.677937095836713,8.918034755036212,38.880532516925065,32.21239294519233,-3.23295607813634e-05,0.0969880521297454,0,0,0
3139,114811.08814467474,2010-12-14 20:30:08,46.57717671783245,4,11,0.6012290120124817,4.199814796447754,9.680299017719127,8.918034755036212,38.89045223706785,32.21239294519233,3.23295607813634e-05,0.0969880521297454,0,0,0
3140,114831.85333111252,2010-12-14 20:30:28,67.3423631506094,4,11,0.551200270652771,4.199976921081543,9.683611443924372,8.918034755036212,38.90436394142522,32.21239294519233,3.24249267578125e-05,0.0969880521297454,0,0,0
3141,114868.00884910344,2010-12-14 20:31:04,103.49788112649554,4,11,0.5011715292930603,4.199814796447754,9.688871615815565,8.918034755036212,38.92645589974437,32.21239294519233,0.0,0.0969880521297454,0,0,0
3142,114936.85116982076,2010-12-14 20:32:13,172.34020186386894,4,11,0.4511427283287048,4.199814796447754,9.69793364908208,8.918034755036212,38.96451511437266,32.21239294519233,3.23295607813634e-05,0.0969880521297454,0,0,0
3143,115043.786449762,2010-12-14 20:34:00,279.27548177503246,4,11,0.4011139571666717,4.199814796447754,9.710559356949684,8.918034755036212,39.017541258328095,32.21239294519233,0.0,0.0969880521297454,0,0,0
3144,115177.3931418014,2010-12-14 20:36:14,412.8821739297406,4,11,0.3510851860046386,4.199814796447754,9.72450311308446,8.918034755036212,39.07610302817183,32.21239294519233,0.0,0.0969880521297454,0,0,0
3145,115339.43654014074,2010-12-14 20:38:56,574.9255721638076,4,11,0.3008758127689361,4.199814796447754,9.739162397130467,8.918034755036212,39.13766989739314,32.21239294519233,0.0,0.0969880521297454,0,0,0
3146,115534.99503087848,2010-12-14 20:42:11,770.4840628915031,4,11,0.2508470416069031,4.199814796447754,9.754118146598824,8.918034755036212,39.20048180037754,32.21239294519233,-3.24249267578125e-05,0.0969880521297454,0,0,0
3147,115774.58395012406,2010-12-14 20:46:11,1010.0729822022496,4,11,0.20081827044487,4.199814796447754,9.769106614196428,8.918034755036212,39.2634311565908,32.21239294519233,0.0,0.0969880521297454,0,0,0
3148,116096.95242602254,2010-12-14 20:51:33,1332.4414581257977,4,11,0.1507894992828369,4.199653148651123,9.78476099528482,8.918034755036212,39.32917729607447,32.21239294519233,-3.23295607813634e-05,0.0969880521297454,0,0,0
3149,116577.9734473884,2010-12-14 20:59:34,1813.4624794014337,4,11,0.1005801260471344,4.199653148651123,9.801332583330767,8.918034755036212,39.39877554622188,32.21239294519233,-6.47544875391759e-05,0.0969880521297454,0,0,0
3150,117577.15623014315,2010-12-14 21:16:14,2812.6452621862863,4,11,0.0505513548851013,4.199653148651123,9.821383595304592,8.918034755036212,39.48298618300871,32.21239294519233,-3.23295607813634e-05,0.0969880521297454,0,0,0
3151,117605.35877645496,2010-12-14 21:16:42,2840.847808493057,4,11,0.0498289167881011,4.199814796447754,9.821780933272493,8.918034755036212,39.48465493359481,32.21239294519233,0.0,0.0969880521297454,0,0,0
3152,117635.37464689916,2010-12-14 21:17:12,30.015153344669237,5,11,0.0,4.191073417663574,9.821780933272493,8.918034755036212,39.48465493359481,32.21239294519233,-6.47544875391759e-05,0.0969880521297454,0,0,0
3153,117665.37406233064,2010-12-14 21:17:42,60.01456876110937,5,11,0.0,4.1896162033081055,9.821780933272493,8.918034755036212,39.48465493359481,32.21239294519233,-6.47544875391759e-05,0.0969880521297454,0,0,0
3154,117665.5635215136,2010-12-14 21:17:42,0.187683377867231,6,11,-1.9243103452026844e-05,4.189778327941895,9.821780933272493,8.918034756039438,39.48465493359481,32.212392949395614,0.0,0.0995923578739166,0,0,0
3155,117670.39131553836,2010-12-14 21:17:47,5.015477327426326,6,11,0.0010644125286489,4.189778327941895,9.821782035583364,8.918034756205111,39.48465955211578,32.21239295008975,-3.23295607813634e-05,0.0995923578739166,0,0,0
3156,117700.40844021615,2010-12-14 21:18:17,30.015135986474032,7,11,-1.099568486213684,3.9960007667541504,9.821782035583364,8.92720246675535,39.48465955211578,32.249248750689986,-0.0010360718006268,0.0995923578739166,0,0,0
3157,117730.42332772932,2010-12-14 21:18:47,60.03002348459436,7,11,-1.099568486213684,3.964918851852417,9.821782035583364,8.936370000744475,39.48465955211578,32.28572995557612,-0.0006799221155233,0.0995923578739166,0,0,0
3158,117760.43836343625,2010-12-14 21:19:17,90.04505920155155,7,11,-1.0993878841400146,3.943226099014282,9.821782035583364,8.945537471707738,39.48465955211578,32.32197374072242,-0.0005180359003134,0.0995923578739166,0,0,0
3159,117790.45346556346,2010-12-14 21:19:47,120.06016132876812,7,11,-1.099568486213684,3.9263899326324463,9.821782035583364,8.954705052498406,39.48465955211578,32.358043890482286,-0.0004209041653666,0.0995923578739166,0,0,0
3160,117820.46846543622,2010-12-14 21:20:17,150.075161186491,7,11,-1.0997490882873535,3.9124679565429688,9.821782035583364,8.963872558091422,39.48465955211578,32.3939742358798,-0.0003561019839253,0.0995923578739166,0,0,0
3161,117850.48352561404,2010-12-14 21:20:47,180.09022136431813,7,11,-1.099568486213684,3.9000027179718018,9.821782035583364,8.973040150430972,39.48465955211578,32.42978460110002,-0.0003885269106831,0.0995923578739166,0,0,0
3162,117880.49875938385,2010-12-14 21:21:17,210.10545521933423,7,11,-1.0993878841400146,3.888994455337525,9.821782035583364,8.982207718581746,39.48465955211578,32.465486447136506,-0.0002590179501567,0.0995923578739166,0,0,0
3163,117910.51365379416,2010-12-14 21:21:47,240.1203496497052,7,11,-1.0993878841400146,3.878148078918457,9.821782035583364,8.991375270750703,39.48465955211578,32.50108701353804,-0.0002266406954731,0.0995923578739166,0,0,0
3164,117940.52860194824,2010-12-14 21:22:17,270.1352976985036,7,11,-1.099568486213684,3.8676254749298096,9.821782035583364,9.000542836384012,39.48465955211578,32.53659127650508,-0.0002590179501567,0.0995923578739166,0,0,0
3165,117970.5436682964,2010-12-14 21:22:47,300.1503641569598,7,11,-1.0997490882873535,3.857912302017212,9.821782035583364,9.0097104488944,39.48465955211578,32.5720040004659,-0.0002913951757363,0.0995923578739166,0,0,0
3166,118000.55882937032,2010-12-14 21:23:17,330.16552512560105,7,11,-1.099568486213684,3.848361015319824,9.821782035583364,9.01887799601234,39.48465955211578,32.60732783652862,-0.0002590179501567,0.0995923578739166,0,0,0
3167,118030.573720317,2010-12-14 21:23:47,360.18041608232795,7,11,-1.0997490882873535,3.839133501052856,9.821782035583364,9.028045595039288,39.48465955211578,32.64256543005641,-0.0002266406954731,0.0995923578739166,0,0,0
3168,118060.58873770836,2010-12-14 21:24:17,390.1954334586452,7,11,-1.099568486213684,3.8300681114196777,9.821782035583364,9.037213233328137,39.48465955211578,32.67771923179365,-0.0002266406954731,0.0995923578739166,0,0,0
3169,118090.60376733016,2010-12-14 21:24:47,420.2104630954722,7,11,-1.099568486213684,3.82116436958313,9.821782035583364,9.046380850643406,39.48465955211578,32.7127913274874,-0.0002590179501567,0.0995923578739166,0,0,0
3170,118120.61880008476,2010-12-14 21:25:17,450.2254958550701,7,11,-1.099568486213684,3.812584400177002,9.821782035583364,9.055548400806693,39.48465955211578,32.74778395860664,-0.0002590179501567,0.0995923578739166,0,0,0
3171,118150.63388570088,2010-12-14 21:25:47,480.2405814661871,7,11,-1.099568486213684,3.804166316986084,9.821782035583364,9.064715963243964,39.48465955211578,32.7826978521469,-0.0001942634553415,0.0995923578739166,0,0,0
3172,118180.64887861632,2010-12-14 21:26:17,510.2555743816344,7,11,-1.0997490882873535,3.795910120010376,9.821782035583364,9.073883544027057,39.48465955211578,32.81753549755548,-0.0002266406954731,0.0995923578739166,0,0,0
3173,118210.6639286439,2010-12-14 21:26:47,540.2706244092029,7,11,-1.099568486213684,3.788139581680298,9.821782035583364,9.083051173718202,39.48465955211578,32.8522990189435,-0.0001618862152099,0.0995923578739166,0,0,0
3174,118240.67897331312,2010-12-14 21:27:17,570.2856690784375,7,11,-1.0997490882873535,3.7802071571350098,9.821782035583364,9.09221883453691,39.48465955211578,32.88699032622424,-0.0001618862152099,0.0995923578739166,0,0,0
3175,118270.6940102431,2010-12-14 21:27:48,600.3007060084133,7,11,-1.099568486213684,3.7725985050201416,9.821782035583364,9.101386524611536,39.48465955211578,32.92161105586344,-0.0001942634553415,0.0995923578739166,0,0,0
3176,118300.70915023451,2010-12-14 21:28:18,630.3158459848161,7,11,-1.099568486213684,3.7651517391204834,9.821782035583364,9.11055417494882,39.48465955211578,32.956162642622616,-0.0001942634553415,0.0995923578739166,0,0,0
3177,118330.72418779608,2010-12-14 21:28:48,660.3308835614008,7,11,-1.0997490882873535,3.757866859436035,9.821782035583364,9.119721841520528,39.48465955211578,32.99064698804881,-0.0001942634553415,0.0995923578739166,0,0,0
3178,118360.73909807588,2010-12-14 21:29:18,690.3457938412125,7,11,-1.0997490882873535,3.750582218170166,9.821782035583364,9.128889499355305,39.48465955211578,33.02506541075139,-0.0002266406954731,0.0995923578739166,0,0,0
3179,118390.75427997664,2010-12-14 21:29:48,720.3609757419424,7,11,-1.099568486213684,3.7439448833465576,9.821782035583364,9.138057230947997,39.48465955211578,33.0594198031774,-0.0001618862152099,0.0995923578739166,0,0,0
3180,118420.76919272255,2010-12-14 21:30:18,750.375888477866,7,11,-1.099568486213684,3.7371456623077393,9.821782035583364,9.147224907769283,39.48465955211578,33.09371096727816,-0.0001942634553415,0.0995923578739166,0,0,0
3181,118450.78435526013,2010-12-14 21:30:48,780.3910510956109,7,11,-1.099568486213684,3.730346441268921,9.821782035583364,9.15639266124418,39.48465955211578,33.12794086022562,-0.0001942634553415,0.0995923578739166,0,0,0
3182,118480.79923280347,2010-12-14 21:31:18,810.4059286389592,7,11,-1.0997490882873535,3.7238709926605225,9.821782035583364,9.16556027200456,39.48465955211578,33.16211032978934,-0.0001942634553415,0.0995923578739166,0,0,0
3183,118510.81428218444,2010-12-14 21:31:48,840.4209779347067,7,11,-1.099568486213684,3.717719316482544,9.821782035583364,9.174727940248903,39.48465955211578,33.19622133238998,-0.0001618862152099,0.0995923578739166,0,0,0
3184,118540.82930686392,2010-12-14 21:32:18,870.4360026141977,7,11,-1.099568486213684,3.711405754089356,9.821782035583364,9.183895706673091,39.48465955211578,33.23027485404577,-0.0001295089750783,0.0995923578739166,0,0,0
3185,118570.8444709904,2010-12-14 21:32:48,900.4511667557344,7,11,-1.099568486213684,3.705254077911377,9.821782035583364,9.19306356344649,39.48465955211578,33.264271469732336,-0.0001618862152099,0.0995923578739166,0,0,0
3186,118600.85941834748,2010-12-14 21:33:18,930.4661141128116,7,11,-1.0997490882873535,3.6991024017333984,9.821782035583364,9.202231239459788,39.48465955211578,33.29821126839766,-0.0001618862152099,0.0995923578739166,0,0,0
3187,118630.87447073092,2010-12-14 21:33:48,960.4811664962424,7,11,-1.0997490882873535,3.69311261177063,9.821782035583364,9.211398975889628,39.48465955211578,33.33209632194753,-0.0001942634553415,0.0995923578739166,0,0,0
3188,118660.88947521016,2010-12-14 21:34:18,990.496170975466,7,11,-1.0997490882873535,3.687122821807861,9.821782035583364,9.2205667502072,39.48465955211578,33.36592724394551,-0.0001942634553415,0.0995923578739166,0,0,0
3189,118690.9045082755,2010-12-14 21:34:48,1020.5112040408246,7,11,-1.0997490882873535,3.681618690490722,9.821782035583364,9.229734489461949,39.48465955211578,33.39970472665095,-0.0001295089750783,0.0995923578739166,0,0,0
3190,118720.9196789834,2010-12-14 21:35:18,1050.526374753714,7,11,-1.0993878841400146,3.675952672958374,9.821782035583364,9.238902258347856,39.48465955211578,33.43342994359397,-0.0001295089750783,0.0995923578739166,0,0,0
3191,118750.93472566764,2010-12-14 21:35:48,1080.5414214329503,7,11,-1.099568486213684,3.6701250076293945,9.821782035583364,9.24806999530508,39.48465955211578,33.46710346524845,-0.0001618862152099,0.0995923578739166,0,0,0
3192,118780.94964198249,2010-12-14 21:36:18,1110.5563377527926,7,11,-1.0997490882873535,3.664944648742676,9.821782035583364,9.257237687595032,39.48465955211578,33.500726041545754,-9.713172767078504e-05,0.0995923578739166,0,0,0
3193,118810.96479951256,2010-12-14 21:36:48,1140.5714952628273,7,11,-1.099568486213684,3.659440517425537,9.821782035583364,9.266405407884546,39.48465955211578,33.53429934373118,-0.0001295089750783,0.0995923578739166,0,0,0
3194,118840.9799597594,2010-12-14 21:37:18,1170.5866555196972,7,11,-1.0997490882873535,3.654098272323608,9.821782035583364,9.275573155605986,39.48465955211578,33.567823573846965,-0.0001295089750783,0.0995923578739166,0,0,0
3195,118870.99481809496,2010-12-14 21:37:48,1200.6015139504846,7,11,-1.099568486213684,3.64875602722168,9.821782035583364,9.28474081050008,39.48465955211578,33.60129906350675,-0.0001618862152099,0.0995923578739166,0,0,0
3196,118901.0099264176,2010-12-14 21:38:18,1230.616622167856,7,11,-1.0993878841400146,3.643737554550171,9.821782035583364,9.293908512549828,39.48465955211578,33.63472653516482,-9.713172767078504e-05,0.0995923578739166,0,0,0
3197,118931.02527140916,2010-12-14 21:38:48,1260.6319672296058,7,11,-1.0993878841400146,3.638557195663452,9.821782035583364,9.303076280008405,39.48465955211578,33.668107202999394,-0.0001618862152099,0.0995923578739166,0,0,0
3198,118961.04000864836,2010-12-14 21:39:18,1290.6467044136757,7,11,-1.099568486213684,3.633376836776733,9.821782035583364,9.3122439031235,39.48465955211578,33.70144139532269,-0.0001942634553415,0.0995923578739166,0,0,0
3199,118991.05502572394,2010-12-14 21:39:48,1320.6617214892444,7,11,-1.0997490882873535,3.6288440227508554,9.821782035583364,9.321411693092132,39.48465955211578,33.73473073208326,-9.713172767078504e-05,0.0995923578739166,0,0,0
3200,119021.06993945233,2010-12-14 21:40:18,1350.676635207613,7,11,-1.0993878841400146,3.6238255500793457,9.821782035583364,9.330579382600725,39.48465955211578,33.76797516599338,-0.0001618862152099,0.0995923578739166,0,0,0
3201,119051.08499628684,2010-12-14 21:40:48,1380.6916920521453,7,11,-1.0997490882873535,3.619130849838257,9.821782035583364,9.339747130500134,39.48465955211578,33.80117623888169,-0.0001618862152099,0.0995923578739166,0,0,0
3202,119081.10001797388,2010-12-14 21:41:18,1410.7067138043517,7,11,-1.099568486213684,3.614436149597168,9.821782035583364,9.348914838611272,39.48465955211578,33.83433433470399,-0.0001295089750783,0.0995923578739166,0,0,0
3203,119111.11512055724,2010-12-14 21:41:48,1440.7218163877033,7,11,-1.099568486213684,3.609903335571289,9.821782035583364,9.358082618785724,39.48465955211578,33.86745078321401,-0.0001942634553415,0.0995923578739166,0,0,0
3204,119141.1301061294,2010-12-14 21:42:18,1470.7368018947147,7,11,-1.099568486213684,3.60569429397583,9.821782035583364,9.367250414711398,39.48465955211578,33.90052662739852,-6.47544875391759e-05,0.0995923578739166,0,0,0
3205,119171.14515330987,2010-12-14 21:42:48,1500.7518490751986,7,11,-1.099568486213684,3.601323366165161,9.821782035583364,9.376418176174449,39.48465955211578,33.933562452920995,-0.0001295089750783,0.0995923578739166,0,0,0
3206,119201.1601853828,2010-12-14 21:43:18,1530.7668811531005,7,11,-1.099568486213684,3.597114324569702,9.821782035583364,9.385585933985904,39.48465955211578,33.96655946676568,-0.0001295089750783,0.0995923578739166,0,0,0
3207,119231.17528283336,2010-12-14 21:43:48,1560.781978583629,7,11,-1.099568486213684,3.593067169189453,9.821782035583364,9.394753752448183,39.48465955211578,33.999518741213606,-9.713172767078504e-05,0.0995923578739166,0,0,0
3208,119261.19042456412,2010-12-14 21:44:18,1590.7971203845725,7,11,-1.0997490882873535,3.589020252227783,9.821782035583364,9.40392162615214,39.48465955211578,34.03244114934386,-0.0001295089750783,0.0995923578739166,0,0,0
3209,119291.205314769,2010-12-14 21:44:48,1620.8120105242665,7,11,-1.0997490882873535,3.584973096847534,9.821782035583364,9.41308938208185,39.48465955211578,34.06532714912126,-0.0001618862152099,0.0995923578739166,0,0,0
3210,119321.22035945323,2010-12-14 21:45:18,1650.8270552035256,7,11,-1.0997490882873535,3.581411600112915,9.821782035583364,9.422257177931648,39.48465955211578,34.09817821145127,-0.0001295089750783,0.0995923578739166,0,0,0
3211,119351.23540752596,2010-12-14 21:45:48,1680.842103291267,7,11,-1.099568486213684,3.577850103378296,9.821782035583364,9.431425000504662,39.48465955211578,34.13099530207763,-6.47544875391759e-05,0.0995923578739166,0,0,0
3212,119381.25066434313,2010-12-14 21:46:18,1710.857360178598,7,11,-1.099568486213684,3.574126720428467,9.821782035583364,9.440592947363132,39.48465955211578,34.1637794444984,-9.713172767078504e-05,0.0995923578739166,0,0,0
3213,119411.26553655318,2010-12-14 21:46:48,1740.8722324137373,7,11,-1.099568486213684,3.5707271099090576,9.821782035583364,9.449760751042817,39.48465955211578,34.196530477248366,-6.47544875391759e-05,0.0995923578739166,0,0,0
3214,119441.280525594,2010-12-14 21:47:18,1770.8872213593056,7,11,-1.0993878841400146,3.5671656131744385,9.821782035583364,9.458928515354378,39.48465955211578,34.2292493587169,-6.47544875391759e-05,0.0995923578739166,0,0,0
3215,119471.29559618776,2010-12-14 21:47:48,1800.90229194804,7,11,-1.099929690361023,3.5634422302246094,9.821782035583364,9.46809629866447,39.48465955211578,34.261936844414585,-0.0001618862152099,0.0995923578739166,0,0,0
3216,119501.31061491242,2010-12-14 21:48:18,1830.9173106777248,7,11,-1.099568486213684,3.56052827835083,9.821782035583364,9.477264036673054,39.48465955211578,34.2945937038744,-6.47544875391759e-05,0.0995923578739166,0,0,0
3217,119531.32565704534,2010-12-14 21:48:48,1860.932352810648,7,11,-1.099568486213684,3.557290554046631,9.821782035583364,9.486431834263838,39.48465955211578,34.32722028476438,-6.47544875391759e-05,0.0995923578739166,0,0,0
3218,119561.3406984765,2010-12-14 21:49:18,1890.9473942167624,7,11,-1.0993878841400146,3.554052829742432,9.821782035583364,9.495599693463516,39.48465955211578,34.359816609682724,-3.237724376958795e-05,0.0995923578739166,0,0,0
3219,119591.35575068452,2010-12-14 21:49:48,1920.9624464448068,7,11,-1.0997490882873535,3.5504913330078125,9.821782035583364,9.50476741763588,39.48465955211578,34.392382424916214,-0.0001295089750783,0.0995923578739166,0,0,0
3220,119621.37094298612,2010-12-14 21:50:18,1950.9776388065688,7,11,-1.0993878841400146,3.5474154949188232,9.821782035583364,9.51393526104839,39.48465955211578,34.424918588579544,-3.237724376958795e-05,0.0995923578739166,0,0,0
3221,119651.38582573744,2010-12-14 21:50:48,1980.9925214927143,7,11,-1.099568486213684,3.544015884399414,9.821782035583364,9.523103050233123,39.48465955211578,34.45742458555865,-6.47544875391759e-05,0.0995923578739166,0,0,0
3222,119681.40089194526,2010-12-14 21:51:18,2011.00758770556,7,11,-1.099568486213684,3.540778160095215,9.821782035583364,9.53227090031164,39.48465955211578,34.48990075885058,-9.713172767078504e-05,0.0995923578739166,0,0,0
3223,119711.4160476859,2010-12-14 21:51:48,2041.0227434512035,7,11,-1.0993878841400146,3.5377023220062256,9.821782035583364,9.541438781920387,39.48465955211578,34.52234697199172,-3.237724376958795e-05,0.0995923578739166,0,0,0
3224,119741.43095831656,2010-12-14 21:52:18,2071.037654086901,7,11,-1.099568486213684,3.5341408252716064,9.821782035583364,9.550606588440903,39.48465955211578,34.554762391429016,-9.713172767078504e-05,0.0995923578739166,0,0,0
3225,119771.44600872508,2010-12-14 21:52:48,2101.0527044954174,7,11,-1.099568486213684,3.5305793285369877,9.821782035583364,9.559774397107116,39.48465955211578,34.587147034856635,-0.0001618862152099,0.0995923578739166,0,0,0
3226,119801.46124750737,2010-12-14 21:53:18,2131.067943337845,7,11,-1.0997490882873535,3.527179718017578,9.821782035583364,9.568942299265586,39.48465955211578,34.61950110403966,-0.0001295089750783,0.0995923578739166,0,0,0
3227,119831.476109898,2010-12-14 21:53:48,2161.082805663324,7,11,-1.0993878841400146,3.523941993713379,9.821782035583364,9.578110027776788,39.48465955211578,34.65182297708359,-6.47544875391759e-05,0.0995923578739166,0,0,0
3228,119861.49113971528,2010-12-14 21:54:18,2191.0978354806,7,11,-1.0997490882873535,3.52021861076355,9.821782035583364,9.587277786798497,39.48465955211578,34.684112709206744,-0.0001295089750783,0.0995923578739166,0,0,0
3229,119891.50619576283,2010-12-14 21:54:48,2221.112891523136,7,11,-1.0997490882873535,3.5164952278137207,9.821782035583364,9.59644556392474,39.48465955211578,34.71636943941633,-0.0001295089750783,0.0995923578739166,0,0,0
3230,119921.52139111706,2010-12-14 21:55:18,2251.1280869575444,7,11,-1.099568486213684,3.512771844863892,9.821782035583364,9.60561350568342,39.48465955211578,34.74859298360177,-9.713172767078504e-05,0.0995923578739166,0,0,0
3231,119951.53630011866,2010-12-14 21:55:48,2281.1429958689505,7,11,-1.099568486213684,3.5090487003326416,9.821782035583364,9.614781283903424,39.48465955211578,34.78078110840622,-9.713172767078504e-05,0.0995923578739166,0,0,0
3232,119981.55133519405,2010-12-14 21:56:18,2311.1580310144864,7,11,-1.099568486213684,3.5050015449523926,9.821782035583364,9.623949149002208,39.48465955211578,34.81293316990071,-9.713172767078504e-05,0.0995923578739166,0,0,0
3233,120011.56649205746,2010-12-14 21:56:48,2341.173187807737,7,11,-1.0997490882873535,3.500630617141724,9.821782035583364,9.633117054802986,39.48465955211578,34.84504734388433,-0.0001295089750783,0.0995923578739166,0,0,0
3234,120041.58138998656,2010-12-14 21:57:18,2371.188085741827,7,11,-1.099568486213684,3.4962596893310547,9.821782035583364,9.642284824430536,39.48465955211578,34.87712098750846,-0.0001295089750783,0.0995923578739166,0,0,0
3235,120071.5966408138,2010-12-14 21:57:48,2401.2033366593014,7,11,-1.099568486213684,3.491403102874756,9.821782035583364,9.651452707427255,39.48465955211578,34.90915237555589,-0.0001295089750783,0.0995923578739166,0,0,0
3236,120101.6115207882,2010-12-14 21:58:18,2431.218216548488,7,11,-1.0997490882873535,3.486222743988037,9.821782035583364,9.660620550834214,39.48465955211578,34.9411381088221,-0.0001618862152099,0.0995923578739166,0,0,0
3237,120131.62664662942,2010-12-14 21:58:48,2461.2333424498656,7,11,-1.099568486213684,3.4803948402404785,9.821782035583364,9.669788376738634,39.48465955211578,34.97307428631552,-0.0001942634553415,0.0995923578739166,0,0,0
3238,120161.64154016758,2010-12-14 21:59:18,2491.248235927867,7,11,-1.099568486213684,3.47440505027771,9.821782035583364,9.67895612132005,39.48465955211578,35.004955337276414,-0.0001618862152099,0.0995923578739166,0,0,0
3239,120191.65659220514,2010-12-14 21:59:49,2521.2632879704493,7,11,-1.0993878841400146,3.467282056808472,9.821782035583364,9.688123873011358,39.48465955211578,35.03677583453536,-0.0001942634553415,0.0995923578739166,0,0,0
3240,120221.67191309172,2010-12-14 22:00:19,2551.278608927215,7,11,-1.0997490882873535,3.4591877460479736,9.821782035583364,9.697291649908593,39.48465955211578,35.06852743872664,-0.0002266406954731,0.0995923578739166,0,0,0
3241,120251.68680480034,2010-12-14 22:00:49,2581.293500570651,7,11,-1.099568486213684,3.450122117996216,9.821782035583364,9.70645934319614,39.48465955211578,35.10019946186802,-0.0002590179501567,0.0995923578739166,0,0,0
3242,120281.70173424784,2010-12-14 22:01:19,2611.308430013148,7,11,-1.0993878841400146,3.4389519691467285,9.821782035583364,9.715627062113638,39.48465955211578,35.13177878400596,-0.0003237724304199,0.0995923578739166,0,0,0
3243,120311.7167915836,2010-12-14 22:01:49,2641.3234873489027,7,11,-1.099568486213684,3.425839424133301,9.821782035583364,9.724794802972834,39.48465955211578,35.16324806525834,-0.0003885269106831,0.0995923578739166,0,0,0
3244,120341.73182640332,2010-12-14 22:02:19,2671.3385222237644,7,11,-1.099568486213684,3.409812688827514,9.821782035583364,9.733962590208792,39.48465955211578,35.1945844905403,-0.0004856586456298,0.0995923578739166,0,0,0
3245,120371.74686207014,2010-12-14 22:02:49,2701.35355783546,7,11,-1.0997490882873535,3.3897387981414795,9.821782035583364,9.74313035803876,39.48465955211578,35.22575664798008,-0.0006151676061563,0.0995923578739166,0,0,0
3246,120401.76190354142,2010-12-14 22:03:19,2731.3685993067365,7,11,-1.0997490882873535,3.363998889923096,9.821782035583364,9.752298089595945,39.48465955211578,35.25672069243266,-0.0007770538213662,0.0995923578739166,0,0,0
3247,120431.7769641854,2010-12-14 22:03:49,2761.3836599356864,7,11,-1.099568486213684,3.330164909362793,9.821782035583364,9.76146577261316,39.48465955211578,35.28741309328975,-0.0010036944877356,0.0995923578739166,0,0,0
3248,120461.79199904024,2010-12-14 22:04:19,2791.398694805536,7,11,-1.099568486213684,3.284674882888794,9.821782035583364,9.770633467483528,39.48465955211578,35.31774484702176,-0.0013598442310467,0.0995923578739166,0,0,0
3249,120491.80704919812,2010-12-14 22:04:49,2821.413744963428,7,11,-1.099929690361023,3.222348928451538,9.821782035583364,9.779801157915406,39.48465955211578,35.347588007877604,-0.0019102573860436,0.0995923578739166,0,0,0
3250,120521.82213134562,2010-12-14 22:05:19,2851.4288271059136,7,11,-1.0993878841400146,3.135092496871948,9.821782035583364,9.788968834728076,39.48465955211578,35.37675455870778,-0.0027196884620934,0.0995923578739166,0,0,0
3251,120551.83714367938,2010-12-14 22:05:49,2881.443839444695,7,11,-1.099568486213684,3.0025081634521484,9.821782035583364,9.798136520870344,39.48465955211578,35.40493717198048,-0.0043709278106689,0.0995923578739166,0,0,0
3252,120578.27413241904,2010-12-14 22:06:15,2907.8808281843667,7,11,-1.099568486213684,2.802417278289795,9.821782035583364,9.806211330167477,39.48465955211578,35.42844378319787,-0.0073820115067064,0.0995923578739166,0,0,0
3253,120588.6648003716,2010-12-14 22:06:26,2918.271496192063,7,11,-1.099929690361023,2.699943780899048,9.821782035583364,9.80938502740463,39.48465955211578,35.43717725637378,-0.0079971309751272,0.0995923578739166,0,0,0
3254,120648.68320489404,2010-12-14 22:07:26,60.01445970973924,8,11,0.0,3.4183926582336426,9.821782035583364,9.80938502740463,39.48465955211578,35.43717725637378,0.0013274669181555,0.0995923578739166,0,0,0
3255,120648.86841411062,2010-12-14 22:07:26,0.18767075144687,9,11,-1.9243103452026844e-05,3.4187164306640625,9.821782035583364,9.809385028407789,39.48465955211578,35.43717725980329,0.0,0.0940944999456405,0,0,0
3256,120653.6965344524,2010-12-14 22:07:31,5.015791178432484,9,11,0.0008838032954372,3.4266488552093506,9.821783127318112,9.80938502849076,39.48466328965648,35.43717726008695,0.0011008263099938,0.0940944999456405,0,0,0
