Data_Point,Test_Time(s),Date_Time,Step_Time(s),Step_Index,Cycle_Index,Current(A),Voltage(V),Charge_Capacity(Ah),Discharge_Capacity(Ah),Charge_Energy(Wh),Discharge_Energy(Wh),dV/dt(V/s),Internal_Resistance(Ohm),Is_FC_Data,AC_Impedance(Ohm),ACI_Phase_Angle(Deg)
8238,305471.0448426326,2010-12-17 01:28:10,30.01691081306173,1,29,0.0,3.466634511947632,24.821547752716008,24.798046616506404,99.76450197231672,89.60410790444867,0.0007770538213662,0.0954576581716537,0,0,0
8239,305501.0581957274,2010-12-17 01:28:40,60.03026381765394,1,29,0.0,3.490917444229126,24.821547752716008,24.798046616506404,99.76450197231672,89.60410790444867,0.0005180359003134,0.0954576581716537,0,0,0
8240,305531.07315657305,2010-12-17 01:29:10,90.04522473347137,1,29,0.0,3.509210586547852,24.821547752716008,24.798046616506404,99.76450197231672,89.60410790444867,0.0003885269106831,0.0954576581716537,0,0,0
8241,305561.04331206734,2010-12-17 01:29:40,120.01538027784524,1,29,0.0,3.523941993713379,24.821547752716008,24.798046616506404,99.76450197231672,89.60410790444867,0.0003885269106831,0.0954576581716537,0,0,0
8242,305591.0507990325,2010-12-17 01:30:10,30.015060433463272,2,29,0.550297200679779,3.670286893844605,24.826135169961407,24.798046616506404,99.7812041069808,89.60410790444867,0.0012950897216796,0.0954576581716537,0,0,0
8243,305621.06585580687,2010-12-17 01:30:40,60.030117222858415,2,29,0.550297200679779,3.707520484924317,24.830722447786115,24.798046616506404,99.79813127623908,89.60410790444867,0.0008418083307333,0.0954576581716537,0,0,0
8244,305651.08093069633,2010-12-17 01:31:10,90.04519211229483,2,29,0.5501165986061096,3.73358416557312,24.83530979292203,24.798046616506404,99.8152017038219,89.60410790444867,0.0006151676061563,0.0954576581716537,0,0,0
8245,305681.09600085404,2010-12-17 01:31:40,120.0602622699564,2,29,0.5499359965324402,3.753334045410156,24.8398970587859,24.798046616506404,99.83237625582434,89.60410790444867,0.000453233718872,0.0954576581716537,0,0,0
8246,305711.1110783098,2010-12-17 01:32:10,150.07533973079163,2,29,0.5499359965324402,3.767418146133423,24.84448439126048,24.798046616506404,99.84962870176354,89.60410790444867,0.0003237724304199,0.0954576581716537,0,0,0
8247,305741.1262389476,2010-12-17 01:32:40,180.0905003635971,2,29,0.5501165986061096,3.7768075466156006,24.849071743369507,24.798046616506404,99.86693489701491,89.60410790444867,0.0001942634553415,0.0954576581716537,0,0,0
8248,305771.1411843047,2010-12-17 01:33:10,210.10544572069728,2,29,0.550297200679779,3.783930540084839,24.85365896530501,24.798046616506404,99.884276914892,89.60410790444867,0.0001942634553415,0.0954576581716537,0,0,0
8249,305801.156257515,2010-12-17 01:33:40,240.12051893095511,2,29,0.5501165986061096,3.7894346714019775,24.8582462150908,24.798046616506404,99.90164691989912,89.60410790444867,0.0001618862152099,0.0954576581716537,0,0,0
8250,305831.17131307133,2010-12-17 01:34:10,270.1355744872818,2,29,0.550297200679779,3.7944531440734863,24.862833577727017,24.798046616506404,99.91904194322844,89.60410790444867,0.0001295089750783,0.0954576581716537,0,0,0
8251,305861.18637586565,2010-12-17 01:34:40,300.15063728162005,2,29,0.550297200679779,3.799309730529785,24.867420869711445,24.798046616506404,99.93645948420568,89.60410790444867,0.0001295089750783,0.0954576581716537,0,0,0
8252,305891.2016633391,2010-12-17 01:35:10,330.1659247350137,2,29,0.550297200679779,3.803842544555664,24.872008229525616,24.798046616506404,99.9538988388213,89.60410790444867,9.713172767078504e-05,0.0954576581716537,0,0,0
8253,305921.2183569065,2010-12-17 01:35:40,360.18261841274244,2,29,0.5501165986061096,3.808375358581543,24.876595763585893,24.798046616506404,99.97135941909268,89.60410790444867,0.0001618862152099,0.0954576581716537,0,0,0
8254,305951.2317061718,2010-12-17 01:36:10,390.1959675727677,2,29,0.550297200679779,3.812746286392212,24.88118284630748,24.798046616506404,99.9888381014012,89.60410790444867,0.0001618862152099,0.0954576581716537,0,0,0
8255,305981.24664901267,2010-12-17 01:36:40,420.2109104988182,2,29,0.5499359965324402,3.816631555557251,24.88577007926671,24.798046616506404,100.00633687325384,89.60410790444867,0.0001295089750783,0.0954576581716537,0,0,0
8256,306011.26170436345,2010-12-17 01:37:10,450.2259657794589,2,29,0.5501165986061096,3.8206787109375,24.89035746272146,24.798046616506404,100.02385483182948,89.60410790444867,6.47544875391759e-05,0.0954576581716537,0,0,0
8257,306041.27676451125,2010-12-17 01:37:40,480.2410259021488,2,29,0.5499359965324402,3.824563980102539,24.8949448018088,24.798046616506404,100.04139088907311,89.60410790444867,6.47544875391759e-05,0.0954576581716537,0,0,0
8258,306071.2918370097,2010-12-17 01:38:10,510.2560985911094,2,29,0.550297200679779,3.828773021697998,24.89953206442416,24.798046616506404,100.05894455682244,89.60410790444867,0.0001618862152099,0.0954576581716537,0,0,0
8259,306101.30690076645,2010-12-17 01:38:40,540.2711621874433,2,29,0.550297200679779,3.832496404647827,24.90411934652289,24.798046616506404,100.07651628373806,89.60410790444867,9.713172767078504e-05,0.0954576581716537,0,0,0
8260,306131.3219694855,2010-12-17 01:39:10,570.2862308965002,2,29,0.5501165986061096,3.836219549179077,24.908706632780344,24.798046616506404,100.0941056808053,89.60410790444867,6.47544875391759e-05,0.0954576581716537,0,0,0
8261,306161.3370392172,2010-12-17 01:39:40,600.3013006331139,2,29,0.5501165986061096,3.840104818344116,24.913293967934024,24.798046616506404,100.11171309630346,89.60410790444867,9.713172767078504e-05,0.0954576581716537,0,0,0
8262,306191.35208306933,2010-12-17 01:40:10,630.3163444853154,2,29,0.550297200679779,3.8439900875091553,24.9178813729726,24.798046616506404,100.12933851691574,89.60410790444867,9.713172767078504e-05,0.0954576581716537,0,0,0
8263,306221.36714513187,2010-12-17 01:40:40,660.3314066380569,2,29,0.550297200679779,3.848037242889404,24.92246871602896,24.798046616506404,100.14698146434068,89.60410790444867,0.0001295089750783,0.0954576581716537,0,0,0
8264,306251.3823311779,2010-12-17 01:41:10,690.346592583853,2,29,0.550297200679779,3.8517606258392334,24.92705616869344,24.798046616506404,100.16464265041938,89.60410790444867,0.0001295089750783,0.0954576581716537,0,0,0
8265,306281.3972848557,2010-12-17 01:41:41,720.3615462716838,2,29,0.550297200679779,3.855645895004273,24.931643559041103,24.798046616506404,100.1823211248704,89.60410790444867,0.0001295089750783,0.0954576581716537,0,0,0
8266,306311.4124690421,2010-12-17 01:42:11,750.376730463114,2,29,0.550297200679779,3.8593692779541016,24.93623096099681,24.798046616506404,100.20001704728816,89.60410790444867,0.0001295089750783,0.0954576581716537,0,0,0
8267,306341.4274500229,2010-12-17 01:42:41,780.391711493987,2,29,0.550297200679779,3.86309266090393,24.94081834062609,24.798046616506404,100.21772992797658,89.60410790444867,9.713172767078504e-05,0.0954576581716537,0,0,0
8268,306371.4425376089,2010-12-17 01:43:11,810.4067991000683,2,29,0.550297200679779,3.86665415763855,24.945405690618493,24.798046616506404,100.23545934923035,89.60410790444867,9.713172767078504e-05,0.0954576581716537,0,0,0
8269,306401.4576257714,2010-12-17 01:43:41,840.4218871622845,2,29,0.5501165986061096,3.870053768157959,24.949993062021697,24.798046616506404,100.25320506565016,89.60410790444867,6.47544875391759e-05,0.0954576581716537,0,0,0
8270,306431.4727203849,2010-12-17 01:44:11,870.4369817858286,2,29,0.5501165986061096,3.873615264892578,24.95458048513036,24.798046616506404,100.27096674741416,89.60410790444867,0.0001295089750783,0.0954576581716537,0,0,0
8271,306461.4877998357,2010-12-17 01:44:41,900.4520612366158,2,29,0.5501165986061096,3.876691102981568,24.959167934158497,24.798046616506404,100.2887436412362,89.60410790444867,9.713172767078504e-05,0.0954576581716537,0,0,0
8272,306491.50270649645,2010-12-17 01:45:11,930.4669679174716,2,29,0.5499359965324402,3.8796050548553462,24.96375528689644,24.798046616506404,100.3065345976708,89.60410790444867,6.47544875391759e-05,0.0954576581716537,0,0,0
8273,306521.5196599206,2010-12-17 01:45:41,960.4839214618686,2,29,0.550297200679779,3.882680892944336,24.968342946382386,24.798046616506404,100.32434057425068,89.60410790444867,3.237724376958795e-05,0.0954576581716537,0,0,0
8274,306551.53299156704,2010-12-17 01:46:11,990.4972530631997,2,29,0.550297200679779,3.8855948448181152,24.97293007765296,24.798046616506404,100.3421576065747,89.60410790444867,6.47544875391759e-05,0.0954576581716537,0,0,0
8275,306581.54789935064,2010-12-17 01:46:41,1020.5121607415376,2,29,0.5501165986061096,3.8880231380462646,24.977517395209645,24.798046616506404,100.35998782231812,89.60410790444867,3.237724376958795e-05,0.0954576581716537,0,0,0
8276,306611.56297663605,2010-12-17 01:47:11,1050.5272380319486,2,29,0.5501165986061096,3.890775203704834,24.982104827668483,24.798046616506404,100.37783035742729,89.60410790444867,9.713172767078504e-05,0.0954576581716537,0,0,0
8277,306641.57805488387,2010-12-17 01:47:41,1080.5423162747295,2,29,0.5501165986061096,3.892879724502564,24.98669225427848,24.798046616506404,100.39568406832348,89.60410790444867,3.237724376958795e-05,0.0954576581716537,0,0,0
8278,306671.5931044803,2010-12-17 01:48:11,1110.557365876238,2,29,0.5501165986061096,3.895146131515503,24.991279695570856,24.798046616506404,100.41354828167438,89.60410790444867,6.47544875391759e-05,0.0954576581716537,0,0,0
8279,306701.60817915923,2010-12-17 01:48:41,1140.5724406453753,2,29,0.5501165986061096,3.8974125385284415,24.9958671240023,24.798046616506404,100.43142222774992,89.60410790444867,6.47544875391759e-05,0.0954576581716537,0,0,0
8280,306731.6232282695,2010-12-17 01:49:11,1170.587489660424,2,29,0.5501165986061096,3.899517059326172,25.000454494616424,24.798046616506404,100.44930560814517,89.60410790444867,6.47544875391759e-05,0.0954576581716537,0,0,0
8281,306761.63853692566,2010-12-17 01:49:41,1200.6027983967797,2,29,0.550297200679779,3.9014596939086914,25.005041933163348,24.798046616506404,100.4671985520464,89.60410790444867,9.713172767078504e-05,0.0954576581716537,0,0,0
8282,306791.6533695974,2010-12-17 01:50:11,1230.617631018342,2,29,0.550297200679779,3.903402328491211,25.00962929891784,24.798046616506404,100.48510020492294,89.60410790444867,6.47544875391759e-05,0.0954576581716537,0,0,0
8283,306821.6684242013,2010-12-17 01:50:41,1260.6326856222986,2,29,0.5501165986061096,3.905183076858521,25.01421667353585,24.798046616506404,100.5030106557332,89.60410790444867,3.237724376958795e-05,0.0954576581716537,0,0,0
8284,306851.68630121375,2010-12-17 01:51:11,1290.650562749997,2,29,0.550297200679779,3.90696382522583,25.01880446926592,24.798046616506404,100.52093117301392,89.60410790444867,0.0,0.0954576581716537,0,0,0
8285,306881.69858769426,2010-12-17 01:51:41,1320.662849110286,2,29,0.550297200679779,3.90906834602356,25.023391475682168,24.798046616506404,100.53885693389672,89.60410790444867,6.47544875391759e-05,0.0954576581716537,0,0,0
8286,306911.7136247747,2010-12-17 01:52:11,1350.6778861755986,2,29,0.550297200679779,3.910687208175659,25.027978857708053,24.798046616506404,100.55679244111924,89.60410790444867,6.47544875391759e-05,0.0954576581716537,0,0,0
8287,306941.7286909073,2010-12-17 01:52:41,1380.692952298219,2,29,0.550297200679779,3.912306070327759,25.03256622545503,24.798046616506404,100.57473600029384,89.60410790444867,3.237724376958795e-05,0.0954576581716537,0,0,0
8288,306971.74379984144,2010-12-17 01:53:11,1410.7080612624493,2,29,0.5501165986061096,3.914248466491699,25.03715360603461,24.798046616506404,100.59268763881992,89.60410790444867,9.713172767078504e-05,0.0954576581716537,0,0,0
8289,307001.75896077504,2010-12-17 01:53:41,1440.7232221709407,2,29,0.5501165986061096,3.915867328643799,25.0417410198779,24.798046616506404,100.61064739891565,89.60410790444867,6.47544875391759e-05,0.0954576581716537,0,0,0
8290,307031.77388663864,2010-12-17 01:54:11,1470.7381480295196,2,29,0.5501165986061096,3.917648077011109,25.04632835155577,24.798046616506404,100.62861474067834,89.60410790444867,3.237724376958795e-05,0.0954576581716537,0,0,0
8291,307061.7889758738,2010-12-17 01:54:41,1500.7532373699166,2,29,0.550297200679779,3.919266939163208,25.050915717933997,24.798046616506404,100.6465901683358,89.60410790444867,3.237724376958795e-05,0.0954576581716537,0,0,0
8292,307091.8040449387,2010-12-17 01:55:11,1530.768306424834,2,29,0.5501165986061096,3.920885801315308,25.055503105908663,24.798046616506404,100.66457363512887,89.60410790444867,0.0,0.0954576581716537,0,0,0
8293,307121.8209499724,2010-12-17 01:55:41,1560.7852113682895,2,29,0.550297200679779,3.922828435897827,25.06009080132208,24.798046616506404,100.6825662174093,89.60410790444867,6.47544875391759e-05,0.0954576581716537,0,0,0
8294,307151.83416016155,2010-12-17 01:56:11,1590.7984215675162,2,29,0.550297200679779,3.9246091842651367,25.06467790909444,24.798046616506404,100.7005643701076,89.60410790444867,6.47544875391759e-05,0.0954576581716537,0,0,0
8295,307181.8493762223,2010-12-17 01:56:41,1620.8136376432892,2,29,0.5501165986061096,3.9263899326324463,25.06926532093586,24.798046616506404,100.71857163681682,89.60410790444867,6.47544875391759e-05,0.0954576581716537,0,0,0
8296,307211.8642806526,2010-12-17 01:57:11,1650.8285420484822,2,29,0.550297200679779,3.928008794784546,25.07385267456572,24.798046616506404,100.73658648260962,89.60410790444867,6.47544875391759e-05,0.0954576581716537,0,0,0
8297,307241.87936366216,2010-12-17 01:57:41,1680.8436250831878,2,29,0.550297200679779,3.929789543151856,25.078440095783325,24.798046616506404,100.75460946332392,89.60410790444867,9.713172767078504e-05,0.0954576581716537,0,0,0
8298,307271.8945477384,2010-12-17 01:58:11,1710.858809204443,2,29,0.550297200679779,3.931408405303955,25.08302750334654,24.798046616506404,100.77264030617071,89.60410790444867,6.47544875391759e-05,0.0954576581716537,0,0,0
8299,307301.9094738024,2010-12-17 01:58:41,1740.873735218409,2,29,0.5501165986061096,3.933027267456055,25.087614885590767,24.798046616506404,100.79067893239302,89.60410790444867,0.0,0.0954576581716537,0,0,0
8300,307331.92453702784,2010-12-17 01:59:11,1770.8887984287826,2,29,0.550297200679779,3.934808015823364,25.092202324832947,24.798046616506404,100.80872574768688,89.60410790444867,3.237724376958795e-05,0.0954576581716537,0,0,0
8301,307361.939626253,2010-12-17 01:59:41,1800.90388764888,2,29,0.550297200679779,3.936426877975464,25.0967898117422,24.798046616506404,100.82678057818576,89.60410790444867,0.0,0.0954576581716537,0,0,0
8302,307391.9549181625,2010-12-17 02:00:11,1830.919179658612,2,29,0.5499359965324402,3.938207626342773,25.101377270615856,24.798046616506404,100.84484321042116,89.60410790444867,3.237724376958795e-05,0.0954576581716537,0,0,0
8303,307421.9697413957,2010-12-17 02:00:41,1860.9340028517115,2,29,0.550297200679779,3.939988374710083,25.10596466011401,24.798046616506404,100.86291355522202,89.60410790444867,0.0,0.0954576581716537,0,0,0
8304,307451.9848008416,2010-12-17 02:01:11,1890.9490622626304,2,29,0.5501165986061096,3.941607236862183,25.11055201407437,24.798046616506404,100.88099164527316,89.60410790444867,3.237724376958795e-05,0.0954576581716537,0,0,0
8305,307482.00008389907,2010-12-17 02:01:41,1920.9643453702097,2,29,0.550297200679779,3.943549871444702,25.115139395520604,24.798046616506404,100.89907776769434,89.60410790444867,6.47544875391759e-05,0.0954576581716537,0,0,0
8306,307512.014936335,2010-12-17 02:02:11,1950.979197730892,2,29,0.5499359965324402,3.945006847381592,25.119726759183266,24.798046616506404,100.91717174771448,89.60410790444867,0.0,0.0954576581716537,0,0,0
8307,307542.03000074334,2010-12-17 02:02:41,1980.994262144259,2,29,0.5501165986061096,3.946787595748901,25.124314203391982,24.798046616506404,100.93527399527228,89.60410790444867,3.237724376958795e-05,0.0954576581716537,0,0,0
8308,307572.04506267555,2010-12-17 02:03:11,2011.009324071439,2,29,0.5504778623580933,3.948730230331421,25.128901629690123,24.798046616506404,100.95338412174456,89.60410790444867,6.47544875391759e-05,0.0954576581716537,0,0,0
8309,307602.0601770783,2010-12-17 02:03:41,2041.024438564428,2,29,0.550297200679779,3.9505109786987305,25.13348899096212,24.798046616506404,100.97150198019744,89.60410790444867,9.713172767078504e-05,0.0954576581716537,0,0,0
8310,307632.0752113015,2010-12-17 02:04:11,2071.0394726924305,2,29,0.550297200679779,3.95212984085083,25.138076440673807,24.798046616506404,100.98962827625236,89.60410790444867,6.47544875391759e-05,0.0954576581716537,0,0,0
8311,307662.09026186547,2010-12-17 02:04:41,2101.0545232864088,2,29,0.550297200679779,3.95391058921814,25.1426638704824,24.798046616506404,101.0077625005872,89.60410790444867,6.47544875391759e-05,0.0954576581716537,0,0,0
8312,307692.10533474485,2010-12-17 02:05:11,2131.0695961357687,2,29,0.550297200679779,3.955691337585449,25.14725128756376,24.798046616506404,101.02590468466845,89.60410790444867,3.237724376958795e-05,0.0954576581716537,0,0,0
8313,307722.1222392823,2010-12-17 02:05:41,2161.0865007734637,2,29,0.5501165986061096,3.957148313522339,25.15183899838594,24.798046616506404,101.04405605225644,89.60410790444867,0.0,0.0954576581716537,0,0,0
8314,307752.1356669527,2010-12-17 02:06:11,2191.0999284438585,2,29,0.550297200679779,3.959252834320069,25.156426080671757,24.798046616506404,101.06221304867626,89.60410790444867,6.47544875391759e-05,0.0954576581716537,0,0,0
8315,307782.1505288822,2010-12-17 02:06:41,2221.114790283128,2,29,0.5501165986061096,3.960871696472168,25.16101341372731,24.798046616506404,101.08037918669014,89.60410790444867,3.237724376958795e-05,0.0954576581716537,0,0,0
8316,307812.1658181451,2010-12-17 02:07:11,2251.1300795610614,2,29,0.550297200679779,3.962814331054688,25.16560093208096,24.798046616506404,101.09855431561311,89.60410790444867,9.713172767078504e-05,0.0954576581716537,0,0,0
8317,307842.1806730672,2010-12-17 02:07:41,2281.144934463068,2,29,0.550297200679779,3.964595079421997,25.170188325808716,24.798046616506404,101.11673727360971,89.60410790444867,3.237724376958795e-05,0.0954576581716537,0,0,0
8318,307872.19573463843,2010-12-17 02:08:11,2311.1599960143126,2,29,0.5501165986061096,3.966375827789306,25.174775734871517,24.798046616506404,101.13492860412708,89.60410790444867,0.0,0.0954576581716537,0,0,0
8319,307902.21078949305,2010-12-17 02:08:41,2341.175050888943,2,29,0.550297200679779,3.968318462371826,25.17936324609577,24.798046616506404,101.15312870508046,89.60410790444867,3.237724376958795e-05,0.0954576581716537,0,0,0
8320,307932.2258547285,2010-12-17 02:09:11,2371.1901161444057,2,29,0.5501165986061096,3.969937324523926,25.18395000628957,24.798046616506404,101.17133410398937,89.60410790444867,0.0,0.0954576581716537,0,0,0
8321,307962.2409426453,2010-12-17 02:09:41,2401.20520406126,2,29,0.5501165986061096,3.971879959106445,25.188536707827726,24.798046616506404,101.18954774734743,89.60410790444867,6.47544875391759e-05,0.0954576581716537,0,0,0
8322,307992.2560081313,2010-12-17 02:10:11,2431.220269552309,2,29,0.5501165986061096,3.973822593688965,25.19312401645317,24.798046616506404,101.20777242183124,89.60410790444867,3.237724376958795e-05,0.0954576581716537,0,0,0
8323,308022.2710947449,2010-12-17 02:10:41,2461.23535616592,2,29,0.5501165986061096,3.9756033420562735,25.197711441722248,24.798046616506404,101.22600622324516,89.60410790444867,6.47544875391759e-05,0.0954576581716537,0,0,0
8324,308052.28614101314,2010-12-17 02:11:11,2491.2504024291216,2,29,0.550297200679779,3.977707862854004,25.202298861712745,24.798046616506404,101.24424876402804,89.60410790444867,9.713172767078504e-05,0.0954576581716537,0,0,0
8325,308082.3012831299,2010-12-17 02:11:41,2521.265544600988,2,29,0.550297200679779,3.979650497436523,25.2068862359735,24.798046616506404,101.26249948060897,89.60410790444867,9.713172767078504e-05,0.0954576581716537,0,0,0
8326,308112.31627919315,2010-12-17 02:12:11,2551.280540594094,2,29,0.550297200679779,3.981593132019043,25.211473568954982,24.798046616506404,101.28075930199164,89.60410790444867,9.713172767078504e-05,0.0954576581716537,0,0,0
8327,308142.3313958967,2010-12-17 02:12:41,2581.2956574028444,2,29,0.5501165986061096,3.983211994171143,25.21606091753789,24.798046616506404,101.29902808238904,89.60410790444867,3.237724376958795e-05,0.0954576581716537,0,0,0
8328,308172.3464043508,2010-12-17 02:13:11,2611.310665746685,2,29,0.550297200679779,3.985316514968872,25.220648270160577,24.798046616506404,101.31730593334544,89.60410790444867,3.237724376958795e-05,0.0954576581716537,0,0,0
8329,308202.3616276044,2010-12-17 02:13:42,2641.325889075507,2,29,0.5501165986061096,3.9874210357666016,25.225235632873737,24.798046616506404,101.3355929316872,89.60410790444867,3.237724376958795e-05,0.0954576581716537,0,0,0
8330,308232.37669091,2010-12-17 02:14:12,2671.3409523009177,2,29,0.5501165986061096,3.989363670349121,25.229823000696083,24.798046616506404,101.35388912249476,89.60410790444867,6.47544875391759e-05,0.0954576581716537,0,0,0
8331,308262.39160560584,2010-12-17 02:14:42,2701.355867026794,2,29,0.5501165986061096,3.9914681911468506,25.234410266681376,24.798046616506404,101.372194190571,89.60410790444867,6.47544875391759e-05,0.0954576581716537,0,0,0
8332,308292.4066643701,2010-12-17 02:15:12,2731.3709257860905,2,29,0.550297200679779,3.99324893951416,25.23899754373296,24.798046616506404,101.39050876821103,89.60410790444867,3.237724376958795e-05,0.0954576581716537,0,0,0
8333,308322.4237424344,2010-12-17 02:15:42,2761.3880039054875,2,29,0.5501165986061096,3.9956769943237305,25.243585149365305,24.798046616506404,101.40883411084896,89.60410790444867,9.713172767078504e-05,0.0954576581716537,0,0,0
8334,308352.43680009904,2010-12-17 02:16:12,2791.4010615200136,2,29,0.5499359965324402,3.99761962890625,25.248172125904407,24.798046616506404,101.42716649959289,89.60410790444867,3.237724376958795e-05,0.0954576581716537,0,0,0
8335,308382.45187139953,2010-12-17 02:16:42,2821.416132800469,2,29,0.550297200679779,3.9998860359191895,25.252759518515592,24.798046616506404,101.44551019233742,89.60410790444867,6.47544875391759e-05,0.0954576581716537,0,0,0
8336,308412.4669343442,2010-12-17 02:17:12,2851.431195765231,2,29,0.5501165986061096,4.001828670501709,25.257346934299925,24.798046616506404,101.46386387401374,89.60410790444867,0.0,0.0954576581716537,0,0,0
8337,308442.48215695634,2010-12-17 02:17:42,2881.4464183772693,2,29,0.550297200679779,4.004095077514648,25.261934328006763,24.798046616506404,101.48222746058076,89.60410790444867,6.47544875391759e-05,0.0954576581716537,0,0,0
8338,308472.49706821353,2010-12-17 02:18:12,2911.461329629501,2,29,0.550297200679779,4.006361484527588,25.266521680665456,24.798046616506404,101.50060096100192,89.60410790444867,6.47544875391759e-05,0.0954576581716537,0,0,0
8339,308502.5121375642,2010-12-17 02:18:42,2941.476398965117,2,29,0.550297200679779,4.008790016174316,25.271109102140677,24.798046616506404,101.51898496721007,89.60410790444867,9.71794142969884e-05,0.0954576581716537,0,0,0
8340,308532.5272004637,2010-12-17 02:19:12,2971.491461864717,2,29,0.550297200679779,4.010894298553467,25.275696462432315,24.798046616506404,101.53737892989592,89.60410790444867,3.23295607813634e-05,0.0954576581716537,0,0,0
8341,308562.5422767317,2010-12-17 02:19:42,3001.506538147621,2,29,0.5501165986061096,4.013160705566406,25.28028382458909,24.798046616506404,101.55578339444246,89.60410790444867,6.47544875391759e-05,0.0954576581716537,0,0,0
8342,308592.5573417515,2010-12-17 02:20:12,3031.52160315246,2,29,0.550297200679779,4.015427112579346,25.28487120691681,24.798046616506404,101.57419854623384,89.60410790444867,3.23295607813634e-05,0.0954576581716537,0,0,0
8343,308622.57240558346,2010-12-17 02:20:42,3061.536666999418,2,29,0.5501165986061096,4.017693519592285,25.289458563428177,24.798046616506404,101.59262429486522,89.60410790444867,3.23295607813634e-05,0.0954576581716537,0,0,0
8344,308652.5874866281,2010-12-17 02:21:12,3091.551748039159,2,29,0.550297200679779,4.0202836990356445,25.294045959111017,24.798046616506404,101.61106087595104,89.60410790444867,0.0001295089750783,0.0954576581716537,0,0,0
8345,308682.6025627557,2010-12-17 02:21:42,3121.566824176701,2,29,0.550297200679779,4.022550106048584,25.29863332671429,24.798046616506404,101.62950822973652,89.60410790444867,9.70840483205393e-05,0.0954576581716537,0,0,0
8346,308712.61763487826,2010-12-17 02:22:12,3151.5818963644147,2,29,0.5501165986061096,4.0249786376953125,25.303220775226876,24.798046616506404,101.6479669069632,89.60410790444867,9.71794142969884e-05,0.0954576581716537,0,0,0
8347,308742.6326689812,2010-12-17 02:22:42,3181.5969303721185,2,29,0.5501165986061096,4.027406692504883,25.30780820908131,24.798046616506404,101.66643668836151,89.60410790444867,9.70840483205393e-05,0.0954576581716537,0,0,0
8348,308772.65057076525,2010-12-17 02:23:12,3211.614832301535,2,29,0.5501165986061096,4.029673099517822,25.31239606001415,24.798046616506404,101.68491939465568,89.60410790444867,3.23295607813634e-05,0.0954576581716537,0,0,0
8349,308802.66282030893,2010-12-17 02:23:42,3241.627081724908,2,29,0.5501165986061096,4.032263278961182,25.316982970498472,24.798046616506404,101.7034096677316,89.60410790444867,6.47544875391759e-05,0.0954576581716537,0,0,0
8350,308832.6779927511,2010-12-17 02:24:12,3271.6422541721126,2,29,0.5501165986061096,4.034853458404541,25.32157035968017,24.798046616506404,101.7219133430734,89.60410790444867,6.47544875391759e-05,0.0954576581716537,0,0,0
8351,308862.6930910739,2010-12-17 02:24:42,3301.6573525600243,2,29,0.550297200679779,4.0374436378479,25.3261577276336,24.798046616506404,101.74042851248387,89.60410790444867,6.47544875391759e-05,0.0954576581716537,0,0,0
8352,308892.7081402994,2010-12-17 02:25:12,3331.672401705397,2,29,0.550297200679779,4.039871692657471,25.33074508427017,24.798046616506404,101.75895535788602,89.60410790444867,6.47544875391759e-05,0.0954576581716537,0,0,0
8353,308922.725030406,2010-12-17 02:25:42,3361.6892918971444,2,29,0.550297200679779,4.042623996734619,25.33533269956493,24.798046616506404,101.7774949280858,89.60410790444867,9.71794142969884e-05,0.0954576581716537,0,0,0
8354,308952.73814137327,2010-12-17 02:26:12,3391.7024027892485,2,29,0.5501165986061096,4.0450520515441895,25.33991972586747,24.798046616506404,101.79604410883276,89.60410790444867,6.47544875391759e-05,0.0954576581716537,0,0,0
8355,308982.7531931001,2010-12-17 02:26:42,3421.7174545210582,2,29,0.5501165986061096,4.047804355621338,25.34450717726446,24.798046616506404,101.81460698010068,89.60410790444867,9.71794142969884e-05,0.0954576581716537,0,0,0
8356,309012.7683366554,2010-12-17 02:27:12,3451.732598191654,2,29,0.550297200679779,4.050394535064697,25.349094586656545,24.798046616506404,101.8331817497684,89.60410790444867,6.47544875391759e-05,0.0954576581716537,0,0,0
8357,309042.783474286,2010-12-17 02:27:42,3481.7477356868826,2,29,0.5501165986061096,4.052822589874268,25.35368204611825,24.798046616506404,101.85176886424992,89.60410790444867,3.23295607813634e-05,0.0954576581716537,0,0,0
8358,309072.7984421591,2010-12-17 02:28:12,3511.762703570037,2,29,0.550297200679779,4.055736541748047,25.358269493344405,24.798046616506404,101.8703682821729,89.60410790444867,9.70840483205393e-05,0.0954576581716537,0,0,0
8359,309102.8134563173,2010-12-17 02:28:42,3541.77771773336,2,29,0.5504778623580933,4.058650493621826,25.36285688335942,24.798046616506404,101.88897988413456,89.60410790444867,0.0001295089750783,0.0954576581716537,0,0,0
8360,309132.8285284048,2010-12-17 02:29:12,3571.792789820823,2,29,0.550297200679779,4.061079025268555,25.367444274991023,24.798046616506404,101.90760388171768,89.60410790444867,6.47544875391759e-05,0.0954576581716537,0,0,0
8361,309162.8436305722,2010-12-17 02:29:42,3601.8078919731024,2,29,0.550297200679779,4.063992977142334,25.372031659347915,24.798046616506404,101.92624024823785,89.60410790444867,0.0001295089750783,0.0954576581716537,0,0,0
8362,309192.8589095946,2010-12-17 02:30:12,3631.823170980479,2,29,0.550297200679779,4.066744804382324,25.37661903151742,24.798046616506404,101.94488932973567,89.60410790444867,6.47544875391759e-05,0.0954576581716537,0,0,0
8363,309222.87381905736,2010-12-17 02:30:42,3661.838080538495,2,29,0.5501165986061096,4.069334983825684,25.38120635003679,24.798046616506404,101.96355100908394,89.60410790444867,0.0,0.0954576581716537,0,0,0
8364,309252.88879261963,2010-12-17 02:31:12,3691.8530541158193,2,29,0.550297200679779,4.072411060333252,25.385793698238825,24.798046616506404,101.98222577244988,89.60410790444867,9.71794142969884e-05,0.0954576581716537,0,0,0
8365,309282.90404697566,2010-12-17 02:31:42,3721.868308396664,2,29,0.550297200679779,4.075325012207031,25.390381015934487,24.798046616506404,102.0009134746504,89.60410790444867,9.71794142969884e-05,0.0954576581716537,0,0,0
8366,309312.9191601203,2010-12-17 02:32:12,3751.883421616484,2,29,0.550297200679779,4.0782389640808105,25.394968351964653,24.798046616506404,102.01961447847636,89.60410790444867,9.71794142969884e-05,0.0954576581716537,0,0,0
8367,309342.934027774,2010-12-17 02:32:42,3781.8982892501726,2,29,0.5501165986061096,4.080990791320801,25.39955570154976,24.798046616506404,102.03832886575076,89.60410790444867,3.23295607813634e-05,0.0954576581716537,0,0,0
8368,309372.9491903216,2010-12-17 02:33:12,3811.913451717543,2,29,0.5501165986061096,4.08390474319458,25.40414301270832,24.798046616506404,102.05705645348186,89.60410790444867,3.23295607813634e-05,0.0954576581716537,0,0,0
8369,309402.96426353685,2010-12-17 02:33:42,3841.928524957876,2,29,0.550297200679779,4.086980819702148,25.40873034922999,24.798046616506404,102.07579780402725,89.60410790444867,9.71794142969884e-05,0.0954576581716537,0,0,0
8370,309432.97932131373,2010-12-17 02:34:12,3871.943582714679,2,29,0.5501165986061096,4.089894771575928,25.413317698717613,24.798046616506404,102.09455285824046,89.60410790444867,9.71794142969884e-05,0.0954576581716537,0,0,0
8371,309462.99426939763,2010-12-17 02:34:42,3901.9585308136016,2,29,0.550297200679779,4.092970371246338,25.4179050662209,24.798046616506404,102.1133218188318,89.60410790444867,6.47544875391759e-05,0.0954576581716537,0,0,0
8372,309493.009347861,2010-12-17 02:35:12,3931.9736092568814,2,29,0.5501165986061096,4.096046447753906,25.42249248410242,24.798046616506404,102.13210488405656,89.60410790444867,9.71794142969884e-05,0.0954576581716537,0,0,0
8373,309523.0264420303,2010-12-17 02:35:42,3961.990703526468,2,29,0.5501165986061096,4.099122047424316,25.42708015448657,24.798046616506404,102.150903112348,89.60410790444867,6.47544875391759e-05,0.0954576581716537,0,0,0
8374,309553.0394695349,2010-12-17 02:36:12,3992.0037309508666,2,29,0.550297200679779,4.102035999298096,25.43166728599618,24.798046616506404,102.16971331177962,89.60410790444867,3.23295607813634e-05,0.0954576581716537,0,0,0
8375,309583.05454045447,2010-12-17 02:36:42,4022.018801870424,2,29,0.5501165986061096,4.105273723602295,25.436254660925837,24.798046616506404,102.18853878598786,89.60410790444867,9.70840483205393e-05,0.0954576581716537,0,0,0
8376,309613.0696152688,2010-12-17 02:37:12,4052.033876684673,2,29,0.5501165986061096,4.108349800109863,25.44084204987366,24.798046616506404,102.20737864376622,89.60410790444867,6.47544875391759e-05,0.0954576581716537,0,0,0
8377,309643.0848051142,2010-12-17 02:37:42,4082.04906650511,2,29,0.550297200679779,4.111749172210693,25.445429436993013,24.798046616506404,102.22623293102068,89.60410790444867,0.0001295089750783,0.0954576581716537,0,0,0
8378,309673.09986489103,2010-12-17 02:38:12,4112.064126286953,2,29,0.550297200679779,4.114824771881104,25.45001672348815,24.798046616506404,102.24510139792764,89.60410790444867,9.70840483205393e-05,0.0954576581716537,0,0,0
8379,309703.114832689,2010-12-17 02:38:42,4142.079094099933,2,29,0.550297200679779,4.118062496185303,25.454604061103964,24.798046616506404,102.26398487361034,89.60410790444867,9.70840483205393e-05,0.0954576581716537,0,0,0
8380,309733.130092664,2010-12-17 02:39:12,4172.094354069935,2,29,0.5501165986061096,4.121300220489502,25.45919148435812,24.798046616506404,102.28288360349612,89.60410790444867,9.70840483205393e-05,0.0954576581716537,0,0,0
8381,309763.14494353096,2010-12-17 02:39:42,4202.109204946926,2,29,0.5501165986061096,4.124537944793701,25.46377879405024,24.798046616506404,102.3017968087458,89.60410790444867,9.70840483205393e-05,0.0954576581716537,0,0,0
8382,309793.1600000798,2010-12-17 02:40:12,4232.1242614856965,2,29,0.550297200679779,4.1279377937316895,25.468366121906364,24.798046616506404,102.32072533108992,89.60410790444867,9.71794142969884e-05,0.0954576581716537,0,0,0
8383,309823.1750702324,2010-12-17 02:40:42,4262.139331648371,2,29,0.550297200679779,4.131175518035889,25.47295345568137,24.798046616506404,102.33966907040302,89.60410790444867,6.47544875391759e-05,0.0954576581716537,0,0,0
8384,309853.19014843006,2010-12-17 02:41:12,4292.15440984604,2,29,0.5501165986061096,4.134574890136719,25.477540764537075,24.798046616506404,102.35862799859048,89.60410790444867,6.47544875391759e-05,0.0954576581716537,0,0,0
8385,309883.20527517353,2010-12-17 02:41:42,4322.169536679738,2,29,0.550297200679779,4.137974739074707,25.48212810119401,24.798046616506404,102.37760250014286,89.60410790444867,9.71794142969884e-05,0.0954576581716537,0,0,0
8386,309913.2203048806,2010-12-17 02:42:12,4352.184566301527,2,29,0.5501165986061096,4.141212463378906,25.48671543956722,24.798046616506404,102.39659254493628,89.60410790444867,6.47544875391759e-05,0.0954576581716537,0,0,0
8387,309943.23547455587,2010-12-17 02:42:42,4382.199736062047,2,29,0.5501165986061096,4.144773960113525,25.49130284420059,24.798046616506404,102.41559857706466,89.60410790444867,6.47544875391759e-05,0.0954576581716537,0,0,0
8388,309973.2504064394,2010-12-17 02:43:12,4412.214667860407,2,29,0.5501165986061096,4.1483354568481445,25.49589016843276,24.798046616506404,102.4346204428101,89.60410790444867,9.71794142969884e-05,0.0954576581716537,0,0,0
8389,310003.26554410503,2010-12-17 02:43:42,4442.229805591221,2,29,0.5501165986061096,4.151734828948975,25.50047752492976,24.798046616506404,102.45365828546976,89.60410790444867,9.70840483205393e-05,0.0954576581716537,0,0,0
8390,310033.2805457172,2010-12-17 02:44:12,4472.244807113085,2,29,0.5501165986061096,4.155296325683594,25.50506485707085,24.798046616506404,102.4727120261962,89.60410790444867,6.47544875391759e-05,0.0954576581716537,0,0,0
8391,310063.29563604505,2010-12-17 02:44:42,4502.259897440939,2,29,0.550297200679779,4.158857822418213,25.509652186015693,24.798046616506404,102.49178186177774,89.60410790444867,0.0001295089750783,0.0954576581716537,0,0,0
8392,310093.3106813208,2010-12-17 02:45:12,4532.274942741746,2,29,0.550297200679779,4.162419319152832,25.514239524214787,24.798046616506404,102.51086798456085,89.60410790444867,0.0001295089750783,0.0954576581716537,0,0,0
8393,310123.3275842091,2010-12-17 02:45:43,4562.291845635099,2,29,0.5501165986061096,4.165980815887451,25.51882711579362,24.798046616506404,102.52997149520874,89.60410790444867,9.70840483205393e-05,0.0954576581716537,0,0,0
8394,310153.34094983013,2010-12-17 02:46:13,4592.305211286162,2,29,0.550297200679779,4.16954231262207,25.52341421470878,24.798046616506404,102.54908944715778,89.60410790444867,9.70840483205393e-05,0.0954576581716537,0,0,0
8395,310183.3558884254,2010-12-17 02:46:43,4622.320149841336,2,29,0.5501165986061096,4.172942161560059,25.52800155990088,24.798046616506404,102.5682249498848,89.60410790444867,3.24249267578125e-05,0.0954576581716537,0,0,0
8396,310213.3709456408,2010-12-17 02:47:13,4652.335207061804,2,29,0.5501165986061096,4.176827430725098,25.532588921011502,24.798046616506404,102.5873771756166,89.60410790444867,9.71794142969884e-05,0.0954576581716537,0,0,0
8397,310243.3861693857,2010-12-17 02:47:43,4682.350430786612,2,29,0.5501165986061096,4.180388927459717,25.537176235846708,24.798046616506404,102.60654595347305,89.60410790444867,9.71794142969884e-05,0.0954576581716537,0,0,0
8398,310273.4010875401,2010-12-17 02:48:13,4712.365348956056,2,29,0.5499359965324402,4.184274196624756,25.54176356875998,24.798046616506404,102.62573174407945,89.60410790444867,9.71794142969884e-05,0.0954576581716537,0,0,0
8399,310303.41615360754,2010-12-17 02:48:43,4742.380415023539,2,29,0.5501165986061096,4.187997341156006,25.5463508961082,24.798046616506404,102.64493441398008,89.60410790444867,0.0001295089750783,0.0954576581716537,0,0,0
8400,310333.43140214414,2010-12-17 02:49:13,4772.395663535028,2,29,0.550297200679779,4.191720962524414,25.550938295993472,24.798046616506404,102.66415451605862,89.60410790444867,0.0001619339018361,0.0954576581716537,0,0,0
8401,310363.44630684005,2010-12-17 02:49:43,4802.410568261019,2,29,0.550297200679779,4.195444107055664,25.555525595980527,24.798046616506404,102.68339144239832,89.60410790444867,0.0001295089750783,0.0954576581716537,0,0,0
8402,310393.4613676394,2010-12-17 02:50:13,4832.425629030318,2,29,0.5501165986061096,4.199167251586914,25.56011290844636,24.798046616506404,102.70264567895462,89.60410790444867,6.47544875391759e-05,0.0954576581716537,0,0,0
8403,310399.08625900524,2010-12-17 02:50:18,4838.050520426215,2,29,0.550297200679779,4.200138568878174,25.560972582423425,24.798046616506404,102.70625592629526,89.60410790444867,0.0001295089750783,0.0954576581716537,0,0,0
8404,310429.1078214481,2010-12-17 02:50:48,30.015170507377977,3,29,0.0,4.109806537628174,25.560972582423425,24.798046616506404,102.70625592629526,89.60410790444867,-0.0004209518374409,0.0954576581716537,0,0,0
8405,310459.12287996686,2010-12-17 02:51:18,60.030229036101375,3,29,0.0,4.098474502563477,25.560972582423425,24.798046616506404,102.70625592629526,89.60410790444867,-0.0001942634553415,0.0954576581716537,0,0,0
8406,310489.13782559463,2010-12-17 02:51:48,90.04517466888757,3,29,0.0,4.091675281524658,25.560972582423425,24.798046616506404,102.70625592629526,89.60410790444867,-0.0001295089750783,0.0954576581716537,0,0,0
8407,310519.1060232469,2010-12-17 02:52:18,120.0133723161097,3,29,0.0,4.087142467498779,25.560972582423425,24.798046616506404,102.70625592629526,89.60410790444867,-0.0001295089750783,0.0954576581716537,0,0,0
8408,310519.11464633,2010-12-17 02:52:19,2.691698187e-06,4,29,1.0108509063720703,4.199653148651123,25.560972583179232,24.798046616506404,102.70625592946938,89.60410790444867,0.0,0.0954576581716537,0,0,0
8409,310519.95834225486,2010-12-17 02:52:19,0.84369862156983,4,29,0.9599190354347228,4.199653148651123,25.56120216485808,24.798046616506404,102.70722011773084,89.60410790444867,0.0,0.0954576581716537,0,0,0
8410,310521.8801951067,2010-12-17 02:52:21,2.76555146344943,4,29,0.9097096920013428,4.199976921081543,25.561700056188783,24.798046616506404,102.70931115463978,89.60410790444867,6.47544875391759e-05,0.0954576581716537,0,0,0
8411,310524.755280015,2010-12-17 02:52:24,5.640636396725698,4,29,0.8596808910369873,4.199814796447754,25.56240538615633,24.798046616506404,102.71227340555666,89.60410790444867,0.0,0.0954576581716537,0,0,0
8412,310528.75506429933,2010-12-17 02:52:28,9.640420686091929,4,29,0.8092909455299377,4.199814796447754,25.56333131919032,24.798046616506404,102.71616213036988,89.60410790444867,0.0,0.0954576581716537,0,0,0
8413,310534.0674828436,2010-12-17 02:52:34,14.95283923031544,4,29,0.7589009404182434,4.199653148651123,25.564486969478324,24.798046616506404,102.72101563788216,89.60410790444867,-3.23295607813634e-05,0.0954576581716537,0,0,0
8414,310540.9110702426,2010-12-17 02:52:40,21.79642659926818,4,29,0.7088721394538879,4.199814796447754,25.56588008575004,24.798046616506404,102.72686646846184,89.60410790444867,0.0,0.0954576581716537,0,0,0
8415,310550.00467889296,2010-12-17 02:52:49,30.8900352596654,4,29,0.6586627960205078,4.199814796447754,25.567604310664272,24.798046616506404,102.73410789273342,89.60410790444867,-3.24249267578125e-05,0.0954576581716537,0,0,0
8416,310562.61387120804,2010-12-17 02:53:02,43.49922757477261,4,29,0.6086339950561523,4.199976921081543,25.569818603664217,24.798046616506404,102.74340752943972,89.60410790444867,6.47544875391759e-05,0.0954576581716537,0,0,0
8417,310581.3662946526,2010-12-17 02:53:21,62.25165109946675,4,29,0.5584246516227722,4.199814796447754,25.572849224991906,24.798046616506404,102.7561355884451,89.60410790444867,-3.24249267578125e-05,0.0954576581716537,0,0,0
8418,310613.3941732015,2010-12-17 02:53:53,94.2795295681947,4,29,0.5083958506584167,4.199814796447754,25.577575088864617,24.798046616506404,102.77598337637036,89.60410790444867,-3.24249267578125e-05,0.0954576581716537,0,0,0
8419,310673.3646089643,2010-12-17 02:54:53,154.24996543629723,4,29,0.4581864774227142,4.199653148651123,25.58558855200472,24.798046616506404,102.80963850501324,89.60410790444867,0.0,0.0954576581716537,0,0,0
8420,310769.5164583133,2010-12-17 02:56:29,250.40181475517923,4,29,0.4081577360630035,4.199653148651123,25.597133700495167,24.798046616506404,102.85812616884026,89.60410790444867,-3.23295607813634e-05,0.0954576581716537,0,0,0
8421,310893.8732842116,2010-12-17 02:58:33,374.7586405933226,4,29,0.3581289649009704,4.199653148651123,25.610354331696183,24.798046616506404,102.91365056922808,89.60410790444867,-6.47544875391759e-05,0.0954576581716537,0,0,0
8422,311041.1361615178,2010-12-17 03:01:01,522.0215178794924,4,29,0.3081001937389374,4.199814796447754,25.623961320385327,24.798046616506404,102.97079750933804,89.60410790444867,3.23295607813634e-05,0.0954576581716537,0,0,0
8423,311217.8985277727,2010-12-17 03:03:57,698.783884154415,4,29,0.2580714225769043,4.199814796447754,25.637843874393692,24.798046616506404,103.02910184414124,89.60410790444867,0.0,0.0954576581716537,0,0,0
8424,311436.11333763413,2010-12-17 03:07:36,916.9986941061024,4,29,0.20804263651371,4.199814796447754,25.651942012338203,24.798046616506404,103.08831160197428,89.60410790444867,0.0,0.0954576581716537,0,0,0
8425,311729.170405842,2010-12-17 03:12:29,1210.05576220865,4,29,0.1580138802528381,4.199491024017334,25.66677105641515,24.798046616506404,103.15059096173,89.60410790444867,-6.47544875391759e-05,0.0954576581716537,0,0,0
8426,312168.20911117905,2010-12-17 03:19:48,1649.0944675608148,4,29,0.1079851016402244,4.199653148651123,25.682795047583333,24.798046616506404,103.217888857031,89.60410790444867,0.0,0.0954576581716537,0,0,0
8427,313010.5372688372,2010-12-17 03:33:50,2491.4226252239228,4,29,0.0577757246792316,4.199814796447754,25.70151865679843,24.798046616506404,103.29652460292624,89.60410790444867,0.0,0.0954576581716537,0,0,0
8428,313238.376690926,2010-12-17 03:37:38,2719.262047312736,4,29,0.0498289167881011,4.199814796447754,25.704945974613302,24.798046616506404,103.3109187078431,89.60410790444867,0.0,0.0954576581716537,0,0,0
8429,313268.3882858907,2010-12-17 03:38:08,30.015056303185236,5,29,0.0,4.191397190093994,25.704945974613302,24.798046616506404,103.3109187078431,89.60410790444867,-6.47544875391759e-05,0.0954576581716537,0,0,0
8430,313298.38772686577,2010-12-17 03:38:38,60.014497278226976,5,29,0.0,4.190263748168945,25.704945974613302,24.798046616506404,103.3109187078431,89.60410790444867,0.0,0.0954576581716537,0,0,0
8431,313298.58862023224,2010-12-17 03:38:38,0.187606561713186,6,29,-1.9243103452026844e-05,4.1901021003723145,25.704945974613302,24.79804661750921,103.3109187078431,89.60410790865056,0.0,0.0970755815505981,0,0,0
8432,313303.4165135992,2010-12-17 03:38:43,5.015499903606282,6,29,0.0007031940040178,4.1901021003723145,25.70494705119296,24.7980466175949,103.31092321896033,89.60410790900957,-6.47544875391759e-05,0.0970755815505981,0,0,0
8433,313333.42935458204,2010-12-17 03:39:13,30.015083320416576,7,29,-1.099568486213684,4.003933429718018,25.70494705119296,24.807214842143253,103.31092321896033,89.6410306729663,-0.0009713172912597,0.0970755815505981,0,0,0
8434,313363.4443671513,2010-12-17 03:39:43,60.030095899796805,7,29,-1.0993878841400146,3.9743082523345943,25.70494705119296,24.81638293751461,103.31092321896033,89.67759317112096,-0.0006475448608398,0.0970755815505981,0,0,0
8435,313393.4594400558,2010-12-17 03:40:13,90.04516886444345,7,29,-1.099568486213684,3.9537487030029297,25.70494705119296,24.825550963117497,103.31092321896033,89.71393081590456,-0.0005180359003134,0.0970755815505981,0,0,0
8436,313423.4745626891,2010-12-17 03:40:43,120.06029140746396,7,29,-1.099568486213684,3.937721967697144,25.70494705119296,24.83471899441797,103.31092321896033,89.75010279251198,-0.0003885269106831,0.0970755815505981,0,0,0
8437,313453.489614451,2010-12-17 03:41:13,150.0753431944107,7,29,-1.099568486213684,3.923961639404297,25.70494705119296,24.843887050439363,103.31092321896033,89.78613897108401,-0.0003561496851034,0.0970755815505981,0,0,0
8438,313483.50468341564,2010-12-17 03:41:43,180.0904121591036,7,29,-1.099568486213684,3.911496639251709,25.70494705119296,24.85305511390425,103.31092321896033,89.82205538699004,-0.0002913951757363,0.0970755815505981,0,0,0
8439,313513.5209500708,2010-12-17 03:42:13,210.10667881420304,7,29,-1.099568486213684,3.899840831756592,25.70494705119296,24.86222357802031,103.31092321896033,89.85786338232306,-0.0002913951757363,0.0970755815505981,0,0,0
8440,313543.5348622118,2010-12-17 03:42:43,240.1205909401472,7,29,-1.0997490882873535,3.888670682907105,25.70494705119296,24.87139129120983,103.31092321896033,89.89356535230539,-0.0003561496851034,0.0970755815505981,0,0,0
8441,313573.550051952,2010-12-17 03:43:13,270.13578070043536,7,29,-1.0993878841400146,3.878309965133667,25.70494705119296,24.88055943625163,103.31092321896033,89.92917068548749,-0.0002913951757363,0.0970755815505981,0,0,0
8442,313603.5649886074,2010-12-17 03:43:43,300.15071744109383,7,29,-1.099568486213684,3.8682730197906494,25.70494705119296,24.889727578437764,103.31092321896033,89.96468116191637,-0.0002590179501567,0.0970755815505981,0,0,0
8443,313633.5799210574,2010-12-17 03:44:13,330.1656498008506,7,29,-1.0997490882873535,3.858397960662842,25.70494705119296,24.898895658938173,103.31092321896033,90.00009985069246,-0.0002590179501567,0.0970755815505981,0,0,0
8444,313663.59507077804,2010-12-17 03:44:43,360.18079949643925,7,29,-1.099568486213684,3.848684787750244,25.70494705119296,24.908064590768777,103.31092321896033,90.03543239113107,-0.0002590179501567,0.0970755815505981,0,0,0
8445,313693.6100389619,2010-12-17 03:45:13,390.1957677054054,7,29,-1.099568486213684,3.839457273483277,25.70494705119296,24.91723342221904,103.31092321896033,90.07067739632181,-0.0002266406954731,0.0970755815505981,0,0,0
8446,313723.6252336696,2010-12-17 03:45:43,420.2109624130047,7,29,-1.099929690361023,3.830229997634888,25.70494705119296,24.92640218655644,103.31092321896033,90.10583744182377,-0.0002266406954731,0.0970755815505981,0,0,0
8447,313753.6403153309,2010-12-17 03:46:13,450.2260440742926,7,29,-1.0997490882873535,3.82132625579834,25.70494705119296,24.93557101171038,103.31092321896033,90.1409148557472,-0.0002266406954731,0.0970755815505981,0,0,0
8448,313783.65723700094,2010-12-17 03:46:43,480.2429658396086,7,29,-1.0997490882873535,3.812422513961792,25.70494705119296,24.94474041859524,103.31092321896033,90.1759139910407,-0.0002590179501567,0.0970755815505981,0,0,0
8449,313813.6704277718,2010-12-17 03:47:13,510.25615651525146,7,29,-1.0997490882873535,3.804004430770874,25.70494705119296,24.95390864409115,103.31092321896033,90.21082875929368,-0.0002590179501567,0.0970755815505981,0,0,0
8450,313843.6856833408,2010-12-17 03:47:43,540.2714121394392,7,29,-1.099568486213684,3.795748233795166,25.70494705119296,24.963076864383005,103.31092321896033,90.24566675114932,-0.0001942634553415,0.0970755815505981,0,0,0
8451,313873.7005529044,2010-12-17 03:48:13,570.2862816327553,7,29,-1.099568486213684,3.787653923034668,25.70494705119296,24.972244853660445,103.31092321896033,90.2804286999812,-0.0001942634553415,0.0970755815505981,0,0,0
8452,313903.71564170846,2010-12-17 03:48:44,600.3013704518553,7,29,-1.0997490882873535,3.77955961227417,25.70494705119296,24.981412942888603,103.31092321896033,90.3151177399754,-0.0002266406954731,0.0970755815505981,0,0,0
8453,313933.7308301103,2010-12-17 03:49:14,630.3165589089002,7,29,-1.099568486213684,3.772112846374512,25.70494705119296,24.99058110646419,103.31092321896033,90.34973534390748,-0.0001942634553415,0.0970755815505981,0,0,0
8454,313963.7462288807,2010-12-17 03:49:44,660.3319576993518,7,29,-1.0997490882873535,3.7643423080444336,25.70494705119296,24.999749280030017,103.31092321896033,90.38428271444828,-0.0002266406954731,0.0970755815505981,0,0,0
8455,313993.7608452492,2010-12-17 03:50:14,690.3465739925892,7,29,-1.099568486213684,3.7572193145751953,25.70494705119296,25.00891721759419,103.31092321896033,90.4187607349566,-0.0001618862152099,0.0970755815505981,0,0,0
8456,314023.7760002329,2010-12-17 03:50:44,720.3617290966366,7,29,-1.0993878841400146,3.749772787094116,25.70494705119296,25.018085341182648,103.31092321896033,90.45317303243472,-0.0002266406954731,0.0970755815505981,0,0,0
8457,314053.7909716849,2010-12-17 03:51:14,750.3767004283736,7,29,-1.099568486213684,3.742973566055298,25.70494705119296,25.02725341259716,103.31092321896033,90.4875201661625,-0.0001618862152099,0.0970755815505981,0,0,0
8458,314083.80604005314,2010-12-17 03:51:44,780.3917687965823,7,29,-1.0997490882873535,3.73617434501648,25.70494705119296,25.0364215226414,103.31092321896033,90.5218037753706,-0.0001618862152099,0.0970755815505981,0,0,0
8459,314113.8211198147,2010-12-17 03:52:14,810.4068485581428,7,29,-1.0997490882873535,3.729051351547241,25.70494705119296,25.045589639529783,103.31092321896033,90.5560247880642,-0.0002590179501567,0.0970755815505981,0,0,0
8460,314143.83618820296,2010-12-17 03:52:44,840.4219169514138,7,29,-1.099929690361023,3.7227377891540527,25.70494705119296,25.0547577196839,103.31092321896033,90.59018526995604,-0.0001618862152099,0.0970755815505981,0,0,0
8461,314173.8513231368,2010-12-17 03:53:14,870.4370519654678,7,29,-1.099568486213684,3.7162623405456543,25.70494705119296,25.06392581921463,103.31092321896033,90.62428632468958,-0.0001942634553415,0.0970755815505981,0,0,0
8462,314203.8663151751,2010-12-17 03:53:44,900.4520439185203,7,29,-1.0993878841400146,3.709948778152466,25.70494705119296,25.073093909561777,103.31092321896033,90.6583285300881,-0.0001618862152099,0.0970755815505981,0,0,0
8463,314233.8814160292,2010-12-17 03:54:14,930.4671447725688,7,29,-1.099568486213684,3.703635215759277,25.70494705119296,25.08226202864896,103.31092321896033,90.69231309823056,-0.0002266406954731,0.0970755815505981,0,0,0
8464,314263.8964745278,2010-12-17 03:54:44,960.4822032712171,7,29,-1.099568486213684,3.697645425796509,25.70494705119296,25.091430122427244,103.31092321896033,90.72624103434336,-0.0001295089750783,0.0970755815505981,0,0,0
8465,314293.9115277784,2010-12-17 03:55:14,990.4972565218062,7,29,-1.099568486213684,3.69165563583374,25.70494705119296,25.10059816986228,103.31092321896033,90.76011324074724,-0.0001295089750783,0.0970755815505981,0,0,0
8466,314323.9266100612,2010-12-17 03:55:44,1020.5123388046408,7,29,-1.099929690361023,3.6855039596557617,25.70494705119296,25.10976627208051,103.31092321896033,90.79393088921894,-0.0001942634553415,0.0970755815505981,0,0,0
8467,314353.94165670034,2010-12-17 03:56:14,1050.5273854437771,7,29,-1.0997490882873535,3.679837942123413,25.70494705119296,25.118934385459927,103.31092321896033,90.82769491538517,-0.0001942634553415,0.0970755815505981,0,0,0
8468,314383.9585951822,2010-12-17 03:56:44,1080.5443240008792,7,29,-1.099568486213684,3.674171924591065,25.70494705119296,25.12810301874181,103.31092321896033,90.86140824017268,-0.0001295089750783,0.0970755815505981,0,0,0
8469,314413.9718133864,2010-12-17 03:57:14,1110.5575421298383,7,29,-1.099568486213684,3.668668031692505,25.70494705119296,25.137270592866383,103.31092321896033,90.8950659651346,-0.0001295089750783,0.0970755815505981,0,0,0
8470,314443.9868695693,2010-12-17 03:57:44,1140.5725983127245,7,29,-1.0997490882873535,3.663163900375366,25.70494705119296,25.14643869035873,103.31092321896033,90.92867523042,-0.0001618862152099,0.0970755815505981,0,0,0
8471,314474.0047459902,2010-12-17 03:58:14,1170.5904748539635,7,29,-1.099568486213684,3.6578216552734375,25.70494705119296,25.15560764707625,103.31092321896033,90.962237609675,-0.0001295089750783,0.0970755815505981,0,0,0
8472,314504.0170474731,2010-12-17 03:58:44,1200.6027762165852,7,29,-1.099568486213684,3.652479410171509,25.70494705119296,25.16477490822032,103.31092321896033,90.99574445440707,-0.0001295089750783,0.0970755815505981,0,0,0
8473,314534.03208177653,2010-12-17 03:59:14,1230.6178105200247,7,29,-1.0997490882873535,3.64713716506958,25.70494705119296,25.173942999018088,103.31092321896033,91.02920653862346,-0.0001295089750783,0.0970755815505981,0,0,0
8474,314564.0471813976,2010-12-17 03:59:44,1260.6329102412542,7,29,-1.099568486213684,3.641956806182861,25.70494705119296,25.183111116231565,103.31092321896033,91.06262094189115,-0.0001618862152099,0.0970755815505981,0,0,0
8475,314594.06237548863,2010-12-17 04:00:14,1290.6481042370822,7,29,-1.0997490882873535,3.636938333511353,25.70494705119296,25.192279219037776,103.31092321896033,91.09598889444604,-0.0001618862152099,0.0970755815505981,0,0,0
8476,314624.07743734564,2010-12-17 04:00:44,1320.6631661793,7,29,-1.099568486213684,3.6320817470550537,25.70494705119296,25.201447276119723,103.31092321896033,91.129310713547,-0.0001295089750783,0.0970755815505981,0,0,0
8477,314654.0923622418,2010-12-17 04:01:14,1350.6780909852596,7,29,-1.0997490882873535,3.627387046813965,25.70494705119296,25.21061536776861,103.31092321896033,91.16258775177644,-9.713172767078504e-05,0.0970755815505981,0,0,0
8478,314684.107527827,2010-12-17 04:01:44,1380.6932566556006,7,29,-1.0997490882873535,3.622368574142456,25.70494705119296,25.219783537265865,103.31092321896033,91.19582093756446,-0.0001295089750783,0.0970755815505981,0,0,0
8479,314714.1227215872,2010-12-17 04:02:14,1410.7084504058175,7,29,-1.0993878841400146,3.617835760116577,25.70494705119296,25.228951674161262,103.31092321896033,91.22901098631348,-0.0001295089750783,0.0970755815505981,0,0,0
8480,314744.1376195664,2010-12-17 04:02:44,1440.7233484050694,7,29,-1.0997490882873535,3.613141059875488,25.70494705119296,25.238119796250423,103.31092321896033,91.2621587147495,-0.0001295089750783,0.0970755815505981,0,0,0
8481,314774.1526576292,2010-12-17 04:03:14,1470.7383863726272,7,29,-1.0997490882873535,3.6087701320648193,25.70494705119296,25.247287909007632,103.31092321896033,91.29526476187928,-9.713172767078504e-05,0.0970755815505981,0,0,0
8482,314804.1677681523,2010-12-17 04:03:44,1500.7534968957368,7,29,-1.099568486213684,3.60456109046936,25.70494705119296,25.25645609273123,103.31092321896033,91.32833076910272,-6.47544875391759e-05,0.0970755815505981,0,0,0
8483,314834.1829971452,2010-12-17 04:04:14,1530.7687259488034,7,29,-1.099568486213684,3.6001901626586914,25.70494705119296,25.26562428911497,103.31092321896033,91.36135735336164,-0.0001295089750783,0.0970755815505981,0,0,0
8484,314864.19799575483,2010-12-17 04:04:44,1560.7837244882458,7,29,-1.099568486213684,3.5959811210632324,25.70494705119296,25.27479242255207,103.31092321896033,91.39434525675745,-9.713172767078504e-05,0.0970755815505981,0,0,0
8485,314894.2131696005,2010-12-17 04:05:14,1590.7988983289183,7,29,-1.0997490882873535,3.5920960903167725,25.70494705119296,25.28396069361482,103.31092321896033,91.42729636899487,-9.70840483205393e-05,0.0970755815505981,0,0,0
8486,314924.2279915906,2010-12-17 04:05:44,1620.8137203240371,7,29,-1.0997490882873535,3.5880489349365234,25.70494705119296,25.293128876561298,103.31092321896033,91.46021104628966,-0.0001295089750783,0.0970755815505981,0,0,0
8487,314954.24307255016,2010-12-17 04:06:14,1650.8288012936036,7,29,-1.099568486213684,3.5843255519866943,25.70494705119296,25.302297114788587,103.31092321896033,91.4930908627212,-9.713172767078504e-05,0.0970755815505981,0,0,0
8488,314984.2600270269,2010-12-17 04:06:44,1680.8457558755829,7,29,-1.0997490882873535,3.580764055252075,25.70494705119296,25.311465852549546,103.31092321896033,91.52593836138632,-6.47544875391759e-05,0.0970755815505981,0,0,0
8489,315014.2735121452,2010-12-17 04:07:14,1710.8592409688729,7,29,-1.099568486213684,3.577040672302246,25.70494705119296,25.320633541043176,103.31092321896033,91.55874832194166,-6.47544875391759e-05,0.0970755815505981,0,0,0
8490,315044.2884023652,2010-12-17 04:07:44,1740.8741310935288,7,29,-1.099568486213684,3.573479175567627,25.70494705119296,25.329801730229256,103.31092321896033,91.59152685937116,-9.713172767078504e-05,0.0970755815505981,0,0,0
8491,315074.30329603364,2010-12-17 04:08:14,1770.8890247770412,7,29,-1.099568486213684,3.5700795650482178,25.70494705119296,25.33896991212265,103.31092321896033,91.62427322377836,-9.713172767078504e-05,0.0970755815505981,0,0,0
8492,315104.3184099351,2010-12-17 04:08:44,1800.9041386635204,7,29,-1.099568486213684,3.566518068313598,25.70494705119296,25.34813815230354,103.31092321896033,91.65698770414608,-9.713172767078504e-05,0.0970755815505981,0,0,0
8493,315134.33357624203,2010-12-17 04:09:14,1830.9193049704456,7,29,-1.099568486213684,3.563118457794189,25.70494705119296,25.357306387189464,103.31092321896033,91.68967057325008,-6.47544875391759e-05,0.0970755815505981,0,0,0
8494,315164.3485738642,2010-12-17 04:09:44,1860.9343026026304,7,29,-1.0997490882873535,3.5598807334899902,25.70494705119296,25.36647454341165,103.31092321896033,91.7223231611145,-6.47544875391759e-05,0.0970755815505981,0,0,0
8495,315194.36368037737,2010-12-17 04:10:14,1890.949409175911,7,29,-1.099568486213684,3.556481122970581,25.70494705119296,25.37564275990923,103.31092321896033,91.75494525232573,-0.0001295089750783,0.0970755815505981,0,0,0
8496,315224.37874053005,2010-12-17 04:10:44,1920.964469278551,7,29,-1.099568486213684,3.553081512451172,25.70494705119296,25.3848109730968,103.31092321896033,91.78753654953128,-9.713172767078504e-05,0.0970755815505981,0,0,0
8497,315254.39379163535,2010-12-17 04:11:14,1950.9795203838016,7,29,-1.0997490882873535,3.5498437881469727,25.70494705119296,25.39397913156432,103.31092321896033,91.8200970361942,-9.713172767078504e-05,0.0970755815505981,0,0,0
8498,315284.40897764126,2010-12-17 04:11:44,1980.9947063847344,7,29,-1.099568486213684,3.5464441776275635,25.70494705119296,25.403147392439905,103.31092321896033,91.8526272479396,-9.713172767078504e-05,0.0970755815505981,0,0,0
8499,315314.42392573017,2010-12-17 04:12:14,2011.00965446862,7,29,-1.0997490882873535,3.5430445671081543,25.70494705119296,25.41231559352341,103.31092321896033,91.88512637687404,-0.0001295089750783,0.0970755815505981,0,0,0
8500,315344.4391318111,2010-12-17 04:12:44,2041.0248605394963,7,29,-1.099568486213684,3.539644956588745,25.70494705119296,25.421483820322216,103.31092321896033,91.91759470592588,-0.0001295089750783,0.0970755815505981,0,0,0
8501,315374.454061404,2010-12-17 04:13:14,2071.0397901474053,7,29,-1.0997490882873535,3.536245346069336,25.70494705119296,25.430652012220463,103.31092321896033,91.95003132923831,-6.47544875391759e-05,0.0970755815505981,0,0,0
8502,315404.46913386235,2010-12-17 04:13:44,2101.054862675967,7,29,-1.0997490882873535,3.532683849334717,25.70494705119296,25.43982030506489,103.31092321896033,91.9824364767648,-9.713172767078504e-05,0.0970755815505981,0,0,0
8503,315434.4844240125,2010-12-17 04:14:14,2131.070152826071,7,29,-1.0997490882873535,3.5291223526000977,25.70494705119296,25.44898857955905,103.31092321896033,92.0148093696274,-6.47544875391759e-05,0.0970755815505981,0,0,0
8504,315464.4992866688,2010-12-17 04:14:44,2161.085015402174,7,29,-1.0997490882873535,3.5255608558654785,25.70494705119296,25.458156768605317,103.31092321896033,92.04714942811748,-9.713172767078504e-05,0.0970755815505981,0,0,0
8505,315494.5143511072,2010-12-17 04:15:14,2191.1000798506284,7,29,-1.099568486213684,3.5216755867004395,25.70494705119296,25.467325020130748,103.31092321896033,92.0794556853958,-0.0001618862152099,0.0970755815505981,0,0,0
8506,315524.5294150995,2010-12-17 04:15:44,2221.11514384796,7,29,-1.099568486213684,3.5181140899658203,25.70494705119296,25.476493284787544,103.31092321896033,92.11172730147108,-6.47544875391759e-05,0.0970755815505981,0,0,0
8507,315554.5444822998,2010-12-17 04:16:14,2251.130211033225,7,29,-1.099568486213684,3.5139050483703613,25.70494705119296,25.485661450507955,103.31092321896033,92.14396280703016,-0.0001295089750783,0.0970755815505981,0,0,0
8508,315584.5617683416,2010-12-17 04:16:44,2281.147497185304,7,29,-1.099568486213684,3.5098581314086914,25.70494705119296,25.494830305331845,103.31092321896033,92.1761639922616,-9.713172767078504e-05,0.0970755815505981,0,0,0
8509,315614.57462951733,2010-12-17 04:17:14,2311.1603582356865,7,29,-1.0997490882873535,3.5056490898132324,25.70494705119296,25.5039978239296,103.31092321896033,92.20832190009644,-0.0001295089750783,0.0970755815505981,0,0,0
8510,315644.5898556331,2010-12-17 04:17:44,2341.1755843614687,7,29,-1.0992072820663452,3.501116275787353,25.70494705119296,25.51316615511689,103.31092321896033,92.2404419181272,-6.47544875391759e-05,0.0970755815505981,0,0,0
8511,315674.6048851396,2010-12-17 04:18:14,2371.1906138679715,7,29,-1.0997490882873535,3.4962596893310547,25.70494705119296,25.522334357856064,103.31092321896033,92.2725186758765,-0.0001295089750783,0.0970755815505981,0,0,0
8512,315704.6199013881,2010-12-17 04:18:44,2401.2056302067062,7,29,-1.099568486213684,3.491079330444336,25.70494705119296,25.53150267499215,103.31092321896033,92.30454991533644,-0.0001618862152099,0.0970755815505981,0,0,0
8513,315734.6349449997,2010-12-17 04:19:14,2431.220673728085,7,29,-1.099568486213684,3.4854133129119877,25.70494705119296,25.540670899375847,103.31092321896033,92.33653109146373,-0.0001618862152099,0.0970755815505981,0,0,0
8514,315764.6500229818,2010-12-17 04:19:44,2461.235751820492,7,29,-1.099568486213684,3.479099750518799,25.70494705119296,25.54983914446809,103.31092321896033,92.368457611021,-0.0001618862152099,0.0970755815505981,0,0,0
8515,315794.6650406589,2010-12-17 04:20:14,2491.250769387283,7,29,-1.099568486213684,3.4721386432647705,25.70494705119296,25.55900735035792,103.31092321896033,92.40032297172952,-0.0001942634553415,0.0970755815505981,0,0,0
8516,315824.68025528104,2010-12-17 04:20:45,2521.2659840144515,7,29,-1.0997490882873535,3.4640443325042725,25.70494705119296,25.56817562609562,103.31092321896033,92.43212021576524,-0.0002266406954731,0.0970755815505981,0,0,0
8517,315854.6953318797,2010-12-17 04:21:15,2551.2810606081284,7,29,-1.0993878841400146,3.4551405906677246,25.70494705119296,25.577343868210317,103.31092321896033,92.46383874808296,-0.0002266406954731,0.0970755815505981,0,0,0
8518,315884.7102542446,2010-12-17 04:21:45,2581.295982988051,7,29,-1.099568486213684,3.444294214248657,25.70494705119296,25.586512079134568,103.31092321896033,92.49546606683056,-0.0002590179501567,0.0970755815505981,0,0,0
8519,315914.7253295902,2010-12-17 04:22:15,2611.311058403797,7,29,-1.099568486213684,3.4313435554504395,25.70494705119296,25.59568033602019,103.31092321896033,92.52698572747396,-0.0003561019839253,0.0970755815505981,0,0,0
8520,315944.7403986752,2010-12-17 04:22:45,2641.3261274186148,7,29,-1.099568486213684,3.415640592575073,25.70494705119296,25.604848605212787,103.31092321896033,92.55837540978452,-0.0004856586456298,0.0970755815505981,0,0,0
8521,315974.7554593192,2010-12-17 04:23:15,2671.3411880626018,7,29,-1.099568486213684,3.396214246749878,25.70494705119296,25.614016840832697,103.31092321896033,92.58960496615197,-0.0005827903514727,0.0970755815505981,0,0,0
8522,316004.77050258993,2010-12-17 04:23:45,2701.3562313333564,7,29,-1.0997490882873535,3.371283769607544,25.70494705119296,25.623185057128875,103.31092321896033,92.62063235936448,-0.0007770538213662,0.0970755815505981,0,0,0
8523,316034.7855729531,2010-12-17 04:24:15,2731.371301671468,7,29,-1.0997490882873535,3.338259220123291,25.70494705119296,25.63235320442006,103.31092321896033,92.65139638411544,-0.0009713172912597,0.0970755815505981,0,0,0
8524,316064.8006717972,2010-12-17 04:24:45,2761.386400540576,7,29,-1.099568486213684,3.2942261695861816,25.70494705119296,25.64152137517994,103.31092321896033,92.68181103816252,-0.0013598442310467,0.0970755815505981,0,0,0
8525,316094.81585578807,2010-12-17 04:25:15,2791.4015845315075,7,29,-1.099568486213684,3.234652280807495,25.70494705119296,25.65068959057195,103.31092321896033,92.7117542182937,-0.0017807483673095,0.0970755815505981,0,0,0
8526,316124.83078485966,2010-12-17 04:25:45,2821.4165135980693,7,29,-1.099568486213684,3.1507954597473145,25.70494705119296,25.65985770986148,103.31092321896033,92.74104788444748,-0.0025578022468835,0.0970755815505981,0,0,0
8527,316154.8458700297,2010-12-17 04:26:15,2851.4315987781133,7,29,-1.0997490882873535,3.025819778442383,25.70494705119296,25.66902592720545,103.31092321896033,92.76940522299576,-0.0041118622757494,0.0970755815505981,0,0,0
8528,316183.095339919,2010-12-17 04:26:43,2879.681068647365,7,29,-1.099568486213684,2.8254051208496094,25.70494705119296,25.67765487129357,103.31092321896033,92.7947279668482,-0.00702586164698,0.0970755815505981,0,0,0
8529,316196.4388484768,2010-12-17 04:26:56,2893.0245772051994,7,29,-1.0997490882873535,2.699943780899048,25.70494705119296,25.68173071254278,103.31092321896033,92.80599054597714,-0.007640981581062,0.0970755815505981,0,0,0
8530,316256.4421212411,2010-12-17 04:27:56,60.01448525330341,8,29,0.0,3.420659065246582,25.70494705119296,25.68173071254278,103.31092321896033,92.80599054597714,0.0013598442310467,0.0970755815505981,0,0,0
8531,316256.61944865587,2010-12-17 04:27:57,0.187424754292412,9,29,-1.9243103452026844e-05,3.420982837677002,25.70494705119296,25.681730713544624,103.31092321896033,92.80599054940444,0.0,0.0945633500814437,0,0,0
8532,316261.4475973883,2010-12-17 04:28:02,5.015573501752438,9,29,0.0008838032954372,3.42923903465271,25.704948034631563,25.68173071362921,103.31092658793776,92.80599054969382,0.0011655807029455,0.0945633500814437,0,0,0
