Data_Point,Test_Time(s),Date_Time,Step_Time(s),Step_Index,Cycle_Index,Current(A),Voltage(V),Charge_Capacity(Ah),Discharge_Capacity(Ah),Charge_Energy(Wh),Discharge_Energy(Wh),dV/dt(V/s),Internal_Resistance(Ohm),Is_FC_Data,AC_Impedance(Ohm),ACI_Phase_Angle(Deg)
10245,377920.7632739999,2010-12-17 21:35:49,30.01509161104749,1,36,0.0,3.468577146530152,30.82041369258681,30.792741004618108,123.83942994175082,111.25641434473528,0.0007770538213662,0.0931148082017898,0,0,0
10246,377950.7783356263,2010-12-17 21:36:19,60.0301531472549,1,36,0.0,3.493183851242065,30.82041369258681,30.792741004618108,123.83942994175082,111.25641434473528,0.0005504131549969,0.0931148082017898,0,0,0
10247,377980.7934176936,2010-12-17 21:36:49,90.04523521956561,1,36,0.0,3.511476993560791,30.82041369258681,30.792741004618108,123.83942994175082,111.25641434473528,0.0004532813909463,0.0931148082017898,0,0,0
10248,378010.7616385086,2010-12-17 21:37:19,120.01345602942708,1,36,0.0,3.5260465145111084,30.82041369258681,30.792741004618108,123.83942994175082,111.25641434473528,0.0003561496851034,0.0931148082017898,0,0,0
10249,378040.7721265243,2010-12-17 21:37:49,30.01506389708236,2,36,0.5501165986061096,3.670934438705444,30.82500108658504,30.792741004618108,123.85613642087952,111.25641434473528,0.0012627125252038,0.0931148082017898,0,0,0
10250,378070.7871888576,2010-12-17 21:38:19,60.03012624029797,2,36,0.550297200679779,3.707844257354736,30.82958847548828,30.792741004618108,123.87306661640676,111.25641434473528,0.0008418083307333,0.0931148082017898,0,0,0
10251,378100.8022703483,2010-12-17 21:38:49,90.04520773116178,2,36,0.550297200679779,3.73390793800354,30.834175856307347,30.792741004618108,123.89013840687082,111.25641434473528,0.0006475448608398,0.0931148082017898,0,0,0
10252,378130.8174919831,2010-12-17 21:39:19,120.06042936576787,2,36,0.5501165986061096,3.7531721591949454,30.83876319468277,30.792741004618108,123.90731336073948,111.25641434473528,0.000453233718872,0.0931148082017898,0,0,0
10253,378160.8324137714,2010-12-17 21:39:49,150.07535115421837,2,36,0.550297200679779,3.767256259918213,30.84335052675898,30.792741004618108,123.92456454888936,111.25641434473528,0.0003237724304199,0.0931148082017898,0,0,0
10254,378190.847489137,2010-12-17 21:40:19,180.09042651983975,2,36,0.550297200679779,3.7761600017547607,30.847937883815305,30.792741004618108,123.94186811900332,111.25641434473528,0.0001295089750783,0.0931148082017898,0,0,0
10255,378220.8625679463,2010-12-17 21:40:49,210.1055053290303,2,36,0.550297200679779,3.782959222793579,30.852525318078527,30.792741004618108,123.95920749562808,111.25641434473528,0.0001942634553415,0.0931148082017898,0,0,0
10256,378250.8776576927,2010-12-17 21:41:19,240.1205951556373,2,36,0.5504778623580933,3.788625240325928,30.85711269045666,30.792741004618108,123.976574172454,111.25641434473528,0.0001942634553415,0.0931148082017898,0,0,0
10257,378280.89271602087,2010-12-17 21:41:49,270.1356534587994,2,36,0.5499359965324402,3.7934818267822266,30.86170005280077,30.792741004618108,123.9939651821453,111.25641434473528,0.0001295089750783,0.0931148082017898,0,0,0
10258,378310.907794384,2010-12-17 21:42:19,300.1507317517052,2,36,0.550297200679779,3.798338413238525,30.86628736621181,30.792741004618108,124.01137864615764,111.25641434473528,0.0001295089750783,0.0931148082017898,0,0,0
10259,378340.92289636587,2010-12-17 21:42:49,330.1658338187721,2,36,0.5501165986061096,3.8030331134796143,30.870874693788515,30.792741004618108,124.02881363036936,111.25641434473528,0.0001295089750783,0.0931148082017898,0,0,0
10260,378370.9378944692,2010-12-17 21:43:19,360.1808318569672,2,36,0.550297200679779,3.807404041290283,30.875462047290924,30.792741004618108,124.04626941655096,111.25641434473528,0.0001295089750783,0.0931148082017898,0,0,0
10261,378400.9531456624,2010-12-17 21:43:49,390.1960831102783,2,36,0.550297200679779,3.811774969100952,30.88004948147345,30.792741004618108,124.06374551919454,111.25641434473528,0.0001295089750783,0.0931148082017898,0,0,0
10262,378430.96808390174,2010-12-17 21:44:19,420.21102128450417,2,36,0.5501165986061096,3.815822124481201,30.88463682915033,30.792741004618108,124.08124066095688,111.25641434473528,9.713172767078504e-05,0.0931148082017898,0,0,0
10263,378460.98340875824,2010-12-17 21:44:49,450.22634621616106,2,36,0.550297200679779,3.82003116607666,30.88922424174086,30.792741004618108,124.09875480887658,111.25641434473528,0.0001295089750783,0.0931148082017898,0,0,0
10264,378491.00026186265,2010-12-17 21:45:19,480.24319932061707,2,36,0.5501165986061096,3.8235926628112793,30.893811911897785,30.792741004618108,124.11628810137428,111.25641434473528,6.47544875391759e-05,0.0931148082017898,0,0,0
10265,378521.0136658592,2010-12-17 21:45:49,510.25660322687605,2,36,0.5501165986061096,3.827639818191528,30.89839901315235,30.792741004618108,124.13383714911392,111.25641434473528,9.713172767078504e-05,0.0931148082017898,0,0,0
10266,378551.0284221257,2010-12-17 21:46:19,540.2713595986937,2,36,0.550297200679779,3.831686973571777,30.902986383997263,30.792741004618108,124.15140513929632,111.25641434473528,0.0001295089750783,0.0931148082017898,0,0,0
10267,378581.0434558928,2010-12-17 21:46:49,570.2863932805867,2,36,0.550297200679779,3.8354101181030273,30.907573785190586,30.792741004618108,124.16899092764662,111.25641434473528,9.713172767078504e-05,0.0931148082017898,0,0,0
10268,378611.05854673695,2010-12-17 21:47:19,600.3014841197133,2,36,0.550297200679779,3.8392953872680655,30.912161204988305,30.792741004618108,124.18659462342286,111.25641434473528,9.713172767078504e-05,0.0931148082017898,0,0,0
10269,378641.0736064788,2010-12-17 21:47:49,630.3165438614553,2,36,0.5501165986061096,3.843018770217896,30.91674858136071,30.792741004618108,124.20421585728428,111.25641434473528,9.713172767078504e-05,0.0931148082017898,0,0,0
10270,378671.08867885184,2010-12-17 21:48:19,660.33161623463,2,36,0.550297200679779,3.8472278118133545,30.921335967055988,30.792741004618108,124.22185477023196,111.25641434473528,0.0001618862152099,0.0931148082017898,0,0,0
10271,378701.1037820016,2010-12-17 21:48:49,690.3467193843912,2,36,0.5499359965324402,3.8507893085479736,30.92592336969212,30.792741004618108,124.239511404871,111.25641434473528,9.713172767078504e-05,0.0931148082017898,0,0,0
10272,378731.11884638993,2010-12-17 21:49:19,720.361783772696,2,36,0.5499359965324402,3.8545126914978023,30.930510764685177,30.792741004618108,124.25718545251556,111.25641434473528,3.237724376958795e-05,0.0931148082017898,0,0,0
10273,378761.13393436687,2010-12-17 21:49:49,750.3768718198749,2,36,0.5501165986061096,3.858397960662842,30.93509814338946,30.792741004618108,124.27487674754084,111.25641434473528,0.0001295089750783,0.0931148082017898,0,0,0
10274,378791.1489975221,2010-12-17 21:50:19,780.391934909949,2,36,0.550297200679779,3.861959457397461,30.939685550079496,30.792741004618108,124.292585092864,111.25641434473528,6.47544875391759e-05,0.0931148082017898,0,0,0
10275,378821.1640628378,2010-12-17 21:50:49,810.4070002105238,2,36,0.5501165986061096,3.86552095413208,30.944272929929845,30.792741004618108,124.31030982368463,111.25641434473528,9.713172767078504e-05,0.0931148082017898,0,0,0
10276,378851.1791462484,2010-12-17 21:51:19,840.4220836311899,2,36,0.550297200679779,3.869082450866699,30.94886035019996,30.792741004618108,124.32805078851342,111.25641434473528,9.713172767078504e-05,0.0931148082017898,0,0,0
10277,378881.19421358407,2010-12-17 21:51:49,870.437150966829,2,36,0.550297200679779,3.872482061386109,30.95344776921466,30.792741004618108,124.34580727369,111.25641434473528,0.0001295089750783,0.0931148082017898,0,0,0
10278,378911.209284629,2010-12-17 21:52:19,900.4522220116983,2,36,0.5501165986061096,3.8755578994750977,30.95803520109372,30.792741004618108,124.36357876752126,111.25641434473528,9.713172767078504e-05,0.0931148082017898,0,0,0
10279,378941.2243978738,2010-12-17 21:52:49,930.4673352565808,2,36,0.5501165986061096,3.878471851348877,30.96262262325549,30.792741004618108,124.38136458114762,111.25641434473528,6.47544875391759e-05,0.0931148082017898,0,0,0
10280,378971.2394714951,2010-12-17 21:53:19,960.4824088778614,2,36,0.5501165986061096,3.881385803222656,30.96721003741623,30.792741004618108,124.399164058398,111.25641434473528,6.47544875391759e-05,0.0931148082017898,0,0,0
10281,379001.25452649005,2010-12-17 21:53:49,990.4974638477288,2,36,0.5504778623580933,3.884299755096436,30.97179742300312,30.792741004618108,124.41697640975369,111.25641434473528,6.47544875391759e-05,0.0931148082017898,0,0,0
10282,379031.2696199608,2010-12-17 21:54:19,1020.5125573434664,2,36,0.550297200679779,3.886728048324585,30.976384851479548,30.792741004618108,124.43480119660236,111.25641434473528,3.237724376958795e-05,0.0931148082017898,0,0,0
10283,379061.2846686349,2010-12-17 21:54:49,1050.5276060226795,2,36,0.5501165986061096,3.8891563415527344,30.980972240951903,30.792741004618108,124.45263755990764,111.25641434473528,3.237724376958795e-05,0.0931148082017898,0,0,0
10284,379091.3016044903,2010-12-17 21:55:19,1080.54454194322,2,36,0.550297200679779,3.891908407211304,30.9855599691838,30.792741004618108,124.47048626337155,111.25641434473528,9.713172767078504e-05,0.0931148082017898,0,0,0
10285,379121.3148230754,2010-12-17 21:55:49,1110.55776045814,2,36,0.5501165986061096,3.8938510417938232,30.990147101578355,30.792741004618108,124.48834317548749,111.25641434473528,3.237724376958795e-05,0.0931148082017898,0,0,0
10286,379151.32988702256,2010-12-17 21:56:19,1140.5728243752724,2,36,0.550297200679779,3.8959555625915527,30.99473450969785,30.792741004618108,124.50621090226598,111.25641434473528,6.47544875391759e-05,0.0931148082017898,0,0,0
10287,379181.3449907789,2010-12-17 21:56:49,1170.5879281616176,2,36,0.5501165986061096,3.898060083389282,30.999321776895496,30.792741004618108,124.52408754898248,111.25641434473528,6.47544875391759e-05,0.0931148082017898,0,0,0
10288,379211.36018463934,2010-12-17 21:57:19,1200.6031220070715,2,36,0.5501165986061096,3.9000027179718018,31.003909231026235,30.792741004618108,124.54197415677892,111.25641434473528,6.47544875391759e-05,0.0931148082017898,0,0,0
10289,379241.3751323072,2010-12-17 21:57:49,1230.6180696899594,2,36,0.5501165986061096,3.9017834663391113,31.008496646093587,30.792741004618108,124.55986947423612,111.25641434473528,3.237724376958795e-05,0.0931148082017898,0,0,0
10290,379271.39018913166,2010-12-17 21:58:19,1260.6331264893795,2,36,0.5501165986061096,3.903726100921631,31.01308402990915,30.792741004618108,124.57777340933568,111.25641434473528,3.237724376958795e-05,0.0931148082017898,0,0,0
10291,379301.4052702767,2010-12-17 21:58:49,1290.6482076594448,2,36,0.5501165986061096,3.905506849288941,31.017671360107048,30.792741004618108,124.59568556025184,111.25641434473528,3.237724376958795e-05,0.0931148082017898,0,0,0
10292,379331.42042591714,2010-12-17 21:59:20,1320.6633633900512,2,36,0.550297200679779,3.90761137008667,31.022258746468847,30.792741004618108,124.61360623151928,111.25641434473528,6.47544875391759e-05,0.0931148082017898,0,0,0
10293,379361.4355449013,2010-12-17 21:59:50,1350.678482354166,2,36,0.5501165986061096,3.9092302322387695,31.026846120884606,30.792741004618108,124.6315350476036,111.25641434473528,3.237724376958795e-05,0.0931148082017898,0,0,0
10294,379391.4506419158,2010-12-17 22:00:20,1380.6935792834477,2,36,0.550297200679779,3.911010980606079,31.031433537310164,30.792741004618108,124.64947215561304,111.25641434473528,6.47544875391759e-05,0.0931148082017898,0,0,0
10295,379421.4656926851,2010-12-17 22:00:50,1410.708630123037,2,36,0.5501165986061096,3.9127917289733887,31.03602090676001,30.792741004618108,124.66741709363367,111.25641434473528,6.47544875391759e-05,0.0931148082017898,0,0,0
10296,379451.4807865368,2010-12-17 22:01:20,1440.723723909498,2,36,0.5501165986061096,3.914572238922119,31.04060827912209,30.792741004618108,124.68537003457728,111.25641434473528,9.713172767078504e-05,0.0931148082017898,0,0,0
10297,379481.4957413474,2010-12-17 22:01:50,1470.7386787301475,2,36,0.5501165986061096,3.916029214859009,31.04519573955551,30.792741004618108,124.70333124805276,111.25641434473528,3.237724376958795e-05,0.0931148082017898,0,0,0
10298,379511.51079901896,2010-12-17 22:02:20,1500.753736401738,2,36,0.550297200679779,3.9178099632263184,31.04978307781329,30.792741004618108,124.72129993939876,111.25641434473528,3.237724376958795e-05,0.0931148082017898,0,0,0
10299,379541.5259269053,2010-12-17 22:02:50,1530.76886437828,2,36,0.550297200679779,3.919590711593628,31.05437049070759,30.792741004618108,124.739276817846,111.25641434473528,3.237724376958795e-05,0.0931148082017898,0,0,0
10300,379571.5409728978,2010-12-17 22:03:20,1560.7839102655453,2,36,0.550297200679779,3.9213714599609375,31.05895790010025,30.792741004618108,124.75726163253596,111.25641434473528,6.47544875391759e-05,0.0931148082017898,0,0,0
10301,379601.5560518223,2010-12-17 22:03:50,1590.798989190023,2,36,0.550297200679779,3.923152208328247,31.06354526145635,30.792741004618108,124.77525421056588,111.25641434473528,6.47544875391759e-05,0.0931148082017898,0,0,0
10302,379631.5712274324,2010-12-17 22:04:20,1620.8141648000983,2,36,0.5501165986061096,3.9247710704803462,31.068132672927536,30.792741004618108,124.79325487717524,111.25641434473528,3.237724376958795e-05,0.0931148082017898,0,0,0
10303,379661.58633166994,2010-12-17 22:04:50,1650.8292690375663,2,36,0.5501165986061096,3.926551818847656,31.07272009794019,30.792741004618108,124.8112634972006,111.25641434473528,6.47544875391759e-05,0.0931148082017898,0,0,0
10304,379691.6033405369,2010-12-17 22:05:20,1680.8462779948566,2,36,0.5501165986061096,3.928170680999756,31.07730777426806,30.792741004618108,124.82928102658948,111.25641434473528,3.237724376958795e-05,0.0931148082017898,0,0,0
10305,379721.6164665717,2010-12-17 22:05:50,1710.8594039444308,2,36,0.5499359965324402,3.9299514293670654,31.08189485189325,30.792741004618108,124.84730408759027,111.25641434473528,6.47544875391759e-05,0.0931148082017898,0,0,0
10306,379751.6314082496,2010-12-17 22:06:20,1740.8743456223756,2,36,0.5501165986061096,3.931732177734375,31.08648227192561,30.792741004618108,124.86533641226872,111.25641434473528,6.47544875391759e-05,0.0931148082017898,0,0,0
10307,379781.6466135135,2010-12-17 22:06:50,1770.8895508962687,2,36,0.5501165986061096,3.9333510398864746,31.09106969709914,30.792741004618108,124.88337664843934,111.25641434473528,3.237724376958795e-05,0.0931148082017898,0,0,0
10308,379811.6615955318,2010-12-17 22:07:20,1800.904532914599,2,36,0.5501165986061096,3.934969902038574,31.095657143665864,30.792741004618108,124.90142493843952,111.25641434473528,3.237724376958795e-05,0.0931148082017898,0,0,0
10309,379841.676640943,2010-12-17 22:07:50,1830.919578330692,2,36,0.5501165986061096,3.936750650405884,31.10024454956747,30.792741004618108,124.91948094246948,111.25641434473528,6.47544875391759e-05,0.0931148082017898,0,0,0
10310,379871.6917146243,2010-12-17 22:08:20,1860.93465200711,2,36,0.550297200679779,3.938531398773194,31.104831882253883,30.792741004618108,124.93754469093447,111.25641434473528,3.237724376958795e-05,0.0931148082017898,0,0,0
10311,379901.7095691959,2010-12-17 22:08:50,1890.952506668903,2,36,0.550297200679779,3.940312147140503,31.109419679885917,30.792741004618108,124.95561821023574,111.25641434473528,6.47544875391759e-05,0.0931148082017898,0,0,0
10312,379931.7218877464,2010-12-17 22:09:20,1920.9648251190465,2,36,0.550297200679779,3.942092895507813,31.11400670483909,30.792741004618108,124.97369663265836,111.25641434473528,6.47544875391759e-05,0.0931148082017898,0,0,0
10313,379961.7370729754,2010-12-17 22:09:50,1950.9800103480584,2,36,0.550297200679779,3.943873643875122,31.118594096174256,30.792741004618108,124.99178447679137,111.25641434473528,3.237724376958795e-05,0.0931148082017898,0,0,0
10314,379991.7520228235,2010-12-17 22:10:20,1980.99496020636,2,36,0.5501165986061096,3.9454925060272217,31.12318150139207,30.792741004618108,125.00988031188034,111.25641434473528,3.237724376958795e-05,0.0931148082017898,0,0,0
10315,380021.7671229609,2010-12-17 22:10:50,2011.010060343624,2,36,0.5501165986061096,3.947111368179321,31.12776897740098,30.792741004618108,125.02798431647868,111.25641434473528,0.0,0.0931148082017898,0,0,0
10316,380051.78243135137,2010-12-17 22:11:20,2041.0253687240945,2,36,0.550297200679779,3.949215888977051,31.132356428525352,30.792741004618108,125.04609625548343,111.25641434473528,6.47544875391759e-05,0.0931148082017898,0,0,0
10317,380081.79725995794,2010-12-17 22:11:50,2071.040197315628,2,36,0.550297200679779,3.9508347511291504,31.13694379861569,30.792741004618108,125.06421587117843,111.25641434473528,6.47544875391759e-05,0.0931148082017898,0,0,0
10318,380111.8123332885,2010-12-17 22:12:20,2101.0552706511976,2,36,0.550297200679779,3.95261549949646,31.14153123345383,30.792741004618108,125.0823438589042,111.25641434473528,3.237724376958795e-05,0.0931148082017898,0,0,0
10319,380141.82740534586,2010-12-17 22:12:50,2131.0703427035737,2,36,0.5501165986061096,3.95423436164856,31.146118686768737,30.792741004618108,125.1004800400438,111.25641434473528,0.0,0.0931148082017898,0,0,0
10320,380171.84250335785,2010-12-17 22:13:20,2161.085440730587,2,36,0.550297200679779,3.956015110015869,31.15070615903598,30.792741004618108,125.11862447355853,111.25641434473528,3.237724376958795e-05,0.0931148082017898,0,0,0
10321,380201.8575664229,2010-12-17 22:13:50,2191.100503805624,2,36,0.5501165986061096,3.9577958583831783,31.15529363237471,30.792741004618108,125.13677701607295,111.25641434473528,3.237724376958795e-05,0.0931148082017898,0,0,0
10322,380231.87268100114,2010-12-17 22:14:20,2221.1156183838243,2,36,0.550297200679779,3.959576606750488,31.15988101971654,30.792741004618108,125.15493749366856,111.25641434473528,3.237724376958795e-05,0.0931148082017898,0,0,0
10323,380261.8877161366,2010-12-17 22:14:50,2251.130653519335,2,36,0.5501165986061096,3.961519241333008,31.16446841832976,30.792741004618108,125.17310627848492,111.25641434473528,3.237724376958795e-05,0.0931148082017898,0,0,0
10324,380291.9047728827,2010-12-17 22:15:20,2281.147710340733,2,36,0.550297200679779,3.963299989700317,31.169056209605376,30.792741004618108,125.19128491782084,111.25641434473528,0.0,0.0931148082017898,0,0,0
10325,380321.9180033474,2010-12-17 22:15:50,2311.1609407302017,2,36,0.5501165986061096,3.964918851852417,31.17364333477136,30.792741004618108,125.20946923752092,111.25641434473528,0.0,0.0931148082017898,0,0,0
10326,380351.9329545441,2010-12-17 22:16:20,2341.1758919819704,2,36,0.5501165986061096,3.9670233726501465,31.17823077500124,30.792741004618108,125.22766327029922,111.25641434473528,3.237724376958795e-05,0.0931148082017898,0,0,0
10327,380381.94816004846,2010-12-17 22:16:50,2371.191097421276,2,36,0.550297200679779,3.968804121017456,31.182818241621323,30.792741004618108,125.2458657924312,111.25641434473528,6.47544875391759e-05,0.0931148082017898,0,0,0
10328,380411.9631237462,2010-12-17 22:17:20,2401.2060611290403,2,36,0.550297200679779,3.970746755599976,31.187405686061343,30.792741004618108,125.26407680121606,111.25641434473528,6.47544875391759e-05,0.0931148082017898,0,0,0
10329,380441.97844569554,2010-12-17 22:17:50,2431.221383133413,2,36,0.5504778623580933,3.972689390182495,31.19199318600868,30.792741004618108,125.28229667141014,111.25641434473528,6.47544875391759e-05,0.0931148082017898,0,0,0
10330,380471.99327804137,2010-12-17 22:18:20,2461.236215424152,2,36,0.5501165986061096,3.9744701385498047,31.19658067515427,30.792741004618108,125.30052513822352,111.25641434473528,6.47544875391759e-05,0.0931148082017898,0,0,0
10331,380502.0083387254,2010-12-17 22:18:50,2491.2512761082385,2,36,0.550297200679779,3.976412773132324,31.201168155028046,30.792741004618108,125.31876232546378,111.25641434473528,3.237724376958795e-05,0.0931148082017898,0,0,0
10332,380532.023555087,2010-12-17 22:19:20,2521.266492454685,2,36,0.550297200679779,3.978031635284424,31.20575566696131,30.792741004618108,125.33700824118472,111.25641434473528,3.237724376958795e-05,0.0931148082017898,0,0,0
10333,380562.0384992661,2010-12-17 22:19:50,2551.281436648892,2,36,0.5501165986061096,3.9802980422973633,31.21034308076125,30.792741004618108,125.3552629189942,111.25641434473528,6.47544875391759e-05,0.0931148082017898,0,0,0
10334,380592.0535780653,2010-12-17 22:20:20,2581.296515448057,2,36,0.550297200679779,3.9824025630950928,31.214930528957503,30.792741004618108,125.37352684154584,111.25641434473528,6.47544875391759e-05,0.0931148082017898,0,0,0
10335,380622.06864816777,2010-12-17 22:20:50,2611.3115855305314,2,36,0.550297200679779,3.984345197677612,31.21951778511761,30.792741004618108,125.39179906463248,111.25641434473528,6.47544875391759e-05,0.0931148082017898,0,0,0
10336,380652.08375026495,2010-12-17 22:21:20,2641.326687647724,2,36,0.5501165986061096,3.986287832260132,31.22410515736954,30.792741004618108,125.41008102635564,111.25641434473528,6.47544875391759e-05,0.0931148082017898,0,0,0
10337,380682.0988284074,2010-12-17 22:21:50,2671.3417657902546,2,36,0.550297200679779,3.9882304668426514,31.228692452901768,30.792741004618108,125.42837194418703,111.25641434473528,3.237724376958795e-05,0.0931148082017898,0,0,0
10338,380712.11388204905,2010-12-17 22:22:20,2701.356819431817,2,36,0.5499359965324402,3.990173101425171,31.23327975830287,30.792741004618108,125.44667223324235,111.25641434473528,0.0,0.0931148082017898,0,0,0
10339,380742.1289630587,2010-12-17 22:22:50,2731.371900441483,2,36,0.550297200679779,3.9924395084381104,31.23786707210926,30.792741004618108,125.46498196971623,111.25641434473528,6.47544875391759e-05,0.0931148082017898,0,0,0
10340,380772.1440610707,2010-12-17 22:23:20,2761.386998458472,2,36,0.5501165986061096,3.9945437908172607,31.242454426941457,30.792741004618108,125.48330143467392,111.25641434473528,6.47544875391759e-05,0.0931148082017898,0,0,0
10341,380802.15919308725,2010-12-17 22:23:50,2791.4021304750668,2,36,0.550297200679779,3.9966483116149902,31.247041792119276,30.792741004618108,125.50163068013434,111.25641434473528,6.47544875391759e-05,0.0931148082017898,0,0,0
10342,380832.17433730426,2010-12-17 22:24:20,2821.41727466696,2,36,0.5499359965324402,3.99875283241272,31.25162915748865,30.792741004618108,125.5199697395383,111.25641434473528,6.47544875391759e-05,0.0931148082017898,0,0,0
10343,380862.1897322,2010-12-17 22:24:50,2851.432669652944,2,36,0.550297200679779,4.001019477844238,31.256216537676696,30.792741004618108,125.53831875169932,111.25641434473528,6.47544875391759e-05,0.0931148082017898,0,0,0
10344,380892.2043861118,2010-12-17 22:25:20,2881.447323499632,2,36,0.5501165986061096,4.003285884857178,31.26080381053118,30.792741004618108,125.55667743544998,111.25641434473528,9.71794142969884e-05,0.0931148082017898,0,0,0
10345,380922.2057344233,2010-12-17 22:25:50,2911.4486718811813,2,36,0.550297200679779,4.005390167236328,31.265389094394227,30.792741004618108,125.57503829367604,111.25641434473528,3.23295607813634e-05,0.0931148082017898,0,0,0
10346,380952.21892519406,2010-12-17 22:26:20,2941.461862652061,2,36,0.550297200679779,4.007656574249268,31.269976165394063,30.792741004618108,125.5934166610052,111.25641434473528,6.47544875391759e-05,0.0931148082017898,0,0,0
10347,380982.2340983781,2010-12-17 22:26:50,2971.477035750888,2,36,0.5501165986061096,4.009922981262207,31.27456354671567,30.792741004618108,125.61180658130324,111.25641434473528,6.47544875391759e-05,0.0931148082017898,0,0,0
10348,381012.2490679956,2010-12-17 22:27:20,3001.492005368359,2,36,0.550297200679779,4.012513160705566,31.279150818301552,30.792741004618108,125.63020649419158,111.25641434473528,9.70840483205393e-05,0.0931148082017898,0,0,0
10349,381042.264265054,2010-12-17 22:27:50,3031.507202421796,2,36,0.550297200679779,4.014617919921875,31.28373824479927,30.792741004618108,125.64861763073536,111.25641434473528,6.47544875391759e-05,0.0931148082017898,0,0,0
10350,381072.2792157093,2010-12-17 22:28:20,3061.5221530921176,2,36,0.550297200679779,4.016884326934815,31.28832555646873,30.792741004618108,125.66703899803582,111.25641434473528,3.24249267578125e-05,0.0931148082017898,0,0,0
10351,381102.2942746341,2010-12-17 22:28:50,3091.537212021839,2,36,0.5501165986061096,4.019150733947754,31.2929129466194,30.792741004618108,125.68547156599644,111.25641434473528,3.24249267578125e-05,0.0931148082017898,0,0,0
10352,381132.30935377406,2010-12-17 22:29:20,3121.5522911618527,2,36,0.5501165986061096,4.021578788757324,31.297500286631887,30.792741004618108,125.70391479145913,111.25641434473528,0.0,0.0931148082017898,0,0,0
10353,381162.32443134015,2010-12-17 22:29:50,3151.5673687229373,2,36,0.5501165986061096,4.024168968200684,31.30208765914858,30.792741004618108,125.72236925682692,111.25641434473528,3.23295607813634e-05,0.0931148082017898,0,0,0
10354,381192.3394946759,2010-12-17 22:30:20,3181.58243203356,2,36,0.550297200679779,4.026597499847412,31.306675091470648,30.792741004618108,125.74083513684138,111.25641434473528,6.47544875391759e-05,0.0931148082017898,0,0,0
10355,381222.35464232136,2010-12-17 22:30:50,3211.59757970411,2,36,0.5501165986061096,4.029025554656982,31.311262473634425,30.792741004618108,125.75931210039012,111.25641434473528,3.23295607813634e-05,0.0931148082017898,0,0,0
10356,381252.3697191105,2010-12-17 22:31:20,3241.612656493274,2,36,0.5501165986061096,4.031454086303711,31.31584985732283,30.792741004618108,125.77780041335966,111.25641434473528,6.47544875391759e-05,0.0931148082017898,0,0,0
10357,381282.3847832181,2010-12-17 22:31:51,3271.62772060088,2,36,0.5501165986061096,4.03404426574707,31.320437183487385,30.792741004618108,125.79629998523956,111.25641434473528,9.71794142969884e-05,0.0931148082017898,0,0,0
10358,381312.3999875848,2010-12-17 22:32:21,3301.6429249524776,2,36,0.550297200679779,4.036633968353272,31.325024534674736,30.792741004618108,125.81481123593132,111.25641434473528,9.70840483205393e-05,0.0931148082017898,0,0,0
10359,381342.4149335634,2010-12-17 22:32:51,3331.6578709511746,2,36,0.5501165986061096,4.0390625,31.329611884125896,30.792741004618108,125.83333415525016,111.25641434473528,6.47544875391759e-05,0.0931148082017898,0,0,0
10360,381372.4300130342,2010-12-17 22:33:21,3361.672950422012,2,36,0.5501165986061096,4.041652679443359,31.33419922098492,30.792741004618108,125.85186875739804,111.25641434473528,3.24249267578125e-05,0.0931148082017898,0,0,0
10361,381402.4451029862,2010-12-17 22:33:51,3391.6880403438554,2,36,0.5501165986061096,4.044242858886719,31.33878661433692,30.792741004618108,125.87041558748165,111.25641434473528,3.24249267578125e-05,0.0931148082017898,0,0,0
10362,381432.46019951947,2010-12-17 22:34:21,3421.7031369022143,2,36,0.5501165986061096,4.046994686126709,31.343373911728506,30.792741004618108,125.8889740569341,111.25641434473528,9.70840483205393e-05,0.0931148082017898,0,0,0
10363,381462.4752462488,2010-12-17 22:34:51,3451.718183636588,2,36,0.550297200679779,4.049584865570068,31.347961217241476,30.792741004618108,125.90754474771428,111.25641434473528,9.70840483205393e-05,0.0931148082017898,0,0,0
10364,381492.4904502596,2010-12-17 22:35:21,3481.733387627288,2,36,0.5501165986061096,4.052337169647217,31.352548641887942,30.792741004618108,125.92612816438294,111.25641434473528,6.47544875391759e-05,0.0931148082017898,0,0,0
10365,381522.5072888279,2010-12-17 22:35:51,3511.7502263208835,2,36,0.5501165986061096,4.054927349090576,31.357136246085123,30.792741004618108,125.94472475432948,111.25641434473528,6.47544875391759e-05,0.0931148082017898,0,0,0
10366,381552.52047080186,2010-12-17 22:36:21,3541.76340818961,2,36,0.550297200679779,4.057841300964356,31.36172329083148,30.792741004618108,125.96333155103306,111.25641434473528,9.71794142969884e-05,0.0931148082017898,0,0,0
10367,381582.5355696458,2010-12-17 22:36:51,3571.7785070336568,2,36,0.550297200679779,4.060593128204346,31.366310717042737,30.792741004618108,125.98195254660055,111.25641434473528,9.70840483205393e-05,0.0931148082017898,0,0,0
10368,381612.5506787304,2010-12-17 22:37:21,3601.7936161181865,2,36,0.550297200679779,4.063183307647705,31.370898111317757,30.792741004618108,126.00058563792952,111.25641434473528,6.47544875391759e-05,0.0931148082017898,0,0,0
10369,381642.56579765945,2010-12-17 22:37:51,3631.808735032176,2,36,0.5501165986061096,4.0659356117248535,31.375485475684453,30.792741004618108,126.01923155670822,111.25641434473528,9.71794142969884e-05,0.0931148082017898,0,0,0
10370,381672.5809268089,2010-12-17 22:38:21,3661.823864191661,2,36,0.550297200679779,4.068849563598633,31.38007277451729,30.792741004618108,126.0378900517108,111.25641434473528,6.47544875391759e-05,0.0931148082017898,0,0,0
10371,381702.59587983007,2010-12-17 22:38:51,3691.8388172679706,2,36,0.550297200679779,4.071763515472412,31.384660056852912,30.792741004618108,126.05656155618163,111.25641434473528,9.71794142969884e-05,0.0931148082017898,0,0,0
10372,381732.6111288277,2010-12-17 22:39:21,3721.854066215544,2,36,0.5504778623580933,4.074839115142822,31.389247362329133,30.792741004618108,126.07524634989522,111.25641434473528,0.0001295089750783,0.0931148082017898,0,0,0
10373,381762.6262210904,2010-12-17 22:39:51,3751.869158548387,2,36,0.5501165986061096,4.077591419219971,31.393834698290057,30.792741004618108,126.09394463251492,111.25641434473528,6.47544875391759e-05,0.0931148082017898,0,0,0
10374,381792.6411746781,2010-12-17 22:40:21,3781.884112060783,2,36,0.5501165986061096,4.080343246459961,31.398422018512576,30.792741004618108,126.11265622719584,111.25641434473528,9.70840483205393e-05,0.0931148082017898,0,0,0
10375,381822.656239292,2010-12-17 22:40:51,3811.8991766796607,2,36,0.5501165986061096,4.083419322967529,31.40300936563703,30.792741004618108,126.1313813246048,111.25641434473528,9.71794142969884e-05,0.0931148082017898,0,0,0
10376,381852.674201772,2010-12-17 22:41:21,3841.917139275042,2,36,0.5501165986061096,4.086333274841309,31.40759714321953,30.792741004618108,126.15012183135072,111.25641434473528,9.71794142969884e-05,0.0931148082017898,0,0,0
10377,381882.6864196719,2010-12-17 22:41:51,3871.9293570596833,2,36,0.550297200679779,4.089570999145508,31.412184043936183,30.792741004618108,126.16887247308846,111.25641434473528,9.71794142969884e-05,0.0931148082017898,0,0,0
10378,381912.701483965,2010-12-17 22:42:21,3901.9444213477386,2,36,0.5501165986061096,4.092484951019287,31.41677142157147,30.792741004618108,126.18763897092047,111.25641434473528,0.0001295089750783,0.0931148082017898,0,0,0
10379,381942.716767669,2010-12-17 22:42:51,3931.959705106939,2,36,0.550297200679779,4.095560550689697,31.421358760734886,30.792741004618108,126.20641921479832,111.25641434473528,6.47544875391759e-05,0.0931148082017898,0,0,0
10380,381972.7316380145,2010-12-17 22:43:21,3961.9745753872135,2,36,0.5501165986061096,4.098474502563477,31.425946117147248,30.792741004618108,126.22521371735012,111.25641434473528,6.47544875391759e-05,0.0931148082017898,0,0,0
10381,382002.7468591829,2010-12-17 22:43:51,3991.989796570697,2,36,0.5501165986061096,4.101712226867676,31.43053353568702,30.792741004618108,126.24402273822103,111.25641434473528,6.47544875391759e-05,0.0931148082017898,0,0,0
10382,382032.7618043696,2010-12-17 22:44:21,4022.0047417573737,2,36,0.550297200679779,4.104949951171875,31.435120984196665,30.792741004618108,126.26284622964266,111.25641434473528,9.70840483205393e-05,0.0931148082017898,0,0,0
10383,382062.7769033791,2010-12-17 22:44:51,4052.0198407467815,2,36,0.550297200679779,4.108026027679443,31.43970844016265,30.792741004618108,126.28168426429174,111.25641434473528,0.0001295089750783,0.0931148082017898,0,0,0
10384,382092.7919597975,2010-12-17 22:45:21,4082.034897185303,2,36,0.5501165986061096,4.111263751983643,31.44429585044823,30.792741004618108,126.30053667766002,111.25641434473528,9.71794142969884e-05,0.0931148082017898,0,0,0
10385,382122.808971241,2010-12-17 22:45:51,4112.051908698954,2,36,0.5501165986061096,4.114339351654053,31.448883529927183,30.792741004618108,126.31940477758842,111.25641434473528,9.70840483205393e-05,0.0931148082017898,0,0,0
10386,382152.82225941424,2010-12-17 22:46:21,4142.06519679703,2,36,0.550297200679779,4.117577075958252,31.45347017132313,30.792741004618108,126.33828331527856,111.25641434473528,9.71794142969884e-05,0.0931148082017898,0,0,0
10387,382182.8371948467,2010-12-17 22:46:51,4172.080132234445,2,36,0.5501165986061096,4.120814800262451,31.45805680218323,30.792741004618108,126.35717659837005,111.25641434473528,6.47544875391759e-05,0.0931148082017898,0,0,0
10388,382212.8523971031,2010-12-17 22:47:21,4202.095334485817,2,36,0.5501165986061096,4.12405252456665,31.462643429076024,30.792741004618108,126.3760848794148,111.25641434473528,6.47544875391759e-05,0.0931148082017898,0,0,0
10389,382242.8675557158,2010-12-17 22:47:51,4232.1104931687705,2,36,0.550297200679779,4.1274518966674805,31.46723002614497,30.792741004618108,126.39500818840617,111.25641434473528,9.70840483205393e-05,0.0931148082017898,0,0,0
10390,382272.88258941774,2010-12-17 22:48:21,4262.1255267905135,2,36,0.5504778623580933,4.130851745605469,31.471817164820965,30.792741004618108,126.4139490383298,111.25641434473528,9.71794142969884e-05,0.0931148082017898,0,0,0
10391,382302.8975174418,2010-12-17 22:48:51,4292.1404548245055,2,36,0.550297200679779,4.134251117706299,31.47640459368037,30.792741004618108,126.43290646657142,111.25641434473528,0.0001295089750783,0.0931148082017898,0,0,0
10392,382332.9125975642,2010-12-17 22:49:21,4322.155534936939,2,36,0.550297200679779,4.137650966644287,31.480992025476898,30.792741004618108,126.45187945849148,111.25641434473528,9.71794142969884e-05,0.0931148082017898,0,0,0
10393,382362.9276939872,2010-12-17 22:49:51,4352.1706313549485,2,36,0.550297200679779,4.141050338745117,31.48557941921421,30.792741004618108,126.47086791805228,111.25641434473528,9.70840483205393e-05,0.0931148082017898,0,0,0
10394,382392.943102958,2010-12-17 22:50:21,4382.186040325734,2,36,0.550297200679779,4.144611835479736,31.49016691756627,30.792741004618108,126.48987254609108,111.25641434473528,0.0001295089750783,0.0931148082017898,0,0,0
10395,382422.9578444127,2010-12-17 22:50:51,4412.20078178043,2,36,0.5501165986061096,4.148011684417725,31.494754209865185,30.792741004618108,126.50889255487417,111.25641434473528,9.71794142969884e-05,0.0931148082017898,0,0,0
10396,382452.9729143448,2010-12-17 22:51:21,4442.215851712531,2,36,0.550297200679779,4.151411056518555,31.499341582294555,30.792741004618108,126.52792891088828,111.25641434473528,6.47544875391759e-05,0.0931148082017898,0,0,0
10397,382482.9880399153,2010-12-17 22:51:51,4472.230977283085,2,36,0.5501165986061096,4.154972553253174,31.50392901465929,30.792741004618108,126.546981639448,111.25641434473528,9.70840483205393e-05,0.0931148082017898,0,0,0
10398,382513.0030661688,2010-12-17 22:52:21,4502.246003556543,2,36,0.5501165986061096,4.158534049987793,31.50851631657405,30.792741004618108,126.56604993099371,111.25641434473528,6.47544875391759e-05,0.0931148082017898,0,0,0
10399,382543.0181460556,2010-12-17 22:52:51,4532.261083438402,2,36,0.5501165986061096,4.162095546722412,31.513103705163665,30.792741004618108,126.58513484001789,111.25641434473528,9.70840483205393e-05,0.0931148082017898,0,0,0
10400,382573.03323390736,2010-12-17 22:53:21,4562.276171345232,2,36,0.5501165986061096,4.165657043457031,31.51769109632086,30.792741004618108,126.60423612264648,111.25641434473528,9.70840483205393e-05,0.0931148082017898,0,0,0
10401,382603.04831442575,2010-12-17 22:53:51,4592.291251793502,2,36,0.5501165986061096,4.16921854019165,31.52227842883813,30.792741004618108,126.62335367016212,111.25641434473528,9.70840483205393e-05,0.0931148082017898,0,0,0
10402,382633.0635592932,2010-12-17 22:54:21,4622.306496660922,2,36,0.550297200679779,4.172942161560059,31.52686579469905,30.792741004618108,126.64248791245636,111.25641434473528,0.0001295089750783,0.0931148082017898,0,0,0
10403,382663.07846163824,2010-12-17 22:54:51,4652.321399021026,2,36,0.5501165986061096,4.176503658294678,31.531453163141475,30.792741004618108,126.66163884108308,111.25641434473528,9.71794142969884e-05,0.0931148082017898,0,0,0
10404,382693.093699799,2010-12-17 22:55:21,4682.336637166719,2,36,0.5501165986061096,4.180226802825928,31.536040511791555,30.792741004618108,126.6808064598996,111.25641434473528,9.70840483205393e-05,0.0931148082017898,0,0,0
10405,382723.11052048777,2010-12-17 22:55:51,4712.353457945735,2,36,0.5501165986061096,4.183950424194336,31.54062807823686,30.792741004618108,126.69999187905285,111.25641434473528,9.71794142969884e-05,0.0931148082017898,0,0,0
10406,382753.1237160806,2010-12-17 22:56:21,4742.366653463426,2,36,0.550297200679779,4.187673568725586,31.54521512453297,30.792741004618108,126.71919207324844,111.25641434473528,0.0001295089750783,0.0931148082017898,0,0,0
10407,382783.13879898505,2010-12-17 22:56:51,4772.3817363527705,2,36,0.5501165986061096,4.191235065460205,31.5498024727712,30.792741004618108,126.7384106404987,111.25641434473528,6.47544875391759e-05,0.0931148082017898,0,0,0
10408,382813.154435442,2010-12-17 22:57:21,4802.397372899871,2,36,0.550297200679779,4.195281982421875,31.55438995412351,30.792741004618108,126.75764705140678,111.25641434473528,0.0001294136018259,0.0931148082017898,0,0,0
10409,382843.168975305,2010-12-17 22:57:51,4832.411912677701,2,36,0.5501165986061096,4.198843479156494,31.558977235837688,30.792741004618108,126.77689990541964,111.25641434473528,0.0001295089750783,0.0931148082017898,0,0,0
10410,382850.8563196206,2010-12-17 22:57:59,4840.0992570033895,2,36,0.550297200679779,4.200138568878174,31.560152146910376,30.792741004618108,126.7818338312644,111.25641434473528,0.0001618385285837,0.0931148082017898,0,0,0
10411,382880.87696370087,2010-12-17 22:58:29,30.015079004677023,3,36,0.0,4.1111016273498535,31.560152146910376,30.792741004618108,126.7818338312644,111.25641434473528,-0.0003885269106831,0.0931148082017898,0,0,0
10412,382910.8920566151,2010-12-17 22:58:59,60.03017193901748,3,36,0.0,4.099931716918945,31.560152146910376,30.792741004618108,126.7818338312644,111.25641434473528,-0.0002265930233988,0.0931148082017898,0,0,0
10413,382940.9071281262,2010-12-17 22:59:29,90.04524344503437,3,36,0.0,4.092970371246338,31.560152146910376,30.792741004618108,126.7818338312644,111.25641434473528,-0.0001619339018361,0.0931148082017898,0,0,0
10414,382970.8754901324,2010-12-17 22:59:59,120.01360554148208,3,36,0.0,4.088761329650879,31.560152146910376,30.792741004618108,126.7818338312644,111.25641434473528,-6.47544875391759e-05,0.0931148082017898,0,0,0
10415,382970.8835665228,2010-12-17 22:59:59,0.016107653275651,4,36,1.0097671747207642,4.199814796447754,31.56015669607631,30.792741004618108,126.7818529369188,111.25641434473528,0.0,0.0931148082017898,0,0,0
10416,382971.7111995508,2010-12-17 23:00:00,0.843740631108952,4,36,0.9597384333610536,4.199653148651123,31.56038183623185,30.792741004618108,126.78279848355874,111.25641434473528,-3.23295607813634e-05,0.0931148082017898,0,0,0
10417,382973.60202315246,2010-12-17 23:00:02,2.734564217880649,4,36,0.9097096920013428,4.199653148651123,31.560871803921795,30.792741004618108,126.78485623211786,111.25641434473528,-3.23295607813634e-05,0.0931148082017898,0,0,0
10418,382976.4456110216,2010-12-17 23:00:05,5.578152086924,4,36,0.8596808910369873,4.199814796447754,31.561569504458816,30.792741004618108,126.78778640847553,111.25641434473528,3.23295607813634e-05,0.0931148082017898,0,0,0
10419,382980.414288578,2010-12-17 23:00:09,9.5468296433818,4,36,0.8091103434562683,4.199653148651123,31.562488288054677,30.792741004618108,126.79164509255006,111.25641434473528,-3.23295607813634e-05,0.0931148082017898,0,0,0
10420,382985.6328223035,2010-12-17 23:00:14,14.765363363832304,4,36,0.7590815424919128,4.199814796447754,31.56362371350806,30.792741004618108,126.79641362228908,111.25641434473528,0.0,0.0931148082017898,0,0,0
10421,382992.4139517684,2010-12-17 23:00:21,21.54649283370541,4,36,0.7090528011322021,4.199814796447754,31.56500467801752,30.792741004618108,126.80221340024322,111.25641434473528,3.23295607813634e-05,0.0931148082017898,0,0,0
10422,383001.3669264365,2010-12-17 23:00:30,30.49946749680937,4,36,0.6590240001678467,4.199814796447754,31.566703012136884,30.792741004618108,126.8093460684038,111.25641434473528,3.23295607813634e-05,0.0931148082017898,0,0,0
10423,383013.7574300883,2010-12-17 23:00:42,42.88997113355157,4,36,0.6088146567344666,4.199653148651123,31.56888045239125,30.792741004618108,126.81849087179292,111.25641434473528,-3.23295607813634e-05,0.0931148082017898,0,0,0
10424,383032.3508424699,2010-12-17 23:01:01,61.48338353518177,4,36,0.5586052536964417,4.199814796447754,31.571887083500847,30.792741004618108,126.83111811821148,111.25641434473528,0.0,0.0931148082017898,0,0,0
10425,383063.4282812509,2010-12-17 23:01:32,92.56082232632744,4,36,0.5085764527320862,4.199653148651123,31.57647684504019,30.792741004618108,126.85039415613092,111.25641434473528,-3.23295607813634e-05,0.0931148082017898,0,0,0
10426,383121.599238997,2010-12-17 23:02:30,150.73178005729642,4,36,0.4585477113723755,4.199814796447754,31.5842586596282,30.792741004618108,126.88307618548976,111.25641434473528,0.0,0.0931148082017898,0,0,0
10427,383216.22250132594,2010-12-17 23:04:05,245.3550424012832,4,36,0.4085189402103424,4.199814796447754,31.595625571996766,30.792741004618108,126.93081497372046,111.25641434473528,0.0,0.0931148082017898,0,0,0
10428,383336.0954241188,2010-12-17 23:06:05,365.2279652693434,4,36,0.3584901690483093,4.199814796447754,31.608380316082386,30.792741004618108,126.98438241196968,111.25641434473528,3.23295607813634e-05,0.0931148082017898,0,0,0
10429,383481.2175764683,2010-12-17 23:08:30,510.3501175486692,4,36,0.3084613978862762,4.199814796447754,31.621809159625403,30.792741004618108,127.04078090716897,111.25641434473528,0.0,0.0931148082017898,0,0,0
10430,383654.23006446526,2010-12-17 23:11:23,683.362605530686,4,36,0.2584326267242431,4.199653148651123,31.635406186767064,30.792741004618108,127.09788568156254,111.25641434473528,-3.23295607813634e-05,0.0931148082017898,0,0,0
10431,383868.60118805134,2010-12-17 23:14:57,897.733729111674,4,36,0.20840385556221,4.199814796447754,31.649266271910623,30.792741004618108,127.15609521086,111.25641434473528,0.0,0.0931148082017898,0,0,0
10432,384155.971008136,2010-12-17 23:19:44,1185.1035492814813,4,36,0.1581944823265075,4.199653148651123,31.66381822107921,30.792741004618108,127.21721043528864,111.25641434473528,-3.23295607813634e-05,0.0931148082017898,0,0,0
10433,384589.6353321268,2010-12-17 23:26:58,1618.767873257298,4,36,0.1081657111644744,4.199653148651123,31.679653869022346,30.792741004618108,127.2837168687176,111.25641434473528,-3.23295607813634e-05,0.0931148082017898,0,0,0
10434,385415.8857400179,2010-12-17 23:40:44,2445.018281163511,4,36,0.0581369437277317,4.199653148651123,31.69807740923441,30.792741004618108,127.36109189301628,111.25641434473528,-3.23295607813634e-05,0.0931148082017898,0,0,0
10435,385640.9287253415,2010-12-17 23:44:29,2670.0612664920013,4,36,0.0498289167881011,4.199653148651123,31.701473421472336,30.792741004618108,127.37535443024188,111.25641434473528,-3.23295607813634e-05,0.0931148082017898,0,0,0
10436,385670.9529247698,2010-12-17 23:45:00,30.015208857811555,5,36,0.0,4.191720962524414,31.701473421472336,30.792741004618108,127.37535443024188,111.25641434473528,0.0,0.0931148082017898,0,0,0
10437,385700.9523565069,2010-12-17 23:45:30,60.01464053972772,5,36,0.0,4.1901021003723145,31.701473421472336,30.792741004618108,127.37535443024188,111.25641434473528,-3.23295607813634e-05,0.0931148082017898,0,0,0
10438,385701.1501217788,2010-12-17 23:45:30,0.187598321207004,6,36,-1.9243103452026844e-05,4.1901021003723145,31.701473421472336,30.79274100562088,127.37535443024188,111.256414348937,0.0,0.0971632748842239,0,0,0
10439,385705.97802871454,2010-12-17 23:45:35,5.015505266952763,6,36,0.0008838032954372,4.1901021003723145,31.701474469810915,30.792741005787967,127.37535882310932,111.2564143496371,-6.47544875391759e-05,0.0971632748842239,0,0,0
10440,385736.0034966096,2010-12-17 23:46:05,30.01507407741573,7,36,-1.0997490882873535,4.006523609161377,31.701474469810915,30.80190953203588,127.37535882310932,111.29336084851546,-0.001003646873869,0.0971632748842239,0,0,0
10441,385766.0186286162,2010-12-17 23:46:35,60.03020608398592,7,36,-1.099568486213684,3.977545976638794,31.701474469810915,30.811078083265883,127.37535882310932,111.32995264833303,-0.0006151676061563,0.0971632748842239,0,0,0
10442,385796.0364544011,2010-12-17 23:47:05,90.04803195914448,7,36,-1.0997490882873535,3.957310199737549,31.701474469810915,30.820247328020866,127.37535882310932,111.36632674280864,-0.0004532813909463,0.0971632748842239,0,0,0
10443,385826.0488286651,2010-12-17 23:47:35,120.06040622317845,7,36,-1.099568486213684,3.941607236862183,31.701474469810915,30.829414929497336,127.37535882310932,111.40253177577792,-0.0003885269106831,0.0971632748842239,0,0,0
10444,385856.063844658,2010-12-17 23:48:05,150.0754221258285,7,36,-1.0997490882873535,3.928008794784546,31.701474469810915,30.838583365169665,127.37535882310932,111.4386061354644,-0.0002913951757363,0.0971632748842239,0,0,0
10445,385886.0789095676,2010-12-17 23:48:35,180.09048703543047,7,36,-1.0997490882873535,3.915543556213379,31.701474469810915,30.84775179370309,127.37535882310932,111.47456202392664,-0.0003561496851034,0.0971632748842239,0,0,0
10446,385916.0939963967,2010-12-17 23:49:05,210.10557385455343,7,36,-1.099568486213684,3.9042117595672607,31.701474469810915,30.856920226299483,127.37535882310932,111.51040894752173,-0.0002590179501567,0.0971632748842239,0,0,0
10447,385946.10921272816,2010-12-17 23:49:35,240.12079018095028,7,36,-1.099568486213684,3.893203496932984,31.701474469810915,30.866088684696376,127.37535882310932,111.5461530853307,-0.0002913951757363,0.0971632748842239,0,0,0
10448,385976.12431289547,2010-12-17 23:50:05,270.13589036332723,7,36,-1.0997490882873535,3.882680892944336,31.701474469810915,30.875257140438595,127.37535882310932,111.58179966358374,-0.0002913951757363,0.0971632748842239,0,0,0
10449,386006.1392409896,2010-12-17 23:50:35,300.15081845746914,7,36,-1.099568486213684,3.8726439476013184,31.701474469810915,30.884425517129248,127.37535882310932,111.61735142271056,-0.0002590179501567,0.0971632748842239,0,0,0
10450,386036.15444908047,2010-12-17 23:51:05,330.1660265533848,7,36,-1.0997490882873535,3.862768888473511,31.701474469810915,30.89359403111137,127.37535882310932,111.6528115094924,-0.0002266406954731,0.0971632748842239,0,0,0
10451,386066.1694268483,2010-12-17 23:51:35,360.1810043161251,7,36,-1.0997490882873535,3.853055715560913,31.701474469810915,30.902762470672727,127.37535882310932,111.68818191599938,-0.0002590179501567,0.0971632748842239,0,0,0
10452,386096.1846190797,2010-12-17 23:52:05,390.1961965475626,7,36,-1.0997490882873535,3.843666315078736,31.701474469810915,30.911931037441747,127.37535882310932,111.72346604613506,-0.0002590179501567,0.0971632748842239,0,0,0
10453,386126.1996316892,2010-12-17 23:52:35,420.2112092472423,7,36,-1.0997490882873535,3.8346006870269775,31.701474469810915,30.921099406844338,127.37535882310932,111.75866449112183,-0.0002266406954731,0.0971632748842239,0,0,0
10454,386156.2146655064,2010-12-17 23:53:05,450.2262429742474,7,36,-1.099568486213684,3.825535297393799,31.701474469810915,30.930267870352232,127.37535882310932,111.79378024451766,-0.0002590179501567,0.0971632748842239,0,0,0
10455,386186.2316492459,2010-12-17 23:53:35,480.243226788971,7,36,-1.099568486213684,3.816793441772461,31.701474469810915,30.939436898597943,127.37535882310932,111.82881688181568,-0.0002266406954731,0.0971632748842239,0,0,0
10456,386216.24497026094,2010-12-17 23:54:05,510.25654779894586,7,36,-1.0997490882873535,3.808213472366333,31.701474469810915,30.94860477798401,127.37535882310932,111.86376923400744,-0.0001942634553415,0.0971632748842239,0,0,0
10457,386246.2599170165,2010-12-17 23:54:35,540.2714944843515,7,36,-1.0997490882873535,3.799795389175415,31.701474469810915,30.957773211063813,127.37535882310932,111.89864600568066,-0.0002266406954731,0.0971632748842239,0,0,0
10458,386276.2749944072,2010-12-17 23:55:05,570.2865718800246,7,36,-1.0997490882873535,3.791539192199707,31.701474469810915,30.96694169215851,127.37535882310932,111.93344693252487,-0.0002266406954731,0.0971632748842239,0,0,0
10459,386306.2901032562,2010-12-17 23:55:35,600.3016807239554,7,36,-1.0997490882873535,3.783768653869629,31.701474469810915,30.97611012905238,127.37535882310932,111.9681738605082,-0.0001942634553415,0.0971632748842239,0,0,0
10460,386336.305384078,2010-12-17 23:56:05,630.3169616260463,7,36,-1.0997490882873535,3.775836229324341,31.701474469810915,30.985278629991267,127.37535882310932,112.00282921359457,-0.0002266406954731,0.0971632748842239,0,0,0
10461,386366.3202479773,2010-12-17 23:56:35,660.3318254452425,7,36,-1.0997490882873535,3.7682275772094727,31.701474469810915,30.994446991105352,127.37535882310932,112.03741356165244,-0.0001942634553415,0.0971632748842239,0,0,0
10462,386396.3353509618,2010-12-17 23:57:05,690.346928429592,7,36,-1.0997490882873535,3.760942697525024,31.701474469810915,31.00361540099125,127.37535882310932,112.07192939513868,-0.0001942634553415,0.0971632748842239,0,0,0
10463,386426.3504177712,2010-12-17 23:57:35,720.361995243934,7,36,-1.0997490882873535,3.753819704055786,31.701474469810915,31.012783918527727,127.37535882310932,112.1063787906538,-0.0001942634553415,0.0971632748842239,0,0,0
10464,386456.3654921142,2010-12-17 23:58:05,750.3770695870107,7,36,-1.099568486213684,3.746696949005127,31.701474469810915,31.021952429984356,127.37535882310932,112.14076287348408,-0.0002266406954731,0.0971632748842239,0,0,0
10465,386486.38070377393,2010-12-17 23:58:35,780.3922812417824,7,36,-1.099568486213684,3.739735841751098,31.701474469810915,31.03112095216014,127.37535882310932,112.17508317295592,-0.0001942634553415,0.0971632748842239,0,0,0
10466,386516.3956552513,2010-12-17 23:59:05,810.4072327241252,7,36,-1.0997490882873535,3.7332603931427,31.701474469810915,31.040289464551183,127.37535882310932,112.20934085956924,-0.0001295089750783,0.0971632748842239,0,0,0
10467,386546.41075488727,2010-12-17 23:59:35,840.4223323551299,7,36,-1.099568486213684,3.726461172103882,31.701474469810915,31.04945790191144,127.37535882310932,112.24353691719804,-0.0001942634553415,0.0971632748842239,0,0,0
10468,386576.42582336575,2010-12-18 00:00:05,870.4374008336129,7,36,-1.0997490882873535,3.7199857234954834,31.701474469810915,31.05862644214218,127.37535882310932,112.27767375438084,-0.0001942634553415,0.0971632748842239,0,0,0
10469,386606.440925884,2010-12-18 00:00:35,900.452503336765,7,36,-1.0997490882873535,3.713672161102295,31.701474469810915,31.06779498248195,127.37535882310932,112.31175179864611,-0.0001942634553415,0.0971632748842239,0,0,0
10470,386636.456041986,2010-12-18 00:01:05,930.4676195339944,7,36,-1.099568486213684,3.7076823711395264,31.701474469810915,31.0769635224036,127.37535882310932,112.3457721819748,-9.713172767078504e-05,0.0971632748842239,0,0,0
10471,386666.4712060473,2010-12-18 00:01:35,960.4827835201444,7,36,-1.099568486213684,3.701530694961548,31.701474469810915,31.086132076560887,127.37535882310932,112.37973637513556,-0.0001295089750783,0.0971632748842239,0,0,0
10472,386696.4861487378,2010-12-18 00:02:05,990.497726205596,7,36,-1.0997490882873535,3.695379018783569,31.701474469810915,31.095300511053686,127.37535882310932,112.41364471928948,-0.0001618862152099,0.0971632748842239,0,0,0
10473,386726.5013623725,2010-12-18 00:02:35,1020.5129398453074,7,36,-1.0997490882873535,3.689389228820801,31.701474469810915,31.10446908516145,127.37535882310932,112.44749905828596,-0.0001618862152099,0.0971632748842239,0,0,0
10474,386756.5163760847,2010-12-18 00:03:05,1050.5279535374566,7,36,-1.099929690361023,3.683561325073242,31.701474469810915,31.11363755595772,127.37535882310932,112.48129908747858,-0.0001942634553415,0.0971632748842239,0,0,0
10475,386786.53328048176,2010-12-18 00:03:35,1080.5448580047273,7,36,-1.0997490882873535,3.6778953075408936,31.701474469810915,31.12280666315063,127.37535882310932,112.5150483344336,-0.0001618862152099,0.0971632748842239,0,0,0
10476,386816.5465290364,2010-12-18 00:04:05,1110.558106489225,7,36,-1.099568486213684,3.672229528427124,31.701474469810915,31.1319746687724,127.37535882310932,112.5487414907745,-0.0001294612884521,0.0971632748842239,0,0,0
10477,386846.5615816153,2010-12-18 00:04:35,1140.57315908318,7,36,-1.099929690361023,3.666725397109986,31.701474469810915,31.141143240410223,127.37535882310932,112.5823854912862,-0.0001295089750783,0.0971632748842239,0,0,0
10478,386876.5766604946,2010-12-18 00:05:05,1170.5882379475077,7,36,-1.099568486213684,3.661221265792847,31.701474469810915,31.15031178476381,127.37535882310932,112.61597921180154,-0.0001618862152099,0.0971632748842239,0,0,0
10479,386906.5917545668,2010-12-18 00:05:35,1200.6033320196798,7,36,-1.099568486213684,3.656040906906128,31.701474469810915,31.159480303355465,127.37535882310932,112.64952362295853,-0.0001295089750783,0.0971632748842239,0,0,0
10480,386936.6069542569,2010-12-18 00:06:05,1230.618531724715,7,36,-1.0997490882873535,3.650860548019409,31.701474469810915,31.16864894002135,127.37535882310932,112.68302000911272,-0.0001295089750783,0.0971632748842239,0,0,0
10481,386966.62191331806,2010-12-18 00:06:35,1260.63349077088,7,36,-1.0997490882873535,3.6456801891326895,31.701474469810915,31.177817390079863,127.37535882310932,112.71646782362664,-9.713172767078504e-05,0.0971632748842239,0,0,0
10482,386996.6370007237,2010-12-18 00:07:05,1290.6485781914996,7,36,-1.099568486213684,3.6406617164611816,31.701474469810915,31.186985908975817,127.37535882310932,112.74986862681774,-9.713172767078504e-05,0.0971632748842239,0,0,0
10483,387026.6521098884,2010-12-18 00:07:35,1320.6636873411912,7,36,-1.099568486213684,3.635481357574463,31.701474469810915,31.196154394202928,127.37535882310932,112.78322312278206,-0.0001295089750783,0.0971632748842239,0,0,0
10484,387056.6671642968,2010-12-18 00:08:05,1350.678741764699,7,36,-1.0997490882873535,3.630462884902954,31.701474469810915,31.20532289507756,127.37535882310932,112.8165325885435,-0.0001618862152099,0.0971632748842239,0,0,0
10485,387086.6822565044,2010-12-18 00:08:35,1380.6938339571934,7,36,-1.0997490882873535,3.625768184661865,31.701474469810915,31.21449144689929,127.37535882310932,112.8497979542409,-0.0001295089750783,0.0971632748842239,0,0,0
10486,387116.6973287171,2010-12-18 00:09:05,1410.7089061699692,7,36,-1.099568486213684,3.621073484420776,31.701474469810915,31.22366000402811,127.37535882310932,112.88301997904344,-0.0001295089750783,0.0971632748842239,0,0,0
10487,387146.7125594945,2010-12-18 00:09:36,1440.724136962364,7,36,-1.099568486213684,3.6167025566101074,31.701474469810915,31.23282858834034,127.37535882310932,112.91619977671506,-9.713172767078504e-05,0.0971632748842239,0,0,0
10488,387176.72763445415,2010-12-18 00:10:06,1470.7392119219753,7,36,-1.099568486213684,3.612169742584229,31.701474469810915,31.241997140577915,127.37535882310932,112.94933824442816,-9.713172767078504e-05,0.0971632748842239,0,0,0
10489,387206.74258244777,2010-12-18 00:10:36,1500.7541599206486,7,36,-1.0997490882873535,3.60779881477356,31.701474469810915,31.25116565610472,127.37535882310932,112.98243638421953,-0.0001295089750783,0.0971632748842239,0,0,0
10490,387236.75789364526,2010-12-18 00:11:06,1530.7694711682534,7,36,-1.0997490882873535,3.6035897731781006,31.701474469810915,31.26033419091665,127.37535882310932,113.0154953127483,-9.713172767078504e-05,0.0971632748842239,0,0,0
10491,387266.77276680776,2010-12-18 00:11:36,1560.7843442605251,7,36,-1.099568486213684,3.5993807315826416,31.701474469810915,31.269502644700736,127.37535882310932,113.0485156786328,-0.0001618862152099,0.0971632748842239,0,0,0
10492,387296.78800373536,2010-12-18 00:12:06,1590.7995812733996,7,36,-1.0993878841400146,3.5954954624176025,31.701474469810915,31.27867123852181,127.37535882310932,113.08149929366068,-9.713172767078504e-05,0.0971632748842239,0,0,0
10493,387326.8029172584,2010-12-18 00:12:36,1620.814494726107,7,36,-1.099568486213684,3.5916104316711426,31.701474469810915,31.28783970943071,127.37535882310932,113.11444621076689,-9.713172767078504e-05,0.0971632748842239,0,0,0
10494,387356.8179930299,2010-12-18 00:13:06,1650.8295704877137,7,36,-1.0997490882873535,3.5877251625061035,31.701474469810915,31.29700826908358,127.37535882310932,113.14735847566894,-9.713172767078504e-05,0.0971632748842239,0,0,0
10495,387386.83491114114,2010-12-18 00:13:36,1680.8464886841484,7,36,-1.0997490882873535,3.5840017795562744,31.701474469810915,31.306177384901737,127.37535882310932,113.18023807296844,-9.713172767078504e-05,0.0971632748842239,0,0,0
10496,387416.84815352544,2010-12-18 00:14:06,1710.859731063454,7,36,-1.099568486213684,3.5804402828216557,31.701474469810915,31.315345329491656,127.37535882310932,113.21308021539572,-9.713172767078504e-05,0.0971632748842239,0,0,0
10497,387446.8632582141,2010-12-18 00:14:36,1740.8748356718447,7,36,-1.099568486213684,3.576878786087036,31.701474469810915,31.324513843885462,127.37535882310932,113.24589165690357,-9.713172767078504e-05,0.0971632748842239,0,0,0
10498,387476.8784797484,2010-12-18 00:15:06,1770.8900572713635,7,36,-1.0997490882873535,3.573479175567627,31.701474469810915,31.333682372830516,127.37535882310932,113.27867072765756,-6.47544875391759e-05,0.0971632748842239,0,0,0
10499,387506.8934906335,2010-12-18 00:15:36,1800.905068191615,7,36,-1.0997490882873535,3.5700795650482178,31.701474469810915,31.34285082757056,127.37535882310932,113.31141800432962,-6.47544875391759e-05,0.0971632748842239,0,0,0
10500,387536.908569127,2010-12-18 00:16:06,1830.92014668502,7,36,-1.099568486213684,3.5668418407440186,31.701474469810915,31.352019309282703,127.37535882310932,113.34413408700335,-3.237724376958795e-05,0.0971632748842239,0,0,0
10501,387566.9236964368,2010-12-18 00:16:36,1860.9352738946527,7,36,-1.099568486213684,3.5632803440093994,31.701474469810915,31.36118771883698,127.37535882310932,113.37681876221367,-6.47544875391759e-05,0.0971632748842239,0,0,0
10502,387596.938651879,2010-12-18 00:17:06,1890.9502293468747,7,36,-1.0997490882873535,3.56020450592041,31.701474469810915,31.37035607778229,127.37535882310932,113.40947344560614,-6.47544875391759e-05,0.0971632748842239,0,0,0
10503,387626.9537441167,2010-12-18 00:17:36,1920.9653215844808,7,36,-1.099568486213684,3.556643009185791,31.701474469810915,31.3795244970779,127.37535882310932,113.44209753156474,-6.47544875391759e-05,0.0971632748842239,0,0,0
10504,387656.96885392297,2010-12-18 00:18:06,1950.980431390807,7,36,-1.099568486213684,3.553405284881592,31.701474469810915,31.388692955475463,127.37535882310932,113.47469091035076,-6.47544875391759e-05,0.0971632748842239,0,0,0
10505,387686.9839078302,2010-12-18 00:18:36,1980.9954852980304,7,36,-1.0997490882873535,3.5498437881469727,31.701474469810915,31.39786136004835,127.37535882310932,113.50725347426868,-0.0001295089750783,0.0971632748842239,0,0,0
10506,387716.99971486646,2010-12-18 00:19:06,2011.011292404561,7,36,-1.0997490882873535,3.546606063842773,31.701474469810915,31.40703004423688,127.37535882310932,113.53978625701512,-9.713172767078504e-05,0.0971632748842239,0,0,0
10507,387747.0012349654,2010-12-18 00:19:36,2041.0128125535464,7,36,-1.0997490882873535,3.5428826808929443,31.701474469810915,31.416194387981896,127.37535882310932,113.57227273190176,-0.0001618862152099,0.0971632748842239,0,0,0
10508,387777.01359776594,2010-12-18 00:20:06,2071.025175323979,7,36,-1.0997490882873535,3.539644956588745,31.701474469810915,31.425362014719447,127.37535882310932,113.60473975742217,-9.713172767078504e-05,0.0971632748842239,0,0,0
10509,387807.028773356,2010-12-18 00:20:36,2101.0403508789186,7,36,-1.0997490882873535,3.536245346069336,31.701474469810915,31.434530536745573,127.37535882310932,113.63717801618938,-0.0001295089750783,0.0971632748842239,0,0,0
10510,387837.0437019213,2010-12-18 00:21:06,2131.055279389095,7,36,-1.0997490882873535,3.532521963119507,31.701474469810915,31.443699017464425,127.37535882310932,113.66958341362168,-0.0001295089750783,0.0971632748842239,0,0,0
10511,387867.0588015423,2010-12-18 00:21:36,2161.0703789950376,7,36,-1.0997490882873535,3.5287985801696777,31.701474469810915,31.45286744914852,127.37535882310932,113.70195536428837,-0.0001295089750783,0.0971632748842239,0,0,0
10512,387897.0740029565,2010-12-18 00:22:06,2191.085580409326,7,36,-1.0997490882873535,3.5250751972198486,31.701474469810915,31.4620359325715,127.37535882310932,113.73429347274612,-9.713172767078504e-05,0.0971632748842239,0,0,0
10513,387927.08896387735,2010-12-18 00:22:36,2221.100541345193,7,36,-1.099568486213684,3.521513700485229,31.701474469810915,31.471204391536972,127.37535882310932,113.7665963697292,-6.47544875391759e-05,0.0971632748842239,0,0,0
10514,387957.1040381352,2010-12-18 00:23:06,2251.115615588021,7,36,-1.099568486213684,3.5174665451049805,31.701474469810915,31.48037285088828,127.37535882310932,113.7988633844937,-9.713172767078504e-05,0.0971632748842239,0,0,0
10515,387987.1191239167,2010-12-18 00:23:36,2281.130701384599,7,36,-1.0997490882873535,3.513257503509521,31.701474469810915,31.48954132235275,127.37535882310932,113.8310927646566,-9.713172767078504e-05,0.0971632748842239,0,0,0
10516,388017.1360943231,2010-12-18 00:24:06,2311.147671896219,7,36,-1.099568486213684,3.5090487003326416,31.701474469810915,31.49871039552591,127.37535882310932,113.86328535489385,-6.47544875391759e-05,0.0971632748842239,0,0,0
10517,388047.1493098006,2010-12-18 00:24:36,2341.160887258293,7,36,-1.0997490882873535,3.5041921138763428,31.701474469810915,31.507878333177104,127.37535882310932,113.89543329893358,-0.0001295089750783,0.0971632748842239,0,0,0
10518,388077.1643845595,2010-12-18 00:25:06,2371.1759620274297,7,36,-1.099568486213684,3.499497413635254,31.701474469810915,31.517046818960345,127.37535882310932,113.92754011404668,-9.713172767078504e-05,0.0971632748842239,0,0,0
10519,388107.17948129337,2010-12-18 00:25:36,2401.1910587461875,7,36,-1.099568486213684,3.494478940963745,31.701474469810915,31.52621534498202,127.37535882310932,113.95960134983642,-9.713172767078504e-05,0.0971632748842239,0,0,0
10520,388137.1945650398,2010-12-18 00:26:06,2431.2061424826397,7,36,-1.0997490882873535,3.4886510372161865,31.701474469810915,31.53538383319059,127.37535882310932,113.9916131497706,-0.0001295089750783,0.0971632748842239,0,0,0
10521,388167.2097677975,2010-12-18 00:26:36,2461.221345320471,7,36,-1.0997490882873535,3.482499361038208,31.701474469810915,31.544552391448786,127.37535882310932,114.02357117874595,-0.0001618862152099,0.0971632748842239,0,0,0
10522,388197.2247201821,2010-12-18 00:27:06,2491.236297634884,7,36,-1.0993878841400146,3.47553825378418,31.701474469810915,31.55372071656204,127.37535882310932,114.05546790086952,-0.0001618862152099,0.0971632748842239,0,0,0
10523,388227.2398632162,2010-12-18 00:27:36,2521.25144075912,7,36,-1.099568486213684,3.467605829238892,31.701474469810915,31.562889173778125,127.37535882310932,114.08729723033146,-0.0002266406954731,0.0971632748842239,0,0,0
10524,388257.2548996949,2010-12-18 00:28:06,2551.2664771477484,7,36,-1.099929690361023,3.458378314971924,31.701474469810915,31.572057553501008,127.37535882310932,114.11904835048672,-0.0002590179501567,0.0971632748842239,0,0,0
10525,388287.2701939202,2010-12-18 00:28:36,2581.2817714782555,7,36,-1.0997490882873535,3.4476938247680664,31.701474469810915,31.581226100482763,127.37535882310932,114.15070918517954,-0.0003237724304199,0.0971632748842239,0,0,0
10526,388317.28509888187,2010-12-18 00:29:06,2611.296676429808,7,36,-1.0997490882873535,3.435066699981689,31.701474469810915,31.59039455286919,127.37535882310932,114.18226226768324,-0.0003237724304199,0.0971632748842239,0,0,0
10527,388347.30014133046,2010-12-18 00:29:36,2641.311718788292,7,36,-1.0997490882873535,3.4190402030944824,31.701474469810915,31.599563094642377,127.37535882310932,114.21368534240358,-0.0004856586456298,0.0971632748842239,0,0,0
10528,388377.315313913,2010-12-18 00:30:06,2671.326891471084,7,36,-1.0997490882873535,3.399451971054077,31.701474469810915,31.60873161827893,127.37535882310932,114.2449476747294,-0.0006151676061563,0.0971632748842239,0,0,0
10529,388407.3304323408,2010-12-18 00:30:36,2701.3420097936014,7,36,-1.099568486213684,3.374521493911743,31.701474469810915,31.61790012272743,127.37535882310932,114.2760069518854,-0.0007446765666827,0.0971632748842239,0,0,0
10530,388437.3454088654,2010-12-18 00:31:06,2731.356986318261,7,36,-1.099568486213684,3.3413350582122803,31.701474469810915,31.62706856817008,127.37535882310932,114.30680100541603,-0.0009713172912597,0.0971632748842239,0,0,0
10531,388467.3605997686,2010-12-18 00:31:36,2761.3721772364306,7,36,-1.099568486213684,3.296816349029541,31.701474469810915,31.63623708535966,127.37535882310932,114.33724219875248,-0.0013274669181555,0.0971632748842239,0,0,0
10532,388497.3757034847,2010-12-18 00:32:06,2791.3872810077382,7,36,-1.0997490882873535,3.235947370529175,31.701474469810915,31.645405525412333,127.37535882310932,114.36720455745088,-0.0018131255637854,0.0971632748842239,0,0,0
10533,388527.3906496188,2010-12-18 00:32:36,2821.402227086635,7,36,-1.0997490882873535,3.1501479148864746,31.701474469810915,31.65457395642112,127.37535882310932,114.39650409446344,-0.0026873112656176,0.0971632748842239,0,0,0
10534,388557.40572566114,2010-12-18 00:33:06,2851.41730312894,7,36,-1.099568486213684,3.021772623062134,31.701474469810915,31.66374243951678,127.37535882310932,114.42484239016169,-0.0041442392393946,0.0971632748842239,0,0,0
10535,388584.7958766534,2010-12-18 00:33:34,2878.80745410618,7,36,-1.0997490882873535,2.8216817378997803,31.701474469810915,31.672109152371466,127.37535882310932,114.44935980658846,-0.0071229934692382,0.0971632748842239,0,0,0
10536,388597.6863053845,2010-12-18 00:33:47,2891.6978828523283,7,36,-1.0997490882873535,2.699620008468628,31.701474469810915,31.676046692065302,127.37535882310932,114.46023169191304,-0.0076086046174168,0.0971632748842239,0,0,0
10537,388657.7164618425,2010-12-18 00:34:47,60.01452728289243,8,36,0.0,3.4154787063598637,31.701474469810915,31.676046692065302,127.37535882310932,114.46023169191304,0.0013598442310467,0.0971632748842239,0,0,0
10538,388657.905002512,2010-12-18 00:34:47,0.187404358538363,9,36,-1.9243103452026844e-05,3.415802478790283,31.701474469810915,31.67604669306704,127.37535882310932,114.46023169533476,0.0,0.0931148082017898,0,0,0
10539,388662.73303455405,2010-12-18 00:34:52,5.015436415618867,9,36,0.0007031940040178,3.424058675765991,31.701475421709148,31.676046693151623,127.37536207901532,114.4602316956237,0.0012303352123126,0.0931148082017898,0,0,0
