Data_Point,Test_Time(s),Date_Time,Step_Time(s),Step_Index,Cycle_Index,Current(A),Voltage(V),Charge_Capacity(Ah),Discharge_Capacity(Ah),Charge_Energy(Wh),Discharge_Energy(Wh),dV/dt(V/s),Internal_Resistance(Ohm),Is_FC_Data,AC_Impedance(Ohm),ACI_Phase_Angle(Deg)
4440,164353.4772358449,2010-12-15 10:15:56,30.01498100079814,1,16,0.0,3.4891366958618164,13.385548637297664,13.363821227695723,53.79578053417587,48.2909032857064,0.0007770538213662,0.0978845432400703,0,0,0
4441,164383.4948927195,2010-12-15 10:16:26,60.03263796562985,1,16,0.0,3.512124300003052,13.385548637297664,13.363821227695723,53.79578053417587,48.2909032857064,0.0005827426793985,0.0978845432400703,0,0,0
4442,164413.5073233488,2010-12-15 10:16:56,90.04506856986423,1,16,0.0,3.529284238815308,13.385548637297664,13.363821227695723,53.79578053417587,48.2909032857064,0.0004532813909463,0.0978845432400703,0,0,0
4443,164443.47539398496,2010-12-15 10:17:26,120.01313914086208,1,16,0.0,3.5427207946777344,13.385548637297664,13.363821227695723,53.79578053417587,48.2909032857064,0.0003237724304199,0.0978845432400703,0,0,0
4444,164473.4957062019,2010-12-15 10:17:56,30.01500671478641,2,16,0.550297200679779,3.688094139099121,13.390135812922344,13.363821227695723,53.81257218326284,48.2909032857064,0.0011979580158367,0.0978845432400703,0,0,0
4445,164503.5107462296,2010-12-15 10:18:26,60.03004674247069,2,16,0.5499359965324402,3.7227377891540527,13.394722933637611,13.363821227695723,53.82957508945869,48.2909032857064,0.0007446765666827,0.0978845432400703,0,0,0
4446,164533.5257504231,2010-12-15 10:18:56,90.04505092094558,2,16,0.5501165986061096,3.747344493865967,13.39931005943012,13.363821227695723,53.84671178915356,48.2909032857064,0.0005504131549969,0.0978845432400703,0,0,0
4447,164563.54074727336,2010-12-15 10:19:26,120.06004778622189,2,16,0.550297200679779,3.7654755115509033,13.403897138652916,13.363821227695723,53.863945124019736,48.2909032857064,0.0004209041653666,0.0978845432400703,0,0,0
4448,164593.55588649286,2010-12-15 10:19:56,150.0751870057412,2,16,0.5501165986061096,3.7779407501220703,13.408484283864922,13.363821227695723,53.881248783409966,48.2909032857064,0.0002266406954731,0.0978845432400703,0,0,0
4449,164623.5707850836,2010-12-15 10:20:26,180.09008560147754,2,16,0.5501165986061096,3.786682605743408,13.413071329997356,13.363821227695723,53.8985997415788,48.2909032857064,0.0001942634553415,0.0978845432400703,0,0,0
4450,164653.58591817284,2010-12-15 10:20:56,210.10521872582927,2,16,0.5501165986061096,3.7929961681365967,13.417658519614534,13.363821227695723,53.915984829183245,48.2909032857064,0.0001295089750783,0.0978845432400703,0,0,0
4451,164683.6007903679,2010-12-15 10:21:26,240.1200909359059,2,16,0.5501165986061096,3.798662185668945,13.42224558423429,13.363821227695723,53.93339661490193,48.2909032857064,0.0001618862152099,0.0978845432400703,0,0,0
4452,164713.61580243098,2010-12-15 10:21:56,270.1351029188017,2,16,0.550297200679779,3.803842544555664,13.426832714714916,13.363821227695723,53.95083315222803,48.2909032857064,0.0001295089750783,0.0978845432400703,0,0,0
4453,164743.63082372202,2010-12-15 10:22:26,300.1501242098607,2,16,0.5501165986061096,3.808699131011963,13.431419831937069,13.363821227695723,53.968292573644,48.2909032857064,0.0001295089750783,0.0978845432400703,0,0,0
4454,164773.64603945697,2010-12-15 10:22:56,330.16534001997275,2,16,0.550297200679779,3.813393831253052,13.436007019758977,13.363821227695723,53.98577425716413,48.2909032857064,0.0001295089750783,0.0978845432400703,0,0,0
4455,164803.66083662532,2010-12-15 10:23:26,360.1801371231488,2,16,0.550297200679779,3.81792664527893,13.440594040724209,13.363821227695723,54.00327675487786,48.2909032857064,0.0001295089750783,0.0978845432400703,0,0,0
4456,164833.67586177096,2010-12-15 10:23:56,390.19516228884953,2,16,0.550297200679779,3.8222975730896,13.445181205370046,13.363821227695723,54.02080017397709,48.2909032857064,9.713172767078504e-05,0.0978845432400703,0,0,0
4457,164863.69086302214,2010-12-15 10:24:26,420.2101635099652,2,16,0.5501165986061096,3.8265066146850586,13.449768286253422,13.363821227695723,54.03834293751476,48.2909032857064,0.0001618862152099,0.0978845432400703,0,0,0
4458,164893.70592110476,2010-12-15 10:24:56,450.22522168781546,2,16,0.5501165986061096,3.830553770065308,13.454355342934466,13.363821227695723,54.055904685844695,48.2909032857064,0.0001295089750783,0.0978845432400703,0,0,0
4459,164923.72087505826,2010-12-15 10:25:26,480.24017555108287,2,16,0.5501165986061096,3.834762573242188,13.458942425477858,13.363821227695723,54.07348519815695,48.2909032857064,9.713172767078504e-05,0.0978845432400703,0,0,0
4460,164953.7358831214,2010-12-15 10:25:56,510.2551836142246,2,16,0.5501165986061096,3.8384859561920166,13.463529506796938,13.363821227695723,54.091084013094026,48.2909032857064,3.237724376958795e-05,0.0978845432400703,0,0,0
4461,164983.75090689864,2010-12-15 10:26:26,540.2702073864579,2,16,0.550297200679779,3.8425331115722656,13.468116572349803,13.363821227695723,54.10870081847676,48.2909032857064,0.0001295089750783,0.0978845432400703,0,0,0
4462,165013.76591415476,2010-12-15 10:26:56,570.2852146676538,2,16,0.550297200679779,3.8464183807373047,13.472703651894273,13.363821227695723,54.1263354329295,48.2909032857064,0.0001295089750783,0.0978845432400703,0,0,0
4463,165043.78094147082,2010-12-15 10:27:26,600.3002419887181,2,16,0.550297200679779,3.8504655361175537,13.477290817093111,13.363821227695723,54.14398814533752,48.2909032857064,0.0001618862152099,0.0978845432400703,0,0,0
4464,165073.7959059104,2010-12-15 10:27:56,630.3152064182793,2,16,0.5501165986061096,3.854027032852173,13.481877915576623,13.363821227695723,54.16165820986771,48.2909032857064,0.0001295089750783,0.0978845432400703,0,0,0
4465,165103.8109530608,2010-12-15 10:28:26,660.3302535787132,2,16,0.550297200679779,3.857912302017212,13.486465002919193,13.363821227695723,54.17934586560968,48.2909032857064,0.0001295089750783,0.0978845432400703,0,0,0
4466,165133.8260572231,2010-12-15 10:28:56,690.3453577359815,2,16,0.5501165986061096,3.861635684967041,13.491052107624895,13.363821227695723,54.19705102157646,48.2909032857064,9.713172767078504e-05,0.0978845432400703,0,0,0
4467,165163.84095669605,2010-12-15 10:29:26,720.3602572089006,2,16,0.5501165986061096,3.86535906791687,13.495639194313464,13.363821227695723,54.21477340732919,48.2909032857064,0.0001295089750783,0.0978845432400703,0,0,0
4468,165193.85614443125,2010-12-15 10:29:56,750.3754450143241,2,16,0.550297200679779,3.869082450866699,13.500226316992116,13.363821227695723,54.23251281947056,48.2909032857064,0.0001295089750783,0.0978845432400703,0,0,0
4469,165223.870996015,2010-12-15 10:30:26,780.3902965980728,2,16,0.5501165986061096,3.8726439476013184,13.50481339510488,13.363821227695723,54.250268573694015,48.2909032857064,0.0001295089750783,0.0978845432400703,0,0,0
4470,165253.88600037896,2010-12-15 10:30:56,810.4053008968472,2,16,0.5501165986061096,3.8762054443359375,13.509400531730222,13.363821227695723,54.26804069676303,48.2909032857064,0.0001295089750783,0.0978845432400703,0,0,0
4471,165283.90098498372,2010-12-15 10:31:26,840.4202854715389,2,16,0.5501165986061096,3.8794431686401367,13.51398770023664,13.363821227695723,54.285828736490025,48.2909032857064,9.713172767078504e-05,0.0978845432400703,0,0,0
4472,165313.916001132,2010-12-15 10:31:56,870.4353016448624,2,16,0.550297200679779,3.882680892944336,13.518574828593572,13.363821227695723,54.30363191373976,48.2909032857064,3.237724376958795e-05,0.0978845432400703,0,0,0
4473,165343.93101986166,2010-12-15 10:32:26,900.4503203795598,2,16,0.5501165986061096,3.885918617248535,13.523162022527655,13.363821227695723,54.32145008378589,48.2909032857064,9.713172767078504e-05,0.0978845432400703,0,0,0
4474,165373.94607174385,2010-12-15 10:32:56,930.4653723469556,2,16,0.5501165986061096,3.888994455337525,13.527749166668103,13.363821227695723,54.33928220219038,48.2909032857064,9.713172767078504e-05,0.0978845432400703,0,0,0
4475,165403.96103638393,2010-12-15 10:33:26,960.4803368968164,2,16,0.5501165986061096,3.8917465209960938,13.532336317476355,13.363821227695723,54.35712779394109,48.2909032857064,6.47544875391759e-05,0.0978845432400703,0,0,0
4476,165433.97604036692,2010-12-15 10:33:56,990.4953408798046,2,16,0.5501165986061096,3.894498586654663,13.536923494046446,13.363821227695723,54.37498625285624,48.2909032857064,6.47544875391759e-05,0.0978845432400703,0,0,0
4477,165463.99107867532,2010-12-15 10:34:26,1020.5103791831982,2,16,0.5501165986061096,3.896926879882813,13.541510708133606,13.363821227695723,54.39285662960696,48.2909032857064,3.237724376958795e-05,0.0978845432400703,0,0,0
4478,165494.00607768595,2010-12-15 10:34:56,1050.5253781988256,2,16,0.5501165986061096,3.899355173110962,13.546097799167873,13.363821227695723,54.410737986342895,48.2909032857064,6.47544875391759e-05,0.0978845432400703,0,0,0
4479,165524.02107642088,2010-12-15 10:35:26,1080.5403769337545,2,16,0.5501165986061096,3.901621580123901,13.550684797653874,13.363821227695723,54.42862970453052,48.2909032857064,6.47544875391759e-05,0.0978845432400703,0,0,0
4480,165554.0360843136,2010-12-15 10:35:56,1110.5553848314844,2,16,0.550297200679779,3.903887987136841,13.5552711753807,13.363821227695723,54.44652908616485,48.2909032857064,9.713172767078504e-05,0.0978845432400703,0,0,0
4481,165584.0510453096,2010-12-15 10:36:27,1140.5703458174764,2,16,0.550297200679779,3.9059925079345694,13.559857710077637,13.363821227695723,54.46443879808964,48.2909032857064,6.47544875391759e-05,0.0978845432400703,0,0,0
4482,165614.0662236665,2010-12-15 10:36:57,1170.5855241643628,2,16,0.550297200679779,3.90793514251709,13.56444477246914,13.363821227695723,54.48235997763391,48.2909032857064,6.47544875391759e-05,0.0978845432400703,0,0,0
4483,165644.08112305423,2010-12-15 10:37:27,1200.6004235620949,2,16,0.5501165986061096,3.9097158908844,13.569031819017134,13.363821227695723,54.50029005793456,48.2909032857064,0.0,0.0978845432400703,0,0,0
4484,165674.096137398,2010-12-15 10:37:57,1230.6154378958408,2,16,0.5501165986061096,3.911496639251709,13.573618871670934,13.363821227695723,54.518228777201,48.2909032857064,3.237724376958795e-05,0.0978845432400703,0,0,0
4485,165704.11111173723,2010-12-15 10:38:27,1260.6304122500992,2,16,0.550297200679779,3.9136011600494394,13.578205954033612,13.363821227695723,54.5361760541593,48.2909032857064,6.47544875391759e-05,0.0978845432400703,0,0,0
4486,165734.12614863712,2010-12-15 10:38:57,1290.6454491500003,2,16,0.5501165986061096,3.915219783782959,13.582793132063264,13.363821227695723,54.55413196118738,48.2909032857064,3.237724376958795e-05,0.0978845432400703,0,0,0
4487,165764.14128648324,2010-12-15 10:39:27,1320.6605869961018,2,16,0.5499359965324402,3.9168386459350586,13.587380276225709,13.363821227695723,54.572095600601465,48.2909032857064,3.237724376958795e-05,0.0978845432400703,0,0,0
4488,165794.15632520764,2010-12-15 10:39:57,1350.6756257255554,2,16,0.550297200679779,3.918619394302368,13.591967439258578,13.363821227695723,54.590067275294686,48.2909032857064,3.237724376958795e-05,0.0978845432400703,0,0,0
4489,165824.17119163836,2010-12-15 10:40:27,1380.690492141213,2,16,0.550297200679779,3.9204001426696777,13.596554546207066,13.363821227695723,54.608046638585485,48.2909032857064,6.47544875391759e-05,0.0978845432400703,0,0,0
4490,165854.1863262113,2010-12-15 10:40:57,1410.7056267241944,2,16,0.5501165986061096,3.922019004821777,13.601141739908822,13.363821227695723,54.62603410903736,48.2909032857064,3.237724376958795e-05,0.0978845432400703,0,0,0
4491,165884.20126073647,2010-12-15 10:41:27,1440.720561324527,2,16,0.5501165986061096,3.923799753189087,13.605728836939717,13.363821227695723,54.64402899730651,48.2909032857064,9.713172767078504e-05,0.0978845432400703,0,0,0
4492,165914.2162309755,2010-12-15 10:41:57,1470.7355314883575,2,16,0.5501165986061096,3.9254186153411865,13.610315948988598,13.363821227695723,54.66203178855864,48.2909032857064,3.237724376958795e-05,0.0978845432400703,0,0,0
4493,165944.23126578014,2010-12-15 10:42:27,1500.7505662679823,2,16,0.550297200679779,3.927199363708496,13.61490312417346,13.363821227695723,54.68004243460209,48.2909032857064,6.47544875391759e-05,0.0978845432400703,0,0,0
4494,165974.24624157802,2010-12-15 10:42:57,1530.765542075858,2,16,0.5501165986061096,3.928818225860596,13.619490200274052,13.363821227695723,54.698060429251335,48.2909032857064,3.237724376958795e-05,0.0978845432400703,0,0,0
4495,166004.26125346567,2010-12-15 10:43:27,1560.7805539785545,2,16,0.5504778623580933,3.9307608604431152,13.624077272890776,13.363821227695723,54.71608616969288,48.2909032857064,9.713172767078504e-05,0.0978845432400703,0,0,0
4496,166034.27626611022,2010-12-15 10:43:57,1590.7955665980342,2,16,0.5501165986061096,3.932055950164795,13.628664478391912,13.363821227695723,54.73412011957908,48.2909032857064,3.237724376958795e-05,0.0978845432400703,0,0,0
4497,166064.29129076464,2010-12-15 10:44:27,1620.8105912775252,2,16,0.5501165986061096,3.933836698532105,13.633251636979338,13.363821227695723,54.75216159067698,48.2909032857064,6.47544875391759e-05,0.0978845432400703,0,0,0
4498,166094.30633721832,2010-12-15 10:44:57,1650.8256377963623,2,16,0.550297200679779,3.935617446899414,13.63783883805412,13.363821227695723,54.77021097976731,48.2909032857064,6.47544875391759e-05,0.0978845432400703,0,0,0
4499,166124.32130621423,2010-12-15 10:45:27,1680.8406067321373,2,16,0.550297200679779,3.9372363090515137,13.642426045541647,13.363821227695723,54.78826800657367,48.2909032857064,3.237724376958795e-05,0.0978845432400703,0,0,0
4500,166154.3387752815,2010-12-15 10:45:57,1710.8580758595426,2,16,0.5501165986061096,3.938855171203613,13.647013567841183,13.363821227695723,54.80633409577104,48.2909032857064,3.237724376958795e-05,0.0978845432400703,0,0,0
4501,166184.35135360333,2010-12-15 10:46:27,1740.8706541162044,2,16,0.550297200679779,3.940635919570923,13.651600300570122,13.363821227695723,54.82440480479825,48.2909032857064,6.47544875391759e-05,0.0978845432400703,0,0,0
4502,166214.3663655361,2010-12-15 10:46:57,1770.8856661442128,2,16,0.550297200679779,3.942416667938232,13.656187496105552,13.363821227695723,54.84248514275632,48.2909032857064,3.237724376958795e-05,0.0978845432400703,0,0,0
4503,166244.38135783,2010-12-15 10:47:27,1800.9006583478888,2,16,0.5501165986061096,3.944035530090332,13.660774668203702,13.363821227695723,54.86057317134578,48.2909032857064,6.47544875391759e-05,0.0978845432400703,0,0,0
4504,166274.39640169725,2010-12-15 10:47:57,1830.9157022101151,2,16,0.550297200679779,3.945654392242432,13.665361848617788,13.363821227695723,54.8786689844668,48.2909032857064,3.237724376958795e-05,0.0978845432400703,0,0,0
4505,166304.4115357539,2010-12-15 10:48:27,1860.9308362617744,2,16,0.5499359965324402,3.9472732543945312,13.66994906979918,13.363821227695723,54.89677273548629,48.2909032857064,0.0,0.0978845432400703,0,0,0
4506,166334.42638712714,2010-12-15 10:48:57,1890.9456876450245,2,16,0.5501165986061096,3.949215888977051,13.6745361603843,13.363821227695723,54.91488374883985,48.2909032857064,6.47544875391759e-05,0.0978845432400703,0,0,0
4507,166364.4413992704,2010-12-15 10:49:27,1920.9606997833075,2,16,0.550297200679779,3.95099663734436,13.679123273192152,13.363821227695723,54.93300260919301,48.2909032857064,6.47544875391759e-05,0.0978845432400703,0,0,0
4508,166394.45640584486,2010-12-15 10:49:57,1950.975706357744,2,16,0.550297200679779,3.95261549949646,13.683710471661552,13.363821227695723,54.95112967073668,48.2909032857064,6.47544875391759e-05,0.0978845432400703,0,0,0
4509,166424.471442845,2010-12-15 10:50:27,1980.9907433629069,2,16,0.5501165986061096,3.95423436164856,13.688297612745853,13.363821227695723,54.96926430033068,48.2909032857064,3.237724376958795e-05,0.0978845432400703,0,0,0
4510,166454.48643314894,2010-12-15 10:50:57,2011.0057336618431,2,16,0.5501165986061096,3.955853223800659,13.69288479445244,13.363821227695723,54.987406982659536,48.2909032857064,3.237724376958795e-05,0.0978845432400703,0,0,0
4511,166484.50145398386,2010-12-15 10:51:27,2041.020754496767,2,16,0.550297200679779,3.9576339721679688,13.69747199800716,13.363821227695723,55.00555757802545,48.2909032857064,6.47544875391759e-05,0.0978845432400703,0,0,0
4512,166514.51662694238,2010-12-15 10:51:57,2071.035927525419,2,16,0.550297200679779,3.9594147205352783,13.702059199736302,13.363821227695723,55.02371610105524,48.2909032857064,3.237724376958795e-05,0.0978845432400703,0,0,0
4513,166544.53147862636,2010-12-15 10:52:27,2101.0507791392424,2,16,0.5504778623580933,3.961195468902588,13.706646342517834,13.363821227695723,55.04188228866546,48.2909032857064,6.47544875391759e-05,0.0978845432400703,0,0,0
4514,166574.54673084206,2010-12-15 10:52:57,2131.066031425123,2,16,0.550297200679779,3.962814331054688,13.711233584098498,13.363821227695723,55.06005681669247,48.2909032857064,3.237724376958795e-05,0.0978845432400703,0,0,0
4515,166604.5614941361,2010-12-15 10:53:27,2161.0807946389677,2,16,0.5501165986061096,3.964595079421997,13.715820701274398,13.363821227695723,55.07823880797132,48.2909032857064,6.47544875391759e-05,0.0978845432400703,0,0,0
4516,166634.57652252985,2010-12-15 10:53:57,2191.095823117913,2,16,0.5501165986061096,3.966375827789306,13.720407842296176,13.363821227695723,55.09642888862509,48.2909032857064,3.237724376958795e-05,0.0978845432400703,0,0,0
4517,166664.591552693,2010-12-15 10:54:27,2221.1108532058624,2,16,0.5501165986061096,3.9679946899414062,13.724995040696944,13.363821227695723,55.11462724447954,48.2909032857064,3.237724376958795e-05,0.0978845432400703,0,0,0
4518,166694.60676759083,2010-12-15 10:54:57,2251.126068163854,2,16,0.5501165986061096,3.969937324523926,13.729582189292527,13.363821227695723,55.13283350261659,48.2909032857064,6.47544875391759e-05,0.0978845432400703,0,0,0
4519,166724.62156102987,2010-12-15 10:55:27,2281.140861632987,2,16,0.550297200679779,3.971879959106445,13.734169299843256,13.363821227695723,55.15104776430249,48.2909032857064,9.713172767078504e-05,0.0978845432400703,0,0,0
4520,166754.63667745268,2010-12-15 10:55:57,2311.15597804074,2,16,0.5501165986061096,3.973498821258545,13.738756539013613,13.363821227695723,55.169270807833165,48.2909032857064,6.47544875391759e-05,0.0978845432400703,0,0,0
4521,166784.65158877507,2010-12-15 10:56:27,2341.170889272921,2,16,0.5501165986061096,3.9752795696258554,13.7433436893966,13.363821227695723,55.18750172590192,48.2909032857064,6.47544875391759e-05,0.0978845432400703,0,0,0
4522,166814.6665814048,2010-12-15 10:56:57,2371.185881917695,2,16,0.550297200679779,3.977222204208374,13.747930904425523,13.363821227695723,55.2057413059416,48.2909032857064,6.47544875391759e-05,0.0978845432400703,0,0,0
4523,166844.68156116753,2010-12-15 10:57:27,2401.2008616804123,2,16,0.5501165986061096,3.979002952575684,13.75251812458885,13.363821227695723,55.223988836508326,48.2909032857064,6.47544875391759e-05,0.0978845432400703,0,0,0
4524,166874.69658418288,2010-12-15 10:57:57,2431.2158846957623,2,16,0.5501165986061096,3.980783700942993,13.757105213306106,13.363821227695723,55.24224477082383,48.2909032857064,6.47544875391759e-05,0.0978845432400703,0,0,0
4525,166904.71161761414,2010-12-15 10:58:27,2461.230918182169,2,16,0.5501165986061096,3.982564449310303,13.761692324962716,13.363821227695723,55.26050931631054,48.2909032857064,3.237724376958795e-05,0.0978845432400703,0,0,0
4526,166934.7266251159,2010-12-15 10:58:57,2491.245925628776,2,16,0.550297200679779,3.9845070838928223,13.766279407401203,13.363821227695723,55.27878226700586,48.2909032857064,3.237724376958795e-05,0.0978845432400703,0,0,0
4527,166964.74162378567,2010-12-15 10:59:27,2521.2609242734807,2,16,0.5501165986061096,3.986287832260132,13.770866539873548,13.363821227695723,55.29706411569902,48.2909032857064,3.237724376958795e-05,0.0978845432400703,0,0,0
4528,166994.75663141772,2010-12-15 10:59:57,2551.275931930612,2,16,0.5501165986061096,3.988392353057861,13.775453690369917,13.363821227695723,55.31535472657677,48.2909032857064,6.47544875391759e-05,0.0978845432400703,0,0,0
4529,167024.77165720498,2010-12-15 11:00:27,2581.290957722872,2,16,0.5501165986061096,3.990173101425171,13.780040867317194,13.363821227695723,55.33365417933664,48.2909032857064,3.237724376958795e-05,0.0978845432400703,0,0,0
4530,167054.78665502262,2010-12-15 11:00:57,2611.3059555355053,2,16,0.5501165986061096,3.9921157360076895,13.78462799506752,13.363821227695723,55.35196233636318,48.2909032857064,3.237724376958795e-05,0.0978845432400703,0,0,0
4531,167084.80169178217,2010-12-15 11:01:27,2641.3209922950573,2,16,0.550297200679779,3.994220018386841,13.789215199444898,13.363821227695723,55.37027975432475,48.2909032857064,3.237724376958795e-05,0.0978845432400703,0,0,0
4532,167114.81687277064,2010-12-15 11:01:57,2671.336173358704,2,16,0.5501165986061096,3.99616265296936,13.793802327391226,13.363821227695723,55.388605926112014,48.2909032857064,3.237724376958795e-05,0.0978845432400703,0,0,0
4533,167144.8318436613,2010-12-15 11:02:27,2701.3511442393187,2,16,0.550297200679779,3.99826717376709,13.798389560687395,13.363821227695723,55.4069417969521,48.2909032857064,9.713172767078504e-05,0.0978845432400703,0,0,0
4534,167174.84670501936,2010-12-15 11:02:57,2731.3660055372407,2,16,0.5501165986061096,4.000371932983398,13.802976675868344,13.363821227695723,55.42528630300461,48.2909032857064,9.71794142969884e-05,0.0978845432400703,0,0,0
4535,167204.86171395966,2010-12-15 11:03:27,2761.381014472553,2,16,0.550297200679779,4.002152442932129,13.80756381898402,13.363821227695723,55.44364043442584,48.2909032857064,3.23295607813634e-05,0.0978845432400703,0,0,0
4536,167234.87688368012,2010-12-15 11:03:57,2791.396184197985,2,16,0.550297200679779,4.0042572021484375,13.812151064048624,13.363821227695723,55.46200448008243,48.2909032857064,6.47544875391759e-05,0.0978845432400703,0,0,0
4537,167264.8917644214,2010-12-15 11:04:27,2821.411064934279,2,16,0.5501165986061096,4.006361484527588,13.816738159765263,13.363821227695723,55.48037754746672,48.2909032857064,6.47544875391759e-05,0.0978845432400703,0,0,0
4538,167294.9067660034,2010-12-15 11:04:57,2851.426066546368,2,16,0.5501165986061096,4.008627891540527,13.821325363143105,13.363821227695723,55.49876081843215,48.2909032857064,6.47544875391759e-05,0.0978845432400703,0,0,0
4539,167324.9217669689,2010-12-15 11:05:27,2881.4410674867845,2,16,0.5501165986061096,4.010732650756836,13.825912496498525,13.363821227695723,55.51715350905241,48.2909032857064,6.47544875391759e-05,0.0978845432400703,0,0,0
4540,167354.9367970769,2010-12-15 11:05:57,2911.456097589771,2,16,0.5501165986061096,4.012836933135986,13.83049966269623,13.363821227695723,55.53555636422431,48.2909032857064,6.47544875391759e-05,0.0978845432400703,0,0,0
4541,167384.9518130798,2010-12-15 11:06:27,2941.471113592671,2,16,0.5501165986061096,4.015103340148926,13.835086878717933,13.363821227695723,55.5539694967226,48.2909032857064,6.47544875391759e-05,0.0978845432400703,0,0,0
4542,167414.96680324842,2010-12-15 11:06:57,2971.486103766295,2,16,0.5501165986061096,4.017369747161865,13.839673992095276,13.363821227695723,55.57239245112255,48.2909032857064,3.23295607813634e-05,0.0978845432400703,0,0,0
4543,167444.98182155204,2010-12-15 11:07:27,3001.501122039845,2,16,0.550297200679779,4.019474506378174,13.84426123291986,13.363821227695723,55.5908262447844,48.2909032857064,6.47544875391759e-05,0.0978845432400703,0,0,0
4544,167474.9968352542,2010-12-15 11:07:57,3031.5161357470324,2,16,0.5501165986061096,4.021740913391113,13.848848371740502,13.363821227695723,55.60927011335216,48.2909032857064,0.0,0.0978845432400703,0,0,0
4545,167505.01184879598,2010-12-15 11:08:28,3061.531149298832,2,16,0.5501165986061096,4.024168968200684,13.853435545452273,13.363821227695723,55.62772475673272,48.2909032857064,6.47544875391759e-05,0.0978845432400703,0,0,0
4546,167535.0269931984,2010-12-15 11:08:58,3091.5462937162865,2,16,0.5501165986061096,4.026597499847412,13.858022713959205,13.363821227695723,55.64619002724184,48.2909032857064,6.47544875391759e-05,0.0978845432400703,0,0,0
4547,167565.041885328,2010-12-15 11:09:28,3121.561185820869,2,16,0.5501165986061096,4.029025554656982,13.86260984839176,13.363821227695723,55.66466607580983,48.2909032857064,9.70840483205393e-05,0.0978845432400703,0,0,0
4548,167595.05687601794,2010-12-15 11:09:58,3151.5761765208035,2,16,0.550297200679779,4.031291961669922,13.867197003246169,13.363821227695723,55.683153115915694,48.2909032857064,6.47544875391759e-05,0.0978845432400703,0,0,0
4549,167625.07194980464,2010-12-15 11:10:28,3181.591250322533,2,16,0.5501165986061096,4.03372049331665,13.871784172598636,13.363821227695723,55.70165134767209,48.2909032857064,3.24249267578125e-05,0.0978845432400703,0,0,0
4550,167655.08696609826,2010-12-15 11:10:58,3211.6062667013684,2,16,0.5501165986061096,4.036310195922852,13.876371397529116,13.363821227695723,55.720160987229214,48.2909032857064,6.47544875391759e-05,0.0978845432400703,0,0,0
4551,167685.10193567062,2010-12-15 11:11:28,3241.621236183503,2,16,0.5499359965324402,4.038576602935791,13.880958566123976,13.363821227695723,55.73868176220096,48.2909032857064,3.23295607813634e-05,0.0978845432400703,0,0,0
4552,167715.11705738658,2010-12-15 11:11:58,3271.6363578744026,2,16,0.550297200679779,4.04132890701294,13.885545779371082,13.363821227695723,55.75721400421867,48.2909032857064,6.47544875391759e-05,0.0978845432400703,0,0,0
4553,167745.13196040332,2010-12-15 11:12:28,3301.6512609212155,2,16,0.550297200679779,4.04375696182251,13.890132939602749,13.363821227695723,55.775757484033015,48.2909032857064,9.70840483205393e-05,0.0978845432400703,0,0,0
4554,167775.1469788172,2010-12-15 11:12:58,3331.66627932509,2,16,0.5501165986061096,4.046347141265869,13.894720091475625,13.363821227695723,55.794312475334046,48.2909032857064,9.70840483205393e-05,0.0978845432400703,0,0,0
4555,167805.1619873866,2010-12-15 11:13:28,3361.681287899504,2,16,0.5501165986061096,4.0489373207092285,13.89930725158558,13.363821227695723,55.812879237110366,48.2909032857064,9.70840483205393e-05,0.0978845432400703,0,0,0
4556,167835.1771104259,2010-12-15 11:13:58,3391.6964109287346,2,16,0.5501165986061096,4.051365852355957,13.903894417144569,13.363821227695723,55.8314578510452,48.2909032857064,6.47544875391759e-05,0.0978845432400703,0,0,0
4557,167865.19201762302,2010-12-15 11:14:28,3421.7113181358995,2,16,0.550297200679779,4.054117679595947,13.908481627508362,13.363821227695723,55.85004863993359,48.2909032857064,0.0001295089750783,0.0978845432400703,0,0,0
4558,167895.20701075398,2010-12-15 11:14:58,3451.726311271896,2,16,0.5501165986061096,4.056707859039307,13.913068836082909,13.363821227695723,55.86865152949664,48.2909032857064,3.23295607813634e-05,0.0978845432400703,0,0,0
4559,167925.2221574421,2010-12-15 11:15:28,3481.7414579399506,2,16,0.550297200679779,4.059460163116455,13.91765607866169,13.363821227695723,55.88726669666376,48.2909032857064,9.71794142969884e-05,0.0978845432400703,0,0,0
4560,167955.2371629038,2010-12-15 11:15:58,3511.7564633915936,2,16,0.5501165986061096,4.061888217926025,13.922243258451108,13.363821227695723,55.90589358403683,48.2909032857064,6.47544875391759e-05,0.0978845432400703,0,0,0
4561,167985.25241595157,2010-12-15 11:16:28,3541.771716524582,2,16,0.5504778623580933,4.064802169799805,13.926830426447108,13.363821227695723,55.9245327788399,48.2909032857064,9.70840483205393e-05,0.0978845432400703,0,0,0
4562,168015.26707951742,2010-12-15 11:16:58,3571.786380030306,2,16,0.5501165986061096,4.067554473876953,13.9314175126614,13.363821227695723,55.94318420516149,48.2909032857064,9.71794142969884e-05,0.0978845432400703,0,0,0
4563,168045.28207566592,2010-12-15 11:17:28,3601.801376178799,2,16,0.5501165986061096,4.070306301116943,13.936004660018437,13.363821227695723,55.96184852674305,48.2909032857064,9.70840483205393e-05,0.0978845432400703,0,0,0
4564,168075.29955939966,2010-12-15 11:17:58,3631.818860002776,2,16,0.5501165986061096,4.072896480560303,13.940592188298393,13.363821227695723,55.98052709214934,48.2909032857064,6.47544875391759e-05,0.0978845432400703,0,0,0
4565,168105.31225748954,2010-12-15 11:18:28,3661.8315580976514,2,16,0.550297200679779,4.075972557067871,13.945178965941343,13.363821227695723,55.99921553534049,48.2909032857064,9.71794142969884e-05,0.0978845432400703,0,0,0
4566,168135.32712590517,2010-12-15 11:18:58,3691.84642642306,2,16,0.550297200679779,4.078724384307861,13.949766126723306,13.363821227695723,56.01791852301055,48.2909032857064,9.70840483205393e-05,0.0978845432400703,0,0,0
4567,168165.34213764244,2010-12-15 11:19:28,3721.861438155333,2,16,0.5501165986061096,4.08147668838501,13.954353311112056,13.363821227695723,56.03663476026449,48.2909032857064,3.24249267578125e-05,0.0978845432400703,0,0,0
4568,168195.35719967991,2010-12-15 11:19:58,3751.876500187775,2,16,0.550297200679779,4.08455228805542,13.958940495012316,13.363821227695723,56.05536418095932,48.2909032857064,9.70840483205393e-05,0.0978845432400703,0,0,0
4569,168225.3722897822,2010-12-15 11:20:28,3781.8915902950807,2,16,0.550297200679779,4.087466239929199,13.96352760585524,13.363821227695723,56.07410667732677,48.2909032857064,0.0001295089750783,0.0978845432400703,0,0,0
4570,168255.38719294933,2010-12-15 11:20:58,3811.9064935574297,2,16,0.5501165986061096,4.090218544006348,13.968114798150674,13.363821227695723,56.09286303518735,48.2909032857064,3.24249267578125e-05,0.0978845432400703,0,0,0
4571,168285.4021882206,2010-12-15 11:21:28,3841.92148870844,2,16,0.5501165986061096,4.093294143676758,13.97270202169324,13.363821227695723,56.111633066492764,48.2909032857064,9.70840483205393e-05,0.0978845432400703,0,0,0
4572,168315.41719580258,2010-12-15 11:21:58,3871.9364963054218,2,16,0.550297200679779,4.096370220184326,13.977289132702952,13.363821227695723,56.130416311886265,48.2909032857064,0.0001295089750783,0.0978845432400703,0,0,0
4573,168345.43235816967,2010-12-15 11:22:28,3901.95165868758,2,16,0.5499359965324402,4.0992841720581055,13.981876324269647,13.363821227695723,56.149213698628536,48.2909032857064,6.47544875391759e-05,0.0978845432400703,0,0,0
4574,168375.44735403245,2010-12-15 11:22:58,3931.9666545252994,2,16,0.5501165986061096,4.102198123931885,13.986463555544494,13.363821227695723,56.16802514887365,48.2909032857064,3.24249267578125e-05,0.0978845432400703,0,0,0
4575,168405.4622691794,2010-12-15 11:23:28,3961.9815697073104,2,16,0.5501165986061096,4.105273723602295,13.991050765632568,13.363821227695723,56.18685055004159,48.2909032857064,3.23295607813634e-05,0.0978845432400703,0,0,0
4576,168435.47725719263,2010-12-15 11:23:58,3991.9965576904833,2,16,0.550297200679779,4.108511447906494,13.995638033298327,13.363821227695723,56.20569040244036,48.2909032857064,6.47544875391759e-05,0.0978845432400703,0,0,0
4577,168465.49228719037,2010-12-15 11:24:28,4022.0115877032463,2,16,0.550297200679779,4.111749172210693,14.000225285237674,13.363821227695723,56.224544598686926,48.2909032857064,9.70840483205393e-05,0.0978845432400703,0,0,0
4578,168495.50741576843,2010-12-15 11:24:58,4052.0267163364215,2,16,0.5501165986061096,4.114824771881104,14.004812490019695,13.363821227695723,56.243412995449575,48.2909032857064,9.70840483205393e-05,0.0978845432400703,0,0,0
4579,168525.52232219363,2010-12-15 11:25:28,4082.0416227616415,2,16,0.5501165986061096,4.117900848388672,14.009399650326923,13.363821227695723,56.262295732341165,48.2909032857064,6.47544875391759e-05,0.0978845432400703,0,0,0
4580,168555.53731119432,2010-12-15 11:25:58,4112.0566116871605,2,16,0.5501165986061096,4.121300220489502,14.013986872926749,13.363821227695723,56.281193482599726,48.2909032857064,9.70840483205393e-05,0.0978845432400703,0,0,0
4581,168585.55233973844,2010-12-15 11:26:28,4142.071640251317,2,16,0.5501165986061096,4.124537944793701,14.018574118492833,13.363821227695723,56.30010596834851,48.2909032857064,9.70840483205393e-05,0.0978845432400703,0,0,0
4582,168615.56758833514,2010-12-15 11:26:58,4172.086888928217,2,16,0.5501165986061096,4.1279377937316895,14.023161382655012,13.363821227695723,56.31903352386848,48.2909032857064,9.71794142969884e-05,0.0978845432400703,0,0,0
4583,168645.5823477796,2010-12-15 11:27:28,4202.101648277444,2,16,0.5501165986061096,4.1310133934021,14.027748589358968,13.363821227695723,56.33797587440814,48.2909032857064,9.70840483205393e-05,0.0978845432400703,0,0,0
4584,168675.5973686095,2010-12-15 11:27:58,4232.116669127406,2,16,0.5501165986061096,4.134251117706299,14.03233587302346,13.363821227695723,56.356933720031726,48.2909032857064,6.47544875391759e-05,0.0978845432400703,0,0,0
4585,168705.6123818706,2010-12-15 11:28:28,4262.131682388482,2,16,0.550297200679779,4.137812614440918,14.036923127112402,13.363821227695723,56.37590669601949,48.2909032857064,9.70840483205393e-05,0.0978845432400703,0,0,0
4586,168735.6273881994,2010-12-15 11:28:58,4292.146688712295,2,16,0.5501165986061096,4.141212463378906,14.041510357617767,13.363821227695723,56.39489495785361,48.2909032857064,0.0001295089750783,0.0978845432400703,0,0,0
4587,168765.6423994154,2010-12-15 11:29:28,4322.161699903221,2,16,0.550297200679779,4.144611835479736,14.04609763607096,13.363821227695723,56.413898947213,48.2909032857064,0.0001618385285837,0.0978845432400703,0,0,0
4588,168795.65742606478,2010-12-15 11:29:58,4352.176726577676,2,16,0.5504778623580933,4.148011684417725,14.050684812701608,13.363821227695723,56.43291848586209,48.2909032857064,9.71794142969884e-05,0.0978845432400703,0,0,0
4589,168825.67244821298,2010-12-15 11:30:28,4382.191748720856,2,16,0.5501165986061096,4.151411056518555,14.055272064541724,13.363821227695723,56.45195413786008,48.2909032857064,9.70840483205393e-05,0.0978845432400703,0,0,0
4590,168855.6874519704,2010-12-15 11:30:58,4412.206752483296,2,16,0.550297200679779,4.154810905456543,14.059859306739009,13.363821227695723,56.47100567488658,48.2909032857064,9.71794142969884e-05,0.0978845432400703,0,0,0
4591,168885.702454179,2010-12-15 11:31:28,4442.221754691868,2,16,0.550297200679779,4.158534049987793,14.064446520326722,13.363821227695723,56.49007310245224,48.2909032857064,0.0001295089750783,0.0978845432400703,0,0,0
4592,168915.71746640248,2010-12-15 11:31:58,4472.236766895313,2,16,0.550297200679779,4.161933898925781,14.06903373435425,13.363821227695723,56.50915667341834,48.2909032857064,9.71794142969884e-05,0.0978845432400703,0,0,0
4593,168945.73248901684,2010-12-15 11:32:28,4502.251789529715,2,16,0.5501165986061096,4.1654953956604,14.073620999021545,13.363821227695723,56.528256654320685,48.2909032857064,6.47544875391759e-05,0.0978845432400703,0,0,0
4594,168975.7475053706,2010-12-15 11:32:58,4532.266805953662,2,16,0.550297200679779,4.16905689239502,14.078208176440668,13.363821227695723,56.54737256770316,48.2909032857064,6.47544875391759e-05,0.0978845432400703,0,0,0
4595,169005.7626798128,2010-12-15 11:33:28,4562.281980471019,2,16,0.5499359965324402,4.172618389129639,14.082795407195016,13.363821227695723,56.566505151381904,48.2909032857064,9.71794142969884e-05,0.0978845432400703,0,0,0
4596,169035.77772830153,2010-12-15 11:33:58,4592.297028814396,2,16,0.5501165986061096,4.176179885864258,14.087382640094065,13.363821227695723,56.585654240860485,48.2909032857064,9.71794142969884e-05,0.0978845432400703,0,0,0
4597,169065.79258298298,2010-12-15 11:34:28,4622.311883500865,2,16,0.550297200679779,4.179903030395508,14.091969815621637,13.363821227695723,56.60481957181782,48.2909032857064,0.0001295089750783,0.0978845432400703,0,0,0
4598,169095.80755787357,2010-12-15 11:34:58,4652.326858386447,2,16,0.5501165986061096,4.183464527130127,14.096557046688988,13.363821227695723,56.62400176208985,48.2909032857064,9.70840483205393e-05,0.0978845432400703,0,0,0
4599,169125.82270092762,2010-12-15 11:35:28,4682.342001415445,2,16,0.5501165986061096,4.187188148498535,14.101144329755204,13.363821227695723,56.64320093743115,48.2909032857064,0.0001295089750783,0.0978845432400703,0,0,0
4600,169155.83758182434,2010-12-15 11:35:58,4712.356882327175,2,16,0.5501165986061096,4.190749645233154,14.105731499654556,13.363821227695723,56.66241666029365,48.2909032857064,9.71794142969884e-05,0.0978845432400703,0,0,0
4601,169185.85279684246,2010-12-15 11:36:28,4742.372097355342,2,16,0.5501165986061096,4.194634914398193,14.110318771614343,13.363821227695723,56.68164996711908,48.2909032857064,9.71794142969884e-05,0.0978845432400703,0,0,0
4602,169215.86761799047,2010-12-15 11:36:58,4772.386918503353,2,16,0.5501165986061096,4.198519706726074,14.114905941628084,13.363821227695723,56.700899928180654,48.2909032857064,0.0001295089750783,0.0978845432400703,0,0,0
4603,169228.08611923587,2010-12-15 11:37:11,4784.60541974876,2,16,0.550297200679779,4.200138568878174,14.1167732696909,13.363821227695723,56.70874111794458,48.2909032857064,0.0001295089750783,0.0978845432400703,0,0,0
4604,169258.09474300922,2010-12-15 11:37:41,30.014989792676392,3,16,0.0,4.106730937957764,14.1167732696909,13.363821227695723,56.70874111794458,48.2909032857064,-0.0004208564641885,0.0978845432400703,0,0,0
4605,169288.10972969414,2010-12-15 11:38:11,60.0299764976692,3,16,0.0,4.094751358032227,14.1167732696909,13.363821227695723,56.70874111794458,48.2909032857064,-0.0002590179501567,0.0978845432400703,0,0,0
4606,169318.12462191904,2010-12-15 11:38:41,90.04486871252693,3,16,0.0,4.087790012359619,14.1167732696909,13.363821227695723,56.70874111794458,48.2909032857064,-0.0001295089750783,0.0978845432400703,0,0,0
4607,169348.09303763893,2010-12-15 11:39:11,120.01328444243946,3,16,0.0,4.08293342590332,14.1167732696909,13.363821227695723,56.70874111794458,48.2909032857064,-0.0001295089750783,0.0978845432400703,0,0,0
4608,169348.10471795814,2010-12-15 11:39:11,0.015746494546043,4,16,1.0070581436157229,4.199814796447754,14.11677772002203,13.363821227695723,56.70875980851111,48.2909032857064,0.0,0.0978845432400703,0,0,0
4609,169348.96396021443,2010-12-15 11:39:12,0.874988826040185,4,16,0.9561262726783752,4.199814796447754,14.11701049175926,13.363821227695723,56.7097374031752,48.2909032857064,0.0,0.0978845432400703,0,0,0
4610,169350.979515396,2010-12-15 11:39:14,2.890544012600587,4,16,0.9059168696403505,4.199976921081543,14.117530654077036,13.363821227695723,56.71192199649607,48.2909032857064,3.24249267578125e-05,0.0978845432400703,0,0,0
4611,169353.97945382737,2010-12-15 11:39:17,5.890482444004888,4,16,0.8551656603813171,4.199491024017334,14.118263669975343,13.363821227695723,56.71500053719082,48.2909032857064,-6.47544875391759e-05,0.0978845432400703,0,0,0
4612,169358.21386087648,2010-12-15 11:39:21,10.124889498097188,4,16,0.8051369190216064,4.199653148651123,14.119239293995967,13.363821227695723,56.719098006509945,48.2909032857064,0.0,0.0978845432400703,0,0,0
4613,169363.71374043022,2010-12-15 11:39:27,15.624768961608307,4,16,0.755108118057251,4.199976921081543,14.120429453826022,13.363821227695723,56.72409648867748,48.2909032857064,3.24249267578125e-05,0.0978845432400703,0,0,0
4614,169370.85421659047,2010-12-15 11:39:34,22.76524514194939,4,16,0.7050793766975403,4.199814796447754,14.12187535673518,13.363821227695723,56.73016906127838,48.2909032857064,0.0,0.0978845432400703,0,0,0
4615,169380.32265778224,2010-12-15 11:39:43,32.23368639884636,4,16,0.6550505757331848,4.199814796447754,14.123660951768493,13.363821227695723,56.73766828045408,48.2909032857064,-3.24249267578125e-05,0.0978845432400703,0,0,0
4616,169393.60373184422,2010-12-15 11:39:56,45.51476039567694,4,16,0.6048412322998047,4.199814796447754,14.125980133278478,13.363821227695723,56.747408484430345,48.2909032857064,0.0,0.0978845432400703,0,0,0
4617,169413.54082643733,2010-12-15 11:40:16,65.45185498374802,4,16,0.5548124313354492,4.199976921081543,14.129182512739956,13.363821227695723,56.76085799024701,48.2909032857064,3.24249267578125e-05,0.0978845432400703,0,0,0
4618,169448.64941143576,2010-12-15 11:40:51,100.56043996714902,4,16,0.5047836899757385,4.199814796447754,14.134326886551634,13.363821227695723,56.78246357681079,48.2909032857064,0.0,0.0978845432400703,0,0,0
4619,169515.00748478403,2010-12-15 11:41:58,166.9185133304801,4,16,0.454574316740036,4.199653148651123,14.143126763242982,13.363821227695723,56.81942175687769,48.2909032857064,-3.23295607813634e-05,0.0978845432400703,0,0,0
4620,169619.97417732625,2010-12-15 11:43:43,271.8852058726909,4,16,0.4045455455780029,4.199814796447754,14.155626299685848,13.363821227695723,56.8719179644476,48.2909032857064,0.0,0.0978845432400703,0,0,0
4621,169752.48718018222,2010-12-15 11:45:55,404.3982087988186,4,16,0.3545167744159698,4.199814796447754,14.169582623675153,13.363821227695723,56.93053249732336,48.2909032857064,0.0,0.0978845432400703,0,0,0
4622,169910.68691090753,2010-12-15 11:48:34,562.5979394539489,4,16,0.3044880032539367,4.199814796447754,14.184042423718957,13.363821227695723,56.991261640662245,48.2909032857064,0.0,0.0978845432400703,0,0,0
4623,170101.54238843775,2010-12-15 11:51:44,753.4534169892,4,16,0.2544592320919037,4.199653148651123,14.198829239630832,13.363821227695723,57.05336415466669,48.2909032857064,-6.47544875391759e-05,0.0978845432400703,0,0,0
4624,170339.1000701619,2010-12-15 11:55:42,991.0110988035613,4,16,0.2044304609298706,4.199814796447754,14.213922119819037,13.363821227695723,57.11675205262548,48.2909032857064,-3.24249267578125e-05,0.0978845432400703,0,0,0
4625,170652.3593149391,2010-12-15 12:00:55,1304.2703434855198,4,16,0.1544016897678375,4.199653148651123,14.229450009581935,13.363821227695723,57.18196694540271,48.2909032857064,0.0,0.0978845432400703,0,0,0
4626,171120.7403865411,2010-12-15 12:08:44,1772.6514150925573,4,16,0.1043729186058044,4.199653148651123,14.246062346383296,13.363821227695723,57.251736358663685,48.2909032857064,0.0,0.0978845432400703,0,0,0
4627,172041.37783691724,2010-12-15 12:24:04,2693.288865463673,4,16,0.0543441474437713,4.199814796447754,14.265532517329246,13.363821227695723,57.333507891154646,48.2909032857064,0.0,0.0978845432400703,0,0,0
4628,172184.03119247084,2010-12-15 12:26:27,2835.942221087475,4,16,0.0498289167881011,4.199814796447754,14.267612990946157,13.363821227695723,57.3422455594562,48.2909032857064,-3.24249267578125e-05,0.0978845432400703,0,0,0
4629,172214.0529703586,2010-12-15 12:26:57,30.014858460862225,5,16,0.0,4.191073417663574,14.267612990946157,13.363821227695723,57.3422455594562,48.2909032857064,-3.23295607813634e-05,0.0978845432400703,0,0,0
4630,172244.05245231563,2010-12-15 12:27:27,60.01434048806068,5,16,0.0,4.189778327941895,14.267612990946157,13.363821227695723,57.3422455594562,48.2909032857064,-6.47544875391759e-05,0.0978845432400703,0,0,0
4631,172244.24818403408,2010-12-15 12:27:27,0.18767708721318,6,16,-1.9243103452026844e-05,4.1901021003723145,14.267612990946157,13.363821228698916,57.3422455594562,48.29090328990987,0.0,0.0987826660275459,0,0,0
4632,172249.07603887515,2010-12-15 12:27:32,5.015531853111396,6,16,0.0008838032954372,4.189778327941895,14.267614117636803,13.363821228698916,57.34225028019662,48.29090328990987,-3.23295607813634e-05,0.0987826660275459,0,0,0
4633,172279.08368399565,2010-12-15 12:28:02,30.01501391771061,7,16,-1.099568486213684,3.9956769943237305,14.267614117636803,13.372987898026546,57.34225028019662,48.32775418553149,-0.0010684967273846,0.0987826660275459,0,0,0
4634,172309.09886255307,2010-12-15 12:28:32,60.03019248013326,7,16,-1.0993878841400146,3.964595079421997,14.267614117636803,13.382155237734992,57.34225028019662,48.364232087263154,-0.0006799221155233,0.0987826660275459,0,0,0
4635,172339.11370434743,2010-12-15 12:29:02,90.04503426950913,7,16,-1.0992072820663452,3.942740440368652,14.267614117636803,13.391322392273787,57.34225028019662,48.40047075607776,-0.0005180359003134,0.0987826660275459,0,0,0
4636,172369.12884274492,2010-12-15 12:29:32,120.06017265695787,7,16,-1.099568486213684,3.9257423877716064,14.267614117636803,13.400489470254016,57.34225028019662,48.436533327993686,-0.0004209041653666,0.0987826660275459,0,0,0
4637,172399.14375347082,2010-12-15 12:30:02,150.07508339290467,7,16,-1.0993878841400146,3.911496639251709,14.267614117636803,13.409656480850153,57.34225028019662,48.472453962755225,-0.0003561496851034,0.0987826660275459,0,0,0
4638,172429.15873697787,2010-12-15 12:30:32,180.09006690495193,7,16,-1.0993878841400146,3.898869514465332,14.267614117636803,13.418823634264752,57.34225028019662,48.50825226638297,-0.0002913951757363,0.0987826660275459,0,0,0
4639,172459.17375943685,2010-12-15 12:31:02,210.1050893388548,7,16,-1.0993878841400146,3.887213706970215,14.267614117636803,13.427990845318329,57.34225028019662,48.54393990678267,-0.0002913951757363,0.0987826660275459,0,0,0
4640,172489.1887691992,2010-12-15 12:31:32,240.1200990962125,7,16,-1.0993878841400146,3.8762054443359375,14.267614117636803,13.437158100950192,57.34225028019662,48.57952386604719,-0.0002913951757363,0.0987826660275459,0,0,0
4641,172519.20377440524,2010-12-15 12:32:02,270.13510430224443,7,16,-1.0997490882873535,3.86552095413208,14.267614117636803,13.446325345214415,57.34225028019662,48.61500903440552,-0.0003237724304199,0.0987826660275459,0,0,0
4642,172549.2187972602,2010-12-15 12:32:32,300.150127157195,7,16,-1.099568486213684,3.8554840087890634,14.267614117636803,13.455492496969931,57.34225028019662,48.65039930964037,-0.0002590179501567,0.0987826660275459,0,0,0
4643,172579.2338226665,2010-12-15 12:33:02,330.16515256349453,7,16,-1.0993878841400146,3.845770835876465,14.267614117636803,13.464659737773792,57.34225028019662,48.68569892209384,-0.0002913951757363,0.0987826660275459,0,0,0
4644,172609.24884195256,2010-12-15 12:33:32,360.18017187462647,7,16,-1.0997490882873535,3.836057662963867,14.267614117636803,13.473827015784693,57.34225028019662,48.72091031251502,-0.0002913951757363,0.0987826660275459,0,0,0
4645,172639.2638318906,2010-12-15 12:34:02,390.1951617926146,7,16,-1.099568486213684,3.826992273330689,14.267614117636803,13.482994249773483,57.34225028019662,48.75603548784421,-0.0002590179501567,0.0987826660275459,0,0,0
4646,172669.27885411898,2010-12-15 12:34:32,420.21018401599366,7,16,-1.099568486213684,3.8177647590637207,14.267614117636803,13.49216151244828,57.34225028019662,48.79107654023876,-0.0002913951757363,0.0987826660275459,0,0,0
4647,172699.29387533487,2010-12-15 12:35:03,450.2252052318655,7,16,-1.099568486213684,3.809022903442383,14.267614117636803,13.501328789866752,57.34225028019662,48.82603566285576,-0.0002266406954731,0.0987826660275459,0,0,0
4648,172729.30902129615,2010-12-15 12:35:33,480.2403512583236,7,16,-1.099568486213684,3.800442934036255,14.267614117636803,13.51049605719074,57.34225028019662,48.860914395840645,-0.0002266406954731,0.0987826660275459,0,0,0
4649,172759.3239015312,2010-12-15 12:36:03,510.2552314282078,7,16,-1.099568486213684,3.792024850845337,14.267614117636803,13.519663315934777,57.34225028019662,48.89571526692564,-0.0001942634553415,0.0987826660275459,0,0,0
4650,172789.3389172835,2010-12-15 12:36:33,540.2702471804838,7,16,-1.099568486213684,3.783930540084839,14.267614117636803,13.52883060001542,57.34225028019662,48.93044004153741,-0.0001618862152099,0.0987826660275459,0,0,0
4651,172819.35394935636,2010-12-15 12:37:03,570.2852792734227,7,16,-1.099568486213684,3.775836229324341,14.267614117636803,13.53799785546678,57.34225028019662,48.96509057707596,-0.0001942634553415,0.0987826660275459,0,0,0
4652,172849.3689987724,2010-12-15 12:37:33,600.3003287847065,7,16,-1.099568486213684,3.7679038047790527,14.267614117636803,13.547165179813623,57.34225028019662,48.99966933027889,-0.0002590179501567,0.0987826660275459,0,0,0
4653,172879.38396102155,2010-12-15 12:38:03,630.3152909436174,7,16,-1.099568486213684,3.7604570388793945,14.267614117636803,13.556332451094429,57.34225028019662,49.03417713439667,-0.0001942634553415,0.0987826660275459,0,0,0
4654,172909.39897115986,2010-12-15 12:38:33,660.3303010568607,7,16,-1.0993878841400146,3.753010272979736,14.267614117636803,13.56549979315226,57.34225028019662,49.06861626520491,-0.0001618862152099,0.0987826660275459,0,0,0
4655,172939.41401420505,2010-12-15 12:39:03,690.3453441070664,7,16,-1.0993878841400146,3.745887517929077,14.267614117636803,13.574667119552227,57.34225028019662,49.10298778327636,-0.0001618862152099,0.0987826660275459,0,0,0
4656,172969.42899979727,2010-12-15 12:39:33,720.3603296942778,7,16,-1.099568486213684,3.738602638244629,14.267614117636803,13.58383439263978,57.34225028019662,49.13729345153048,-0.0001618862152099,0.0987826660275459,0,0,0
4657,172999.44402372488,2010-12-15 12:40:03,750.37535364696,7,16,-1.0993878841400146,3.7318034172058105,14.267614117636803,13.593001645623518,57.34225028019662,49.171535176105614,-0.0001618862152099,0.0987826660275459,0,0,0
4658,173029.4590580985,2010-12-15 12:40:33,780.3903880205743,7,16,-1.099568486213684,3.7248423099517822,14.267614117636803,13.60216891629072,57.34225028019662,49.20571437919367,-0.0002266406954731,0.0987826660275459,0,0,0
4659,173059.47405414173,2010-12-15 12:41:03,810.4053840287175,7,16,-1.0997490882873535,3.718204975128174,14.267614117636803,13.611336247298334,57.34225028019662,49.23983201290764,-0.0001942634553415,0.0987826660275459,0,0,0
4660,173089.48906047054,2010-12-15 12:41:33,840.4203903976434,7,16,-1.099568486213684,3.711729526519776,14.267614117636803,13.620503535917193,57.34225028019662,49.2738887339467,-0.0001618862152099,0.0987826660275459,0,0,0
4661,173119.50407887445,2010-12-15 12:42:03,870.4354087814677,7,16,-1.099568486213684,3.705415964126587,14.267614117636803,13.629670833493668,57.34225028019662,49.30788566181762,-0.0001295089750783,0.0987826660275459,0,0,0
4662,173149.5190880604,2010-12-15 12:42:33,900.4504179824409,7,16,-1.099568486213684,3.6991024017333984,14.267614117636803,13.638838179772828,57.34225028019662,49.34182455953943,-0.0001618862152099,0.0987826660275459,0,0,0
4663,173179.5341166646,2010-12-15 12:43:03,930.4654465666484,7,16,-1.0993878841400146,3.69278883934021,14.267614117636803,13.64800555500034,57.34225028019662,49.37570657998778,-0.0001618862152099,0.0987826660275459,0,0,0
4664,173209.5492429119,2010-12-15 12:43:33,960.4805728389492,7,16,-1.099568486213684,3.6867990493774414,14.267614117636803,13.6571729183541,57.34225028019662,49.40953259941318,-0.0001618862152099,0.0987826660275459,0,0,0
4665,173239.56414394366,2010-12-15 12:44:03,990.49547385571,7,16,-1.099568486213684,3.680809259414673,14.267614117636803,13.666340250045126,57.34225028019662,49.44330378672771,-0.0001618862152099,0.0987826660275459,0,0,0
4666,173269.58195006466,2010-12-15 12:44:33,1020.5132800619232,7,16,-1.099568486213684,3.674981355667114,14.267614117636803,13.675508390126804,57.34225028019662,49.47702393549503,-0.0001618862152099,0.0987826660275459,0,0,0
4667,173299.59418525762,2010-12-15 12:45:03,1050.525515179697,7,16,-1.099568486213684,3.6693155765533447,14.267614117636803,13.684674854076563,57.34225028019662,49.51068395511865,-9.713172767078504e-05,0.0987826660275459,0,0,0
4668,173329.60918583217,2010-12-15 12:45:33,1080.540515754204,7,16,-1.0993878841400146,3.663649559020996,14.267614117636803,13.693842192868892,57.34225028019662,49.54429423179618,-9.713172767078504e-05,0.0987826660275459,0,0,0
4669,173359.62419283763,2010-12-15 12:46:03,1110.5555227346513,7,16,-1.099568486213684,3.6578216552734375,14.267614117636803,13.703009535701206,57.34225028019662,49.57785294160678,-0.0001618862152099,0.0987826660275459,0,0,0
4670,173389.63925976225,2010-12-15 12:46:33,1140.57058968433,7,16,-1.0993878841400146,3.652479410171509,14.267614117636803,13.712176874885776,57.34225028019662,49.61136097640048,-0.0001295089750783,0.0987826660275459,0,0,0
4671,173419.65436136318,2010-12-15 12:47:03,1170.5856912601744,7,16,-1.099568486213684,3.64697527885437,14.267614117636803,13.721344260598164,57.34225028019662,49.644818978475946,-9.713172767078504e-05,0.0987826660275459,0,0,0
4672,173449.66926798387,2010-12-15 12:47:33,1200.6005979009303,7,16,-1.0993878841400146,3.6417949199676514,14.267614117636803,13.730511493661298,57.34225028019662,49.67822673098126,-9.713172767078504e-05,0.0987826660275459,0,0,0
4673,173479.6842557866,2010-12-15 12:48:03,1230.6155856836049,7,16,-1.099568486213684,3.6362907886505127,14.267614117636803,13.7396787535119,57.34225028019662,49.711586856194174,-0.0001295089750783,0.0987826660275459,0,0,0
4674,173509.69926476202,2010-12-15 12:48:33,1260.6305946840794,7,16,-1.099568486213684,3.631434202194214,14.267614117636803,13.748845977845212,57.34225028019662,49.7448995375781,-0.0001618862152099,0.0987826660275459,0,0,0
4675,173539.71430159674,2010-12-15 12:49:03,1290.6456314937557,7,16,-1.099568486213684,3.626253843307495,14.267614117636803,13.758013300127129,57.34225028019662,49.778165795286,-0.0001295089750783,0.0987826660275459,0,0,0
4676,173569.72929862744,2010-12-15 12:49:33,1320.6606285244436,7,16,-1.099568486213684,3.621073484420776,14.267614117636803,13.767180601848343,57.34225028019662,49.8113857443336,-0.0001295089750783,0.0987826660275459,0,0,0
4677,173599.7443131316,2010-12-15 12:50:03,1350.6756430286134,7,16,-1.099568486213684,3.616378784179688,14.267614117636803,13.776347943329515,57.34225028019662,49.844560401715405,-0.0001295089750783,0.0987826660275459,0,0,0
4678,173629.7593359665,2010-12-15 12:50:33,1380.690665863514,7,16,-1.0993878841400146,3.611684083938599,14.267614117636803,13.78551522020577,57.34225028019662,49.87769048354035,-6.47544875391759e-05,0.0987826660275459,0,0,0
4679,173659.77449282492,2010-12-15 12:51:03,1410.705822731952,7,16,-1.099568486213684,3.6068274974823,14.267614117636803,13.794682635394668,57.34225028019662,49.91077770364468,-0.0001618862152099,0.0987826660275459,0,0,0
4680,173689.7895162463,2010-12-15 12:51:33,1440.720846223487,7,16,-1.099568486213684,3.602456569671631,14.267614117636803,13.803849971231012,57.34225028019662,49.94382263124949,-9.713172767078504e-05,0.0987826660275459,0,0,0
4681,173719.8043943009,2010-12-15 12:52:03,1470.7357242229702,7,16,-1.099568486213684,3.597923755645752,14.267614117636803,13.813017213721,57.34225028019662,49.97682636698059,-0.0001295089750783,0.0987826660275459,0,0,0
4682,173749.81939916607,2010-12-15 12:52:33,1500.750729088154,7,16,-1.0993878841400146,3.593876600265503,14.267614117636803,13.822184526955953,57.34225028019662,50.00979074485775,-6.47544875391759e-05,0.0987826660275459,0,0,0
4683,173779.83442629667,2010-12-15 12:53:03,1530.7657562187444,7,16,-1.099568486213684,3.589344024658203,14.267614117636803,13.831351873312803,57.34225028019662,50.04271614385028,-0.0001295089750783,0.0987826660275459,0,0,0
4684,173809.84965359035,2010-12-15 12:53:33,1560.7809835826074,7,16,-1.099568486213684,3.585296869277954,14.267614117636803,13.840519304678194,57.34225028019662,50.07560327327516,-9.713172767078504e-05,0.0987826660275459,0,0,0
4685,173839.8645157905,2010-12-15 12:54:03,1590.7958457777625,7,16,-1.0993878841400146,3.581249713897705,14.267614117636803,13.849686532750315,57.34225028019662,50.10845197138275,-9.713172767078504e-05,0.0987826660275459,0,0,0
4686,173869.8794916836,2010-12-15 12:54:33,1620.8108216006756,7,16,-1.099568486213684,3.577202558517456,14.267614117636803,13.85885385501088,57.34225028019662,50.1412644101701,-0.0001295089750783,0.0987826660275459,0,0,0
4687,173899.89451420275,2010-12-15 12:55:03,1650.8258441248029,7,16,-1.099568486213684,3.573479175567627,14.267614117636803,13.86802119306376,57.34225028019662,50.17404102174899,-6.47544875391759e-05,0.0987826660275459,0,0,0
4688,173929.90947899822,2010-12-15 12:55:33,1680.8408089152622,7,16,-1.099568486213684,3.569755792617798,14.267614117636803,13.877188479370284,57.34225028019662,50.20678312799094,-6.47544875391759e-05,0.0987826660275459,0,0,0
4689,173959.92447623442,2010-12-15 12:56:03,1710.8558061514616,7,16,-1.0993878841400146,3.565870523452759,14.267614117636803,13.886355748053814,57.34225028019662,50.23949106932206,-0.0001295089750783,0.0987826660275459,0,0,0
4690,173989.93966992447,2010-12-15 12:56:33,1740.8709998365164,7,16,-1.0993878841400146,3.5624709129333496,14.267614117636803,13.895523077068402,57.34225028019662,50.27216540515563,-9.713172767078504e-05,0.0987826660275459,0,0,0
4691,174019.95470962636,2010-12-15 12:57:03,1770.8860395233523,7,16,-1.099568486213684,3.5589094161987305,14.267614117636803,13.904690352934908,57.34225028019662,50.30480739886932,-6.47544875391759e-05,0.0987826660275459,0,0,0
4692,174049.9695733503,2010-12-15 12:57:33,1800.900903272374,7,16,-1.099568486213684,3.5553479194641118,14.267614117636803,13.913857643212628,57.34225028019662,50.33741662309173,-6.47544875391759e-05,0.0987826660275459,0,0,0
4693,174079.98461059606,2010-12-15 12:58:03,1830.9159405131231,7,16,-1.099568486213684,3.551948308944702,14.267614117636803,13.92302496781346,57.34225028019662,50.3699942940944,-9.713172767078504e-05,0.0987826660275459,0,0,0
4694,174109.9996012459,2010-12-15 12:58:33,1860.9309311478955,7,16,-1.099568486213684,3.548710584640503,14.267614117636803,13.932192211558784,57.34225028019662,50.40254070153284,-9.713172767078504e-05,0.0987826660275459,0,0,0
4695,174140.01463547413,2010-12-15 12:59:03,1890.9459654012096,7,16,-1.0993878841400146,3.5453109741210938,14.267614117636803,13.941359532802156,57.34225028019662,50.4350567005988,-6.47544875391759e-05,0.0987826660275459,0,0,0
4696,174170.02964552722,2010-12-15 12:59:33,1920.960975449291,7,16,-1.0993878841400146,3.541911363601685,14.267614117636803,13.950526867359985,57.34225028019662,50.467541742381904,-9.713172767078504e-05,0.0987826660275459,0,0,0
4697,174200.0446317059,2010-12-15 13:00:03,1950.975961627974,7,16,-1.099568486213684,3.5385117530822754,14.267614117636803,13.959694237049492,57.34225028019662,50.49999594011993,-9.713172767078504e-05,0.0987826660275459,0,0,0
4698,174230.0598829843,2010-12-15 13:00:33,1980.991212961485,7,16,-1.0997490882873535,3.534950256347656,14.267614117636803,13.968861696595182,57.34225028019662,50.53241917593098,-9.713172767078504e-05,0.0987826660275459,0,0,0
4699,174260.07470618738,2010-12-15 13:01:03,2011.0060361094725,7,16,-1.0997490882873535,3.531550645828247,14.267614117636803,13.978028956704192,57.34225028019662,50.56481044810867,-0.0001295089750783,0.0987826660275459,0,0,0
4700,174290.0897500346,2010-12-15 13:01:33,2041.021079961674,7,16,-1.099568486213684,3.528312921524048,14.267614117636803,13.987196325502174,57.34225028019662,50.59717132062205,-9.713172767078504e-05,0.0987826660275459,0,0,0
4701,174320.1047468748,2010-12-15 13:02:03,2071.0360767968755,7,16,-1.0993878841400146,3.5247514247894287,14.267614117636803,13.996363693982232,57.34225028019662,50.62950110897901,-0.0001295089750783,0.0987826660275459,0,0,0
4702,174350.11975936394,2010-12-15 13:02:33,2101.051089286031,7,16,-1.099568486213684,3.521513700485229,14.267614117636803,14.005531068749752,57.34225028019662,50.66179922542028,-6.47544875391759e-05,0.0987826660275459,0,0,0
4703,174380.13493737,2010-12-15 13:03:03,2131.066267362244,7,16,-1.0993878841400146,3.5179522037506104,14.267614117636803,14.014698425358104,57.34225028019662,50.69406503493174,-6.47544875391759e-05,0.0987826660275459,0,0,0
4704,174410.1497951642,2010-12-15 13:03:33,2161.081125086273,7,16,-1.099568486213684,3.5140669345855717,14.267614117636803,14.023865791464084,57.34225028019662,50.72629711280928,-6.47544875391759e-05,0.0987826660275459,0,0,0
4705,174440.1648106358,2010-12-15 13:04:03,2191.0961405628623,7,16,-1.099568486213684,3.5101819038391118,14.267614117636803,14.03303318827816,57.34225028019662,50.758494887219776,-0.0001295089750783,0.0987826660275459,0,0,0
4706,174470.1798312251,2010-12-15 13:04:33,2221.111161132125,7,16,-1.0993878841400146,3.5062966346740723,14.267614117636803,14.042200593721724,57.34225028019662,50.79065733631253,-0.0001295089750783,0.0987826660275459,0,0,0
4707,174500.19488505714,2010-12-15 13:05:03,2251.1262149791983,7,16,-1.099568486213684,3.502411365509033,14.267614117636803,14.05136799668527,57.34225028019662,50.82278351060104,-0.0001295089750783,0.0987826660275459,0,0,0
4708,174530.20987523577,2010-12-15 13:05:33,2281.141205162847,7,16,-1.0993878841400146,3.498364210128784,14.267614117636803,14.060535337458708,57.34225028019662,50.85487245641865,-9.713172767078504e-05,0.0987826660275459,0,0,0
4709,174560.22488616104,2010-12-15 13:06:03,2311.156216088112,7,16,-1.099568486213684,3.4938313961029053,14.267614117636803,14.069702701026356,57.34225028019662,50.88692240436662,-0.0001295089750783,0.0987826660275459,0,0,0
4710,174590.23990121155,2010-12-15 13:06:33,2341.1712311336287,7,16,-1.099568486213684,3.4892985820770264,14.267614117636803,14.078870103682917,57.34225028019662,50.91893104934493,-0.0001295089750783,0.0987826660275459,0,0,0
4711,174620.25508832527,2010-12-15 13:07:04,2371.186418247331,7,16,-1.099568486213684,3.484118223190308,14.267614117636803,14.088037562591976,57.34225028019662,50.950895134622805,-0.0001295089750783,0.0987826660275459,0,0,0
4712,174650.27007094008,2010-12-15 13:07:34,2401.2014009172826,7,16,-1.0997490882873535,3.478614091873169,14.267614117636803,14.097204771392787,57.34225028019662,50.98281014153847,-0.0001618862152099,0.0987826660275459,0,0,0
4713,174680.2849582728,2010-12-15 13:08:04,2431.2162881948543,7,16,-1.0993878841400146,3.4727861881256104,14.267614117636803,14.106372004810474,57.34225028019662,51.01467350514262,-0.0001942634553415,0.0987826660275459,0,0,0
4714,174710.3001659777,2010-12-15 13:08:34,2461.231495995034,7,16,-1.0997490882873535,3.466148853302002,14.267614117636803,14.115539349616265,57.34225028019662,51.04648098531035,-0.0002266406954731,0.0987826660275459,0,0,0
4715,174740.3150052709,2010-12-15 13:09:04,2491.246335177924,7,16,-1.0993878841400146,3.4591877460479736,14.267614117636803,14.124706582574452,57.34225028019662,51.07822524141325,-0.0001618862152099,0.0987826660275459,0,0,0
4716,174770.33008118288,2010-12-15 13:09:34,2521.261411180129,7,16,-1.099568486213684,3.450769662857056,14.267614117636803,14.133873953354913,57.34225028019662,51.10989911459284,-0.0002266406954731,0.0987826660275459,0,0,0
4717,174800.34502919155,2010-12-15 13:10:04,2551.2763591136404,7,16,-1.0993878841400146,3.441218376159668,14.267614117636803,14.143041289660076,57.34225028019662,51.14149059484667,-0.0002590179501567,0.0987826660275459,0,0,0
4718,174830.36004133488,2010-12-15 13:10:34,2581.2913712569352,7,16,-1.0997490882873535,3.42956280708313,14.267614117636803,14.152208608225308,57.34225028019662,51.1729852504748,-0.0003237724304199,0.0987826660275459,0,0,0
4719,174860.37509542253,2010-12-15 13:11:04,2611.3064253446078,7,16,-1.0997490882873535,3.415964365005493,14.267614117636803,14.161376021963177,57.34225028019662,51.20436576903166,-0.0004209041653666,0.0987826660275459,0,0,0
4720,174890.3900887891,2010-12-15 13:11:34,2641.32141871619,7,16,-1.0993878841400146,3.399613857269287,14.267614117636803,14.170543401506505,57.34225028019662,51.23560833960505,-0.0004209041653666,0.0987826660275459,0,0,0
4721,174920.40512795464,2010-12-15 13:12:04,2671.3364578817286,7,16,-1.0992072820663452,3.379216194152832,14.267614117636803,14.17971076143444,57.34225028019662,51.266682143479095,-0.0005504131549969,0.0987826660275459,0,0,0
4722,174950.42015649375,2010-12-15 13:12:34,2701.3514864007743,7,16,-1.0993878841400146,3.3531525135040283,14.267614117636803,14.188878085136492,57.34225028019662,51.29754437604393,-0.0007122993702068,0.0987826660275459,0,0,0
4723,174980.43515110342,2010-12-15 13:13:04,2731.366481025475,7,16,-1.099568486213684,3.3193185329437256,14.267614117636803,14.198045373109265,57.34225028019662,51.32813492566185,-0.0010036944877356,0.0987826660275459,0,0,0
4724,175010.45018938676,2010-12-15 13:13:34,2761.3815193789933,7,16,-1.0993878841400146,3.2744760513305664,14.267614117636803,14.207212690860256,57.34225028019662,51.35836842963979,-0.0013274669181555,0.0987826660275459,0,0,0
4725,175040.46528498273,2010-12-15 13:14:04,2791.3966149047824,7,16,-1.099568486213684,3.2136070728302,14.267614117636803,14.216380016320343,57.34225028019662,51.38812214884549,-0.0018778800731524,0.0987826660275459,0,0,0
4726,175070.48017767875,2010-12-15 13:14:34,2821.411507590813,7,16,-1.099568486213684,3.12877893447876,14.267614117636803,14.22554732854231,57.34225028019662,51.417217137142856,-0.0026549338363111,0.0987826660275459,0,0,0
4727,175100.4953447877,2010-12-15 13:15:04,2851.426674694721,7,16,-1.0993878841400146,3.0020225048065186,14.267614117636803,14.234714739133477,57.34225028019662,51.44536361780171,-0.0041119097732007,0.0987826660275459,0,0,0
4728,175128.7915050893,2010-12-15 13:15:32,2879.722835011355,7,16,-1.099568486213684,2.801931619644165,14.267614117636803,14.243357111637104,57.34225028019662,51.47051730322476,-0.0069287298247218,0.0987826660275459,0,0,0
4729,175139.90066677585,2010-12-15 13:15:43,2890.8319966979366,7,16,-1.099568486213684,2.699781894683838,14.267614117636803,14.246750136305128,57.34225028019662,51.47985319674222,-0.0074790953658521,0.0987826660275459,0,0,0
4730,175199.91947712214,2010-12-15 13:16:43,60.01440266278007,8,16,0.0,3.4392757415771484,14.267614117636803,14.246750136305128,57.34225028019662,51.47985319674222,0.0012627125252038,0.0987826660275459,0,0,0
4731,175200.11253014364,2010-12-15 13:16:44,0.18740830836736,9,16,-1.9243103452026844e-05,3.4397614002227783,14.267614117636803,14.246750137306885,57.34225028019662,51.47985320018802,0.0,0.0961798131465911,0,0,0
4732,175204.94054200046,2010-12-15 13:16:48,5.015420165180276,9,16,0.0007031940040178,3.4480175971984863,14.267615189580894,14.246750137474027,57.34225397248222,51.47985320076296,0.0011655807029455,0.0961798131465911,0,0,0
