Data_Point,Test_Time(s),Date_Time,Step_Time(s),Step_Index,Cycle_Index,Current(A),Voltage(V),Charge_Capacity(Ah),Discharge_Capacity(Ah),Charge_Energy(Wh),Discharge_Energy(Wh),dV/dt(V/s),Internal_Resistance(Ohm),Is_FC_Data,AC_Impedance(Ohm),ACI_Phase_Angle(Deg)
3631,131443.23564770646,2010-11-30 23:04:36,30.01505178694675,1,13,0.0,3.3936240673065186,10.688700942752169,11.355204222515804,42.88562332886183,41.18373912394356,0.0008094310760498,0.0939245000481605,0,0,0
3632,131473.25071786912,2010-11-30 23:05:06,60.03012201478294,1,13,0.0,3.417259454727173,10.688700942752169,11.355204222515804,42.88562332886183,41.18373912394356,0.0006151676061563,0.0939245000481605,0,0,0
3633,131503.2658442617,2010-11-30 23:05:36,90.04524834222083,1,13,0.0,3.435066699981689,10.688700942752169,11.355204222515804,42.88562332886183,41.18373912394356,0.0004209041653666,0.0939245000481605,0,0,0
3634,131533.23401687163,2010-11-30 23:06:06,120.0134209521386,1,13,0.0,3.449474573135376,10.688700942752169,11.355204222515804,42.88562332886183,41.18373912394356,0.0003237724304199,0.0939245000481605,0,0,0
3635,131563.24675565067,2010-11-30 23:06:37,30.015037902395576,2,13,0.5499359965324402,3.609417676925659,10.693287339285282,11.355204222515804,42.90201597894677,41.18373912394356,0.0015541076427325,0.0939245000481605,0,0,0
3636,131593.26196923025,2010-11-30 23:07:07,60.030251552131645,2,13,0.5501165986061096,3.656364679336548,10.697873768213888,11.355204222515804,42.91868475301133,41.18373912394356,0.0010360718006268,0.0939245000481605,0,0,0
3637,131623.27685734487,2010-11-30 23:07:37,90.04513960162404,2,13,0.5501165986061096,3.690360546112061,10.702460065640503,11.355204222515804,42.935535131453,41.18373912394356,0.0008094310760498,0.0939245000481605,0,0,0
3638,131653.2919063098,2010-11-30 23:08:07,120.06018857156076,2,13,0.5499359965324402,3.716747999191284,10.707046430772834,11.355204222515804,42.95252321906209,41.18373912394356,0.0006151676061563,0.0939245000481605,0,0,0
3639,131683.30696821192,2010-11-30 23:08:37,150.0752504636538,2,13,0.5501165986061096,3.738602638244629,10.711632773356689,11.355204222515804,42.96962134002696,41.18373912394356,0.0005504131549969,0.0939245000481605,0,0,0
3640,131713.32223289867,2010-11-30 23:09:07,180.0905151503935,2,13,0.5499359965324402,3.755924224853516,10.716219135192024,11.355204222515804,42.98680913264544,41.18373912394356,0.0003885269106831,0.0939245000481605,0,0,0
3641,131743.3370629037,2010-11-30 23:09:37,210.10534516045692,2,13,0.5501165986061096,3.7683894634246826,10.720805419507755,11.355204222515804,43.00406552815684,41.18373912394356,0.0002590179501567,0.0939245000481605,0,0,0
3642,131773.35210049534,2010-11-30 23:10:07,240.1203827470667,2,13,0.5497553944587708,3.7761600017547607,10.725391738324902,11.355204222515804,43.02136792368774,41.18373912394356,0.0001618862152099,0.0939245000481605,0,0,0
3643,131803.3689927372,2010-11-30 23:10:37,270.1372750791392,2,13,0.5501165986061096,3.7815022468566895,10.729978370983185,11.355204222515804,43.03870056641184,41.18373912394356,0.0001295089750783,0.0939245000481605,0,0,0
3644,131833.38221347763,2010-11-30 23:11:07,300.1504957393976,2,13,0.5501165986061096,3.785711288452149,10.734564406600551,11.355204222515804,43.05605268753817,41.18373912394356,9.713172767078504e-05,0.0939245000481605,0,0,0
3645,131863.39726637735,2010-11-30 23:11:37,330.165548634101,2,13,0.5499359965324402,3.789920330047608,10.73915068706492,11.355204222515804,43.07342502484428,41.18373912394356,9.713172767078504e-05,0.0939245000481605,0,0,0
3646,131893.41234851483,2010-11-30 23:12:07,360.1806307765864,2,13,0.5501165986061096,3.7938055992126474,10.743737019168222,11.355204222515804,43.09081579450886,41.18373912394356,9.713172767078504e-05,0.0939245000481605,0,0,0
3647,131923.42737348506,2010-11-30 23:12:37,390.1956557468007,2,13,0.5501165986061096,3.797528982162476,10.748323372821885,11.355204222515804,43.10822421173174,41.18373912394356,6.47544875391759e-05,0.0939245000481605,0,0,0
3648,131953.4424415926,2010-11-30 23:13:07,420.2107238543607,2,13,0.5501165986061096,3.8012523651123047,10.752909767545734,11.355204222515804,43.12564983291146,41.18373912394356,9.713172767078504e-05,0.0939245000481605,0,0,0
3649,131983.45746653274,2010-11-30 23:13:37,450.2257487844752,2,13,0.5501165986061096,3.804651975631714,10.757496105162376,11.355204222515804,43.14309174775559,41.18373912394356,6.47544875391759e-05,0.0939245000481605,0,0,0
3650,132013.47254145227,2010-11-30 23:14:07,480.2408237390737,2,13,0.550297200679779,3.808375358581543,10.762082508838576,11.355204222515804,43.1605500399897,41.18373912394356,9.713172767078504e-05,0.0939245000481605,0,0,0
3651,132043.48756624202,2010-11-30 23:14:37,510.2558484987642,2,13,0.5501165986061096,3.811774969100952,10.766668949795442,11.355204222515804,43.17802420323135,41.18373912394356,9.713172767078504e-05,0.0939245000481605,0,0,0
3652,132073.50264337202,2010-11-30 23:15:07,540.2709256488262,2,13,0.5501165986061096,3.815174579620361,10.771255305987424,11.355204222515804,43.19551364475812,41.18373912394356,0.0001295089750783,0.0939245000481605,0,0,0
3653,132103.5178268517,2010-11-30 23:15:37,570.2861091936472,2,13,0.5501165986061096,3.818412303924561,10.775841693550817,11.355204222515804,43.21301861322014,41.18373912394356,6.47544875391759e-05,0.0939245000481605,0,0,0
3654,132133.53279444412,2010-11-30 23:16:07,600.3010767910918,2,13,0.5499359965324402,3.82165002822876,10.780428069135867,11.355204222515804,43.23053869440663,41.18373912394356,9.713172767078504e-05,0.0939245000481605,0,0,0
3655,132163.54789397487,2010-11-30 23:16:37,630.3161763017971,2,13,0.5499359965324402,3.824887752532959,10.785014395263207,11.355204222515804,43.248073673318416,41.18373912394356,9.713172767078504e-05,0.0939245000481605,0,0,0
3656,132193.56283861518,2010-11-30 23:17:07,660.331120881964,2,13,0.5501165986061096,3.828449249267578,10.789600753445471,11.355204222515804,43.26562407032648,41.18373912394356,0.0001295089750783,0.0939245000481605,0,0,0
3657,132223.57788936456,2010-11-30 23:17:37,690.3461716463661,2,13,0.5499359965324402,3.8318488597869873,10.79418711620362,11.355204222515804,43.283189960204126,41.18373912394356,9.713172767078504e-05,0.0939245000481605,0,0,0
3658,132253.59291300146,2010-11-30 23:18:07,720.3611952531878,2,13,0.5501165986061096,3.835086345672608,10.798773484773514,11.355204222515804,43.3007715537144,41.18373912394356,6.47544875391759e-05,0.0939245000481605,0,0,0
3659,132283.6080890877,2010-11-30 23:18:37,750.3763713394485,2,13,0.5501165986061096,3.838809728622437,10.803359850024645,11.355204222515804,43.31836921927335,41.18373912394356,0.0001295089750783,0.0939245000481605,0,0,0
3660,132313.62303294608,2010-11-30 23:19:07,780.3913152028317,2,13,0.5499359965324402,3.842371225357056,10.807946159421816,11.355204222515804,43.33598289985639,41.18373912394356,0.0001295089750783,0.0939245000481605,0,0,0
3661,132343.63818231085,2010-11-30 23:19:37,810.4064645926594,2,13,0.5501165986061096,3.845932722091675,10.812532580058283,11.355204222515804,43.35361332858548,41.18373912394356,0.0001295089750783,0.0939245000481605,0,0,0
3662,132373.65311053031,2010-11-30 23:20:07,840.4213927820384,2,13,0.5501165986061096,3.849494218826294,10.817118896879068,11.355204222515804,43.37125979091716,41.18373912394356,9.713172767078504e-05,0.0939245000481605,0,0,0
3663,132403.6700021155,2010-11-30 23:20:37,870.4382844675017,2,13,0.5499359965324402,3.852893829345703,10.821705588712335,11.355204222515804,43.3889241180446,41.18373912394356,6.47544875391759e-05,0.0939245000481605,0,0,0
3664,132433.6832534471,2010-11-30 23:21:07,900.4515357038476,2,13,0.5501165986061096,3.856455326080322,10.82629166112408,11.355204222515804,43.406602234223065,41.18373912394356,9.713172767078504e-05,0.0939245000481605,0,0,0
3665,132463.6982643824,2010-11-30 23:21:37,930.4665466391366,2,13,0.550297200679779,3.860016822814941,10.830878017607436,11.355204222515804,43.42429757899917,41.18373912394356,9.713172767078504e-05,0.0939245000481605,0,0,0
3666,132493.71331360296,2010-11-30 23:22:07,960.4815958546844,2,13,0.5499359965324402,3.863416433334351,10.835464350158778,11.355204222515804,43.44200864965583,41.18373912394356,9.713172767078504e-05,0.0939245000481605,0,0,0
3667,132523.72836726956,2010-11-30 23:22:37,990.4966495263212,2,13,0.550297200679779,3.86681604385376,10.840050710550758,11.355204222515804,43.45973527630452,41.18373912394356,0.0001295089750783,0.0939245000481605,0,0,0
3668,132553.74367333428,2010-11-30 23:23:07,1020.5119556662156,2,13,0.5501165986061096,3.870053768157959,10.844637123088976,11.355204222515804,43.4774772474959,41.18373912394356,0.0001295089750783,0.0939245000481605,0,0,0
3669,132583.75846077842,2010-11-30 23:23:37,1050.5267430301558,2,13,0.550297200679779,3.873129606246948,10.849223460335844,11.355204222515804,43.49523365363388,41.18373912394356,6.47544875391759e-05,0.0939245000481605,0,0,0
3670,132613.77352484592,2010-11-30 23:24:07,1080.5418070976625,2,13,0.5499359965324402,3.876043558120728,10.853809948628232,11.355204222515804,43.51300478305651,41.18373912394356,6.47544875391759e-05,0.0939245000481605,0,0,0
3671,132643.78860166518,2010-11-30 23:24:37,1110.5568840071253,2,13,0.5501165986061096,3.879119396209717,10.858396265036555,11.355204222515804,43.530788867775584,41.18373912394356,6.47544875391759e-05,0.0939245000481605,0,0,0
3672,132673.804127191,2010-11-30 23:25:07,1140.5724095229284,2,13,0.5501165986061096,3.881709575653076,10.862982721083348,11.355204222515804,43.54858653129396,41.18373912394356,3.237724376958795e-05,0.0939245000481605,0,0,0
3673,132703.8186651493,2010-11-30 23:25:37,1170.5869474762196,2,13,0.5501165986061096,3.8844616413116455,10.867569017923858,11.355204222515804,43.566395973367634,41.18373912394356,6.47544875391759e-05,0.0939245000481605,0,0,0
3674,132733.8337179939,2010-11-30 23:26:07,1200.6020002456112,2,13,0.5501165986061096,3.886889934539795,10.872155412309915,11.355204222515804,43.58421743602437,41.18373912394356,6.47544875391759e-05,0.0939245000481605,0,0,0
3675,132763.84876154532,2010-11-30 23:26:37,1230.6170437970643,2,13,0.5499359965324402,3.8891563415527344,10.876741792863127,11.355204222515804,43.60204983556784,41.18373912394356,3.237724376958795e-05,0.0939245000481605,0,0,0
3676,132793.86382409406,2010-11-30 23:27:07,1260.6321063508035,2,13,0.5501165986061096,3.891422748565674,10.881328247578184,11.355204222515804,43.6198927867834,41.18373912394356,6.47544875391759e-05,0.0939245000481605,0,0,0
3677,132823.87885591632,2010-11-30 23:27:37,1290.6471381730692,2,13,0.5501165986061096,3.893365383148194,10.885914663292644,11.355204222515804,43.63774519968064,41.18373912394356,3.237724376958795e-05,0.0939245000481605,0,0,0
3678,132853.89394063523,2010-11-30 23:28:07,1320.6622229019906,2,13,0.5501165986061096,3.894984245300293,10.890501085483436,11.355204222515804,43.655606452323966,41.18373912394356,3.237724376958795e-05,0.0939245000481605,0,0,0
3679,132883.90895742006,2010-11-30 23:28:37,1350.6772396717986,2,13,0.5499359965324402,3.896926879882813,10.895087503413407,11.355204222515804,43.67347593296521,41.18373912394356,3.237724376958795e-05,0.0939245000481605,0,0,0
3680,132913.92403471548,2010-11-30 23:29:07,1380.6923169672225,2,13,0.5501165986061096,3.898707628250122,10.89967384005578,11.355204222515804,43.691353071391305,41.18373912394356,6.47544875391759e-05,0.0939245000481605,0,0,0
3681,132943.94127556984,2010-11-30 23:29:37,1410.7095579218285,2,13,0.5501165986061096,3.9003264904022217,10.904260563092356,11.355204222515804,43.70923940769516,41.18373912394356,3.237724376958795e-05,0.0939245000481605,0,0,0
3682,132973.95406238048,2010-11-30 23:30:07,1440.7223446322196,2,13,0.5501165986061096,3.901945352554321,10.908846706782423,11.355204222515804,43.727130832428365,41.18373912394356,6.47544875391759e-05,0.0939245000481605,0,0,0
3683,133003.9708313205,2010-11-30 23:30:37,1470.7391136674726,2,13,0.550297200679779,3.903564214706421,10.913434171020388,11.355204222515804,43.74503463498188,41.18373912394356,0.0,0.0939245000481605,0,0,0
3684,133033.985838727,2010-11-30 23:31:07,1500.75412111408,2,13,0.550297200679779,3.905183076858521,10.918021216906942,11.355204222515804,43.76294383061956,41.18373912394356,6.47544875391759e-05,0.0939245000481605,0,0,0
3685,133063.99926266813,2010-11-30 23:31:37,1530.7675449348956,2,13,0.5499359965324402,3.9064781665802,10.922608147488692,11.355204222515804,43.78085931075389,41.18373912394356,3.237724376958795e-05,0.0939245000481605,0,0,0
3686,133094.01637150897,2010-11-30 23:32:07,1560.7846538759916,2,13,0.5501165986061096,3.90793514251709,10.927195606217058,11.355204222515804,43.79878365187854,41.18373912394356,3.237724376958795e-05,0.0939245000481605,0,0,0
3687,133124.02936232227,2010-11-30 23:32:37,1590.79764457901,2,13,0.5501165986061096,3.9092302322387695,10.931782491434795,11.355204222515804,43.81671247202509,41.18373912394356,3.237724376958795e-05,0.0939245000481605,0,0,0
3688,133154.04455204244,2010-11-30 23:33:07,1620.812834294186,2,13,0.550297200679779,3.910849094390869,10.93636971510822,11.355204222515804,43.834649271770125,41.18373912394356,3.237724376958795e-05,0.0939245000481605,0,0,0
3689,133184.05943320983,2010-11-30 23:33:37,1650.8277154615523,2,13,0.5501165986061096,3.912306070327759,10.940956220225868,11.355204222515804,43.852589836473776,41.18373912394356,3.237724376958795e-05,0.0939245000481605,0,0,0
3690,133214.07449841517,2010-11-30 23:34:07,1680.8427806668903,2,13,0.5501165986061096,3.913762807846069,10.945542743811316,11.355204222515804,43.87053717611587,41.18373912394356,3.23295607813634e-05,0.0939245000481605,0,0,0
3691,133244.0895294204,2010-11-30 23:34:37,1710.857811677135,2,13,0.5501165986061096,3.915219783782959,10.950129247324728,11.355204222515804,43.88849111198715,41.18373912394356,6.47544875391759e-05,0.0939245000481605,0,0,0
3692,133274.10461491122,2010-11-30 23:35:07,1740.8728971729652,2,13,0.5501165986061096,3.9166767597198486,10.954715824857772,11.355204222515804,43.90645187903747,41.18373912394356,3.237724376958795e-05,0.0939245000481605,0,0,0
3693,133304.1196240069,2010-11-30 23:35:37,1770.8879062636638,2,13,0.5501165986061096,3.9181337356567374,10.959302280959584,11.355204222515804,43.9244189193498,41.18373912394356,6.47544875391759e-05,0.0939245000481605,0,0,0
3694,133334.13467570365,2010-11-30 23:36:07,1800.9029579553735,2,13,0.5501165986061096,3.919590711593628,10.963888797597916,11.355204222515804,43.94239289096895,41.18373912394356,3.237724376958795e-05,0.0939245000481605,0,0,0
3695,133364.1497395155,2010-11-30 23:36:37,1830.9180217722565,2,13,0.550297200679779,3.921209573745728,10.968475357758852,11.355204222515804,43.96037383539888,41.18373912394356,6.47544875391759e-05,0.0939245000481605,0,0,0
3696,133394.16479032,2010-11-30 23:37:07,1860.9330725817708,2,13,0.550297200679779,3.9225046634674072,10.97306184631784,11.355204222515804,43.978361210678834,41.18373912394356,3.237724376958795e-05,0.0939245000481605,0,0,0
3697,133424.1798265332,2010-11-30 23:37:37,1890.948108784938,2,13,0.5501165986061096,3.924123525619507,10.977648449897313,11.355204222515804,43.99635589798725,41.18373912394356,6.47544875391759e-05,0.0939245000481605,0,0,0
3698,133454.19487885648,2010-11-30 23:38:07,1920.963161113232,2,13,0.5499359965324402,3.9254186153411865,10.982235030593811,11.355204222515804,44.01435736177571,41.18373912394356,0.0,0.0939245000481605,0,0,0
3699,133484.2099456608,2010-11-30 23:38:38,1950.978227922561,2,13,0.5501165986061096,3.927037477493286,10.986821652463922,11.355204222515804,44.03236572820517,41.18373912394356,6.47544875391759e-05,0.0939245000481605,0,0,0
3700,133514.22512620315,2010-11-30 23:39:08,1980.993408535085,2,13,0.5501165986061096,3.928494453430176,10.99140822600916,11.355204222515804,44.05038080401451,41.18373912394356,6.47544875391759e-05,0.0939245000481605,0,0,0
3701,133544.24002394176,2010-11-30 23:39:38,2011.0083062085264,2,13,0.5499359965324402,3.9299514293670654,10.995994318760864,11.355204222515804,44.068400854292136,41.18373912394356,3.237724376958795e-05,0.0939245000481605,0,0,0
3702,133574.2551970857,2010-11-30 23:40:08,2041.023479432665,2,13,0.5499359965324402,3.931246519088745,11.000579995611067,11.355204222515804,44.08642611751159,41.18373912394356,-3.237724376958795e-05,0.0939245000481605,0,0,0
3703,133604.2719149787,2010-11-30 23:40:38,2071.040197370765,2,13,0.5499359965324402,3.933027267456055,11.005165986046308,11.355204222515804,44.10445959282935,41.18373912394356,0.0,0.0939245000481605,0,0,0
3704,133634.2853807539,2010-11-30 23:41:08,2101.0536630958586,2,13,0.5501165986061096,3.9346461296081534,11.009751491370086,11.355204222515804,44.12249816436395,41.18373912394356,3.237724376958795e-05,0.0939245000481605,0,0,0
3705,133664.30024367585,2010-11-30 23:41:38,2131.0685259275965,2,13,0.550297200679779,3.936264991760254,11.014337667244764,11.355204222515804,44.140546557096776,41.18373912394356,3.237724376958795e-05,0.0939245000481605,0,0,0
3706,133694.31530214445,2010-11-30 23:42:08,2161.083584411208,2,13,0.5501165986061096,3.937721967697144,11.0189242391283,11.355204222515804,44.158603467697965,41.18373912394356,3.237724376958795e-05,0.0939245000481605,0,0,0
3707,133724.3303355406,2010-11-30 23:42:38,2191.098617797365,2,13,0.550297200679779,3.939340829849243,11.02351086447434,11.355204222515804,44.176667837001766,41.18373912394356,6.47544875391759e-05,0.0939245000481605,0,0,0
3708,133754.34539849035,2010-11-30 23:43:08,2221.11368076714,2,13,0.5501165986061096,3.940797805786133,11.028097481144002,11.355204222515804,44.19473931095735,41.18373912394356,3.237724376958795e-05,0.0939245000481605,0,0,0
3709,133784.36045439253,2010-11-30 23:43:38,2251.128736649277,2,13,0.5501165986061096,3.942416667938232,11.032684145706233,11.355204222515804,44.21281812219183,41.18373912394356,3.237724376958795e-05,0.0939245000481605,0,0,0
3710,133814.37548286145,2010-11-30 23:44:08,2281.1437651232104,2,13,0.5501165986061096,3.943873643875122,11.037270728310457,11.355204222515804,44.23090384193435,41.18373912394356,0.0,0.0939245000481605,0,0,0
3711,133844.39064713832,2010-11-30 23:44:38,2311.158929400084,2,13,0.5501165986061096,3.945654392242432,11.041857301688344,11.355204222515804,44.24899681485874,41.18373912394356,6.47544875391759e-05,0.0939245000481605,0,0,0
3712,133874.40557961338,2010-11-30 23:45:08,2341.173861865103,2,13,0.550297200679779,3.9472732543945312,11.046443894716054,11.355204222515804,44.26709717380514,41.18373912394356,9.713172767078504e-05,0.0939245000481605,0,0,0
3713,133904.42064054808,2010-11-30 23:45:38,2371.188922804826,2,13,0.5499359965324402,3.948568344116211,11.05103043945138,11.355204222515804,44.28520469404713,41.18373912394356,0.0,0.0939245000481605,0,0,0
3714,133934.43566402458,2010-11-30 23:46:08,2401.203946276311,2,13,0.5501165986061096,3.9505109786987305,11.055616955755498,11.355204222515804,44.30331948130805,41.18373912394356,6.47544875391759e-05,0.0939245000481605,0,0,0
3715,133964.45071582656,2010-11-30 23:46:38,2431.218998078295,2,13,0.5499359965324402,3.95196795463562,11.06020344621864,11.355204222515804,44.32144157812763,41.18373912394356,6.47544875391759e-05,0.0939245000481605,0,0,0
3716,133994.4658041795,2010-11-30 23:47:08,2461.2340864312346,2,13,0.5501165986061096,3.95358681678772,11.06478993219468,11.355204222515804,44.33957109482185,41.18373912394356,3.237724376958795e-05,0.0939245000481605,0,0,0
3717,134024.48082065358,2010-11-30 23:47:38,2491.2491029053067,2,13,0.550297200679779,3.955367565155029,11.069376470317131,11.355204222515804,44.35770834339508,41.18373912394356,6.47544875391759e-05,0.0939245000481605,0,0,0
3718,134054.49587018992,2010-11-30 23:48:08,2521.264152441653,2,13,0.5499359965324402,3.956824541091919,11.07396299571691,11.355204222515804,44.37585312207795,41.18373912394356,6.47544875391759e-05,0.0939245000481605,0,0,0
3719,134084.51092687406,2010-11-30 23:48:38,2551.2792091307983,2,13,0.550297200679779,3.958605289459229,11.07854953178078,11.355204222515804,44.3940053865984,41.18373912394356,6.47544875391759e-05,0.0939245000481605,0,0,0
3720,134114.5260079138,2010-11-30 23:49:08,2581.294290190589,2,13,0.5501165986061096,3.960224151611328,11.083136076637953,11.355204222515804,44.41216537847694,41.18373912394356,6.47544875391759e-05,0.0939245000481605,0,0,0
3721,134144.5411382963,2010-11-30 23:49:38,2611.309420558081,2,13,0.5501165986061096,3.9620048999786377,11.087722656192769,11.355204222515804,44.43033325130661,41.18373912394356,6.47544875391759e-05,0.0939245000481605,0,0,0
3722,134174.55606495187,2010-11-30 23:50:08,2641.3243472036183,2,13,0.5499359965324402,3.9634618759155273,11.092309225737802,11.355204222515804,44.44850871704638,41.18373912394356,3.237724376958795e-05,0.0939245000481605,0,0,0
3723,134204.57309059068,2010-11-30 23:50:38,2671.341372932644,2,13,0.5501165986061096,3.965242624282837,11.09689612379054,11.355204222515804,44.46669328793948,41.18373912394356,3.237724376958795e-05,0.0939245000481605,0,0,0
3724,134234.5861864704,2010-11-30 23:51:08,2701.354468732191,2,13,0.550297200679779,3.967185258865357,11.101482443748855,11.355204222515804,44.48488341866636,41.18373912394356,6.47544875391759e-05,0.0939245000481605,0,0,0
3725,134264.6011929797,2010-11-30 23:51:38,2731.369475231442,2,13,0.550297200679779,3.968642234802246,11.106068994342255,11.355204222515804,44.5030822663971,41.18373912394356,3.237724376958795e-05,0.0939245000481605,0,0,0
3726,134294.61627196433,2010-11-30 23:52:08,2761.384554306293,2,13,0.5499359965324402,3.9702610969543457,11.110655553283989,11.355204222515804,44.52128917303417,41.18373912394356,0.0,0.0939245000481605,0,0,0
3727,134324.63144687266,2010-11-30 23:52:38,2791.399729134423,2,13,0.5501165986061096,3.972203731536865,11.115242090055157,11.355204222515804,44.5395040800016,41.18373912394356,3.237724376958795e-05,0.0939245000481605,0,0,0
3728,134354.64635096208,2010-11-30 23:53:08,2821.4146332238306,2,13,0.5501165986061096,3.973984479904175,11.119828689294792,11.355204222515804,44.55772730875925,41.18373912394356,0.0,0.0939245000481605,0,0,0
3729,134384.66139142084,2010-11-30 23:53:38,2851.429673672562,2,13,0.5501165986061096,3.9756033420562735,11.124415339883209,11.355204222515804,44.57595888438668,41.18373912394356,0.0,0.0939245000481605,0,0,0
3730,134414.6764424108,2010-11-30 23:54:08,2881.44472475275,2,13,0.5501165986061096,3.977707862854004,11.129001928430542,11.355204222515804,44.59419839634499,41.18373912394356,9.713172767078504e-05,0.0939245000481605,0,0,0
3731,134444.6916128129,2010-11-30 23:54:38,2911.4598950746663,2,13,0.5501165986061096,3.9794886112213135,11.133588556789002,11.355204222515804,44.61244592013837,41.18373912394356,6.47544875391759e-05,0.0939245000481605,0,0,0
3732,134474.70668524122,2010-11-30 23:55:08,2941.474967568141,2,13,0.5501165986061096,3.981269359588623,11.138175110360717,11.355204222515804,44.63070202476734,41.18373912394356,3.237724376958795e-05,0.0939245000481605,0,0,0
3733,134504.72171752463,2010-11-30 23:55:38,2971.489999781379,2,13,0.550297200679779,3.9830501079559326,11.142761616781565,11.355204222515804,44.64896644792729,41.18373912394356,3.237724376958795e-05,0.0939245000481605,0,0,0
3734,134534.73666023512,2010-11-30 23:56:08,3001.5049425169555,2,13,0.5501165986061096,3.984992742538452,11.147348074702466,11.355204222515804,44.667239219396535,41.18373912394356,3.237724376958795e-05,0.0939245000481605,0,0,0
3735,134564.75182174513,2010-11-30 23:56:38,3031.520104006894,2,13,0.5499359965324402,3.9867734909057617,11.151934576087124,11.355204222515804,44.685520823840754,41.18373912394356,3.237724376958795e-05,0.0939245000481605,0,0,0
3736,134594.7672317435,2010-11-30 23:57:08,3061.535514005236,2,13,0.5499359965324402,3.988716125488281,11.15652123274048,11.355204222515804,44.70381183036018,41.18373912394356,0.0,0.0939245000481605,0,0,0
3737,134624.78191774516,2010-11-30 23:57:38,3091.5502000069405,2,13,0.5501165986061096,3.990658760070801,11.161107684097017,11.355204222515804,44.722110857738514,41.18373912394356,3.237724376958795e-05,0.0939245000481605,0,0,0
3738,134654.79684146846,2010-11-30 23:58:08,3121.565123725193,2,13,0.5501165986061096,3.9927632808685294,11.16569412141407,11.355204222515804,44.74041880371719,41.18373912394356,3.237724376958795e-05,0.0939245000481605,0,0,0
3739,134684.81201016632,2010-11-30 23:58:38,3151.5802924280806,2,13,0.550297200679779,3.994705677032471,11.170280597877928,11.355204222515804,44.75873592411734,41.18373912394356,3.237724376958795e-05,0.0939245000481605,0,0,0
3740,134714.8269621549,2010-11-30 23:59:08,3181.5952444116706,2,13,0.5499359965324402,3.9966483116149902,11.174867122312312,11.355204222515804,44.77706246404886,41.18373912394356,3.237724376958795e-05,0.0939245000481605,0,0,0
3741,134744.84199738066,2010-11-30 23:59:38,3211.6102796374053,2,13,0.5501165986061096,3.9985909461975098,11.179453653316594,11.355204222515804,44.7953982511337,41.18373912394356,3.237724376958795e-05,0.0939245000481605,0,0,0
3742,134774.85714945718,2010-12-01 00:00:08,3241.6254317139187,2,13,0.5499359965324402,4.000695705413818,11.184040202612152,11.355204222515804,44.81374335256569,41.18373912394356,3.24249267578125e-05,0.0939245000481605,0,0,0
3743,134804.87391161532,2010-12-01 00:00:38,3271.6421939672955,2,13,0.550297200679779,4.002962112426758,11.188626946161047,11.355204222515804,44.83209864805434,41.18373912394356,6.47544875391759e-05,0.0939245000481605,0,0,0
3744,134834.8871565159,2010-12-01 00:01:08,3301.6554387676256,2,13,0.5501165986061096,4.004742622375488,11.19321320220772,11.355204222515804,44.85046150731329,41.18373912394356,3.23295607813634e-05,0.0939245000481605,0,0,0
3745,134864.90428103076,2010-12-01 00:01:38,3331.6725634027757,2,13,0.5499359965324402,4.007009029388428,11.197800029346093,11.355204222515804,44.86883633477256,41.18373912394356,6.47544875391759e-05,0.0939245000481605,0,0,0
3746,134894.91733691597,2010-12-01 00:02:08,3361.6856191977727,2,13,0.5499359965324402,4.008951663970947,11.202386260324554,11.355204222515804,44.88721854476472,41.18373912394356,3.23295607813634e-05,0.0939245000481605,0,0,0
3747,134924.932245682,2010-12-01 00:02:38,3391.7005279387554,2,13,0.550297200679779,4.011380195617676,11.206972737519008,11.355204222515804,44.90561162623963,41.18373912394356,6.47544875391759e-05,0.0939245000481605,0,0,0
3748,134954.94903142884,2010-12-01 00:03:08,3421.7173137708064,2,13,0.5499359965324402,4.013484477996826,11.211559490974464,11.355204222515804,44.9240157780926,41.18373912394356,3.23295607813634e-05,0.0939245000481605,0,0,0
3749,134984.96235532098,2010-12-01 00:03:38,3451.7306375777416,2,13,0.5501165986061096,4.015750885009766,11.21614578222868,11.355204222515804,44.942428218101846,41.18373912394356,3.23295607813634e-05,0.0939245000481605,0,0,0
3750,135014.97946353027,2010-12-01 00:04:08,3481.747745912328,2,13,0.5501165986061096,4.018017292022705,11.220732688273014,11.355204222515804,44.96085337974047,41.18373912394356,6.47544875391759e-05,0.0939245000481605,0,0,0
3751,135044.99245865428,2010-12-01 00:04:38,3511.7607409160487,2,13,0.5501165986061096,4.020122051239014,11.225318955070168,11.355204222515804,44.97928619625631,41.18373912394356,3.24249267578125e-05,0.0939245000481605,0,0,0
3752,135075.00752249622,2010-12-01 00:05:08,3541.775804752981,2,13,0.550297200679779,4.022550106048584,11.22990545735456,11.355204222515804,44.9977304652796,41.18373912394356,6.47544875391759e-05,0.0939245000481605,0,0,0
3753,135105.02257664406,2010-12-01 00:05:38,3571.790858900803,2,13,0.5499359965324402,4.024816513061523,11.234491975724543,11.355204222515804,45.01618536813949,41.18373912394356,0.0,0.0939245000481605,0,0,0
3754,135135.03761357404,2010-12-01 00:06:08,3601.8058958909287,2,13,0.5501165986061096,4.027082920074463,11.239078481508978,11.355204222515804,45.03465086559485,41.18373912394356,3.23295607813634e-05,0.0939245000481605,0,0,0
3755,135165.05267527065,2010-12-01 00:06:38,3631.8209575223727,2,13,0.5499359965324402,4.029511451721191,11.243665079833145,11.355204222515804,45.05312754474196,41.18373912394356,6.47544875391759e-05,0.0939245000481605,0,0,0
3756,135195.067715564,2010-12-01 00:07:08,3661.835997815718,2,13,0.550297200679779,4.032101631164551,11.248251588648092,11.355204222515804,45.07161464691606,41.18373912394356,9.71794142969884e-05,0.0939245000481605,0,0,0
3757,135225.08278692968,2010-12-01 00:07:38,3691.8510691863994,2,13,0.5501165986061096,4.034367561340332,11.252838119601254,11.355204222515804,45.090112863305,41.18373912394356,6.46591215627268e-05,0.0939245000481605,0,0,0
3758,135255.09782445108,2010-12-01 00:08:08,3721.866106767996,2,13,0.5501165986061096,4.0367960929870605,11.25742468881002,11.355204222515804,45.108622294164746,41.18373912394356,6.47544875391759e-05,0.0939245000481605,0,0,0
3759,135285.1128550102,2010-12-01 00:08:38,3751.881137261956,2,13,0.5501165986061096,4.03938627243042,11.262011195852326,11.355204222515804,45.12714259750828,41.18373912394356,6.47544875391759e-05,0.0939245000481605,0,0,0
3760,135315.1279377592,2010-12-01 00:09:08,3781.8962200861374,2,13,0.5501165986061096,4.04181432723999,11.266597713352056,11.355204222515804,45.14567415573639,41.18373912394356,9.70840483205393e-05,0.0939245000481605,0,0,0
3761,135345.14295451398,2010-12-01 00:09:38,3811.91123682587,2,13,0.5499359965324402,4.04408073425293,11.27118414997029,11.355204222515804,45.164216844064185,41.18373912394356,3.23295607813634e-05,0.0939245000481605,0,0,0
3762,135375.158009544,2010-12-01 00:10:08,3841.9262917957385,2,13,0.5501165986061096,4.046833038330078,11.275770634084417,11.355204222515804,45.18277132039675,41.18373912394356,9.71794142969884e-05,0.0939245000481605,0,0,0
3763,135405.1748715105,2010-12-01 00:10:39,3871.943153942696,2,13,0.5497553944587708,4.049099445343018,11.2803574015483,11.355204222515804,45.20133863668988,41.18373912394356,3.24249267578125e-05,0.0939245000481605,0,0,0
3764,135435.18824221916,2010-12-01 00:11:09,3901.95652448092,2,13,0.5497553944587708,4.051851272583008,11.28494361272613,11.355204222515804,45.21991541941754,41.18373912394356,3.23295607813634e-05,0.0939245000481605,0,0,0
3765,135465.2031514313,2010-12-01 00:11:39,3931.97143368305,2,13,0.550297200679779,4.054279804229736,11.289530058490254,11.355204222515804,45.23850503776596,41.18373912394356,3.24249267578125e-05,0.0939245000481605,0,0,0
3766,135495.21819782985,2010-12-01 00:12:09,3961.9864800866,2,13,0.5501165986061096,4.057193756103516,11.294116578825497,11.355204222515804,45.2571069294649,41.18373912394356,6.47544875391759e-05,0.0939245000481605,0,0,0
3767,135525.23324327602,2010-12-01 00:12:39,3992.001525527756,2,13,0.5501165986061096,4.059783935546875,11.298703099524174,11.355204222515804,45.27572084099285,41.18373912394356,6.47544875391759e-05,0.0939245000481605,0,0,0
3768,135555.24852446883,2010-12-01 00:13:09,4022.016806745633,2,13,0.5501165986061096,4.062374114990234,11.303289713239383,11.355204222515804,45.29434697134978,41.18373912394356,6.47544875391759e-05,0.0939245000481605,0,0,0
3769,135585.26336604767,2010-12-01 00:13:39,4052.0316483044335,2,13,0.5501165986061096,4.064964294433594,11.307876100024917,11.355204222515804,45.31298430967448,41.18373912394356,6.47544875391759e-05,0.0939245000481605,0,0,0
3770,135615.27838741394,2010-12-01 00:14:09,4082.046669665668,2,13,0.5501165986061096,4.067716121673584,11.312462614559278,11.355204222515804,45.33163452336637,41.18373912394356,6.47544875391759e-05,0.0939245000481605,0,0,0
3771,135645.29348504497,2010-12-01 00:14:39,4112.061767376896,2,13,0.5501165986061096,4.070306301116943,11.317049200280136,11.355204222515804,45.35029753490128,41.18373912394356,3.23295607813634e-05,0.0939245000481605,0,0,0
3772,135675.3085092733,2010-12-01 00:15:09,4142.076791525064,2,13,0.5501165986061096,4.073058605194092,11.32163573076979,11.355204222515804,45.36897273398779,41.18373912394356,6.47544875391759e-05,0.0939245000481605,0,0,0
3773,135705.32436480036,2010-12-01 00:15:39,4172.092647147324,2,13,0.5499359965324402,4.075810432434082,11.326222390478843,11.355204222515804,45.38766111446419,41.18373912394356,6.47544875391759e-05,0.0939245000481605,0,0,0
3774,135735.33856805073,2010-12-01 00:16:09,4202.106850312509,2,13,0.5501165986061096,4.07888650894165,11.330808769138212,11.355204222515804,45.406361111805445,41.18373912394356,0.0001619339018361,0.0939245000481605,0,0,0
3775,135765.35360940173,2010-12-01 00:16:39,4232.121891663486,2,13,0.5499359965324402,4.081314563751221,11.335395227568338,11.355204222515804,45.42507434806223,41.18373912394356,3.23295607813634e-05,0.0939245000481605,0,0,0
3776,135795.36870595004,2010-12-01 00:17:09,4262.136988226857,2,13,0.5501165986061096,4.084390640258789,11.33998167138291,11.355204222515804,45.44380053387681,41.18373912394356,9.71794142969884e-05,0.0939245000481605,0,0,0
3777,135825.38381827765,2010-12-01 00:17:39,4292.152100629643,2,13,0.5501165986061096,4.087304592132568,11.344568123245924,11.355204222515804,45.46253996511911,41.18373912394356,9.71794142969884e-05,0.0939245000481605,0,0,0
3778,135855.39880296262,2010-12-01 00:18:09,4322.167085244435,2,13,0.5501165986061096,4.0903801918029785,11.349154632703232,11.355204222515804,45.4812928217965,41.18373912394356,0.0001295089750783,0.0939245000481605,0,0,0
3779,135885.41389511002,2010-12-01 00:18:39,4352.182177381792,2,13,0.5501165986061096,4.093132495880127,11.353741163892389,11.355204222515804,45.50005913431104,41.18373912394356,9.71794142969884e-05,0.0939245000481605,0,0,0
3780,135915.42891808023,2010-12-01 00:19:09,4382.197200326968,2,13,0.5501165986061096,4.096046447753906,11.358327642298368,11.355204222515804,45.51883866715439,41.18373912394356,6.47544875391759e-05,0.0939245000481605,0,0,0
3781,135945.4439611906,2010-12-01 00:19:39,4412.212243437323,2,13,0.5501165986061096,4.099122047424316,11.362914184341465,11.355204222515804,45.5376319754069,41.18373912394356,0.0001295089750783,0.0939245000481605,0,0,0
3782,135975.4590058348,2010-12-01 00:20:09,4442.22728809152,2,13,0.5501165986061096,4.102035999298096,11.367500746050624,11.355204222515804,45.55643912767672,41.18373912394356,9.70840483205393e-05,0.0939245000481605,0,0,0
3783,136005.475901039,2010-12-01 00:20:39,4472.244183375939,2,13,0.5501165986061096,4.105112075805664,11.372087548250244,11.355204222515804,45.57526098597676,41.18373912394356,9.71794142969884e-05,0.0939245000481605,0,0,0
3784,136035.48912808514,2010-12-01 00:21:09,4502.257410336877,2,13,0.550297200679779,4.108187675476074,11.376673828863323,11.355204222515804,45.59409478950531,41.18373912394356,0.0001295089750783,0.0939245000481605,0,0,0
3785,136065.50427940476,2010-12-01 00:21:39,4532.272561661519,2,13,0.5501165986061096,4.1111016273498535,11.381260289402432,11.355204222515804,45.61294340346975,41.18373912394356,6.47544875391759e-05,0.0939245000481605,0,0,0
3786,136095.5192276992,2010-12-01 00:22:09,4562.2875099509165,2,13,0.550297200679779,4.114339351654053,11.385846825450752,11.355204222515804,45.63180657881532,41.18373912394356,9.70840483205393e-05,0.0939245000481605,0,0,0
3787,136125.53450024547,2010-12-01 00:22:39,4592.302782497214,2,13,0.5501165986061096,4.117414951324463,11.39043339468468,11.355204222515804,45.65068422132455,41.18373912394356,6.47544875391759e-05,0.0939245000481605,0,0,0
3788,136155.5496994142,2010-12-01 00:23:09,4622.317981721052,2,13,0.5501165986061096,4.120652675628662,11.395019999490122,11.355204222515804,45.66957641433745,41.18373912394356,9.70840483205393e-05,0.0939245000481605,0,0,0
3789,136185.564478292,2010-12-01 00:23:39,4652.33276054875,2,13,0.550297200679779,4.123728752136231,11.399606549873033,11.355204222515804,45.68848291118894,41.18373912394356,0.0001295089750783,0.0939245000481605,0,0,0
3790,136215.57942506764,2010-12-01 00:24:09,4682.347707319368,2,13,0.5501165986061096,4.126804351806641,11.40419238142665,11.355204222515804,45.70740096497951,41.18373912394356,6.47544875391759e-05,0.0939245000481605,0,0,0
3791,136245.59445951143,2010-12-01 00:24:39,4712.362741763157,2,13,0.5501165986061096,4.130204200744629,11.408778075139962,11.355204222515804,45.72633316834303,41.18373912394356,9.71794142969884e-05,0.0939245000481605,0,0,0
3792,136275.60957610965,2010-12-01 00:25:09,4742.377858366396,2,13,0.5501165986061096,4.133441925048828,11.413364450399868,11.355204222515804,45.74528318164097,41.18373912394356,9.71794142969884e-05,0.0939245000481605,0,0,0
3793,136305.6245761428,2010-12-01 00:25:39,4772.392858399556,2,13,0.5501165986061096,4.136841297149658,11.417950982572815,11.355204222515804,45.76424883672016,41.18373912394356,9.70840483205393e-05,0.0939245000481605,0,0,0
3794,136335.63974556248,2010-12-01 00:26:09,4802.408027819228,2,13,0.550297200679779,4.140079021453857,11.42253757982014,11.355204222515804,45.78322986303803,41.18373912394356,9.70840483205393e-05,0.0939245000481605,0,0,0
3795,136365.65467032333,2010-12-01 00:26:39,4832.422952575062,2,13,0.5497553944587708,4.143155097961426,11.427124138517714,11.355204222515804,45.80222596341,41.18373912394356,6.47544875391759e-05,0.0939245000481605,0,0,0
3796,136395.67001992135,2010-12-01 00:27:09,4862.438302238263,2,13,0.5499359965324402,4.146878242492676,11.4317107262071,11.355204222515804,45.82123775229489,41.18373912394356,0.0001295089750783,0.0939245000481605,0,0,0
3797,136425.68479279426,2010-12-01 00:27:39,4892.45307506603,2,13,0.5501165986061096,4.150278091430664,11.436297193692967,11.355204222515804,45.84026463528161,41.18373912394356,9.71794142969884e-05,0.0939245000481605,0,0,0
3798,136455.69982274182,2010-12-01 00:28:09,4922.46810499358,2,13,0.5501165986061096,4.153515815734863,11.440883683875226,11.355204222515804,45.85930716112251,41.18373912394356,6.47544875391759e-05,0.0939245000481605,0,0,0
3799,136485.71486833337,2010-12-01 00:28:39,4952.483150590123,2,13,0.5499359965324402,4.156915187835693,11.445470183779664,11.355204222515804,45.878365291783474,41.18373912394356,9.70840483205393e-05,0.0939245000481605,0,0,0
3800,136515.730426315,2010-12-01 00:29:09,4982.49870858174,2,13,0.5499359965324402,4.160315036773682,11.450056711140949,11.355204222515804,45.89743940782165,41.18373912394356,6.47544875391759e-05,0.0939245000481605,0,0,0
3801,136545.7449699474,2010-12-01 00:29:39,5012.513252204139,2,13,0.5501165986061096,4.163876533508301,11.454643130708018,11.355204222515804,45.91652900630821,41.18373912394356,9.71794142969884e-05,0.0939245000481605,0,0,0
3802,136575.76001294746,2010-12-01 00:30:09,5042.528295199207,2,13,0.5501165986061096,4.16743803024292,11.45922968299602,11.355204222515804,45.93563507528851,41.18373912394356,6.47544875391759e-05,0.0939245000481605,0,0,0
3803,136605.77689243256,2010-12-01 00:30:39,5072.545174779548,2,13,0.5499359965324402,4.170999526977539,11.463816445093,11.355204222515804,45.95475820760728,41.18373912394356,0.0001295089750783,0.0939245000481605,0,0,0
3804,136635.79032652898,2010-12-01 00:31:09,5102.558608895984,2,13,0.550297200679779,4.174722671508789,11.468402733996104,11.355204222515804,45.9738957599422,41.18373912394356,0.0001295089750783,0.0939245000481605,0,0,0
3805,136665.80517217793,2010-12-01 00:31:39,5132.573454434689,2,13,0.550297200679779,4.178284168243408,11.47298926541464,11.355204222515804,45.99305069028152,41.18373912394356,0.0001295089750783,0.0939245000481605,0,0,0
3806,136695.82022065666,2010-12-01 00:32:09,5162.588502933454,2,13,0.550297200679779,4.181845664978027,11.477575777425304,11.355204222515804,46.01222213256805,41.18373912394356,9.70840483205393e-05,0.0939245000481605,0,0,0
3807,136725.8352594112,2010-12-01 00:32:39,5192.603541662907,2,13,0.5501165986061096,4.185407161712647,11.482162257656707,11.355204222515804,46.03140995002793,41.18373912394356,0.0001295089750783,0.0939245000481605,0,0,0
3808,136755.85045994326,2010-12-01 00:33:09,5222.618742200013,2,13,0.5501165986061096,4.189130783081055,11.486748807826563,11.355204222515804,46.05061477983926,41.18373912394356,9.71794142969884e-05,0.0939245000481605,0,0,0
3809,136785.8675803028,2010-12-01 00:33:39,5252.635862654761,2,13,0.5501165986061096,4.192692279815674,11.491335648737897,11.355204222515804,46.06983764452851,41.18373912394356,9.71794142969884e-05,0.0939245000481605,0,0,0
3810,136815.8804150076,2010-12-01 00:34:09,5282.648697264346,2,13,0.5501165986061096,4.196415424346924,11.495921851266589,11.355204222515804,46.08907487017082,41.18373912394356,9.71794142969884e-05,0.0939245000481605,0,0,0
3811,136844.20980277445,2010-12-01 00:34:38,5310.978085121437,2,13,0.5501165986061096,4.200138568878174,11.5002507451528,11.355204222515804,46.10724840293851,41.18373912394356,9.70840483205393e-05,0.0939245000481605,0,0,0
3812,136874.22906277768,2010-12-01 00:35:08,30.015152672997807,3,13,0.0,4.111749172210693,11.5002507451528,11.355204222515804,46.10724840293851,41.18373912394356,-0.0004209518374409,0.0939245000481605,0,0,0
3813,136904.24402102185,2010-12-01 00:35:38,60.030111002379,3,13,0.0,4.101064682006836,11.5002507451528,11.355204222515804,46.10724840293851,41.18373912394356,-0.0001942634553415,0.0939245000481605,0,0,0
3814,136934.25904410236,2010-12-01 00:36:08,90.04513399266636,3,13,0.0,4.094427585601807,11.5002507451528,11.355204222515804,46.10724840293851,41.18373912394356,-0.0001295089750783,0.0939245000481605,0,0,0
3815,136964.22723007554,2010-12-01 00:36:38,120.01331996583806,3,13,0.0,4.0903801918029785,11.5002507451528,11.355204222515804,46.10724840293851,41.18373912394356,-6.47544875391759e-05,0.0939245000481605,0,0,0
3816,136964.2354318644,2010-12-01 00:36:38,2.716760554e-06,4,13,0.9899002313613892,4.199814796447754,11.500250745899836,11.355204222515804,46.10724840607591,41.18373912394356,0.0,0.0939245000481605,0,0,0
3817,136965.12603187325,2010-12-01 00:36:39,0.890602740666196,4,13,0.9398714303970336,4.199653148651123,11.500487921920856,11.355204222515804,46.108244491052446,41.18373912394356,-3.23295607813634e-05,0.0939245000481605,0,0,0
3818,136967.28225326224,2010-12-01 00:36:41,3.046824129661118,4,13,0.8896620273590088,4.199814796447754,11.501034745114406,11.355204222515804,46.11054102995262,41.18373912394356,0.0,0.0939245000481605,0,0,0
3819,136970.57906029475,2010-12-01 00:36:44,6.343631187223591,4,13,0.8389108777046204,4.199653148651123,11.501824963058228,11.355204222515804,46.1138597700515,41.18373912394356,3.24249267578125e-05,0.0939245000481605,0,0,0
3820,136975.07896501958,2010-12-01 00:36:49,10.843535892008187,4,13,0.7887014746665955,4.199814796447754,11.502840795660962,11.355204222515804,46.11812604369256,41.18373912394356,-3.24249267578125e-05,0.0939245000481605,0,0,0
3821,136980.9695071621,2010-12-01 00:36:55,16.734078034570643,4,13,0.7384920716285706,4.199814796447754,11.504088667836108,11.355204222515804,46.12336685512419,41.18373912394356,0.0,0.0939245000481605,0,0,0
3822,136988.71936066452,2010-12-01 00:37:02,24.48393153694,4,13,0.6884633302688599,4.199814796447754,11.505622342583727,11.355204222515804,46.12980798382476,41.18373912394356,0.0,0.0939245000481605,0,0,0
3823,136999.07850934257,2010-12-01 00:37:13,34.84308020998407,4,13,0.6384345293045044,4.199814796447754,11.507527747890792,11.355204222515804,46.13781033110292,41.18373912394356,0.0,0.0939245000481605,0,0,0
3824,137013.67198484007,2010-12-01 00:37:27,49.43655571248453,4,13,0.5884057879447937,4.199814796447754,11.510008329012816,11.355204222515804,46.1482283121082,41.18373912394356,0.0,0.0939245000481605,0,0,0
3825,137036.56216365463,2010-12-01 00:37:50,72.32673452206066,4,13,0.5383769869804382,4.199653148651123,11.513578057066734,11.355204222515804,46.16322048199079,41.18373912394356,-6.47544875391759e-05,0.0939245000481605,0,0,0
3826,137076.96786149967,2010-12-01 00:38:31,112.73243246231972,4,13,0.4879870116710663,4.199653148651123,11.51931239540156,11.355204222515804,46.187303638630304,41.18373912394356,0.0,0.0939245000481605,0,0,0
3827,137151.52872312607,2010-12-01 00:39:45,187.29329399351465,4,13,0.4379582405090332,4.199814796447754,11.52886323305798,11.355204222515804,46.22741534747119,41.18373912394356,0.0,0.0939245000481605,0,0,0
3828,137259.37039493865,2010-12-01 00:41:33,295.13496581107603,4,13,0.3879294693470001,4.199814796447754,11.541210598790782,11.355204222515804,46.27927196763073,41.18373912394356,0.0,0.0939245000481605,0,0,0
3829,137393.1959686216,2010-12-01 00:43:47,428.96053948903614,4,13,0.3377200961112976,4.199653148651123,11.554689395130149,11.355204222515804,46.33588032329246,41.18373912394356,-6.47544875391759e-05,0.0939245000481605,0,0,0
3830,137554.1772469261,2010-12-01 00:46:28,589.9418177935092,4,13,0.2876913249492645,4.199814796447754,11.568655530051414,11.355204222515804,46.39453533580232,41.18373912394356,0.0,0.0939245000481605,0,0,0
3831,137746.37669066957,2010-12-01 00:49:40,782.1412615369785,4,13,0.2376625686883926,4.199814796447754,11.582654440477404,11.355204222515804,46.453328045132,41.18373912394356,0.0,0.0939245000481605,0,0,0
3832,137987.93459936467,2010-12-01 00:53:42,1023.6991702320774,4,13,0.1876337975263595,4.199653148651123,11.596873987189012,11.355204222515804,46.51304732010057,41.18373912394356,-3.23295607813634e-05,0.0939245000481605,0,0,0
3833,138309.47540284717,2010-12-01 00:59:03,1345.2399737246149,4,13,0.1376050263643264,4.199653148651123,11.61129182654988,11.355204222515804,46.57359949849608,41.18373912394356,-3.23295607813634e-05,0.0939245000481605,0,0,0
3834,138801.0909922832,2010-12-01 01:07:15,1836.8555632458465,4,13,0.0875762552022934,4.199814796447754,11.626424331280518,11.355204222515804,46.63715307466964,41.18373912394356,0.0,0.0939245000481605,0,0,0
3835,139483.45282168596,2010-12-01 01:18:37,2519.21739254838,4,13,0.0498289167881011,4.199653148651123,11.6391518152696,11.355204222515804,46.69060596188925,41.18373912394356,0.0,0.0939245000481605,0,0,0
3836,139513.46420840707,2010-12-01 01:19:07,30.01743037597405,5,13,0.0,4.191397190093994,11.6391518152696,11.355204222515804,46.69060596188925,41.18373912394356,-9.70840483205393e-05,0.0939245000481605,0,0,0
3837,139543.4634011043,2010-12-01 01:19:37,60.01662307318597,5,13,0.0,4.190425872802734,11.6391518152696,11.355204222515804,46.69060596188925,41.18373912394356,3.24249267578125e-05,0.0939245000481605,0,0,0
3838,139543.64378035665,2010-12-01 01:19:38,0.187438032334309,6,13,-1.9243103452026844e-05,4.190263748168945,11.6391518152696,11.35520422351772,46.69060596188925,41.18373912814184,0.0,0.0955438911914825,0,0,0
3839,139548.47193273815,2010-12-01 01:19:42,5.015590343662884,6,13,0.0005225847125984,4.190263748168945,11.639152703914617,11.355204223602202,46.69060968570791,41.18373912849584,-6.47544875391759e-05,0.0955438911914825,0,0,0
3840,139578.48211438267,2010-12-01 01:20:12,30.0151077261493,7,13,-1.0997490882873535,4.0084662437438965,11.639152703914617,11.364373003930574,46.69060968570791,41.22069457734956,-0.001003646873869,0.0955438911914825,0,0,0
3841,139608.49714504706,2010-12-01 01:20:42,60.03013838552089,7,13,-1.0997490882873535,3.980945587158203,11.639152703914617,11.373541775523522,46.69060968570791,41.25731245599847,-0.0006151676061563,0.0955438911914825,0,0,0
3842,139638.51231598554,2010-12-01 01:21:12,90.04530940918363,7,13,-1.099568486213684,3.961843013763428,11.639152703914617,11.382710494669173,46.69060968570791,41.29372097223455,-0.0004532813909463,0.0955438911914825,0,0,0
3843,139668.5272519743,2010-12-01 01:21:43,120.06024533782144,7,13,-1.0997490882873535,3.9469494819641113,11.639152703914617,11.391879147463884,46.69060968570791,41.32997551873767,-0.0003561496851034,0.0955438911914825,0,0,0
3844,139698.5424606717,2010-12-01 01:22:13,150.07545409538352,7,13,-1.099568486213684,3.9346461296081534,11.639152703914617,11.401047875665675,46.69060968570791,41.36610634042282,-0.0002913951757363,0.0955438911914825,0,0,0
3845,139728.5573607261,2010-12-01 01:22:43,180.09035405952503,7,13,-1.0997490882873535,3.923152208328247,11.639152703914617,11.410216548230892,46.69060968570791,41.40212827235084,-0.0003237724304199,0.0955438911914825,0,0,0
3846,139758.57241865832,2010-12-01 01:23:13,210.10541201682648,7,13,-1.099568486213684,3.9127917289733887,11.639152703914617,11.419385261619476,46.69060968570791,41.43805124888113,-0.0002265930233988,0.0955438911914825,0,0,0
3847,139788.58922998884,2010-12-01 01:23:43,240.1222234225168,7,13,-1.0997490882873535,3.902754783630371,11.639152703914617,11.428554459719182,46.69060968570791,41.47388219280561,-0.0002913951757363,0.0955438911914825,0,0,0
3848,139818.6027663497,2010-12-01 01:24:13,270.13575983852127,7,13,-1.0997490882873535,3.893365383148194,11.639152703914617,11.437722617092478,46.69060968570791,41.50961991639415,-0.0002590179501567,0.0955438911914825,0,0,0
3849,139848.61759091122,2010-12-01 01:24:43,300.150584249652,7,13,-1.0997490882873535,3.883975982666016,11.639152703914617,11.446891120117508,46.69060968570791,41.54527386550619,-0.0002590179501567,0.0955438911914825,0,0,0
3850,139878.6326468184,2010-12-01 01:25:13,330.1656402019641,7,13,-1.099568486213684,3.875396013259888,11.639152703914617,11.45605969846888,46.69060968570791,41.580846344188544,-0.0002266406954731,0.0955438911914825,0,0,0
3851,139908.647699272,2010-12-01 01:25:43,360.1806926054452,7,13,-1.099568486213684,3.86665415763855,11.639152703914617,11.465228281614818,46.69060968570791,41.61633815020746,-0.0002590179501567,0.0955438911914825,0,0,0
3852,139938.66287183447,2010-12-01 01:26:13,390.19586516793714,7,13,-1.0997490882873535,3.858074188232422,11.639152703914617,11.474397030669984,46.69060968570791,41.65175129814294,-0.0002266406954731,0.0955438911914825,0,0,0
3853,139968.67795946563,2010-12-01 01:26:43,420.2109529093552,7,13,-1.0997490882873535,3.849817991256714,11.639152703914617,11.483565777953752,46.69060968570791,41.68708671716022,-0.0001942634553415,0.0955438911914825,0,0,0
3854,139998.69298863632,2010-12-01 01:27:13,450.2259819797727,7,13,-1.0997490882873535,3.841399908065796,11.639152703914617,11.492734503220452,46.69060968570791,41.722345853626365,-0.0002590179501567,0.0955438911914825,0,0,0
3855,140028.70789876074,2010-12-01 01:27:43,480.2408920941728,7,13,-1.0997490882873535,3.8336293697357178,11.639152703914617,11.501903235751463,46.69060968570791,41.75753115379975,-0.0002590179501567,0.0955438911914825,0,0,0
3856,140058.72296080322,2010-12-01 01:28:13,510.25595413664,7,13,-1.099568486213684,3.825535297393799,11.639152703914617,11.511071958628998,46.69060968570791,41.79264389724868,-0.0002266406954731,0.0955438911914825,0,0,0
3857,140088.73799808405,2010-12-01 01:28:43,540.2709914425512,7,13,-1.0997490882873535,3.8177647590637207,11.639152703914617,11.520240715986516,46.69060968570791,41.827685177590205,-0.0002266406954731,0.0955438911914825,0,0,0
3858,140118.75306562518,2010-12-01 01:29:13,570.2860589837018,7,13,-1.099568486213684,3.810479879379273,11.639152703914617,11.529409493609537,46.69060968570791,41.862655859960505,-0.0001618862152099,0.0955438911914825,0,0,0
3859,140148.76822791714,2010-12-01 01:29:43,600.3012212505736,7,13,-1.0997490882873535,3.802871227264404,11.639152703914617,11.53857827474393,46.69060968570791,41.89755753563261,-0.0002266406954731,0.0955438911914825,0,0,0
3860,140178.78316918403,2010-12-01 01:30:13,630.3161625174954,7,13,-1.099568486213684,3.795586347579956,11.639152703914617,11.547746977140504,46.69060968570791,41.93239170130592,-0.0001942634553415,0.0955438911914825,0,0,0
3861,140208.7982251915,2010-12-01 01:30:43,660.3312185199322,7,13,-1.0997490882873535,3.788625240325928,11.639152703914617,11.55691572232929,46.69060968570791,41.96716001224793,-0.0001618862152099,0.0955438911914825,0,0,0
3862,140238.8132763669,2010-12-01 01:31:13,690.3462697905942,7,13,-1.0997490882873535,3.7811784744262695,11.639152703914617,11.566084513891967,46.69060968570791,42.001863843947845,-0.0002590179501567,0.0955438911914825,0,0,0
3863,140268.8285435549,2010-12-01 01:31:43,720.3615369785582,7,13,-1.0997490882873535,3.774703025817871,11.639152703914617,11.575253307165047,46.69060968570791,42.03650460223744,-0.0001618862152099,0.0955438911914825,0,0,0
3864,140298.8434094643,2010-12-01 01:32:13,750.3764027927189,7,13,-1.0997490882873535,3.7679038047790527,11.639152703914617,11.58442202341566,46.69060968570791,42.07108312550029,-0.0001942634553415,0.0955438911914825,0,0,0
3865,140328.8584582889,2010-12-01 01:32:43,780.391451642356,7,13,-1.0997490882873535,3.7614283561706543,11.639152703914617,11.59359078553696,46.69060968570791,42.10560085909116,-0.0001942634553415,0.0955438911914825,0,0,0
3866,140358.87348066262,2010-12-01 01:33:13,810.4064740060845,7,13,-1.099929690361023,3.754791021347046,11.639152703914617,11.602759556664472,46.69060968570791,42.14005877424392,-0.0002266406954731,0.0955438911914825,0,0,0
3867,140388.89061509212,2010-12-01 01:33:43,840.4236085107941,7,13,-1.0997490882873535,3.7486395835876474,11.639152703914617,11.6119289955882,46.69060968570791,42.174460949289816,-0.0001942634553415,0.0955438911914825,0,0,0
3868,140418.90364220578,2010-12-01 01:34:13,870.4366355341949,7,13,-1.0997490882873535,3.742487907409668,11.639152703914617,11.621097203720096,46.69060968570791,42.20880120003754,-0.0001618862152099,0.0955438911914825,0,0,0
3869,140448.91864659477,2010-12-01 01:34:43,900.451639928206,7,13,-1.099568486213684,3.7364981174468994,11.639152703914617,11.630266016552069,46.69060968570791,42.24308747394173,-9.713172767078504e-05,0.0955438911914825,0,0,0
3870,140478.93382611958,2010-12-01 01:35:13,930.4668194530236,7,13,-1.099568486213684,3.730508327484131,11.639152703914617,11.639434866985328,46.69060968570791,42.27731898674412,-0.0001618862152099,0.0955438911914825,0,0,0
3871,140508.94877212332,2010-12-01 01:35:43,960.4817654567328,7,13,-1.099568486213684,3.724680423736572,11.639152703914617,11.648603592338011,46.69060968570791,42.31149630266254,-0.0001618862152099,0.0955438911914825,0,0,0
3872,140538.96396737223,2010-12-01 01:36:13,990.4969607056792,7,13,-1.0997490882873535,3.7188525199890137,11.639152703914617,11.657772426809192,46.69060968570791,42.3456204008885,-0.0001942634553415,0.0955438911914825,0,0,0
3873,140568.9788637675,2010-12-01 01:36:43,1020.5118571109646,7,13,-1.0997490882873535,3.713186502456665,11.639152703914617,11.666941145389014,46.69060968570791,42.37969166691889,-0.0001618862152099,0.0955438911914825,0,0,0
3874,140598.99392510825,2010-12-01 01:37:13,1050.5269184416609,7,13,-1.099568486213684,3.7076823711395264,11.639152703914617,11.67610995902318,46.69060968570791,42.41371090637586,-0.0001295089750783,0.0955438911914825,0,0,0
3875,140629.00905173642,2010-12-01 01:37:43,1080.542045165084,7,13,-1.0997490882873535,3.702178239822388,11.639152703914617,11.685278853129748,46.69060968570791,42.44767962669632,-0.0001295089750783,0.0955438911914825,0,0,0
3876,140659.02429089963,2010-12-01 01:38:13,1110.5572842430972,7,13,-1.099568486213684,3.696674108505249,11.639152703914617,11.694447721660374,46.69060968570791,42.48159806298779,-9.713172767078504e-05,0.0955438911914825,0,0,0
3877,140689.0390971205,2010-12-01 01:38:43,1140.5720904489249,7,13,-1.099929690361023,3.6911699771881104,11.639152703914617,11.703616466989804,46.69060968570791,42.51546659931048,-0.0001618862152099,0.0955438911914825,0,0,0
3878,140719.05414942876,2010-12-01 01:39:13,1170.5871427621814,7,13,-1.099568486213684,3.685989618301392,11.639152703914617,11.712785275879355,46.69060968570791,42.54928614817718,-0.0001295089750783,0.0955438911914825,0,0,0
3879,140749.06935155482,2010-12-01 01:39:43,1200.6023449082911,7,13,-1.0997490882873535,3.680809259414673,11.639152703914617,11.72195413018985,46.69060968570791,42.58305771991744,-0.0001295089750783,0.0955438911914825,0,0,0
3880,140779.08476512705,2010-12-01 01:40:13,1230.6177585406765,7,13,-1.099568486213684,3.675628900527954,11.639152703914617,11.73112312031753,46.69060968570791,42.61678235881626,-0.0001295089750783,0.0955438911914825,0,0,0
3881,140809.0993242831,2010-12-01 01:40:43,1260.632317611518,7,13,-1.099568486213684,3.670610666275024,11.639152703914617,11.740291835118072,46.69060968570791,42.65045908354828,-0.0001295089750783,0.0955438911914825,0,0,0
3882,140839.11437647606,2010-12-01 01:41:13,1290.6473698145,7,13,-1.099929690361023,3.6654303073883057,11.639152703914617,11.749460636296876,46.69060968570791,42.68408983258018,-0.0001295089750783,0.0955438911914825,0,0,0
3883,140869.12944142573,2010-12-01 01:41:43,1320.6624347591892,7,13,-1.099568486213684,3.660411834716797,11.639152703914617,11.758629461241974,46.69060968570791,42.7176748503172,-0.0001618862152099,0.0955438911914825,0,0,0
3884,140899.1445243953,2010-12-01 01:42:13,1350.6775177237205,7,13,-1.0997490882873535,3.655555248260498,11.639152703914617,11.767798350914896,46.69060968570791,42.75121476041795,-9.713172767078504e-05,0.0955438911914825,0,0,0
3885,140929.159668908,2010-12-01 01:42:43,1380.6926622514488,7,13,-1.0997490882873535,3.650536775588989,11.639152703914617,11.77696724675748,46.69060968570791,42.78471006546096,-0.0001618862152099,0.0955438911914825,0,0,0
3886,140959.17500424554,2010-12-01 01:43:13,1410.7079975940128,7,13,-1.099568486213684,3.645842075347901,11.639152703914617,11.786136116670574,46.69060968570791,42.81816093045606,-0.0001295089750783,0.0955438911914825,0,0,0
3887,140989.19148836678,2010-12-01 01:43:43,1440.7244818305553,7,13,-1.0997490882873535,3.641147375106812,11.639152703914617,11.795305306487403,46.69060968570791,42.85156997151184,-0.0001942634553415,0.0955438911914825,0,0,0
3888,141019.2047464552,2010-12-01 01:44:13,1470.7377398487774,7,13,-1.0997490882873535,3.636776447296143,11.639152703914617,11.804473523231868,46.69060968570791,42.88493326127468,-0.0001295089750783,0.0955438911914825,0,0,0
3889,141049.22190055868,2010-12-01 01:44:43,1500.7548939873454,7,13,-1.0997490882873535,3.632243633270264,11.639152703914617,11.813642871988437,46.69060968570791,42.918259607447766,-0.0001295089750783,0.0955438911914825,0,0,0
3890,141079.23484370837,2010-12-01 01:45:13,1530.7678370618423,7,13,-1.099568486213684,3.6278727054595943,11.639152703914617,11.822811024325125,46.69060968570791,42.95154074757435,-9.713172767078504e-05,0.0955438911914825,0,0,0
3891,141109.24988583627,2010-12-01 01:45:43,1560.7828791697027,7,13,-1.0997490882873535,3.623663663864136,11.639152703914617,11.831979806753402,46.69060968570791,42.98478416346865,-0.0001295089750783,0.0955438911914825,0,0,0
3892,141139.26687120987,2010-12-01 01:46:13,1590.7998646585927,7,13,-1.099568486213684,3.619292736053467,11.639152703914617,11.841149198836757,46.69060968570791,43.017990731735225,-0.0001295089750783,0.0955438911914825,0,0,0
3893,141169.28003456251,2010-12-01 01:46:43,1620.8130279160064,7,13,-1.0997490882873535,3.615083694458008,11.639152703914617,11.85031752178779,46.69060968570791,43.05115481516773,-9.713172767078504e-05,0.0955438911914825,0,0,0
3894,141199.29712497248,2010-12-01 01:47:13,1650.8301184061877,7,13,-1.099568486213684,3.6111984252929688,11.639152703914617,11.859486886559829,46.69060968570791,43.08428517454587,-6.47544875391759e-05,0.0955438911914825,0,0,0
3895,141229.31013227682,2010-12-01 01:47:43,1680.8431256303184,7,13,-1.099568486213684,3.6073131561279297,11.639152703914617,11.868655155795178,46.69060968570791,43.11737500101764,-6.47544875391759e-05,0.0955438911914825,0,0,0
3896,141259.32533019743,2010-12-01 01:48:13,1710.8583235559256,7,13,-1.099929690361023,3.6032660007476807,11.639152703914617,11.87782392980234,46.69060968570791,43.15043111256541,-0.0001295089750783,0.0955438911914825,0,0,0
3897,141289.34024201607,2010-12-01 01:48:43,1740.8732353495045,7,13,-1.0997490882873535,3.599542617797852,11.639152703914617,11.886992725872016,46.69060968570791,43.18345256212429,-0.0001295089750783,0.0955438911914825,0,0,0
3898,141319.35529946207,2010-12-01 01:49:13,1770.888292820596,7,13,-1.0997490882873535,3.5961430072784424,11.639152703914617,11.896161582304767,46.69060968570791,43.21644067098454,-9.713172767078504e-05,0.0955438911914825,0,0,0
3899,141349.3703525573,2010-12-01 01:49:43,1800.903345915798,7,13,-1.0997490882873535,3.5924196243286133,11.639152703914617,11.905330473688643,46.69060968570791,43.24939598459412,-9.713172767078504e-05,0.0955438911914825,0,0,0
3900,141379.38547079964,2010-12-01 01:50:13,1830.918464153104,7,13,-1.0997490882873535,3.589020252227783,11.639152703914617,11.914499367275791,46.69060968570791,43.28231932427334,-9.713172767078504e-05,0.0955438911914825,0,0,0
3901,141409.40050847645,2010-12-01 01:50:43,1860.9335018600127,7,13,-1.0997490882873535,3.585782527923584,11.639152703914617,11.923668261488338,46.69060968570791,43.31521168647146,-9.713172767078504e-05,0.0955438911914825,0,0,0
3902,141439.41566055798,2010-12-01 01:51:13,1890.9486538914143,7,13,-1.0997490882873535,3.5825448036193848,11.639152703914617,11.932837101526571,46.69060968570791,43.34807356105343,-6.47544875391759e-05,0.0955438911914825,0,0,0
3903,141469.43060294268,2010-12-01 01:51:43,1920.9635963011804,7,13,-1.099929690361023,3.579145193099976,11.639152703914617,11.942005897867636,46.69060968570791,43.38090590372588,-0.0001295089750783,0.0955438911914825,0,0,0
3904,141499.44567389233,2010-12-01 01:52:13,1950.9786672458,7,13,-1.099929690361023,3.5759074687957764,11.639152703914617,11.951174771675024,46.69060968570791,43.4137093319421,-0.0001295089750783,0.0955438911914825,0,0,0
3905,141529.46071276712,2010-12-01 01:52:43,1980.9937061005653,7,13,-1.0997490882873535,3.573155403137207,11.639152703914617,11.960343619126595,46.69060968570791,43.44648406263386,-6.47544875391759e-05,0.0955438911914825,0,0,0
3906,141559.4757792306,2010-12-01 01:53:13,2011.008772589097,7,13,-1.0997490882873535,3.5700795650482178,11.639152703914617,11.969512483019203,46.69060968570791,43.47923084363268,-6.47544875391759e-05,0.0955438911914825,0,0,0
3907,141589.49261461094,2010-12-01 01:53:44,2041.0256080396216,7,13,-1.099568486213684,3.5670037269592285,11.639152703914617,11.978681905641489,46.69060968570791,43.511951681249606,-6.47544875391759e-05,0.0955438911914825,0,0,0
3908,141619.50605513834,2010-12-01 01:54:14,2071.039048471774,7,13,-1.0997490882873535,3.5639278888702397,11.639152703914617,11.987850234737891,46.69060968570791,43.54464090757643,-9.713172767078504e-05,0.0955438911914825,0,0,0
3909,141649.52096069138,2010-12-01 01:54:44,2101.053954034848,7,13,-1.0997490882873535,3.56101393699646,11.639152703914617,11.997018971280651,46.69060968570791,43.5773045196484,-6.47544875391759e-05,0.0955438911914825,0,0,0
3910,141679.53606586118,2010-12-01 01:55:14,2131.069059299873,7,13,-1.0997490882873535,3.5580999851226807,11.639152703914617,12.006187766172546,46.69060968570791,43.60994101007443,-6.47544875391759e-05,0.0955438911914825,0,0,0
3911,141709.55108221495,2010-12-01 01:55:44,2161.0840755734466,7,13,-1.099929690361023,3.554862260818481,11.639152703914617,12.015356662520707,46.69060968570791,43.64255016229228,-9.713172767078504e-05,0.0955438911914825,0,0,0
3912,141739.56617074332,2010-12-01 01:56:14,2191.09916407676,7,13,-1.0997490882873535,3.551948308944702,11.639152703914617,12.02452556418873,46.69060968570791,43.67513187227151,-6.47544875391759e-05,0.0955438911914825,0,0,0
3913,141769.58121292636,2010-12-01 01:56:44,2221.114206259808,7,13,-1.0997490882873535,3.548872470855713,11.639152703914617,12.033694376239591,46.69060968570791,43.70768581471778,-9.713172767078504e-05,0.0955438911914825,0,0,0
3914,141799.5964261149,2010-12-01 01:57:14,2251.129419453409,7,13,-1.099568486213684,3.5459585189819336,11.639152703914617,12.042863264593642,46.69060968570791,43.74021218503586,-9.713172767078504e-05,0.0955438911914825,0,0,0
3915,141829.61126581414,2010-12-01 01:57:44,2281.144259172633,7,13,-1.0997490882873535,3.5428826808929443,11.639152703914617,12.052032067320846,46.69060968570791,43.7727098654251,-6.47544875391759e-05,0.0955438911914825,0,0,0
3916,141859.62640214144,2010-12-01 01:58:14,2311.159395489931,7,13,-1.099568486213684,3.539644956588745,11.639152703914617,12.061200186831764,46.69060968570791,43.805176615983385,-9.713172767078504e-05,0.0955438911914825,0,0,0
3917,141889.64153708032,2010-12-01 01:58:44,2341.1745304538604,7,13,-1.099929690361023,3.536245346069336,11.639152703914617,12.070368411354012,46.69060968570791,43.83761429975569,-9.713172767078504e-05,0.0955438911914825,0,0,0
3918,141919.6565636445,2010-12-01 01:59:14,2371.189557073178,7,13,-1.0997490882873535,3.5328457355499268,11.639152703914617,12.079537349027888,46.69060968570791,43.87002370533772,-9.713172767078504e-05,0.0955438911914825,0,0,0
3919,141949.67161681992,2010-12-01 01:59:44,2401.204610153343,7,13,-1.0997490882873535,3.5296080112457275,11.639152703914617,12.088706249078204,46.69060968570791,43.90240178385351,-6.47544875391759e-05,0.0955438911914825,0,0,0
3920,141979.68668495252,2010-12-01 02:00:14,2431.219678285965,7,13,-1.0997490882873535,3.5260465145111084,11.639152703914617,12.097875201744962,46.69060968570791,43.9347480803048,-9.713172767078504e-05,0.0955438911914825,0,0,0
3921,142009.7018517206,2010-12-01 02:00:44,2461.2348451994003,7,13,-1.0997490882873535,3.5223231315612797,11.639152703914617,12.107044211695952,46.69060968570791,43.96706159068998,-0.0001295089750783,0.0955438911914825,0,0,0
3922,142039.71678453148,2010-12-01 02:01:14,2491.2497778649176,7,13,-1.0997490882873535,3.51843786239624,11.639152703914617,12.11621311506762,46.69060968570791,43.99934090440799,-0.0001295089750783,0.0955438911914825,0,0,0
3923,142069.7318488897,2010-12-01 02:01:44,2521.2648422231478,7,13,-1.0993878841400146,3.515038251876831,11.639152703914617,12.125382091711538,46.69060968570791,44.03158552549579,-6.47544875391759e-05,0.0955438911914825,0,0,0
3924,142099.74692351348,2010-12-01 02:02:14,2551.2799168469232,7,13,-1.0997490882873535,3.510667562484741,11.639152703914617,12.134551104574392,46.69060968570791,44.06379343878284,-9.713172767078504e-05,0.0955438911914825,0,0,0
3925,142129.76197711495,2010-12-01 02:02:44,2581.2949704433727,7,13,-1.099929690361023,3.5062966346740723,11.639152703914617,12.143720113739857,46.69060968570791,44.09596297726928,-0.0001295089750783,0.0955438911914825,0,0,0
3926,142159.77703526273,2010-12-01 02:03:14,2611.3100286011727,7,13,-1.0997490882873535,3.5017638206481934,11.639152703914617,12.152889140797663,46.69060968570791,44.12809189607107,-0.0001295089750783,0.0955438911914825,0,0,0
3927,142189.79394159964,2010-12-01 02:03:44,2641.326935018295,7,13,-1.099929690361023,3.496745347976685,11.639152703914617,12.16205863774884,46.69060968570791,44.16017885942141,-0.0001295089750783,0.0955438911914825,0,0,0
3928,142219.8072078233,2010-12-01 02:04:14,2671.340201156725,7,13,-1.0997490882873535,3.491564989089966,11.639152703914617,12.17122711014276,46.69060968570791,44.19221508377623,-9.713172767078504e-05,0.0955438911914825,0,0,0
3929,142249.8222249189,2010-12-01 02:04:44,2701.355218252343,7,13,-1.099568486213684,3.4857370853424072,11.639152703914617,12.180396081520044,46.69060968570791,44.22420166393006,-0.0001295089750783,0.0955438911914825,0,0,0
3930,142279.8374222881,2010-12-01 02:05:14,2731.370415616553,7,13,-1.099929690361023,3.478937864303589,11.639152703914617,12.189565063109216,46.69060968570791,44.256131771596905,-0.0001942634553415,0.0955438911914825,0,0,0
3931,142309.85247452118,2010-12-01 02:05:44,2761.3854678546227,7,13,-1.099929690361023,3.4716529846191406,11.639152703914617,12.198734003782087,46.69060968570791,44.28799841329087,-0.0002266406954731,0.0955438911914825,0,0,0
3932,142339.86755558598,2010-12-01 02:06:14,2791.4005489194265,7,13,-1.0997490882873535,3.4635586738586426,11.639152703914617,12.207903001387388,46.69060968570791,44.31979432230376,-0.0002590179501567,0.0955438911914825,0,0,0
3933,142369.88248448214,2010-12-01 02:06:44,2821.415477825589,7,13,-1.0997490882873535,3.453845500946045,11.639152703914617,12.217071910784544,46.69060968570791,44.35150791679794,-0.0002266406954731,0.0955438911914825,0,0,0
3934,142399.89756890028,2010-12-01 02:07:14,2851.4305622337124,7,13,-1.099568486213684,3.4420278072357178,11.639152703914617,12.226240865547163,46.69060968570791,44.38312376849031,-0.0003885269106831,0.0955438911914825,0,0,0
3935,142429.91263679232,2010-12-01 02:07:44,2881.445630130748,7,13,-1.0997490882873535,3.4272964000701904,11.639152703914617,12.235409854070609,46.69060968570791,44.41461851458016,-0.0003885269106831,0.0955438911914825,0,0,0
3936,142459.92764593312,2010-12-01 02:08:14,2911.460639261547,7,13,-1.099568486213684,3.408031940460205,11.639152703914617,12.244579072706122,46.69060968570791,44.44595927857982,-0.0005504131549969,0.0955438911914825,0,0,0
3937,142489.94269287802,2010-12-01 02:08:44,2941.4756862064446,7,13,-1.099568486213684,3.382615804672241,11.639152703914617,12.253748801258848,46.69060968570791,44.47709888084655,-0.0007770538213662,0.0955438911914825,0,0,0
3938,142519.95779391754,2010-12-01 02:09:14,2971.490787296079,7,13,-1.099929690361023,3.3482961654663086,11.639152703914617,12.262918446955007,46.69060968570791,44.5079664500113,-0.001003646873869,0.0955438911914825,0,0,0
3939,142549.97284346892,2010-12-01 02:09:44,3001.505836797338,7,13,-1.0997490882873535,3.30118727684021,11.639152703914617,12.27208812943918,46.69060968570791,44.53846395388327,-0.0013922214275225,0.0955438911914825,0,0,0
3940,142579.9879373356,2010-12-01 02:10:14,3031.5209307291607,7,13,-1.0997490882873535,3.235947370529175,11.639152703914617,12.281257898037843,46.69060968570791,44.56845223838057,-0.0019750117789953,0.0955438911914825,0,0,0
3941,142610.00307490598,2010-12-01 02:10:44,3061.5360682344144,7,13,-1.0997490882873535,3.1414060592651367,11.639152703914617,12.29042763668749,46.69060968570791,44.59772067281438,-0.002978706266731,0.0955438911914825,0,0,0
3942,142640.01803879923,2010-12-01 02:11:14,3091.551032157716,7,13,-1.0997490882873535,2.9893953800201416,11.639152703914617,12.299597325330447,46.69060968570791,44.62589773432931,-0.0052774907089769,0.0955438911914825,0,0,0
3943,142660.72258452993,2010-12-01 02:11:35,3112.2555778734004,7,13,-1.0997490882873535,2.788980722427368,11.639152703914617,12.305922017413664,46.69060968570791,44.64423186782169,-0.0095836641266942,0.0955438911914825,0,0,0
3944,142667.7206331347,2010-12-01 02:11:42,3119.253626468173,7,13,-1.099568486213684,2.699781894683838,11.639152703914617,12.308059750100128,46.69060968570791,44.65009967060252,-0.0102635379880666,0.0955438911914825,0,0,0
3945,142727.74246532135,2010-12-01 02:12:42,60.01462247978624,8,13,0.0,3.34230637550354,11.639152703914617,12.308059750100128,46.69060968570791,44.65009967060252,0.0013922214275225,0.0955438911914825,0,0,0
3946,142727.93806809382,2010-12-01 02:12:42,0.187392007804035,9,13,-1.9243103452026844e-05,3.34214448928833,11.639152703914617,12.308059751101796,46.69060968570791,44.65009967395024,0.0,0.0931989923119545,0,0,0
3947,142732.76618192438,2010-12-01 02:12:47,5.015505813312358,9,13,0.0007031940040178,3.350076913833618,11.639153479788032,12.308059751198185,46.69061228248564,44.65009967427238,0.0011332035064697,0.0931989923119545,0,0,0
