Data_Point,Test_Time(s),Date_Time,Step_Time(s),Step_Index,Cycle_Index,Current(A),Voltage(V),Charge_Capacity(Ah),Discharge_Capacity(Ah),Charge_Energy(Wh),Discharge_Energy(Wh),dV/dt(V/s),Internal_Resistance(Ohm),Is_FC_Data,AC_Impedance(Ohm),ACI_Phase_Angle(Deg)
2383,86057.57079519048,2010-11-30 10:28:05,30.016561899804515,1,9,0.0,3.4192020893096924,6.918935708115403,7.579718760571895,27.75999514139365,27.5112075004051,0.0007446765666827,0.0947341993451118,0,0,0
2384,86087.58388843367,2010-11-30 10:28:35,60.02965512294055,1,9,0.0,3.442999124526977,6.918935708115403,7.579718760571895,27.75999514139365,27.5112075004051,0.0005180359003134,0.0947341993451118,0,0,0
2385,86117.59885290332,2010-11-30 10:29:05,90.04461950738954,1,9,0.0,3.460806608200073,6.918935708115403,7.579718760571895,27.75999514139365,27.5112075004051,0.0004209041653666,0.0947341993451118,0,0,0
2386,86147.5687816483,2010-11-30 10:29:35,120.01454837769371,1,9,0.0,3.47505259513855,6.918935708115403,7.579718760571895,27.75999514139365,27.5112075004051,0.0003237724304199,0.0947341993451118,0,0,0
2387,86177.58603230784,2010-11-30 10:30:06,30.01488275632054,2,9,0.5501165986061096,3.634024381637573,6.923521899408805,7.579718760571895,27.776507415364662,27.5112075004051,0.0015541076427325,0.0947341993451118,0,0,0
2388,86207.60114461539,2010-11-30 10:30:36,60.02999506888295,2,9,0.5501165986061096,3.678380966186523,6.928108126836422,7.579718760571895,27.793281468988845,27.5112075004051,0.0010360718006268,0.0947341993451118,0,0,0
2389,86237.61603957709,2010-11-30 10:31:06,90.04489002055115,2,9,0.5499359965324402,3.710110664367676,6.93269426076172,7.579718760571895,27.81022690268609,27.5112075004051,0.0007446765666827,0.0947341993451118,0,0,0
2390,86267.63127209878,2010-11-30 10:31:36,120.06012263748636,2,9,0.5497553944587708,3.7348792552948,6.937280529910948,7.579718760571895,27.827301884059505,27.5112075004051,0.0005827903514727,0.0947341993451118,0,0,0
2391,86297.64606680599,2010-11-30 10:32:06,150.07491724946308,2,9,0.5501165986061096,3.755114793777466,6.941866675282273,7.579718760571895,27.84447891811296,27.5112075004051,0.0004856109735555,0.0947341993451118,0,0,0
2392,86327.66107519997,2010-11-30 10:32:36,180.08992564342807,2,9,0.5501165986061096,3.770332098007202,6.946452891790036,7.579718760571895,27.86173760606467,27.5112075004051,0.0002913951757363,0.0947341993451118,0,0,0
2393,86357.67611515246,2010-11-30 10:33:06,210.10496560595016,2,9,0.5499359965324402,3.78036904335022,6.951039077554495,7.579718760571895,27.87905425069687,27.5112075004051,0.0001942634553415,0.0947341993451118,0,0,0
2394,86387.69112491983,2010-11-30 10:33:36,240.11997536330796,2,9,0.5501165986061096,3.786682605743408,6.955625259563249,7.579718760571895,27.89640716201303,27.5112075004051,0.0001942634553415,0.0947341993451118,0,0,0
2395,86417.70627579837,2010-11-30 10:34:06,270.13512625186524,2,9,0.550297200679779,3.791377305984497,6.960211488853179,7.579718760571895,27.913784919997884,27.5112075004051,9.713172767078504e-05,0.0947341993451118,0,0,0
2396,86447.7211534971,2010-11-30 10:34:36,300.1500039455877,2,9,0.5499359965324402,3.795748233795166,6.964797671747773,7.579718760571895,27.93118282425323,27.5112075004051,0.0001295089750783,0.0947341993451118,0,0,0
2397,86477.73816851448,2010-11-30 10:35:06,330.1670190882697,2,9,0.5499359965324402,3.799633502960205,6.969384245622945,7.579718760571895,27.948601170289205,27.5112075004051,9.713172767078504e-05,0.0947341993451118,0,0,0
2398,86507.75119715689,2010-11-30 10:35:36,360.1800476003748,2,9,0.5501165986061096,3.803842544555664,6.973970184298773,7.579718760571895,27.966035453743466,27.5112075004051,0.0001295089750783,0.0947341993451118,0,0,0
2399,86537.76619359612,2010-11-30 10:36:06,390.1950440395908,2,9,0.5501165986061096,3.807565927505493,6.978556386035246,7.579718760571895,27.983488414041062,27.5112075004051,0.0001295089750783,0.0947341993451118,0,0,0
2400,86567.78123303734,2010-11-30 10:36:36,420.21008351089057,2,9,0.5501165986061096,3.811289310455322,6.983142558081425,7.579718760571895,28.00095850564319,27.5112075004051,0.0001295089750783,0.0947341993451118,0,0,0
2401,86597.79562914766,2010-11-30 10:37:06,450.22447928537554,2,9,0.5501165986061096,3.815012693405152,6.987728685733066,7.579718760571895,28.01844555285281,27.5112075004051,9.713172767078504e-05,0.0947341993451118,0,0,0
2402,86627.81124963981,2010-11-30 10:37:36,480.2401000832842,2,9,0.5501165986061096,3.8185741901397705,6.992314967879405,7.579718760571895,28.03594989753941,27.5112075004051,0.0001295089750783,0.0947341993451118,0,0,0
2403,86657.82624969303,2010-11-30 10:38:06,510.2551001364935,2,9,0.5501165986061096,3.8218119144439697,6.996901160389322,7.579718760571895,28.05347005734839,27.5112075004051,3.237724376958795e-05,0.0947341993451118,0,0,0
2404,86687.84129165552,2010-11-30 10:38:36,540.2701422192919,2,9,0.550297200679779,3.825535297393799,7.001487913885992,7.579718760571895,28.07100823905272,27.5112075004051,9.713172767078504e-05,0.0947341993451118,0,0,0
2405,86717.85633787361,2010-11-30 10:39:06,570.2851884073059,2,9,0.550297200679779,3.828773021697998,7.006074991643945,7.579718760571895,28.088563461841957,27.5112075004051,9.713172767078504e-05,0.0947341993451118,0,0,0
2406,86747.87129633833,2010-11-30 10:39:36,600.3001468068618,2,9,0.5501165986061096,3.8321726322174072,7.010661908101485,7.579718760571895,28.106133678775205,27.5112075004051,9.713172767078504e-05,0.0947341993451118,0,0,0
2407,86777.88631405549,2010-11-30 10:40:06,630.3151645039771,2,9,0.550297200679779,3.8357338905334473,7.015248936545833,7.579718760571895,28.123719826048035,27.5112075004051,0.0001618862152099,0.0947341993451118,0,0,0
2408,86807.90129339715,2010-11-30 10:40:36,660.3301438656965,2,9,0.5501165986061096,3.8389716148376474,7.01983596275544,7.579718760571895,28.1413217548824,27.5112075004051,6.47544875391759e-05,0.0947341993451118,0,0,0
2409,86837.91642678718,2010-11-30 10:41:06,690.3452772356595,2,9,0.5501165986061096,3.8425331115722656,7.024422954994007,7.579718760571895,28.158939363497552,27.5112075004051,0.0001295089750783,0.0947341993451118,0,0,0
2410,86867.93146976219,2010-11-30 10:41:36,720.3603202056656,2,9,0.5501165986061096,3.8460946083068848,7.029009595749773,7.579718760571895,28.176571543411203,27.5112075004051,9.713172767078504e-05,0.0947341993451118,0,0,0
2411,86897.94641709422,2010-11-30 10:42:06,750.3752676379297,2,9,0.5501165986061096,3.849656105041504,7.033595960044963,7.579718760571895,28.194218903756003,27.5112075004051,9.713172767078504e-05,0.0947341993451118,0,0,0
2412,86927.96136166436,2010-11-30 10:42:36,780.3902121078222,2,9,0.550297200679779,3.853217601776123,7.03818225663291,7.579718760571895,28.21188237748972,27.5112075004051,0.0001295089750783,0.0947341993451118,0,0,0
2413,86957.97638917589,2010-11-30 10:43:06,810.4052396193605,2,9,0.5501165986061096,3.856779098510742,7.042768612970131,7.579718760571895,28.22956241399472,27.5112075004051,9.713172767078504e-05,0.0947341993451118,0,0,0
2414,86987.99143014592,2010-11-30 10:43:36,840.4202805944022,2,9,0.5499359965324402,3.860340595245361,7.047354944123049,7.579718760571895,28.24725878450253,27.5112075004051,9.713172767078504e-05,0.0947341993451118,0,0,0
2415,87018.0064015779,2010-11-30 10:44:06,870.4352520213763,2,9,0.5501165986061096,3.8637402057647705,7.051941280483724,7.579718760571895,28.264971485015856,27.5112075004051,9.713172767078504e-05,0.0947341993451118,0,0,0
2416,87048.02142874358,2010-11-30 10:44:36,900.4502791870539,2,9,0.5501165986061096,3.8673017024993896,7.056527665742187,7.579718760571895,28.282700480399946,27.5112075004051,9.713172767078504e-05,0.0947341993451118,0,0,0
2417,87078.03826915145,2010-11-30 10:45:06,930.4671197001768,2,9,0.5501165986061096,3.870863199234009,7.0611143103383,7.579718760571895,28.300446533866516,27.5112075004051,9.713172767078504e-05,0.0947341993451118,0,0,0
2418,87108.05161163986,2010-11-30 10:45:36,960.480462093363,2,9,0.5501165986061096,3.874100923538208,7.0657004268487,7.579718760571895,28.318206263686807,27.5112075004051,3.237724376958795e-05,0.0947341993451118,0,0,0
2419,87138.06647398039,2010-11-30 10:46:06,990.4953244338795,2,9,0.5501165986061096,3.8773386478424072,7.070286796717218,7.579718760571895,28.335982149373045,27.5112075004051,6.47544875391759e-05,0.0947341993451118,0,0,0
2420,87168.08150750189,2010-11-30 10:46:36,1020.510357940336,2,9,0.5501165986061096,3.880738258361816,7.074873108789797,7.579718760571895,28.35377280445407,27.5112075004051,9.713172767078504e-05,0.0947341993451118,0,0,0
2421,87198.09666105708,2010-11-30 10:47:06,1050.5255115306163,2,9,0.550297200679779,3.8838140964508057,7.079459514930649,7.579718760571895,28.37157835387497,27.5112075004051,6.47544875391759e-05,0.0947341993451118,0,0,0
2422,87228.11200391332,2010-11-30 10:47:36,1080.5408544620652,2,9,0.5501165986061096,3.886728048324585,7.084045858129002,7.579718760571895,28.389397495520456,27.5112075004051,9.713172767078504e-05,0.0947341993451118,0,0,0
2423,87258.12667863196,2010-11-30 10:48:06,1110.5555291706671,2,9,0.550297200679779,3.889642000198364,7.08863214290014,7.579718760571895,28.40722979379641,27.5112075004051,9.713172767078504e-05,0.0947341993451118,0,0,0
2424,87288.14155417033,2010-11-30 10:48:36,1140.5704046839635,2,9,0.5501165986061096,3.892232179641724,7.093218514733402,7.579718760571895,28.425075126198745,27.5112075004051,3.237724376958795e-05,0.0947341993451118,0,0,0
2425,87318.15693790831,2010-11-30 10:49:06,1170.585788436995,2,9,0.5501165986061096,3.894822359085083,7.097804926092115,7.579718760571895,28.442932726261645,27.5112075004051,9.713172767078504e-05,0.0947341993451118,0,0,0
2426,87348.17159565972,2010-11-30 10:49:36,1200.6004461031876,2,9,0.5499359965324402,3.8970887660980233,7.102391209515715,7.579718760571895,28.46080065041897,27.5112075004051,6.47544875391759e-05,0.0947341993451118,0,0,0
2427,87378.18658594863,2010-11-30 10:50:06,1230.615436392099,2,9,0.5501165986061096,3.899355173110962,7.106977537763084,7.579718760571895,28.478679420712087,27.5112075004051,6.47544875391759e-05,0.0947341993451118,0,0,0
2428,87408.20162361044,2010-11-30 10:50:36,1260.6304740589082,2,9,0.5499359965324402,3.9012978076934814,7.111563874305121,7.579718760571895,28.49656802830566,27.5112075004051,3.237724376958795e-05,0.0947341993451118,0,0,0
2429,87438.21661455097,2010-11-30 10:51:06,1290.6454649944285,2,9,0.5497553944587708,3.903240442276001,7.116150214062483,7.579718760571895,28.514465871994293,27.5112075004051,0.0,0.0947341993451118,0,0,0
2430,87468.23164649354,2010-11-30 10:51:36,1320.6604969369932,2,9,0.5501165986061096,3.905183076858521,7.120736529203055,7.579718760571895,28.532372281491,27.5112075004051,3.237724376958795e-05,0.0947341993451118,0,0,0
2431,87498.24886258125,2010-11-30 10:52:06,1350.6777131249685,2,9,0.5501165986061096,3.90680193901062,7.125323191872743,7.579718760571895,28.550287986532965,27.5112075004051,3.237724376958795e-05,0.0947341993451118,0,0,0
2432,87528.26164821396,2010-11-30 10:52:36,1380.6904986674533,2,9,0.550297200679779,3.9085826873779297,7.129909094496486,7.579718760571895,28.568208355335376,27.5112075004051,3.237724376958795e-05,0.0947341993451118,0,0,0
2433,87558.27670724894,2010-11-30 10:53:06,1410.7055577024364,2,9,0.5501165986061096,3.910201549530029,7.134495495143501,7.579718760571895,28.58613803088342,27.5112075004051,6.47544875391759e-05,0.0947341993451118,0,0,0
2434,87588.293460936,2010-11-30 10:53:36,1440.7223114797207,2,9,0.5501165986061096,3.911658525466919,7.139082078913869,7.579718760571895,28.60407530183892,27.5112075004051,9.713172767078504e-05,0.0947341993451118,0,0,0
2435,87618.30676337476,2010-11-30 10:54:06,1470.7356138483071,2,9,0.5501165986061096,3.912953615188599,7.143668178654215,7.579718760571895,28.62201754658361,27.5112075004051,0.0,0.0947341993451118,0,0,0
2436,87648.32384479737,2010-11-30 10:54:36,1500.7526953711736,2,9,0.550297200679779,3.914572238922119,7.148254870549688,7.579718760571895,28.639968777544684,27.5112075004051,6.47544875391759e-05,0.0947341993451118,0,0,0
2437,87678.33849517544,2010-11-30 10:55:06,1530.767345739205,2,9,0.5499359965324402,3.915867328643799,7.152841235340014,7.579718760571895,28.657925309869025,27.5112075004051,3.237724376958795e-05,0.0947341993451118,0,0,0
2438,87708.35181545859,2010-11-30 10:55:36,1560.7806659973087,2,9,0.550297200679779,3.9174861907958975,7.157427357461456,7.579718760571895,28.67588745767766,27.5112075004051,6.47544875391759e-05,0.0947341993451118,0,0,0
2439,87738.36679546192,2010-11-30 10:56:06,1590.7956459204247,2,9,0.5497553944587708,3.918619394302368,7.1620137410056,7.579718760571895,28.693857126217225,27.5112075004051,3.237724376958795e-05,0.0947341993451118,0,0,0
2440,87768.38181341969,2010-11-30 10:56:36,1620.8106638932263,2,9,0.5501165986061096,3.920076370239258,7.166600109255136,7.579718760571895,28.711833293293484,27.5112075004051,0.0,0.0947341993451118,0,0,0
2441,87798.39700621752,2010-11-30 10:57:06,1650.825856761248,2,9,0.5501165986061096,3.921533346176148,7.171186460354324,7.579718760571895,28.72981575804821,27.5112075004051,0.0,0.0947341993451118,0,0,0
2442,87828.41184579139,2010-11-30 10:57:36,1680.8406962699487,2,9,0.5501165986061096,3.923152208328247,7.175772690374061,7.579718760571895,28.74780430264373,27.5112075004051,6.47544875391759e-05,0.0947341993451118,0,0,0
2443,87858.42695331704,2010-11-30 10:58:06,1710.855803765524,2,9,0.5501165986061096,3.924447298049927,7.180359037807088,7.579718760571895,28.76579976452805,27.5112075004051,3.237724376958795e-05,0.0947341993451118,0,0,0
2444,87888.44184173245,2010-11-30 10:58:36,1740.8706921859396,2,9,0.5499359965324402,3.9257423877716064,7.184945348879756,7.579718760571895,28.78380166142488,27.5112075004051,3.237724376958795e-05,0.0947341993451118,0,0,0
2445,87918.4568802614,2010-11-30 10:59:06,1770.8857307199066,2,9,0.5501165986061096,3.927361249923706,7.189531710744627,7.579718760571895,28.80181016606328,27.5112075004051,9.713172767078504e-05,0.0947341993451118,0,0,0
2446,87948.47202385179,2010-11-30 10:59:36,1800.900874295265,2,9,0.5501165986061096,3.928818225860596,7.194118026710154,7.579718760571895,28.819825167716523,27.5112075004051,6.47544875391759e-05,0.0947341993451118,0,0,0
2447,87978.48693689347,2010-11-30 11:00:06,1830.9157874271743,2,9,0.5499359965324402,3.9301133155822754,7.198704360114826,7.579718760571895,28.837846945305746,27.5112075004051,0.0,0.0947341993451118,0,0,0
2448,88008.50191106727,2010-11-30 11:00:36,1860.930761515772,2,9,0.550297200679779,3.931570291519165,7.203290733564996,7.579718760571895,28.855875566271298,27.5112075004051,3.237724376958795e-05,0.0947341993451118,0,0,0
2449,88038.5169208096,2010-11-30 11:01:07,1890.945771288167,2,9,0.5499359965324402,3.933027267456055,7.207877096540284,7.579718760571895,28.873910904486102,27.5112075004051,0.0,0.0947341993451118,0,0,0
2450,88068.53204477618,2010-11-30 11:01:37,1920.960895284805,2,9,0.5499359965324402,3.9346461296081534,7.212463427761477,7.579718760571895,28.891952889638112,27.5112075004051,3.237724376958795e-05,0.0947341993451118,0,0,0
2451,88098.54692422927,2010-11-30 11:02:07,1950.975774672744,2,9,0.550297200679779,3.936264991760254,7.217049713247056,7.579718760571895,28.91000161794789,27.5112075004051,6.47544875391759e-05,0.0947341993451118,0,0,0
2452,88128.56193962567,2010-11-30 11:02:37,1980.9907900741464,2,9,0.5499359965324402,3.9375600814819336,7.221635928489937,7.579718760571895,28.92805678463517,27.5112075004051,3.237724376958795e-05,0.0947341993451118,0,0,0
2453,88158.57698057062,2010-11-30 11:03:07,2011.0058310391628,2,9,0.5501165986061096,3.9390170574188232,7.226222286176112,7.579718760571895,28.946119596604987,27.5112075004051,0.0,0.0947341993451118,0,0,0
2454,88188.59220219021,2010-11-30 11:03:37,2041.0210527289064,2,9,0.5501165986061096,3.940635919570923,7.230808685558732,7.579718760571895,28.964189502580176,27.5112075004051,3.237724376958795e-05,0.0947341993451118,0,0,0
2455,88218.60699309294,2010-11-30 11:04:07,2071.0358435364155,2,9,0.5501165986061096,3.942092895507813,7.235395060213867,7.579718760571895,28.982266230653053,27.5112075004051,3.237724376958795e-05,0.0947341993451118,0,0,0
2456,88248.62203091013,2010-11-30 11:04:37,2101.050881358612,2,9,0.5501165986061096,3.943711757659912,7.239981416292225,7.579718760571895,29.00034985272345,27.5112075004051,6.47544875391759e-05,0.0947341993451118,0,0,0
2457,88278.63882840118,2010-11-30 11:05:07,2131.0676789800004,2,9,0.5501165986061096,3.9451687335968018,7.244568028111531,7.579718760571895,29.018441454844865,27.5112075004051,3.237724376958795e-05,0.0947341993451118,0,0,0
2458,88308.65206349235,2010-11-30 11:05:37,2161.0809139358325,2,9,0.5501165986061096,3.946787595748901,7.249154168816336,7.579718760571895,29.036538328087467,27.5112075004051,6.47544875391759e-05,0.0947341993451118,0,0,0
2459,88338.66705572611,2010-11-30 11:06:07,2191.0959061695835,2,9,0.550297200679779,3.948406457901001,7.253740541938074,7.579718760571895,29.054643141913303,27.5112075004051,3.237724376958795e-05,0.0947341993451118,0,0,0
2460,88368.68208948821,2010-11-30 11:06:37,2221.1109399366887,2,9,0.5501165986061096,3.94986343383789,7.258326907989323,7.579718760571895,29.072755141840183,27.5112075004051,6.47544875391759e-05,0.0947341993451118,0,0,0
2461,88398.69709844858,2010-11-30 11:07:07,2251.1259489622253,2,9,0.5501165986061096,3.9516441822052,7.262913264225585,7.579718760571895,29.090874401820752,27.5112075004051,6.47544875391759e-05,0.0947341993451118,0,0,0
2462,88428.71212316817,2010-11-30 11:07:37,2281.140973616654,2,9,0.5501165986061096,3.95310115814209,7.267499649286132,7.579718760571895,29.10900102674617,27.5112075004051,6.47544875391759e-05,0.0947341993451118,0,0,0
2463,88458.72713870992,2010-11-30 11:08:07,2311.1559891784555,2,9,0.5501165986061096,3.9547200202941895,7.272086018189637,7.579718760571895,29.12713494166704,27.5112075004051,6.47544875391759e-05,0.0947341993451118,0,0,0
2464,88488.74213104893,2010-11-30 11:08:37,2341.170981497419,2,9,0.550297200679779,3.956338882446289,7.276672431852385,7.579718760571895,29.14527640695752,27.5112075004051,9.713172767078504e-05,0.0947341993451118,0,0,0
2465,88518.7571730064,2010-11-30 11:09:07,2371.186023550142,2,9,0.5501165986061096,3.9577958583831783,7.28125889159101,7.579718760571895,29.16342540978055,27.5112075004051,6.47544875391759e-05,0.0947341993451118,0,0,0
2466,88548.77221255291,2010-11-30 11:09:37,2401.201063096629,2,9,0.5499359965324402,3.9594147205352783,7.28584526628128,7.579718760571895,29.18158155896435,27.5112075004051,3.237724376958795e-05,0.0947341993451118,0,0,0
2467,88578.78718428063,2010-11-30 11:10:07,2431.216034729114,2,9,0.5501165986061096,3.961357355117798,7.290431652956458,7.579718760571895,29.1997452422343,27.5112075004051,6.47544875391759e-05,0.0947341993451118,0,0,0
2468,88608.80219762192,2010-11-30 11:10:37,2461.231048070391,2,9,0.550297200679779,3.962814331054688,7.295018070905916,7.579718760571895,29.217916613616843,27.5112075004051,6.47544875391759e-05,0.0947341993451118,0,0,0
2469,88638.81720977522,2010-11-30 11:11:07,2491.24606022371,2,9,0.5501165986061096,3.964433193206787,7.299604433247406,7.579718760571895,29.236095351602124,27.5112075004051,6.47544875391759e-05,0.0947341993451118,0,0,0
2470,88668.8323787538,2010-11-30 11:11:37,2521.261229197272,2,9,0.5501165986061096,3.9662139415740967,7.304190815716004,7.579718760571895,29.25428180738902,27.5112075004051,6.47544875391759e-05,0.0947341993451118,0,0,0
2471,88698.8472471945,2010-11-30 11:12:07,2551.276097637968,2,9,0.5501165986061096,3.967832803726196,7.308777239225272,7.579718760571895,29.272476167132247,27.5112075004051,3.237724376958795e-05,0.0947341993451118,0,0,0
2472,88728.86225715236,2010-11-30 11:12:37,2581.291107595825,2,9,0.5499359965324402,3.969451665878296,7.313363611577635,7.579718760571895,29.29067806376703,27.5112075004051,3.237724376958795e-05,0.0947341993451118,0,0,0
2473,88758.87738216652,2010-11-30 11:13:07,2611.3062326150075,2,9,0.5499359965324402,3.9712324142456055,7.317949948311249,7.579718760571895,29.308887536500773,27.5112075004051,6.47544875391759e-05,0.0947341993451118,0,0,0
2474,88788.8924248057,2010-11-30 11:13:37,2641.32127531434,2,9,0.5501165986061096,3.973013162612915,7.322536373139974,7.579718760571895,29.327105218684256,27.5112075004051,6.47544875391759e-05,0.0947341993451118,0,0,0
2475,88818.90727619398,2010-11-30 11:14:07,2671.33612663744,2,9,0.5499359965324402,3.974632024765015,7.327122812442826,7.579718760571895,29.34533082130838,27.5112075004051,3.237724376958795e-05,0.0947341993451118,0,0,0
2476,88848.9224152531,2010-11-30 11:14:37,2701.35126571661,2,9,0.5501165986061096,3.976412773132324,7.331709309105289,7.579718760571895,29.363564547783017,27.5112075004051,3.237724376958795e-05,0.0947341993451118,0,0,0
2477,88878.93912545194,2010-11-30 11:15:07,2731.367975985626,2,9,0.5499359965324402,3.977869749069214,7.33629600850306,7.579718760571895,29.38180689631287,27.5112075004051,0.0,0.0947341993451118,0,0,0
2478,88908.95247307813,2010-11-30 11:15:37,2761.3813235316347,2,9,0.5501165986061096,3.979812383651733,7.340882073415495,7.579718760571895,29.400054631627512,27.5112075004051,3.237724376958795e-05,0.0947341993451118,0,0,0
2479,88938.96734931323,2010-11-30 11:16:07,2791.396199761715,2,9,0.5501165986061096,3.981755018234253,7.345468291840302,7.579718760571895,29.41831131979629,27.5112075004051,6.47544875391759e-05,0.0947341993451118,0,0,0
2480,88968.98251127434,2010-11-30 11:16:37,2821.411361727838,2,9,0.5501165986061096,3.983373880386353,7.350054619356242,7.579718760571895,29.43657664516952,27.5112075004051,6.47544875391759e-05,0.0947341993451118,0,0,0
2481,88998.99736863247,2010-11-30 11:17:07,2851.4262190759314,2,9,0.5501165986061096,3.985154628753662,7.354640866950062,7.579718760571895,29.45484986022724,27.5112075004051,0.0,0.0947341993451118,0,0,0
2482,89029.01253326022,2010-11-30 11:17:37,2881.4413837688403,2,9,0.5499359965324402,3.986935377120972,7.359227200426615,7.579718760571895,29.47313174529049,27.5112075004051,3.237724376958795e-05,0.0947341993451118,0,0,0
2483,89059.02740541515,2010-11-30 11:18:07,2911.456255858617,2,9,0.5501165986061096,3.989039897918701,7.36381352186176,7.579718760571895,29.491421820644696,27.5112075004051,9.713172767078504e-05,0.0947341993451118,0,0,0
2484,89089.04245156806,2010-11-30 11:18:37,2941.471302011544,2,9,0.5499359965324402,3.990496873855591,7.368399825197777,7.579718760571895,29.509720188457745,27.5112075004051,0.0,0.0947341993451118,0,0,0
2485,89119.0574343433,2010-11-30 11:19:07,2971.486284786758,2,9,0.5501165986061096,3.99260139465332,7.372986077456328,7.579718760571895,29.528026814227037,27.5112075004051,6.47544875391759e-05,0.0947341993451118,0,0,0
2486,89149.0729790669,2010-11-30 11:19:37,3001.501829590558,2,9,0.5501165986061096,3.994381904602051,7.377572520594215,7.579718760571895,29.546342692964863,27.5112075004051,6.47544875391759e-05,0.0947341993451118,0,0,0
2487,89179.08747958201,2010-11-30 11:20:07,3031.5163301207235,2,9,0.5501165986061096,3.9963245391845694,7.382158750816283,7.579718760571895,29.56466622223203,27.5112075004051,6.47544875391759e-05,0.0947341993451118,0,0,0
2488,89209.10249764504,2010-11-30 11:20:37,3061.5313480885125,2,9,0.5501165986061096,3.99810528755188,7.38674507030933,7.579718760571895,29.58299868487352,27.5112075004051,6.47544875391759e-05,0.0947341993451118,0,0,0
2489,89239.11749881101,2010-11-30 11:21:07,3091.546349254491,2,9,0.550297200679779,4.000209808349609,7.391331427316739,7.579718760571895,29.60134000872242,27.5112075004051,6.47544875391759e-05,0.0947341993451118,0,0,0
2490,89269.13253677356,2010-11-30 11:21:37,3121.561387222049,2,9,0.5501165986061096,4.001990795135498,7.39591773662685,7.579718760571895,29.619690108223327,27.5112075004051,3.24249267578125e-05,0.0947341993451118,0,0,0
2491,89299.14755668119,2010-11-30 11:22:07,3151.5764071246526,2,9,0.5501165986061096,4.003933429718018,7.400504072115875,7.579718760571895,29.63804932746405,27.5112075004051,3.24249267578125e-05,0.0947341993451118,0,0,0
2492,89329.16255021819,2010-11-30 11:22:37,3181.5914006616463,2,9,0.5499359965324402,4.005876064300537,7.405090362356542,7.579718760571895,29.65641754603748,27.5112075004051,3.24249267578125e-05,0.0947341993451118,0,0,0
2493,89359.17757210071,2010-11-30 11:23:07,3211.6064225441773,2,9,0.5499359965324402,4.008142471313477,7.409676692161319,7.579718760571895,29.67479520691933,27.5112075004051,6.47544875391759e-05,0.0947341993451118,0,0,0
2494,89389.19260214354,2010-11-30 11:23:37,3241.6214525870146,2,9,0.5499359965324402,4.010085105895996,7.414263002867174,7.579718760571895,29.6931821340827,27.5112075004051,6.47544875391759e-05,0.0947341993451118,0,0,0
2495,89419.2097928832,2010-11-30 11:24:07,3271.638643416888,2,9,0.5501165986061096,4.0121893882751465,7.418849638425907,7.579718760571895,29.711579835207026,27.5112075004051,6.47544875391759e-05,0.0947341993451118,0,0,0
2496,89449.22262934237,2010-11-30 11:24:37,3301.651479785852,2,9,0.5499359965324402,4.014132022857666,7.423435628004317,7.579718760571895,29.72998456220183,27.5112075004051,0.0,0.0947341993451118,0,0,0
2497,89479.23936184173,2010-11-30 11:25:07,3331.668212405486,2,9,0.550297200679779,4.0165605545043945,7.428022209339193,7.579718760571895,29.748401399730252,27.5112075004051,6.47544875391759e-05,0.0947341993451118,0,0,0
2498,89509.25439229557,2010-11-30 11:25:37,3361.6832427440595,2,9,0.5501165986061096,4.018664836883545,7.432608573663777,7.579718760571895,29.766827278584223,27.5112075004051,6.47544875391759e-05,0.0947341993451118,0,0,0
2499,89539.26770696978,2010-11-30 11:26:07,3391.696557473405,2,9,0.5501165986061096,4.020931243896484,7.437194683373228,7.579718760571895,29.785262038127964,27.5112075004051,9.70840483205393e-05,0.0947341993451118,0,0,0
2500,89569.28482476792,2010-11-30 11:26:37,3421.713675311641,2,9,0.5501165986061096,4.023036003112793,7.441781330125529,7.579718760571895,29.80370905885664,27.5112075004051,9.71794142969884e-05,0.0947341993451118,0,0,0
2501,89599.29784600191,2010-11-30 11:27:07,3451.7266964453856,2,9,0.5501165986061096,4.025140285491943,7.446367327727098,7.579718760571895,29.82216367527444,27.5112075004051,3.23295607813634e-05,0.0947341993451118,0,0,0
2502,89629.31274244229,2010-11-30 11:27:37,3481.741592890771,2,9,0.5501165986061096,4.027568817138672,7.450953572719414,7.579718760571895,29.840629639890565,27.5112075004051,9.71794142969884e-05,0.0947341993451118,0,0,0
2503,89659.3278621282,2010-11-30 11:28:07,3511.7567125716687,2,9,0.5501165986061096,4.029673099517822,7.455539920072471,7.579718760571895,29.85910646677464,27.5112075004051,3.23295607813634e-05,0.0947341993451118,0,0,0
2504,89689.34276656347,2010-11-30 11:28:37,3541.7716170069366,2,9,0.550297200679779,4.032263278961182,7.460126141958082,7.579718760571895,29.877593265970976,27.5112075004051,9.70840483205393e-05,0.0947341993451118,0,0,0
2505,89719.35780250098,2010-11-30 11:29:07,3571.7866529695048,2,9,0.5501165986061096,4.034367561340332,7.464712455708608,7.579718760571895,29.896091164096987,27.5112075004051,3.23295607813634e-05,0.0947341993451118,0,0,0
2506,89749.37282054896,2010-11-30 11:29:37,3601.801670997444,2,9,0.5501165986061096,4.036957740783691,7.469298787083038,7.579718760571895,29.91459999466612,27.5112075004051,9.70840483205393e-05,0.0947341993451118,0,0,0
2507,89779.38781237169,2010-11-30 11:30:07,3631.81666281516,2,9,0.5501165986061096,4.039224147796631,7.473885118001212,7.579718760571895,29.9331198004866,27.5112075004051,6.47544875391759e-05,0.0947341993451118,0,0,0
2508,89809.4028299084,2010-11-30 11:30:37,3661.831680356888,2,9,0.5501165986061096,4.041652679443359,7.478471505458658,7.579718760571895,29.951650696460263,27.5112075004051,6.47544875391759e-05,0.0947341993451118,0,0,0
2509,89839.41785819687,2010-11-30 11:31:07,3691.846708640347,2,9,0.5499359965324402,4.043919086456299,7.48305775750671,7.579718760571895,29.97019215988671,27.5112075004051,6.47544875391759e-05,0.0947341993451118,0,0,0
2510,89869.43287299678,2010-11-30 11:31:37,3721.8617234402527,2,9,0.5501165986061096,4.046509265899658,7.487644108492446,7.579718760571895,29.988745221664036,27.5112075004051,6.47544875391759e-05,0.0947341993451118,0,0,0
2511,89899.44788070905,2010-11-30 11:32:07,3751.876731217684,2,9,0.5501165986061096,4.0489373207092285,7.492230350597124,7.579718760571895,30.00730916075542,27.5112075004051,3.23295607813634e-05,0.0947341993451118,0,0,0
2512,89929.46305100089,2010-11-30 11:32:37,3781.891901454389,2,9,0.5501165986061096,4.051527500152588,7.496816704837348,7.579718760571895,30.025884951324,27.5112075004051,9.70840483205393e-05,0.0947341993451118,0,0,0
2513,89959.47790779259,2010-11-30 11:33:08,3811.906758241085,2,9,0.550297200679779,4.053956031799316,7.501403035094818,7.579718760571895,30.044472150617704,27.5112075004051,6.47544875391759e-05,0.0947341993451118,0,0,0
2514,89989.49307391407,2010-11-30 11:33:38,3841.9219243876105,2,9,0.5499359965324402,4.056384086608887,7.505989366212874,7.579718760571895,30.06307081722931,27.5112075004051,3.23295607813634e-05,0.0947341993451118,0,0,0
2515,90019.50794442992,2010-11-30 11:34:08,3871.9367948733966,2,9,0.5501165986061096,4.058974266052246,7.510575710237637,7.579718760571895,30.081681205593178,27.5112075004051,0.0,0.0947341993451118,0,0,0
2516,90049.52295936517,2010-11-30 11:34:38,3901.951809808639,2,9,0.5501165986061096,4.0615644454956055,7.515162062828809,7.579718760571895,30.100303138159777,27.5112075004051,6.47544875391759e-05,0.0947341993451118,0,0,0
2517,90079.53975479607,2010-11-30 11:35:08,3931.9686053598766,2,9,0.5499359965324402,4.063992977142334,7.519748634119384,7.579718760571895,30.118937808369708,27.5112075004051,3.24249267578125e-05,0.0947341993451118,0,0,0
2518,90109.553050864,2010-11-30 11:35:38,3961.981901312497,2,9,0.5499359965324402,4.066744804382324,7.524334687864942,7.579718760571895,30.13758245947026,27.5112075004051,6.47544875391759e-05,0.0947341993451118,0,0,0
2519,90139.5680526816,2010-11-30 11:36:08,3991.9969031300966,2,9,0.5501165986061096,4.069497108459473,7.528920978678556,7.579718760571895,30.15624020494883,27.5112075004051,3.24249267578125e-05,0.0947341993451118,0,0,0
2520,90169.58294427991,2010-11-30 11:36:38,4022.011794723408,2,9,0.5497553944587708,4.071925163269043,7.53350721335304,7.579718760571895,30.17490990167243,27.5112075004051,3.23295607813634e-05,0.0947341993451118,0,0,0
2521,90199.59803914907,2010-11-30 11:37:08,4052.0268895925633,2,9,0.5497553944587708,4.074839115142822,7.538092639506036,7.579718760571895,30.19358847832483,27.5112075004051,9.70840483205393e-05,0.0947341993451118,0,0,0
2522,90229.6130703498,2010-11-30 11:37:38,4082.0419207932814,2,9,0.5499359965324402,4.077591419219971,7.542678028445747,7.579718760571895,30.212279379089725,27.5112075004051,6.47544875391759e-05,0.0947341993451118,0,0,0
2523,90259.6280746586,2010-11-30 11:38:08,4112.056925102082,2,9,0.5499359965324402,4.080343246459961,7.547263488354516,7.579718760571895,30.230983237643844,27.5112075004051,9.70840483205393e-05,0.0947341993451118,0,0,0
2524,90289.64303883754,2010-11-30 11:38:38,4142.071889371243,2,9,0.5501165986061096,4.08325719833374,7.551848984413725,7.579718760571895,30.24970005403094,27.5112075004051,9.70840483205393e-05,0.0947341993451118,0,0,0
2525,90319.65810828844,2010-11-30 11:39:08,4172.086958731921,2,9,0.5499359965324402,4.086009502410889,7.556435343433043,7.579718760571895,30.26843347282493,27.5112075004051,9.71794142969884e-05,0.0947341993451118,0,0,0
2526,90349.67314791011,2010-11-30 11:39:38,4202.101998373645,2,9,0.5501165986061096,4.088761329650879,7.561021628183996,7.579718760571895,30.28717961127571,27.5112075004051,6.47544875391759e-05,0.0947341993451118,0,0,0
2527,90379.68826192692,2010-11-30 11:40:08,4232.117112370399,2,9,0.5501165986061096,4.091837406158447,7.565608038903509,7.579718760571895,30.30593953448949,27.5112075004051,6.47544875391759e-05,0.0947341993451118,0,0,0
2528,90409.703155029,2010-11-30 11:40:38,4262.1320054674525,2,9,0.5501165986061096,4.094751358032227,7.570194409966712,7.579718760571895,30.324712597131555,27.5112075004051,9.71794142969884e-05,0.0947341993451118,0,0,0
2529,90439.71817560328,2010-11-30 11:41:08,4292.147026041726,2,9,0.5497553944587708,4.097503185272217,7.57478073328407,7.579718760571895,30.34349876925643,27.5112075004051,9.70840483205393e-05,0.0947341993451118,0,0,0
2530,90469.73320153086,2010-11-30 11:41:38,4322.162051974336,2,9,0.5501165986061096,4.100417137145996,7.57936712052333,7.579718760571895,30.36229859901672,27.5112075004051,6.47544875391759e-05,0.0947341993451118,0,0,0
2531,90499.74822272667,2010-11-30 11:42:08,4352.177073180183,2,9,0.5501165986061096,4.1034932136535645,7.583953451220861,7.579718760571895,30.381111671031576,27.5112075004051,6.47544875391759e-05,0.0947341993451118,0,0,0
2532,90529.76323242892,2010-11-30 11:42:38,4382.192082867367,2,9,0.5499359965324402,4.106407165527344,7.588539731636358,7.579718760571895,30.399938259242862,27.5112075004051,6.47544875391759e-05,0.0947341993451118,0,0,0
2533,90559.77827226612,2010-11-30 11:43:08,4412.207122729638,2,9,0.5501165986061096,4.109482765197754,7.59312606660224,7.579718760571895,30.41877880429733,27.5112075004051,6.47544875391759e-05,0.0947341993451118,0,0,0
2534,90589.79329160732,2010-11-30 11:43:38,4442.222142055809,2,9,0.5501165986061096,4.112558841705322,7.597712387395583,7.579718760571895,30.43763316183353,27.5112075004051,9.71794142969884e-05,0.0947341993451118,0,0,0
2535,90619.8082732748,2010-11-30 11:44:08,4472.237123783415,2,9,0.5501165986061096,4.115472316741943,7.602298715290648,7.579718760571895,30.45650151115478,27.5112075004051,3.23295607813634e-05,0.0947341993451118,0,0,0
2536,90649.8232917739,2010-11-30 11:44:38,4502.252142217364,2,9,0.5501165986061096,4.118710041046143,7.606885034465718,7.579718760571895,30.47538408992065,27.5112075004051,6.47544875391759e-05,0.0947341993451118,0,0,0
2537,90679.84028880652,2010-11-30 11:45:08,4532.269139335192,2,9,0.5501165986061096,4.121947765350342,7.611471721878115,7.579718760571895,30.49428272677538,27.5112075004051,9.70840483205393e-05,0.0947341993451118,0,0,0
2538,90709.85340995916,2010-11-30 11:45:38,4562.282260462766,2,9,0.5499359965324402,4.12502384185791,7.616057808107938,7.579718760571895,30.51319338531115,27.5112075004051,6.47544875391759e-05,0.0947341993451118,0,0,0
2539,90739.86833409344,2010-11-30 11:46:08,4592.297184637155,2,9,0.5497553944587708,4.12809944152832,7.620644144749496,7.579718760571895,30.532119574612818,27.5112075004051,9.70840483205393e-05,0.0947341993451118,0,0,0
2540,90769.88336106864,2010-11-30 11:46:38,4622.31221151211,2,9,0.5501165986061096,4.131499290466309,7.625230577052556,7.579718760571895,30.55106091307598,27.5112075004051,6.47544875391759e-05,0.0947341993451118,0,0,0
2541,90799.89835646526,2010-11-30 11:47:08,4652.32720696888,2,9,0.5501165986061096,4.134574890136719,7.629816951557558,7.579718760571895,30.570016778256868,27.5112075004051,3.23295607813634e-05,0.0947341993451118,0,0,0
2542,90829.91346832168,2010-11-30 11:47:38,4682.342318765158,2,9,0.5501165986061096,4.137974739074707,7.63440329820874,7.579718760571895,30.58898749635009,27.5112075004051,6.47544875391759e-05,0.0947341993451118,0,0,0
2543,90859.92837833082,2010-11-30 11:48:08,4712.357228774296,2,9,0.5501165986061096,4.141050338745117,7.638989745506012,7.579718760571895,30.60797382338832,27.5112075004051,6.47544875391759e-05,0.0947341993451118,0,0,0
2544,90889.94338804307,2010-11-30 11:48:38,4742.372238486541,2,9,0.5501165986061096,4.144773960113525,7.643576194333843,7.579718760571895,30.6269754850779,27.5112075004051,0.0001295089750783,0.0947341993451118,0,0,0
2545,90919.9585373878,2010-11-30 11:49:08,4772.387387831257,2,9,0.5499359965324402,4.148011684417725,7.648162550279421,7.579718760571895,30.64599247976596,27.5112075004051,6.47544875391759e-05,0.0947341993451118,0,0,0
2546,90949.97356968623,2010-11-30 11:49:38,4802.402420179832,2,9,0.5501165986061096,4.151411056518555,7.652748863285227,7.579718760571895,30.665024708711307,27.5112075004051,3.23295607813634e-05,0.0947341993451118,0,0,0
2547,90979.98846118936,2010-11-30 11:50:08,4832.417311627781,2,9,0.5501165986061096,4.154972553253174,7.657335156694561,7.579718760571895,30.684072424081812,27.5112075004051,9.70840483205393e-05,0.0947341993451118,0,0,0
2548,91010.00346835524,2010-11-30 11:50:38,4862.432318798703,2,9,0.5501165986061096,4.158372402191162,7.66192145413886,7.579718760571895,30.703135839011868,27.5112075004051,9.71794142969884e-05,0.0947341993451118,0,0,0
2549,91040.01847894969,2010-11-30 11:51:08,4892.447329388131,2,9,0.5501165986061096,4.161771774291992,7.666507756720798,7.579718760571895,30.72221506783924,27.5112075004051,9.70840483205393e-05,0.0947341993451118,0,0,0
2550,91070.0340681289,2010-11-30 11:51:38,4922.462918667607,2,9,0.5499359965324402,4.1651716232299805,7.671094231484785,7.579718760571895,30.741310873928526,27.5112075004051,9.71794142969884e-05,0.0947341993451118,0,0,0
2551,91100.04851545668,2010-11-30 11:52:08,4952.477365970318,2,9,0.5501165986061096,4.1687331199646,7.675680434299157,7.579718760571895,30.760421460784723,27.5112075004051,6.47544875391759e-05,0.0947341993451118,0,0,0
2552,91130.06363674658,2010-11-30 11:52:38,4982.492487190047,2,9,0.5499359965324402,4.17213249206543,7.680266782945831,7.579718760571895,30.779548679464057,27.5112075004051,6.47544875391759e-05,0.0947341993451118,0,0,0
2553,91160.07854505148,2010-11-30 11:53:08,5012.507395499956,2,9,0.5501165986061096,4.175693988800049,7.684853122540763,7.579718760571895,30.79869202708322,27.5112075004051,6.47544875391759e-05,0.0947341993451118,0,0,0
2554,91190.09358717938,2010-11-30 11:53:38,5042.522437622853,2,9,0.5501165986061096,4.179417610168457,7.689439487123843,7.579718760571895,30.81785177162145,27.5112075004051,0.0001295089750783,0.0947341993451118,0,0,0
2555,91220.1085786412,2010-11-30 11:54:08,5072.537429079672,2,9,0.5501165986061096,4.182979106903076,7.694025883098439,7.579718760571895,30.837028036243385,27.5112075004051,6.47544875391759e-05,0.0947341993451118,0,0,0
2556,91250.12358868428,2010-11-30 11:54:38,5102.552439132765,2,9,0.5501165986061096,4.186540603637695,7.698612214743982,7.579718760571895,30.85622048037901,27.5112075004051,0.0001295089750783,0.0947341993451118,0,0,0
2557,91280.14041254096,2010-11-30 11:55:08,5132.569263069639,2,9,0.5499359965324402,4.1901021003723145,7.703198859796765,7.579718760571895,30.87543086341318,27.5112075004051,9.71794142969884e-05,0.0947341993451118,0,0,0
2558,91310.15364474496,2010-11-30 11:55:38,5162.582495188412,2,9,0.5501165986061096,4.1938252449035645,7.707784914785328,7.579718760571895,30.89465553080475,27.5112075004051,9.70840483205393e-05,0.0947341993451118,0,0,0
2559,91340.1707847333,2010-11-30 11:56:08,5192.599635266992,2,9,0.5501165986061096,4.197386741638184,7.712371531408178,7.579718760571895,30.913899333589075,27.5112075004051,9.71794142969884e-05,0.0947341993451118,0,0,0
2560,91359.52783579032,2010-11-30 11:56:28,5211.956686329057,2,9,0.550297200679779,4.200138568878174,7.715329278649404,7.579718760571895,30.92631787636701,27.5112075004051,0.0001618385285837,0.0947341993451118,0,0,0
2561,91389.543296406,2010-11-30 11:56:58,30.015019912628738,3,9,0.0,4.107702255249023,7.715329278649404,7.579718760571895,30.92631787636701,27.5112075004051,-0.0004208564641885,0.0947341993451118,0,0,0
2562,91419.55831890508,2010-11-30 11:57:28,60.03004242171866,3,9,0.0,4.096208095550537,7.715329278649404,7.579718760571895,30.92631787636701,27.5112075004051,-0.0002914428769145,0.0947341993451118,0,0,0
2563,91449.5733639753,2010-11-30 11:57:58,90.04508748192617,3,9,0.0,4.089408874511719,7.715329278649404,7.579718760571895,30.92631787636701,27.5112075004051,-0.0001295089750783,0.0947341993451118,0,0,0
2564,91479.54149113211,2010-11-30 11:58:28,120.0132146437481,3,9,0.0,4.08487606048584,7.715329278649404,7.579718760571895,30.92631787636701,27.5112075004051,-9.71794142969884e-05,0.0947341993451118,0,0,0
2565,91479.54455056094,2010-11-30 11:58:28,2.736810448e-06,4,9,0.9938735961914062,4.199814796447754,7.715329279404972,7.579718760571895,30.926317879540253,27.5112075004051,0.0,0.0947341993451118,0,0,0
2566,91480.37077000624,2010-11-30 11:58:29,0.826222287384376,4,9,0.9433029890060424,4.199814796447754,7.715549788872229,7.579718760571895,30.927243975101177,27.5112075004051,0.0,0.0947341993451118,0,0,0
2567,91482.54263612154,2010-11-30 11:58:31,2.998088307441981,4,9,0.8929130434989929,4.199814796447754,7.71610255618719,7.579718760571895,30.929565495055712,27.5112075004051,0.0,0.0947341993451118,0,0,0
2568,91485.839317752,2010-11-30 11:58:34,6.294769942896362,4,9,0.8428842425346375,4.199814796447754,7.716896299971576,7.579718760571895,30.932899068900195,27.5112075004051,0.0,0.0947341993451118,0,0,0
2569,91490.35485261682,2010-11-30 11:58:39,10.810304802720616,4,9,0.7928555011749268,4.199814796447754,7.717920975059646,7.579718760571895,30.93720254579472,27.5112075004051,-3.24249267578125e-05,0.0947341993451118,0,0,0
2570,91496.3391216702,2010-11-30 11:58:45,16.79457385609575,4,9,0.7424654960632324,4.199814796447754,7.719195460107051,7.579718760571895,30.94255518908641,27.5112075004051,-3.24249267578125e-05,0.0947341993451118,0,0,0
2571,91504.12026051997,2010-11-30 11:58:52,24.5757128161232,4,9,0.6922560930252075,4.199814796447754,7.7207437290863,7.579718760571895,30.94905769208413,27.5112075004051,-3.24249267578125e-05,0.0947341993451118,0,0,0
2572,91514.51061172428,2010-11-30 11:59:03,34.96606391520437,4,9,0.6422273516654968,4.199814796447754,7.722666146720989,7.579718760571895,30.95713156862736,27.5112075004051,0.0,0.0947341993451118,0,0,0
2573,91529.24491257024,2010-11-30 11:59:18,49.70036478621802,4,9,0.5921985507011414,4.199814796447754,7.725186315176332,7.579718760571895,30.967715904609324,27.5112075004051,0.0,0.0947341993451118,0,0,0
2574,91552.08798574928,2010-11-30 11:59:40,72.54343799030664,4,9,0.5419892072677612,4.199814796447754,7.728772455567905,7.579718760571895,30.98277717450636,27.5112075004051,0.0,0.0947341993451118,0,0,0
2575,91592.63405441667,2010-11-30 12:00:21,113.0895066075966,4,9,0.4914186000823974,4.199653148651123,7.734568242323584,7.579718760571895,31.00711863035313,27.5112075004051,-3.23295607813634e-05,0.0947341993451118,0,0,0
2576,91670.03884733174,2010-11-30 12:01:38,190.494299582808,4,9,0.4413898289203644,4.199814796447754,7.744557963890812,7.579718760571895,31.049074006030665,27.5112075004051,0.0,0.0947341993451118,0,0,0
2577,91783.67717162604,2010-11-30 12:03:32,304.13262387710955,4,9,0.3913610577583313,4.199814796447754,7.75767504033664,7.579718760571895,31.104163844788463,27.5112075004051,-3.24249267578125e-05,0.0947341993451118,0,0,0
2578,91923.83043746256,2010-11-30 12:05:52,444.2858896534838,4,9,0.3413322865962982,4.199814796447754,7.771917673308358,7.579718760571895,31.1639808817002,27.5112075004051,-3.24249267578125e-05,0.0947341993451118,0,0,0
2579,92093.74889562538,2010-11-30 12:08:42,614.2043478864713,4,9,0.2911229133605957,4.199976921081543,7.786827908000872,7.579718760571895,31.22660188330352,27.5112075004051,0.0,0.0947341993451118,0,0,0
2580,92298.01036722124,2010-11-30 12:12:06,818.4658194121524,4,9,0.2410941421985626,4.199814796447754,7.801902198852456,7.579718760571895,31.289911864725763,27.5112075004051,-3.24249267578125e-05,0.0947341993451118,0,0,0
2581,92555.9895280908,2010-11-30 12:16:24,1076.4449803017508,4,9,0.1910653710365295,4.199976921081543,7.817344858546072,7.579718760571895,31.354768799819404,27.5112075004051,3.24249267578125e-05,0.0947341993451118,0,0,0
2582,92891.37332444364,2010-11-30 12:22:00,1411.8287766345484,4,9,0.1410365998744964,4.199653148651123,7.832733137988302,7.579718760571895,31.419397402844396,27.5112075004051,-3.23295607813634e-05,0.0947341993451118,0,0,0
2583,93396.4100207028,2010-11-30 12:30:25,1916.8654728987133,4,9,0.0910078287124633,4.199814796447754,7.848784633041826,7.579718760571895,31.486811201387287,27.5112075004051,0.0,0.0947341993451118,0,0,0
2584,94152.0671321108,2010-11-30 12:43:00,2672.522584396941,4,9,0.0498289167881011,4.199653148651123,7.863140137988111,7.579718760571895,31.54710233067697,27.5112075004051,-6.47544875391759e-05,0.0947341993451118,0,0,0
2585,94182.08441890863,2010-11-30 12:43:31,30.015315217483508,5,9,0.0,4.191235065460205,7.863140137988111,7.579718760571895,31.54710233067697,27.5112075004051,-3.24249267578125e-05,0.0947341993451118,0,0,0
2586,94212.08366593606,2010-11-30 12:44:01,60.01456227496886,5,9,0.0,4.189939975738525,7.863140137988111,7.579718760571895,31.54710233067697,27.5112075004051,-3.24249267578125e-05,0.0947341993451118,0,0,0
2587,94212.27465293476,2010-11-30 12:44:01,0.187407696845612,6,9,-0.0003804616571869,4.190749645233154,7.863140137988111,7.579718780377851,31.54710233067697,27.511207583406904,0.0,0.0987826660275459,0,0,0
2588,94217.08728990173,2010-11-30 12:44:06,5.000044658824074,6,9,0.0005225847125984,4.189778327941895,7.863141040297427,7.579718780377851,31.54710611143349,27.511207583406904,-6.47544875391759e-05,0.0987826660275459,0,0,0
2589,94247.10597129138,2010-11-30 12:44:36,30.01504256399579,7,9,-1.0993878841400146,3.99826717376709,7.863141040297427,7.588886531597304,31.54710611143349,27.54807421001609,-0.0010360718006268,0.0987826660275459,0,0,0
2590,94277.12097172052,2010-11-30 12:45:06,60.03004301319052,7,9,-1.0993878841400146,3.968804121017456,7.863141040297427,7.598054272159724,31.54710611143349,27.584584246825493,-0.0006475448608398,0.0987826660275459,0,0,0
2591,94307.13596627004,2010-11-30 12:45:36,90.04503756771659,7,9,-1.099568486213684,3.948244571685791,7.863141040297427,7.607221934993276,31.54710611143349,27.62086919309877,-0.0004532813909463,0.0987826660275459,0,0,0
2592,94337.15097946096,2010-11-30 12:46:06,120.0600507335562,7,9,-1.0997490882873535,3.932217836380005,7.863141040297427,7.616389610574212,31.54710611143349,27.656989492444502,-0.0003885269106831,0.0987826660275459,0,0,0
2593,94367.16612101629,2010-11-30 12:46:36,150.07519231395048,7,9,-1.0993878841400146,3.919266939163208,7.863141040297427,7.625557365349856,31.54710611143349,27.692977819245847,-0.0002913951757363,0.0987826660275459,0,0,0
2594,94397.18105216304,2010-11-30 12:47:06,180.09012346068872,7,9,-1.0997490882873535,3.90728759765625,7.863141040297427,7.634725012546479,31.54710611143349,27.728852689004043,-0.0003237724304199,0.0987826660275459,0,0,0
2595,94427.19603531918,2010-11-30 12:47:36,210.10510659178803,7,9,-1.099568486213684,3.896926879882813,7.863141040297427,7.643892707527914,31.54710611143349,27.76462580240278,-0.0002590179501567,0.0987826660275459,0,0,0
2596,94457.2110504449,2010-11-30 12:48:06,240.12012174256708,7,9,-1.0997490882873535,3.887051820755005,7.863141040297427,7.653060341779588,31.54710611143349,27.80030558297918,-0.0002266406954731,0.0987826660275459,0,0,0
2597,94487.22609477329,2010-11-30 12:48:36,270.13516609601584,7,9,-1.0997490882873535,3.877176761627197,7.863141040297427,7.662228068976724,31.54710611143349,27.83589638037559,-0.0003237724304199,0.0987826660275459,0,0,0
2598,94517.24110971352,2010-11-30 12:49:06,300.1501810112087,7,9,-1.0993878841400146,3.8682730197906494,7.863141040297427,7.671395768466248,31.54710611143349,27.87140078693664,-0.0002266406954731,0.0987826660275459,0,0,0
2599,94547.2560989699,2010-11-30 12:49:36,330.16517023747554,7,9,-1.099568486213684,3.8593692779541016,7.863141040297427,7.680563387116136,31.54710611143349,27.906822702847773,-0.0002266406954731,0.0987826660275459,0,0,0
2600,94577.2712421342,2010-11-30 12:50:06,360.1803134068239,7,9,-1.099929690361023,3.850303649902344,7.863141040297427,7.689731077767409,31.54710611143349,27.94216455608772,-0.0003237724304199,0.0987826660275459,0,0,0
2601,94607.28793340096,2010-11-30 12:50:36,390.1970048139023,7,9,-1.0997490882873535,3.842047452926636,7.863141040297427,7.698899268796975,31.54710611143349,27.977429325238965,-0.0002266406954731,0.0987826660275459,0,0,0
2602,94637.30130832008,2010-11-30 12:51:06,420.21037960270365,7,9,-1.0993878841400146,3.833791255950928,7.863141040297427,7.708066414190371,31.54710611143349,28.0126127670741,-0.0002590179501567,0.0987826660275459,0,0,0
2603,94667.31617404902,2010-11-30 12:51:36,450.2252453466896,7,9,-1.0993878841400146,3.825535297393799,7.863141040297427,7.717234077226453,31.54710611143349,28.047721965152228,-0.0001942634553415,0.0987826660275459,0,0,0
2604,94697.3313180354,2010-11-30 12:52:06,480.2403893330711,7,9,-1.099568486213684,3.817440986633301,7.863141040297427,7.726401837517622,31.54710611143349,28.082756807004618,-0.0001942634553415,0.0987826660275459,0,0,0
2605,94727.34622302205,2010-11-30 12:52:36,510.2552942946487,7,9,-1.0997490882873535,3.8095085620880127,7.863141040297427,7.735569540145169,31.54710611143349,28.11771842546436,-0.0002266406954731,0.0987826660275459,0,0,0
2606,94757.36171740538,2010-11-30 12:53:06,540.2707887431416,7,9,-1.099568486213684,3.801738023757935,7.863141040297427,7.744737389548978,31.54710611143349,28.15260869045316,-0.0002266406954731,0.0987826660275459,0,0,0
2607,94787.37626600516,2010-11-30 12:53:36,570.2853373629763,7,9,-1.099568486213684,3.7944531440734863,7.863141040297427,7.753904955068872,31.54710611143349,28.18742829716856,-0.0001942634553415,0.0987826660275459,0,0,0
2608,94817.39129036888,2010-11-30 12:54:06,600.3003616615192,7,9,-1.099568486213684,3.787006378173828,7.863141040297427,7.76307261256777,31.54710611143349,28.22218005841851,-0.0001942634553415,0.0987826660275459,0,0,0
2609,94847.40628016656,2010-11-30 12:54:36,630.3153514341457,7,9,-1.099568486213684,3.77972149848938,7.863141040297427,7.772240306926355,31.54710611143349,28.25686488137169,-0.0001942634553415,0.0987826660275459,0,0,0
2610,94877.42131185348,2010-11-30 12:55:06,660.3303831260868,7,9,-1.099568486213684,3.7725985050201416,7.863141040297427,7.781407956300637,31.54710611143349,28.2914834303744,-0.0001942634553415,0.0987826660275459,0,0,0
2611,94907.4363146084,2010-11-30 12:55:36,690.3453858910443,7,9,-1.099568486213684,3.765637397766113,7.863141040297427,7.790575648762262,31.54710611143349,28.326037454052397,-0.0001942634553415,0.0987826660275459,0,0,0
2612,94937.45133002484,2010-11-30 12:56:06,720.3604014127463,7,9,-1.0993878841400146,3.758838176727295,7.863141040297427,7.799743350439076,31.54710611143349,28.36052784316313,-0.0001618862152099,0.0987826660275459,0,0,0
2613,94967.46632067968,2010-11-30 12:56:36,750.3753920124309,7,9,-1.0993878841400146,3.752039194107056,7.863141040297427,7.808911011679145,31.54710611143349,28.39495564678036,-0.0001618862152099,0.0987826660275459,0,0,0
2614,94997.48141393984,2010-11-30 12:57:06,780.3904852575448,7,9,-1.099568486213684,3.745563745498657,7.863141040297427,7.818078637098916,31.54710611143349,28.42932250402876,-0.0001618862152099,0.0987826660275459,0,0,0
2615,95027.49857284024,2010-11-30 12:57:36,810.407644208087,7,9,-1.0993878841400146,3.738926410675049,7.863141040297427,7.827246899788417,31.54710611143349,28.463631552016235,-0.0001295089750783,0.0987826660275459,0,0,0
2616,95057.51137525972,2010-11-30 12:58:06,840.4204465323323,7,9,-1.0993878841400146,3.732612848281861,7.863141040297427,7.836413852316348,31.54710611143349,28.49787701569578,-0.0001295089750783,0.0987826660275459,0,0,0
2617,95087.52638998943,2010-11-30 12:58:36,870.4354612670761,7,9,-1.0993878841400146,3.726461172103882,7.863141040297427,7.845581447128754,31.54710611143349,28.53206724881738,-0.0001942634553415,0.0987826660275459,0,0,0
2618,95117.54314522036,2010-11-30 12:59:06,900.4522166182769,7,9,-1.0993878841400146,3.7203094959259033,7.863141040297427,7.854749563684819,31.54710611143349,28.566203726743204,-0.0001618862152099,0.0987826660275459,0,0,0
2619,95147.55643287732,2010-11-30 12:59:36,930.4655041549548,7,9,-1.0997490882873535,3.714157819747925,7.863141040297427,7.863916597470499,31.54710611143349,28.600280496819867,-0.0001618862152099,0.0987826660275459,0,0,0
2620,95177.57349986905,2010-11-30 13:00:06,960.4825712669603,7,9,-1.0997490882873535,3.708168029785156,7.863141040297427,7.873084758980851,31.54710611143349,28.63430605882981,-0.0001942634553415,0.0987826660275459,0,0,0
2621,95207.58817138973,2010-11-30 13:00:36,990.4972427575544,7,9,-1.0997490882873535,3.7023401260375977,7.863141040297427,7.88225221673306,31.54710611143349,28.66827494311061,-0.0001618862152099,0.0987826660275459,0,0,0
2622,95237.60151066516,2010-11-30 13:01:06,1020.5105819377452,7,9,-1.099568486213684,3.696674108505249,7.863141040297427,7.891419287118359,31.54710611143349,28.70218908896516,-0.0001618862152099,0.0987826660275459,0,0,0
2623,95267.61648732513,2010-11-30 13:01:36,1050.5255586177911,7,9,-1.099568486213684,3.691008090972901,7.863141040297427,7.900586845954121,31.54710611143349,28.736052375384663,-0.0001618862152099,0.0987826660275459,0,0,0
2624,95297.63162195824,2010-11-30 13:02:06,1080.5406932609224,7,9,-1.099568486213684,3.685342073440552,7.863141040297427,7.90975448373473,31.54710611143349,28.769864477735187,-0.0001295089750783,0.0987826660275459,0,0,0
2625,95327.6465212507,2010-11-30 13:02:36,1110.5555925233175,7,9,-1.0993878841400146,3.679999828338623,7.863141040297427,7.918922023812175,31.54710611143349,28.803625982760853,-0.0001618862152099,0.0987826660275459,0,0,0
2626,95357.66157805012,2010-11-30 13:03:06,1140.5706493728624,7,9,-1.0993878841400146,3.6746575832366943,7.863141040297427,7.928089597342609,31.54710611143349,28.83733800216014,-0.0001618862152099,0.0987826660275459,0,0,0
2627,95387.67656817364,2010-11-30 13:03:36,1170.585639496362,7,9,-1.099568486213684,3.669153690338135,7.863141040297427,7.937257201570047,31.54710611143349,28.87100041424383,-0.0001295089750783,0.0987826660275459,0,0,0
2628,95417.69156823689,2010-11-30 13:04:06,1200.600639534534,7,9,-1.0997490882873535,3.663649559020996,7.863141040297427,7.94642475538004,31.54710611143349,28.9046128157925,-0.0001618862152099,0.0987826660275459,0,0,0
2629,95447.70660535232,2010-11-30 13:04:36,1230.6156766249087,7,9,-1.0993878841400146,3.658469200134277,7.863141040297427,7.955592368382899,31.54710611143349,28.93817630698675,-0.0001618862152099,0.0987826660275459,0,0,0
2630,95477.72173504814,2010-11-30 13:05:06,1260.6308063207289,7,9,-1.099568486213684,3.6531269550323486,7.863141040297427,7.964760018378031,31.54710611143349,28.971691576124307,-0.0001618862152099,0.0987826660275459,0,0,0
2631,95507.73661629568,2010-11-30 13:05:36,1290.6456875933577,7,9,-1.099568486213684,3.64810848236084,7.863141040297427,7.973927568512166,31.54710611143349,29.005158982671805,-0.0001295089750783,0.0987826660275459,0,0,0
2632,95537.75163234872,2010-11-30 13:06:06,1320.6607036213193,7,9,-1.0993878841400146,3.643090009689331,7.863141040297427,7.983095037568643,31.54710611143349,29.03857922235481,-0.0001295089750783,0.0987826660275459,0,0,0
2633,95567.7666455396,2010-11-30 13:06:37,1350.6757168072088,7,9,-1.099568486213684,3.6380715370178223,7.863141040297427,7.992262618043912,31.54710611143349,29.07195419148195,-9.713172767078504e-05,0.0987826660275459,0,0,0
2634,95597.78182910448,2010-11-30 13:07:07,1380.690900457292,7,9,-1.099568486213684,3.6330530643463135,7.863141040297427,8.001430207838736,31.54710611143349,29.10528396939184,-0.0001618862152099,0.0987826660275459,0,0,0
2635,95627.79668079852,2010-11-30 13:07:37,1410.7057520711155,7,9,-1.0992072820663452,3.6283583641052246,7.863141040297427,8.010597524821481,31.54710611143349,29.13856803058336,-0.0001295089750783,0.0987826660275459,0,0,0
2636,95657.81171402927,2010-11-30 13:08:07,1440.7207853018858,7,9,-1.0993878841400146,3.6238255500793457,7.863141040297427,8.019764339088056,31.54710611143349,29.171806485157457,-6.47544875391759e-05,0.0987826660275459,0,0,0
2637,95687.82673391185,2010-11-30 13:08:37,1470.73580518444,7,9,-1.099568486213684,3.618807077407837,7.863141040297427,8.028931386814907,31.54710611143349,29.20500243993196,-0.0001295089750783,0.0987826660275459,0,0,0
2638,95717.8420954646,2010-11-30 13:09:07,1500.7511667622891,7,9,-1.099568486213684,3.614112377166748,7.863141040297427,8.038099060652454,31.54710611143349,29.23815716917428,-0.0001295089750783,0.0987826660275459,0,0,0
2639,95747.85677108048,2010-11-30 13:09:37,1530.765842348074,7,9,-1.0993878841400146,3.609579563140869,7.863141040297427,8.047266562541722,31.54710611143349,29.27126864455065,-0.0001295089750783,0.0987826660275459,0,0,0
2640,95777.87192952284,2010-11-30 13:10:07,1560.7810008656156,7,9,-1.0993878841400146,3.6052086353302,7.863141040297427,8.05643422094595,31.54710611143349,29.30433906658619,-6.47544875391759e-05,0.0987826660275459,0,0,0
2641,95807.888550645,2010-11-30 13:10:37,1590.79762204293,7,9,-1.099568486213684,3.6006758213043213,7.863141040297427,8.0656023520223,31.54710611143349,29.33737090233784,-9.713172767078504e-05,0.0987826660275459,0,0,0
2642,95837.90186533428,2010-11-30 13:11:07,1620.8109366219014,7,9,-1.0997490882873535,3.5963048934936523,7.863141040297427,8.074769478120514,31.54710611143349,29.370360122348337,-0.0001618862152099,0.0987826660275459,0,0,0
2643,95867.9168765302,2010-11-30 13:11:37,1650.8259478028017,7,9,-1.099568486213684,3.5922577381134038,7.863141040297427,8.083937143829294,31.54710611143349,29.40331317798271,-0.0001618862152099,0.0987826660275459,0,0,0
2644,95897.93186888924,2010-11-30 13:12:07,1680.840940156852,7,9,-1.099568486213684,3.588372707366944,7.863141040297427,8.09310478223577,31.54710611143349,29.436229008337268,-0.0001295089750783,0.0987826660275459,0,0,0
2645,95927.9468700402,2010-11-30 13:12:37,1710.8559413077928,7,9,-1.0993878841400146,3.5844874382019043,7.863141040297427,8.102272464581077,31.54710611143349,29.469108924424507,-0.0001295089750783,0.0987826660275459,0,0,0
2646,95957.96189644396,2010-11-30 13:13:07,1740.8709677115746,7,9,-1.0993878841400146,3.580925941467285,7.863141040297427,8.111440108171097,31.54710611143349,29.5019542117656,-9.713172767078504e-05,0.0987826660275459,0,0,0
2647,95987.97690652212,2010-11-30 13:13:37,1770.8859777947432,7,9,-1.099568486213684,3.577364444732666,7.863141040297427,8.120607770600111,31.54710611143349,29.53476637598003,-6.47544875391759e-05,0.0987826660275459,0,0,0
2648,96017.99203948108,2010-11-30 13:14:07,1800.901110753683,7,9,-1.099568486213684,3.573641061782837,7.863141040297427,8.129775440226783,31.54710611143349,29.56754544057663,-9.713172767078504e-05,0.0987826660275459,0,0,0
2649,96048.00692688898,2010-11-30 13:14:37,1830.915998181629,7,9,-1.099568486213684,3.570241451263428,7.863141040297427,8.138943049327793,31.54710611143349,29.60029179522298,-9.713172767078504e-05,0.0987826660275459,0,0,0
2650,96078.0221006695,2010-11-30 13:15:07,1860.931171972177,7,9,-1.099568486213684,3.5668418407440186,7.863141040297427,8.14811082852714,31.54710611143349,29.633007345396493,-6.47544875391759e-05,0.0987826660275459,0,0,0
2651,96108.03706444244,2010-11-30 13:15:37,1890.946135740092,7,9,-1.099568486213684,3.5634422302246094,7.863141040297427,8.15727850370937,31.54710611143349,29.665691793042964,-9.713172767078504e-05,0.0987826660275459,0,0,0
2652,96138.0519981806,2010-11-30 13:16:07,1920.9610694732664,7,9,-1.099568486213684,3.5600426197052,7.863141040297427,8.166446087948868,31.54710611143349,29.698345337149217,-9.713172767078504e-05,0.0987826660275459,0,0,0
2653,96168.06701328128,2010-11-30 13:16:37,1950.9760846190327,7,9,-1.099568486213684,3.556804895401001,7.863141040297427,8.175613691354929,31.54710611143349,29.730968390720303,-9.713172767078504e-05,0.0987826660275459,0,0,0
2654,96198.08217029006,2010-11-30 13:17:07,1980.9912415626577,7,9,-1.099568486213684,3.5535671710968018,7.863141040297427,8.18478143478702,31.54710611143349,29.76356175575145,-6.47544875391759e-05,0.0987826660275459,0,0,0
2655,96228.09702930228,2010-11-30 13:17:37,2011.00610056988,7,9,-1.099568486213684,3.5504913330078125,7.863141040297427,8.193949063216955,31.54710611143349,29.796124916062336,-9.713172767078504e-05,0.0987826660275459,0,0,0
2656,96258.1121716947,2010-11-30 13:18:07,2041.0212429723192,7,9,-1.099568486213684,3.5470917224884038,7.863141040297427,8.203116806962191,31.54710611143349,29.828658902660024,-6.47544875391759e-05,0.0987826660275459,0,0,0
2657,96288.12720747682,2010-11-30 13:18:37,2071.036278769476,7,9,-1.099568486213684,3.543853998184204,7.863141040297427,8.212284544823248,31.54710611143349,29.861162842526017,-9.713172767078504e-05,0.0987826660275459,0,0,0
2658,96318.14209756136,2010-11-30 13:19:07,2101.051168833983,7,9,-1.099568486213684,3.540778160095215,7.863141040297427,8.221452197298904,31.54710611143349,29.893637382981904,-9.713172767078504e-05,0.0987826660275459,0,0,0
2659,96348.157097379,2010-11-30 13:19:37,2131.0661686465937,7,9,-1.099568486213684,3.537540435791016,7.863141040297427,8.23061980321335,31.54710611143349,29.92608273623844,-6.47544875391759e-05,0.0987826660275459,0,0,0
2660,96378.17212192315,2010-11-30 13:20:07,2161.081193190748,7,9,-1.099568486213684,3.5346264839172363,7.863141040297427,8.2397875646897,31.54710611143349,29.95850023395449,-3.237724376958795e-05,0.0987826660275459,0,0,0
2661,96408.18910909122,2010-11-30 13:20:37,2191.098180439016,7,9,-1.0993878841400146,3.531550645828247,7.863141040297427,8.248955820143808,31.54710611143349,29.990890315623563,-3.237724376958795e-05,0.0987826660275459,0,0,0
2662,96438.20216920698,2010-11-30 13:21:07,2221.1112404745654,7,9,-1.099568486213684,3.527989149093628,7.863141040297427,8.258122893143511,31.54710611143349,30.023247333305587,-9.713172767078504e-05,0.0987826660275459,0,0,0
2663,96468.21716994188,2010-11-30 13:21:37,2251.126241209471,7,9,-1.099568486213684,3.5247514247894287,7.863141040297427,8.267290576835643,31.54710611143349,30.055577168711316,-9.713172767078504e-05,0.0987826660275459,0,0,0
2664,96498.23221080164,2010-11-30 13:22:07,2281.1412820942887,7,9,-1.099568486213684,3.5213518142700195,7.863141040297427,8.27645821508271,31.54710611143349,30.087875926232517,-9.713172767078504e-05,0.0987826660275459,0,0,0
2665,96528.24723005763,2010-11-30 13:22:37,2311.156301360308,7,9,-1.099568486213684,3.5177903175354004,7.863141040297427,8.285625824154605,31.54710611143349,30.120143421563068,-0.0001295089750783,0.0987826660275459,0,0,0
2666,96558.2623333728,2010-11-30 13:23:07,2341.1714046504185,7,9,-1.099568486213684,3.514552593231201,7.863141040297427,8.294793520770474,31.54710611143349,30.15237921440877,-9.713172767078504e-05,0.0987826660275459,0,0,0
2667,96588.27723907624,2010-11-30 13:23:37,2371.186310353842,7,9,-1.099568486213684,3.510991334915161,7.863141040297427,8.303961231701601,31.54710611143349,30.18458328922417,-9.713172767078504e-05,0.0987826660275459,0,0,0
2668,96618.29227170548,2010-11-30 13:24:07,2401.201342978103,7,9,-1.0993878841400146,3.507591724395752,7.863141040297427,8.313129000085382,31.54710611143349,30.216755326510157,-6.47544875391759e-05,0.0987826660275459,0,0,0
2669,96648.30728551796,2010-11-30 13:24:37,2431.216356790552,7,9,-1.099568486213684,3.503868341445923,7.863141040297427,8.322296723679257,31.54710611143349,30.24889462226413,-9.713172767078504e-05,0.0987826660275459,0,0,0
2670,96678.32279132972,2010-11-30 13:25:07,2461.2318626825213,7,9,-1.099568486213684,3.499821186065674,7.863141040297427,8.331464552883611,31.54710611143349,30.28099943597237,-0.0001618862152099,0.0987826660275459,0,0,0
2671,96708.33735221508,2010-11-30 13:25:37,2491.2464234926915,7,9,-1.099568486213684,3.4959359169006348,7.863141040297427,8.340632087237987,31.54710611143349,30.31306687565552,-9.713172767078504e-05,0.0987826660275459,0,0,0
2672,96738.35233898523,2010-11-30 13:26:07,2521.2614102628463,7,9,-1.0997490882873535,3.491564989089966,7.863141040297427,8.34979982603978,31.54710611143349,30.345096840643997,-0.0001295089750783,0.0987826660275459,0,0,0
2673,96768.36736757444,2010-11-30 13:26:37,2551.276438852067,7,9,-1.0997490882873535,3.487032175064087,7.863141040297427,8.358967550110648,31.54710611143349,30.37708671648344,-0.0001618862152099,0.0987826660275459,0,0,0
2674,96798.38251397685,2010-11-30 13:27:07,2581.2915852594724,7,9,-1.099568486213684,3.482337474822998,7.863141040297427,8.36813526755405,31.54710611143349,30.409033464164903,-9.713172767078504e-05,0.0987826660275459,0,0,0
2675,96828.39732141072,2010-11-30 13:27:37,2611.3063927134062,7,9,-1.099568486213684,3.4769952297210693,7.863141040297427,8.377302866249495,31.54710611143349,30.440932631903067,-0.0001295089750783,0.0987826660275459,0,0,0
2676,96858.41238417498,2010-11-30 13:28:07,2641.321455452607,7,9,-1.099568486213684,3.4711673259735107,7.863141040297427,8.386470570045308,31.54710611143349,30.472782438002177,-0.0001618862152099,0.0987826660275459,0,0,0
2677,96888.4274577662,2010-11-30 13:28:37,2671.3365291390496,7,9,-1.0997490882873535,3.465015649795532,7.863141040297427,8.395638310519946,31.54710611143349,30.504578483555868,-0.0001942634553415,0.0987826660275459,0,0,0
2678,96918.44249565357,2010-11-30 13:29:07,2701.351566931171,7,9,-1.0993878841400146,3.458378314971924,7.863141040297427,8.404805980632334,31.54710611143349,30.53631523750296,-0.0001942634553415,0.0987826660275459,0,0,0
2679,96948.45969666875,2010-11-30 13:29:37,2731.3687680316016,7,9,-1.099568486213684,3.450445890426636,7.863141040297427,8.413974304643343,31.54710611143349,30.567987410655416,-0.0002913951757363,0.0987826660275459,0,0,0
2680,96978.47250610573,2010-11-30 13:30:07,2761.381577383335,7,9,-1.0992072820663452,3.441704034805298,7.863141040297427,8.423141281156115,31.54710611143349,30.59957803679753,-0.0001942634553415,0.0987826660275459,0,0,0
2681,97008.48923475046,2010-11-30 13:30:37,2791.398306118302,7,9,-1.099568486213684,3.4308578968048096,7.863141040297427,8.432309489504707,31.54710611143349,30.63108325772503,-0.0002913475036621,0.0987826660275459,0,0,0
2682,97038.50437515794,2010-11-30 13:31:07,2821.413446565877,7,9,-1.099568486213684,3.4183926582336426,7.863141040297427,8.441477198357227,31.54710611143349,30.662481511009556,-0.0003561496851034,0.0987826660275459,0,0,0
2683,97068.5175378289,2010-11-30 13:31:37,2851.4266091165323,7,9,-1.099568486213684,3.4026896953582764,7.863141040297427,8.450644277572986,31.54710611143349,30.693749131438384,-0.0004856586456298,0.0987826660275459,0,0,0
2684,97098.53462929653,2010-11-30 13:32:07,2881.443700689408,7,9,-1.0993878841400146,3.383101463317871,7.863141040297427,8.45981258548405,31.54710611143349,30.724859855724105,-0.0005180359003134,0.0987826660275459,0,0,0
2685,97128.54761120764,2010-11-30 13:32:37,2911.4566826005484,7,9,-1.0997490882873535,3.3570377826690674,7.863141040297427,8.468979646680637,31.54710611143349,30.75575874001745,-0.0008094310760498,0.0987826660275459,0,0,0
2686,97158.56260640376,2010-11-30 13:33:07,2941.471677676372,7,9,-1.099568486213684,3.3232038021087646,7.863141040297427,8.47814728921873,31.54710611143349,30.78638700497149,-0.0009713172912597,0.0987826660275459,0,0,0
2687,97188.57760050216,2010-11-30 13:33:37,2971.4866717747627,7,9,-1.0997490882873535,3.276580572128296,7.863141040297427,8.487314916203234,31.54710611143349,30.81664957066384,-0.0014245987404137,0.0987826660275459,0,0,0
2688,97218.59261995864,2010-11-30 13:34:07,3001.501691236269,7,9,-1.099568486213684,3.2134451866149902,7.863141040297427,8.496482537197311,31.54710611143349,30.846415658582647,-0.0019426345825195,0.0987826660275459,0,0,0
2689,97248.60762527496,2010-11-30 13:34:37,3031.516696547563,7,9,-1.0997490882873535,3.121655941009521,7.863141040297427,8.505650225862968,31.54710611143349,30.875483536524523,-0.0028815746773034,0.0987826660275459,0,0,0
2690,97278.62267266597,2010-11-30 13:35:07,3061.531744003732,7,9,-1.099568486213684,2.9766063690185547,7.863141040297427,8.514817924357365,31.54710611143349,30.903499355220877,-0.0049860952422022,0.0987826660275459,0,0,0
2691,97301.1066872565,2010-11-30 13:35:30,3084.015758534121,7,9,-1.0997490882873535,2.7760300636291504,7.863141040297427,8.521685351850858,31.54710611143349,30.92331661167952,-0.0088389394804835,0.0987826660275459,0,0,0
2692,97307.60643663284,2010-11-30 13:35:36,3090.5155079104543,7,9,-1.0993878841400146,2.699620008468628,7.863141040297427,8.523670598256494,31.54710611143349,30.92875344386408,-0.0095836166292428,0.0987826660275459,0,0,0
2693,97367.62494089884,2010-11-30 13:36:37,60.0145031227709,8,9,0.0,3.3780829906463623,7.863141040297427,8.523670598256494,31.54710611143349,30.92875344386408,0.0013274669181555,0.0987826660275459,0,0,0
2694,97367.80973650645,2010-11-30 13:36:37,0.187479911549124,9,9,-1.9243103452026844e-05,3.3780829906463623,7.863141040297427,8.523670599258633,31.54710611143349,30.928753447249388,0.0,0.0971632748842239,0,0,0
2695,97372.63776515002,2010-11-30 13:36:42,5.015508580197646,9,9,0.0008838032954372,3.3861773014068604,7.863141860596761,8.52367059934252,31.54710888641385,30.928753447532763,0.0011655807029455,0.0971632748842239,0,0,0
