Data_Point,Test_Time(s),Date_Time,Step_Time(s),Step_Index,Cycle_Index,Current(A),Voltage(V),Charge_Capacity(Ah),Discharge_Capacity(Ah),Charge_Energy(Wh),Discharge_Energy(Wh),dV/dt(V/s),Internal_Resistance(Ohm),Is_FC_Data,AC_Impedance(Ohm),ACI_Phase_Angle(Deg)
4889,176781.34796072438,2010-12-01 11:40:20,30.014851413324696,1,17,0.0,3.4264869689941406,14.478506044338308,15.138326016494116,58.06901104782684,54.91003192271407,0.0007122993702068,0.0955438911914825,0,0,0
4890,176811.36291732444,2010-12-01 11:40:50,60.02980791315312,1,17,0.0,3.449474573135376,14.478506044338308,15.138326016494116,58.06901104782684,54.91003192271407,0.0005180359003134,0.0955438911914825,0,0,0
4891,176841.37793406923,2010-12-01 11:41:20,90.04482473809827,1,17,0.0,3.466796398162842,14.478506044338308,15.138326016494116,58.06901104782684,54.91003192271407,0.0003885269106831,0.0955438911914825,0,0,0
4892,176871.34620207152,2010-12-01 11:41:50,120.0130926652092,1,17,0.0,3.4803948402404785,14.478506044338308,15.138326016494116,58.06901104782684,54.91003192271407,0.0002913951757363,0.0955438911914825,0,0,0
4893,176901.37117165164,2010-12-01 11:42:20,30.016804343115368,2,17,0.5501165986061096,3.639204740524292,14.48309249428301,15.138326016494116,58.08555215041091,54.91003192271407,0.0014569759368896,0.0955438911914825,0,0,0
4894,176931.3843858809,2010-12-01 11:42:50,60.03001852725821,2,17,0.5499359965324402,3.682104349136353,14.487678325539523,15.138326016494116,58.102345926668,54.91003192271407,0.0009389400365762,0.0955438911914825,0,0,0
4895,176961.39939687133,2010-12-01 11:43:20,90.04502948760955,2,17,0.5501165986061096,3.713186502456665,14.492264483198593,15.138326016494116,58.119307111499815,54.91003192271407,0.0007770538213662,0.0955438911914825,0,0,0
4896,176991.41439122535,2010-12-01 11:43:50,120.06002384163668,2,17,0.5499359965324402,3.7371456623077393,14.496850638680977,15.138326016494116,58.13639322003768,54.91003192271407,0.0005827903514727,0.0955438911914825,0,0,0
4897,177021.42941316802,2010-12-01 11:44:20,150.0750457893296,2,17,0.5501165986061096,3.756571769714356,14.501436764985748,15.138326016494116,58.15357847545079,54.91003192271407,0.0004532813909463,0.0955438911914825,0,0,0
4898,177051.4444334516,2010-12-01 11:44:50,180.0900660678689,2,17,0.5501165986061096,3.771141529083252,14.506022922828487,15.138326016494116,58.17084196301805,54.91003192271407,0.0002913951757363,0.0955438911914825,0,0,0
4899,177081.4594627676,2010-12-01 11:45:20,210.1050953889101,2,17,0.5499359965324402,3.78069281578064,14.510609095376012,15.138326016494116,58.18816063397218,54.91003192271407,0.0001942634553415,0.0955438911914825,0,0,0
4900,177111.47444871571,2010-12-01 11:45:50,240.12008133701943,2,17,0.5501165986061096,3.786844491958618,14.515195222360438,15.138326016494116,58.20551463924123,54.91003192271407,0.0001618862152099,0.0955438911914825,0,0,0
4901,177141.4895893187,2010-12-01 11:46:20,270.13522193998136,2,17,0.5499359965324402,3.792024850845337,14.51978141559003,15.138326016494116,58.22289417568595,54.91003192271407,0.0001618862152099,0.0955438911914825,0,0,0
4902,177171.50448844573,2010-12-01 11:46:50,300.1501210670399,2,17,0.550297200679779,3.796395778656006,14.524367561144729,15.138326016494116,58.240294897207086,54.91003192271407,0.0001295089750783,0.0955438911914825,0,0,0
4903,177201.51949852888,2010-12-01 11:47:20,330.1651311502084,2,17,0.550297200679779,3.800766706466675,14.528953720345635,15.138326016494116,58.25771569904029,54.91003192271407,9.713172767078504e-05,0.0955438911914825,0,0,0
4904,177231.5345780599,2010-12-01 11:47:50,360.18021077643215,2,17,0.5499359965324402,3.804651975631714,14.53353991825968,15.138326016494116,58.27515575572927,54.91003192271407,6.47544875391759e-05,0.0955438911914825,0,0,0
4905,177261.54964876894,2010-12-01 11:48:20,390.1952813902288,2,17,0.5501165986061096,3.808699131011963,14.538126124275362,15.138326016494116,58.29261426027893,54.91003192271407,9.713172767078504e-05,0.0955438911914825,0,0,0
4906,177291.56455494353,2010-12-01 11:48:50,420.2101875848748,2,17,0.550297200679779,3.812584400177002,14.54271232511336,15.138326016494116,58.31009056293915,54.91003192271407,0.0001295089750783,0.0955438911914825,0,0,0
4907,177321.57953979893,2010-12-01 11:49:20,450.2251724252274,2,17,0.5501165986061096,3.816307783126831,14.547298420009678,15.138326016494116,58.3275842583385,54.91003192271407,6.47544875391759e-05,0.0955438911914825,0,0,0
4908,177351.5946560613,2010-12-01 11:49:50,480.2402886976437,2,17,0.5499359965324402,3.82003116607666,14.551884441456044,15.138326016494116,58.34509475487043,54.91003192271407,9.713172767078504e-05,0.0955438911914825,0,0,0
4909,177381.60957121826,2010-12-01 11:50:20,510.2552038445671,2,17,0.5499359965324402,3.8235926628112793,14.556470484500164,15.138326016494116,58.36262203364854,54.91003192271407,3.237724376958795e-05,0.0955438911914825,0,0,0
4910,177411.62489132292,2010-12-01 11:50:50,540.2705239391872,2,17,0.5499359965324402,3.8271541595458975,14.561056637278687,15.138326016494116,58.38016603333312,54.91003192271407,6.47544875391759e-05,0.0955438911914825,0,0,0
4911,177441.63962199577,2010-12-01 11:51:20,570.2852546170664,2,17,0.5499359965324402,3.830553770065308,14.565642685040457,15.138326016494116,58.3977257135704,54.91003192271407,6.47544875391759e-05,0.0955438911914825,0,0,0
4912,177471.6546388608,2010-12-01 11:51:50,600.3002714770988,2,17,0.5501165986061096,3.834115028381348,14.570228796243294,15.138326016494116,58.4153015773625,54.91003192271407,6.47544875391759e-05,0.0955438911914825,0,0,0
4913,177501.67146936903,2010-12-01 11:52:20,630.3171020855746,2,17,0.5501165986061096,3.8378384113311768,14.574815144105282,15.138326016494116,58.43289433316684,54.91003192271407,9.713172767078504e-05,0.0955438911914825,0,0,0
4914,177531.68515968302,2010-12-01 11:52:50,660.3307923794982,2,17,0.5499359965324402,3.841076135635376,14.579401092905297,15.138326016494116,58.45050156939057,54.91003192271407,6.47544875391759e-05,0.0955438911914825,0,0,0
4915,177561.69967705008,2010-12-01 11:53:20,690.345309666362,2,17,0.5501165986061096,3.844799518585205,14.58398713473324,15.138326016494116,58.46812525815274,54.91003192271407,9.713172767078504e-05,0.0955438911914825,0,0,0
4916,177591.71486352218,2010-12-01 11:53:50,720.3604962036297,2,17,0.5501165986061096,3.8481991291046143,14.58857325072757,15.138326016494116,58.48576547545543,54.91003192271407,9.713172767078504e-05,0.0955438911914825,0,0,0
4917,177621.72970743183,2010-12-01 11:54:20,750.3753401132817,2,17,0.5501165986061096,3.8519225120544434,14.593159414640882,15.138326016494116,58.50342229832122,54.91003192271407,0.0001295089750783,0.0955438911914825,0,0,0
4918,177651.74473681804,2010-12-01 11:54:50,780.3903694393355,2,17,0.5499359965324402,3.8554840087890634,14.597745577017012,15.138326016494116,58.52109560362777,54.91003192271407,9.713172767078504e-05,0.0955438911914825,0,0,0
4919,177681.75972775856,2010-12-01 11:55:20,810.4053603798684,2,17,0.5501165986061096,3.8590455055236816,14.60233166549196,15.138326016494116,58.53878513753372,54.91003192271407,0.0001295089750783,0.0955438911914825,0,0,0
4920,177711.77476203194,2010-12-01 11:55:50,840.4203946582458,2,17,0.5501165986061096,3.862445116043091,14.606917778105617,15.138326016494116,58.556491215101055,54.91003192271407,6.47544875391759e-05,0.0955438911914825,0,0,0
4921,177741.78988376792,2010-12-01 11:56:20,870.435516384233,2,17,0.5501165986061096,3.86600661277771,14.611503920937263,15.138326016494116,58.57421361559457,54.91003192271407,6.47544875391759e-05,0.0955438911914825,0,0,0
4922,177771.80477527605,2010-12-01 11:56:50,900.450407892332,2,17,0.5499359965324402,3.869729995727539,14.6160900025727,15.138326016494116,58.59195180475245,54.91003192271407,0.0001295089750783,0.0955438911914825,0,0,0
4923,177801.82210448026,2010-12-01 11:57:20,930.4677371967936,2,17,0.5501165986061096,3.873129606246948,14.6206765009182,15.138326016494116,58.60970750671272,54.91003192271407,0.0001295089750783,0.0955438911914825,0,0,0
4924,177831.8348036227,2010-12-01 11:57:50,960.4804362490504,2,17,0.5501165986061096,3.876367330551148,14.625262330901604,15.138326016494116,58.62747611946698,54.91003192271407,9.713172767078504e-05,0.0955438911914825,0,0,0
4925,177861.84980741524,2010-12-01 11:58:20,990.49544003154,2,17,0.5499359965324402,3.879281282424927,14.629848483959094,15.138326016494116,58.645261020741,54.91003192271407,3.237724376958795e-05,0.0955438911914825,0,0,0
4926,177891.8665409622,2010-12-01 11:58:50,1020.5121736837438,2,17,0.5501165986061096,3.882680892944336,14.634434860506216,15.138326016494116,58.66306132726688,54.91003192271407,9.713172767078504e-05,0.0955438911914825,0,0,0
4927,177921.87999220623,2010-12-01 11:59:20,1050.5256248576263,2,17,0.5501165986061096,3.885756731033325,14.6390207720924,15.138326016494116,58.68087393240787,54.91003192271407,0.0001295089750783,0.0955438911914825,0,0,0
4928,177951.89693421195,2010-12-01 11:59:50,1080.5425669284718,2,17,0.5501165986061096,3.8885087966918954,14.643607244206866,15.138326016494116,58.698702209108525,54.91003192271407,6.47544875391759e-05,0.0955438911914825,0,0,0
4929,177981.90986189814,2010-12-01 12:00:20,1110.5554945144263,2,17,0.5499359965324402,3.891260862350464,14.648193048432642,15.138326016494116,58.71654074734621,54.91003192271407,6.47544875391759e-05,0.0955438911914825,0,0,0
4930,178011.9250567561,2010-12-01 12:00:50,1140.5706894525993,2,17,0.5499359965324402,3.893689155578613,14.652779251984102,15.138326016494116,58.73439306859432,54.91003192271407,6.47544875391759e-05,0.0955438911914825,0,0,0
4931,178041.93988891153,2010-12-01 12:01:20,1170.5855215278018,2,17,0.5501165986061096,3.8962793350219727,14.657365426653977,15.138326016494116,58.75225649626498,54.91003192271407,6.47544875391759e-05,0.0955438911914825,0,0,0
4932,178071.95489862378,2010-12-01 12:01:50,1200.6005312450598,2,17,0.5499359965324402,3.898545742034912,14.661951535634191,15.138326016494116,58.77013026142511,54.91003192271407,9.713172767078504e-05,0.0955438911914825,0,0,0
4933,178101.97163473206,2010-12-01 12:02:20,1230.617267453625,2,17,0.5501165986061096,3.9006502628326416,14.666537927764052,15.138326016494116,58.78801512362213,54.91003192271407,6.47544875391759e-05,0.0955438911914825,0,0,0
4934,178131.98496642863,2010-12-01 12:02:50,1260.6305990549558,2,17,0.5499359965324402,3.902592897415161,14.671123800058368,15.138326016494116,58.80590736673534,54.91003192271407,6.47544875391759e-05,0.0955438911914825,0,0,0
4935,178161.99995110356,2010-12-01 12:03:20,1290.645583719872,2,17,0.5501165986061096,3.9045355319976807,14.675709967001254,15.138326016494116,58.82380956310536,54.91003192271407,6.47544875391759e-05,0.0955438911914825,0,0,0
4936,178192.01496897114,2010-12-01 12:03:50,1320.6606015874115,2,17,0.5501165986061096,3.9063162803649902,14.680296128618478,15.138326016494116,58.841719926577646,54.91003192271407,6.47544875391759e-05,0.0955438911914825,0,0,0
4937,178222.0299732348,2010-12-01 12:04:20,1350.675605851099,2,17,0.5501165986061096,3.90793514251709,14.684882244321528,15.138326016494116,58.859638029961694,54.91003192271407,3.237724376958795e-05,0.0955438911914825,0,0,0
4938,178252.04511669488,2010-12-01 12:04:50,1380.690749316183,2,17,0.5499359965324402,3.9095540046691895,14.689468369353802,15.138326016494116,58.87756364364655,54.91003192271407,3.237724376958795e-05,0.0955438911914825,0,0,0
4939,178282.0599110863,2010-12-01 12:05:20,1410.7055437076108,2,17,0.5499359965324402,3.911010980606079,14.694054470957518,15.138326016494116,58.895496453056246,54.91003192271407,3.237724376958795e-05,0.0955438911914825,0,0,0
4940,178312.07498588553,2010-12-01 12:05:50,1440.720618511835,2,17,0.5501165986061096,3.9124679565429688,14.698640591511506,15.138326016494116,58.91343636181973,54.91003192271407,6.47544875391759e-05,0.0955438911914825,0,0,0
4941,178342.09001533687,2010-12-01 12:06:21,1470.7356479581883,2,17,0.5497553944587708,3.913762807846069,14.703226771068993,15.138326016494116,58.93138337977864,54.91003192271407,0.0,0.0955438911914825,0,0,0
4942,178372.10515139354,2010-12-01 12:06:51,1500.7507840749863,2,17,0.5501165986061096,3.915543556213379,14.707812949803442,15.138326016494116,58.949337218708976,54.91003192271407,6.47544875391759e-05,0.0955438911914825,0,0,0
4943,178402.12005950796,2010-12-01 12:07:21,1530.7656921944222,2,17,0.5499359965324402,3.917000532150269,14.71239916716835,15.138326016494116,58.96729773802653,54.91003192271407,6.47544875391759e-05,0.0955438911914825,0,0,0
4944,178432.13506626786,2010-12-01 12:07:51,1560.7806988891589,2,17,0.5501165986061096,3.918457508087158,14.716985327735804,15.138326016494116,58.9852648004562,54.91003192271407,9.713172767078504e-05,0.0955438911914825,0,0,0
4945,178462.1500678799,2010-12-01 12:08:21,1590.79570050626,2,17,0.5501165986061096,3.919914484024048,14.721571577316778,15.138326016494116,59.00323896036876,54.91003192271407,3.237724376958795e-05,0.0955438911914825,0,0,0
4946,178492.1652810886,2010-12-01 12:08:51,1620.8109138001105,2,17,0.5501165986061096,3.921533346176148,14.726157862883378,15.138326016494116,59.02122001782665,54.91003192271407,6.47544875391759e-05,0.0955438911914825,0,0,0
4947,178522.18008635208,2010-12-01 12:09:21,1650.825718968356,2,17,0.5501165986061096,3.922828435897827,14.730744071553428,15.138326016494116,59.03920762012809,54.91003192271407,3.237724376958795e-05,0.0955438911914825,0,0,0
4948,178552.19511235485,2010-12-01 12:09:51,1680.840744976152,2,17,0.5501165986061096,3.924447298049927,14.735330301898344,15.138326016494116,59.05720208803484,54.91003192271407,3.237724376958795e-05,0.0955438911914825,0,0,0
4949,178582.21010280916,2010-12-01 12:10:21,1710.8557354304753,2,17,0.5499359965324402,3.9257423877716064,14.739916581145089,15.138326016494116,59.07520360160368,54.91003192271407,3.237724376958795e-05,0.0955438911914825,0,0,0
4950,178612.2252565849,2010-12-01 12:10:51,1740.8708892012046,2,17,0.5501165986061096,3.927199363708496,14.744502797393476,15.138326016494116,59.09321155176202,54.91003192271407,3.237724376958795e-05,0.0955438911914825,0,0,0
4951,178642.24013539142,2010-12-01 12:11:21,1770.8857680076962,2,17,0.5501165986061096,3.928818225860596,14.749088987446552,15.138326016494116,59.111226329038494,54.91003192271407,6.47544875391759e-05,0.0955438911914825,0,0,0
4952,178672.25515088806,2010-12-01 12:11:51,1800.900783514361,2,17,0.5501165986061096,3.930275201797485,14.753675240245574,15.138326016494116,59.12924825807017,54.91003192271407,3.237724376958795e-05,0.0955438911914825,0,0,0
4953,178702.27197768202,2010-12-01 12:12:21,1830.9176103985687,2,17,0.5499359965324402,3.931894063949585,14.758261769617096,15.138326016494116,59.1472781477638,54.91003192271407,6.47544875391759e-05,0.0955438911914825,0,0,0
4954,178732.28519326466,2010-12-01 12:12:51,1860.9308258859548,2,17,0.5501165986061096,3.9331891536712646,14.762847693459443,15.138326016494116,59.16531259898351,54.91003192271407,-3.237724376958795e-05,0.0955438911914825,0,0,0
4955,178762.30034552663,2010-12-01 12:13:21,1890.9459781529424,2,17,0.5499359965324402,3.934808015823364,14.767433978640906,15.138326016494116,59.183355452536766,54.91003192271407,6.47544875391759e-05,0.0955438911914825,0,0,0
4956,178792.3152174911,2010-12-01 12:13:51,1920.9608501073824,2,17,0.5499359965324402,3.936264991760254,14.77202017378935,15.138326016494116,59.20140495531725,54.91003192271407,0.0,0.0955438911914825,0,0,0
4957,178822.3302106772,2010-12-01 12:14:21,1950.9758432935032,2,17,0.5499359965324402,3.937721967697144,14.776606420274314,15.138326016494116,59.21946158610314,54.91003192271407,0.0,0.0955438911914825,0,0,0
4958,178852.3452449556,2010-12-01 12:14:51,1980.990877571881,2,17,0.5501165986061096,3.939502716064453,14.781192654552498,15.138326016494116,59.23752532744414,54.91003192271407,3.237724376958795e-05,0.0955438911914825,0,0,0
4959,178882.36023924447,2010-12-01 12:15:21,2011.005871860746,2,17,0.5501165986061096,3.9411215782165527,14.78577889325693,15.138326016494116,59.25559622482146,54.91003192271407,9.713172767078504e-05,0.0955438911914825,0,0,0
4960,178912.37538023837,2010-12-01 12:15:51,2041.021012884756,2,17,0.550297200679779,3.9425785541534415,14.79036512406138,15.138326016494116,59.27367410152472,54.91003192271407,3.237724376958795e-05,0.0955438911914825,0,0,0
4961,178942.39027728027,2010-12-01 12:16:21,2071.03590989655,2,17,0.550297200679779,3.944197416305542,14.794951322250323,15.138326016494116,59.291758996413,54.91003192271407,6.47544875391759e-05,0.0955438911914825,0,0,0
4962,178972.40547556174,2010-12-01 12:16:51,2101.0511082582425,2,17,0.5501165986061096,3.9458162784576416,14.799537561176,15.138326016494116,59.30985110736338,54.91003192271407,9.713172767078504e-05,0.0955438911914825,0,0,0
4963,179002.42035293469,2010-12-01 12:17:21,2131.065985616129,2,17,0.550297200679779,3.9472732543945312,14.804123819436953,15.138326016494116,59.32795043112515,54.91003192271407,6.47544875391759e-05,0.0955438911914825,0,0,0
4964,179032.4353097904,2010-12-01 12:17:51,2161.080942416706,2,17,0.550297200679779,3.948892116546631,14.80871002545706,15.138326016494116,59.34605678151669,54.91003192271407,3.237724376958795e-05,0.0955438911914825,0,0,0
4965,179062.45040743146,2010-12-01 12:18:21,2191.096040057759,2,17,0.5501165986061096,3.950349092483521,14.813296361636365,15.138326016494116,59.36417097064674,54.91003192271407,3.237724376958795e-05,0.0955438911914825,0,0,0
4966,179092.46530709486,2010-12-01 12:18:51,2221.110939741202,2,17,0.5501165986061096,3.95196795463562,14.817883357769611,15.138326016494116,59.38229523116243,54.91003192271407,6.47544875391759e-05,0.0955438911914825,0,0,0
4967,179122.4803078548,2010-12-01 12:19:21,2251.12594050117,2,17,0.5499359965324402,3.95358681678772,14.822470270365889,15.138326016494116,59.40042651571087,54.91003192271407,3.237724376958795e-05,0.0955438911914825,0,0,0
4968,179152.4953650001,2010-12-01 12:19:51,2281.140997681538,2,17,0.5501165986061096,3.955367565155029,14.82705741886636,15.138326016494116,59.4185662224129,54.91003192271407,6.47544875391759e-05,0.0955438911914825,0,0,0
4969,179182.51051123205,2010-12-01 12:20:21,2311.156143848345,2,17,0.5501165986061096,3.956824541091919,14.831644502964442,15.138326016494116,59.436713134021794,54.91003192271407,3.237724376958795e-05,0.0955438911914825,0,0,0
4970,179212.52538342707,2010-12-01 12:20:51,2341.171016048397,2,17,0.550297200679779,3.958605289459229,14.83623158886568,15.138326016494116,59.45486736941525,54.91003192271407,6.47544875391759e-05,0.0955438911914825,0,0,0
4971,179242.54035709464,2010-12-01 12:21:21,2371.185989735997,2,17,0.5501165986061096,3.960224151611328,14.840818641660851,15.138326016494116,59.47302908667723,54.91003192271407,0.0,0.0955438911914825,0,0,0
4972,179272.55539870626,2010-12-01 12:21:51,2401.2010313275728,2,17,0.5499359965324402,3.961843013763428,14.8454050250896,15.138326016494116,59.49119576597731,54.91003192271407,3.237724376958795e-05,0.0955438911914825,0,0,0
4973,179302.57219601687,2010-12-01 12:22:21,2431.217828733425,2,17,0.5501165986061096,3.9634618759155273,14.849991733780668,15.138326016494116,59.50937137009531,54.91003192271407,3.237724376958795e-05,0.0955438911914825,0,0,0
4974,179332.58579646223,2010-12-01 12:22:51,2461.231429158714,2,17,0.5501165986061096,3.965080738067627,14.854577912377666,15.138326016494116,59.527552611869126,54.91003192271407,0.0,0.0955438911914825,0,0,0
4975,179362.6004381587,2010-12-01 12:23:21,2491.246070774967,2,17,0.5501165986061096,3.9670233726501465,14.85916429876414,15.138326016494116,59.54574246076098,54.91003192271407,9.713172767078504e-05,0.0955438911914825,0,0,0
4976,179392.61551410574,2010-12-01 12:23:51,2521.26114675211,2,17,0.550297200679779,3.968642234802246,14.863750676899247,15.138326016494116,59.56393995502879,54.91003192271407,6.47544875391759e-05,0.0955438911914825,0,0,0
4977,179422.63047793382,2010-12-01 12:24:21,2551.2761105500995,2,17,0.550297200679779,3.9702610969543457,14.868337122620352,15.138326016494116,59.58214555991376,54.91003192271407,3.237724376958795e-05,0.0955438911914825,0,0,0
4978,179452.64596974073,2010-12-01 12:24:51,2581.2916024372184,2,17,0.5501165986061096,3.9720418453216553,14.872923632603015,15.138326016494116,59.60035928937481,54.91003192271407,6.47544875391759e-05,0.0955438911914825,0,0,0
4979,179482.6605636984,2010-12-01 12:25:21,2611.3061964299623,2,17,0.5501165986061096,3.973660707473755,14.87751005854078,15.138326016494116,59.61858052832368,54.91003192271407,3.237724376958795e-05,0.0955438911914825,0,0,0
4980,179512.67564998617,2010-12-01 12:25:51,2641.321282672651,2,17,0.5501165986061096,3.975441455841065,14.882096427111271,15.138326016494116,59.63680945304679,54.91003192271407,6.47544875391759e-05,0.0955438911914825,0,0,0
4981,179542.69050908362,2010-12-01 12:26:21,2671.336141709948,2,17,0.5501165986061096,3.977060317993164,14.886682850401526,15.138326016494116,59.65504668295866,54.91003192271407,3.237724376958795e-05,0.0955438911914825,0,0,0
4982,179572.70555323156,2010-12-01 12:26:51,2701.35118584786,2,17,0.5501165986061096,3.9791648387908936,14.891269226091069,15.138326016494116,59.673291308293805,54.91003192271407,9.713172767078504e-05,0.0955438911914825,0,0,0
4983,179602.72056111426,2010-12-01 12:27:21,2731.366193755615,2,17,0.5501165986061096,3.980783700942993,14.895855568870214,15.138326016494116,59.69154439594962,54.91003192271407,6.47544875391759e-05,0.0955438911914825,0,0,0
4984,179632.73555013502,2010-12-01 12:27:51,2761.381182751308,2,17,0.5499359965324402,3.9824025630950928,14.900441956967656,15.138326016494116,59.70980577722366,54.91003192271407,3.237724376958795e-05,0.0955438911914825,0,0,0
4985,179662.75056433844,2010-12-01 12:28:21,2791.396196954729,2,17,0.550297200679779,3.9845070838928223,14.90502833848966,15.138326016494116,59.72807522068648,54.91003192271407,0.0001295089750783,0.0955438911914825,0,0,0
4986,179692.76559308305,2010-12-01 12:28:51,2821.411225699336,2,17,0.5501165986061096,3.986125946044922,14.909614709104542,15.138326016494116,59.74635284353219,54.91003192271407,3.237724376958795e-05,0.0955438911914825,0,0,0
4987,179722.78279455443,2010-12-01 12:29:21,2851.42842727094,2,17,0.5501165986061096,3.9880685806274414,14.914201408316094,15.138326016494116,59.76464017047773,54.91003192271407,6.47544875391759e-05,0.0955438911914825,0,0,0
4988,179752.79561096372,2010-12-01 12:29:51,2881.441243579985,2,17,0.5501165986061096,3.989687442779541,14.918787407412037,15.138326016494116,59.78293296947372,54.91003192271407,3.237724376958795e-05,0.0955438911914825,0,0,0
4989,179782.81062774855,2010-12-01 12:30:21,2911.456260364831,2,17,0.5499359965324402,3.991630077362061,14.923373704652835,15.138326016494116,59.80123544257116,54.91003192271407,3.237724376958795e-05,0.0955438911914825,0,0,0
4990,179812.8273696513,2010-12-01 12:30:51,2941.4730024179403,2,17,0.5501165986061096,3.99341082572937,14.927960318238068,15.138326016494116,59.81954783494093,54.91003192271407,3.237724376958795e-05,0.0955438911914825,0,0,0
4991,179842.8406490427,2010-12-01 12:31:21,2971.4862816589743,2,17,0.5501165986061096,3.995515108108521,14.932546384079547,15.138326016494116,59.83786675646746,54.91003192271407,6.47544875391759e-05,0.0955438911914825,0,0,0
4992,179872.85772417966,2010-12-01 12:31:51,3001.503356926274,2,17,0.5501165986061096,3.99729585647583,14.937133042062367,15.138326016494116,59.85619679750529,54.91003192271407,6.47544875391759e-05,0.0955438911914825,0,0,0
4993,179902.87256034504,2010-12-01 12:32:21,3031.518193051555,2,17,0.5499359965324402,3.9992384910583496,14.941719375792475,15.138326016494116,59.874534250572864,54.91003192271407,3.237724376958795e-05,0.0955438911914825,0,0,0
4994,179932.88571864011,2010-12-01 12:32:51,3061.531351256396,2,17,0.5499359965324402,4.001019477844238,14.94630540950517,15.138326016494116,59.892879429607554,54.91003192271407,0.0,0.0955438911914825,0,0,0
4995,179962.90070292406,2010-12-01 12:33:21,3091.546335550389,2,17,0.5501165986061096,4.003123760223389,14.950891721372775,15.138326016494116,59.9112347626451,54.91003192271407,6.47544875391759e-05,0.0955438911914825,0,0,0
4996,179992.91570967896,2010-12-01 12:33:51,3121.561342310288,2,17,0.5499359965324402,4.005228519439697,14.955478025379376,15.138326016494116,59.92959914159373,54.91003192271407,9.71794142969884e-05,0.0955438911914825,0,0,0
4997,180022.93074355635,2010-12-01 12:34:21,3151.5763762027045,2,17,0.550297200679779,4.007494926452637,14.960064348912368,15.138326016494116,59.947972958310665,54.91003192271407,6.47544875391759e-05,0.0955438911914825,0,0,0
4998,180052.9458748662,2010-12-01 12:34:51,3181.5915074824657,2,17,0.5501165986061096,4.009113788604736,14.964650672516475,15.138326016494116,59.96635611965515,54.91003192271407,3.24249267578125e-05,0.0955438911914825,0,0,0
4999,180082.96074354247,2010-12-01 12:35:21,3211.606376163761,2,17,0.5499359965324402,4.011218070983887,14.969236998209288,15.138326016494116,59.9847487539809,54.91003192271407,3.23295607813634e-05,0.0955438911914825,0,0,0
5000,180112.97576147516,2010-12-01 12:35:51,3241.6213941014757,2,17,0.550297200679779,4.013484477996826,14.973823345040524,15.138326016494116,60.00315099076391,54.91003192271407,6.47544875391759e-05,0.0955438911914825,0,0,0
5001,180142.99078198927,2010-12-01 12:36:21,3271.636414605576,2,17,0.5499359965324402,4.015427112579346,14.978409620782774,15.138326016494116,60.02156263300471,54.91003192271407,0.0,0.0955438911914825,0,0,0
5002,180173.0059319856,2010-12-01 12:36:51,3301.6515646069256,2,17,0.5501165986061096,4.017855644226074,14.98299600213016,15.138326016494116,60.03998457624756,54.91003192271407,9.71794142969884e-05,0.0955438911914825,0,0,0
5003,180203.02079819076,2010-12-01 12:37:21,3331.6664308070467,2,17,0.5501165986061096,4.020122051239014,14.987582353552746,15.138326016494116,60.05841631682733,54.91003192271407,9.71794142969884e-05,0.0955438911914825,0,0,0
5004,180233.03622878031,2010-12-01 12:37:51,3361.6818614718163,2,17,0.5499359965324402,4.022064685821533,14.992168745618397,15.138326016494116,60.07685833704575,54.91003192271407,6.47544875391759e-05,0.0955438911914825,0,0,0
5005,180263.0508455147,2010-12-01 12:38:22,3391.6964781409893,2,17,0.5501165986061096,4.024492740631104,14.996755031009284,15.138326016494116,60.09531012649889,54.91003192271407,9.70840483205393e-05,0.0955438911914825,0,0,0
5006,180293.066132547,2010-12-01 12:38:52,3421.7117652384973,2,17,0.5501165986061096,4.026597499847412,15.001341474866786,15.138326016494116,60.11377270103996,54.91003192271407,6.47544875391759e-05,0.0955438911914825,0,0,0
5007,180323.08085276387,2010-12-01 12:39:22,3451.7264853801576,2,17,0.5501165986061096,4.028863906860352,15.005927722604472,15.138326016494116,60.13224483014351,54.91003192271407,6.47544875391759e-05,0.0955438911914825,0,0,0
5008,180353.0958072136,2010-12-01 12:39:52,3481.741439839909,2,17,0.5499359965324402,4.031130313873291,15.010514101313532,15.138326016494116,60.15072787603939,54.91003192271407,3.24249267578125e-05,0.0955438911914825,0,0,0
5009,180383.11091251872,2010-12-01 12:40:22,3511.75654532047,2,17,0.5501165986061096,4.033396720886231,15.015100347213728,15.138326016494116,60.16922102345091,54.91003192271407,6.47544875391759e-05,0.0955438911914825,0,0,0
5010,180413.1261359628,2010-12-01 12:40:52,3541.771768674355,2,17,0.5501165986061096,4.035986423492432,15.019686730583237,15.138326016494116,60.18772548149149,54.91003192271407,9.70840483205393e-05,0.0955438911914825,0,0,0
5011,180443.14089739224,2010-12-01 12:41:22,3571.786530038596,2,17,0.5499359965324402,4.03809118270874,15.024272995296943,15.138326016494116,60.20624033084072,54.91003192271407,3.24249267578125e-05,0.0955438911914825,0,0,0
5012,180473.1558471954,2010-12-01 12:41:52,3601.80147984176,2,17,0.5501165986061096,4.0406813621521,15.028859296320949,15.138326016494116,60.22476634045795,54.91003192271407,9.71794142969884e-05,0.0955438911914825,0,0,0
5013,180503.1727234024,2010-12-01 12:42:22,3631.818356123893,2,17,0.550297200679779,4.043271541595459,15.033445934399676,15.138326016494116,60.24330496658634,54.91003192271407,9.71794142969884e-05,0.0955438911914825,0,0,0
5014,180533.1859471904,2010-12-01 12:42:52,3661.831579806673,2,17,0.5501165986061096,4.045699596405029,15.038032073420926,15.138326016494116,60.26185289889084,54.91003192271407,0.0001295089750783,0.0955438911914825,0,0,0
5015,180563.20093586028,2010-12-01 12:43:22,3691.846568481568,2,17,0.5499359965324402,4.048128128051758,15.042618467477816,15.138326016494116,60.28041321917147,54.91003192271407,9.71794142969884e-05,0.0955438911914825,0,0,0
5016,180593.21599305567,2010-12-01 12:43:52,3721.8616257972726,2,17,0.5499359965324402,4.050556182861328,15.047204922632032,15.138326016494116,60.29898525562968,54.91003192271407,6.47544875391759e-05,0.0955438911914825,0,0,0
5017,180623.2309633548,2010-12-01 12:44:22,3751.876595976141,2,17,0.5499359965324402,4.052984714508057,15.051791365462854,15.138326016494116,60.31756875501219,54.91003192271407,3.24249267578125e-05,0.0955438911914825,0,0,0
5018,180653.2460157533,2010-12-01 12:44:52,3781.8916483796215,2,17,0.5501165986061096,4.055574893951416,15.056377815269816,15.138326016494116,60.33616393579196,54.91003192271407,9.71794142969884e-05,0.0955438911914825,0,0,0
5019,180683.26106137992,2010-12-01 12:45:22,3811.906693996214,2,17,0.550297200679779,4.058326721191406,15.060964238676112,15.138326016494116,60.35477078066678,54.91003192271407,0.0001295089750783,0.0955438911914825,0,0,0
5020,180713.2759985316,2010-12-01 12:45:52,3841.921631147896,2,17,0.550297200679779,4.060593128204346,15.065550666631577,15.138326016494116,60.373389469796685,54.91003192271407,0.0,0.0955438911914825,0,0,0
5021,180743.2910128754,2010-12-01 12:46:22,3871.936645491666,2,17,0.5499359965324402,4.063345432281494,15.070137021656764,15.138326016494116,60.39201941135623,54.91003192271407,3.24249267578125e-05,0.0955438911914825,0,0,0
5022,180773.3061425261,2010-12-01 12:46:52,3901.9517751473854,2,17,0.5501165986061096,4.0659356117248535,15.074723400415465,15.138326016494116,60.41066159663982,54.91003192271407,6.47544875391759e-05,0.0955438911914825,0,0,0
5023,180803.32104338243,2010-12-01 12:47:22,3931.96667600876,2,17,0.5501165986061096,4.068525791168213,15.079309791473127,15.138326016494116,60.429315993102094,54.91003192271407,3.24249267578125e-05,0.0955438911914825,0,0,0
5024,180833.3360491699,2010-12-01 12:47:52,3961.981681796239,2,17,0.5499359965324402,4.071277618408203,15.083896134995008,15.138326016494116,60.44798248497471,54.91003192271407,6.47544875391759e-05,0.0955438911914825,0,0,0
5025,180863.35108660115,2010-12-01 12:48:22,3991.9967192425,2,17,0.5501165986061096,4.074029922485352,15.088482493012773,15.138326016494116,60.466661445757616,54.91003192271407,3.24249267578125e-05,0.0955438911914825,0,0,0
5026,180893.3660874864,2010-12-01 12:48:52,4022.011720102717,2,17,0.5499359965324402,4.076943874359131,15.09306884814742,15.138326016494116,60.48535295820096,54.91003192271407,9.71794142969884e-05,0.0955438911914825,0,0,0
5027,180923.38110202068,2010-12-01 12:49:22,4052.0267346369615,2,17,0.5501165986061096,4.07953405380249,15.097655233819372,15.138326016494116,60.50405725685956,54.91003192271407,3.24249267578125e-05,0.0955438911914825,0,0,0
5028,180953.3961043746,2010-12-01 12:49:52,4082.041736990896,2,17,0.5501165986061096,4.0824480056762695,15.102241676339707,15.138326016494116,60.52277448650328,54.91003192271407,6.47544875391759e-05,0.0955438911914825,0,0,0
5029,180983.4112419751,2010-12-01 12:50:22,4112.056874591387,2,17,0.5501165986061096,4.08519983291626,15.10682800651776,15.138326016494116,60.54150413602258,54.91003192271407,6.47544875391759e-05,0.0955438911914825,0,0,0
5030,181013.42614906697,2010-12-01 12:50:52,4142.071781683266,2,17,0.5499359965324402,4.088113784790039,15.111414370421793,15.138326016494116,60.56024695802749,54.91003192271407,9.70840483205393e-05,0.0955438911914825,0,0,0
5031,181043.44114252372,2010-12-01 12:51:22,4172.08677514006,2,17,0.5499359965324402,4.091027736663818,15.116000736416368,15.138326016494116,60.57900294486105,54.91003192271407,6.47544875391759e-05,0.0955438911914825,0,0,0
5032,181073.45621481675,2010-12-01 12:51:52,4202.10184744306,2,17,0.5499359965324402,4.093780040740967,15.120587097627029,15.138326016494116,60.59777221425098,54.91003192271407,3.24249267578125e-05,0.0955438911914825,0,0,0
5033,181103.47296192244,2010-12-01 12:52:22,4232.1185945537545,2,17,0.5499359965324402,4.096531867980957,15.125173751160911,15.138326016494116,60.616556084696064,54.91003192271407,-3.24249267578125e-05,0.0955438911914825,0,0,0
5034,181133.4862014095,2010-12-01 12:52:52,4262.131834025826,2,17,0.5501165986061096,4.099769592285156,15.129759874400683,15.138326016494116,60.63535129748266,54.91003192271407,6.47544875391759e-05,0.0955438911914825,0,0,0
5035,181163.50120123217,2010-12-01 12:53:22,4292.146833848462,2,17,0.5499359965324402,4.102683544158936,15.13434630198466,15.138326016494116,60.65416137733433,54.91003192271407,9.70840483205393e-05,0.0955438911914825,0,0,0
5036,181193.5162084633,2010-12-01 12:53:52,4322.161841084545,2,17,0.5497553944587708,4.105759620666504,15.138932675219722,15.138326016494116,60.672985010823936,54.91003192271407,9.71794142969884e-05,0.0955438911914825,0,0,0
5037,181223.53121980457,2010-12-01 12:54:22,4352.176852616319,2,17,0.5501165986061096,4.108835220336914,15.143519034832485,15.138326016494116,60.69182247382294,54.91003192271407,6.47544875391759e-05,0.0955438911914825,0,0,0
5038,181253.5464910827,2010-12-01 12:54:52,4382.192123779174,2,17,0.550297200679779,4.112072944641113,15.148105439117591,15.138326016494116,60.71067414186345,54.91003192271407,0.0001295089750783,0.0955438911914825,0,0,0
5039,181283.5612650232,2010-12-01 12:55:22,4412.206897674598,2,17,0.5504778623580933,4.114986896514893,15.152691822068766,15.138326016494116,60.72953976800046,54.91003192271407,9.70840483205393e-05,0.0955438911914825,0,0,0
5040,181313.5762585552,2010-12-01 12:55:52,4442.221891171492,2,17,0.550297200679779,4.118062496185303,15.157278283356748,15.138326016494116,60.74841998733876,54.91003192271407,9.70840483205393e-05,0.0955438911914825,0,0,0
5041,181343.59126980623,2010-12-01 12:56:22,4472.236902432592,2,17,0.5501165986061096,4.120976448059082,15.161864672534543,15.138326016494116,60.76731421428119,54.91003192271407,3.23295607813634e-05,0.0955438911914825,0,0,0
5042,181373.60678775827,2010-12-01 12:56:52,4502.252420454747,2,17,0.5501165986061096,4.12437629699707,15.166451114530208,15.138326016494116,60.78622297741378,54.91003192271407,9.71794142969884e-05,0.0955438911914825,0,0,0
5043,181403.62143597595,2010-12-01 12:57:22,4532.267068597241,2,17,0.5499359965324402,4.1274518966674805,15.171037446712049,15.138326016494116,60.805145947375976,54.91003192271407,3.23295607813634e-05,0.0955438911914825,0,0,0
5044,181433.63633567945,2010-12-01 12:57:52,4562.281969137815,2,17,0.5499359965324402,4.13068962097168,15.1756237939258,15.138326016494116,60.82408368480941,54.91003192271407,6.47544875391759e-05,0.0955438911914825,0,0,0
5045,181463.6513187153,2010-12-01 12:58:22,4592.296951336595,2,17,0.5501165986061096,4.133927345275879,15.180210232822343,15.138326016494116,60.84303667272205,54.91003192271407,6.47544875391759e-05,0.0955438911914825,0,0,0
5046,181493.66636258253,2010-12-01 12:58:52,4622.311995198822,2,17,0.5501165986061096,4.137327194213867,15.184796664456796,15.138326016494116,60.86200466199324,54.91003192271407,9.71794142969884e-05,0.0955438911914825,0,0,0
5047,181523.68134355827,2010-12-01 12:59:22,4652.326976174558,2,17,0.5501165986061096,4.140402793884277,15.1893831119909,15.138326016494116,60.8809877577936,54.91003192271407,6.47544875391759e-05,0.0955438911914825,0,0,0
5048,181553.69637590685,2010-12-01 12:59:52,4682.34200861837,2,17,0.5501165986061096,4.143802642822266,15.193969559781795,15.138326016494116,60.89998593008662,54.91003192271407,9.71794142969884e-05,0.0955438911914825,0,0,0
5049,181583.71137040123,2010-12-01 13:00:22,4712.357003042571,2,17,0.5501165986061096,4.147202014923096,15.198555882706207,15.138326016494116,60.91899920791424,54.91003192271407,9.70840483205393e-05,0.0955438911914825,0,0,0
5050,181613.72639002817,2010-12-01 13:00:52,4742.372022749689,2,17,0.5501165986061096,4.150763511657715,15.20314225522672,15.138326016494116,60.938028171116784,54.91003192271407,0.0001295089750783,0.0955438911914825,0,0,0
5051,181643.7436073489,2010-12-01 13:01:22,4772.38924006547,2,17,0.5499359965324402,4.154001235961914,15.207728990208176,15.138326016494116,60.95707420811917,54.91003192271407,9.70840483205393e-05,0.0955438911914825,0,0,0
5052,181673.7564111368,2010-12-01 13:01:52,4802.402043753109,2,17,0.5499359965324402,4.157562732696533,15.212315016485215,15.138326016494116,60.97613290246724,54.91003192271407,9.70840483205393e-05,0.0955438911914825,0,0,0
5053,181703.7733249624,2010-12-01 13:02:22,4832.418957668891,2,17,0.5499359965324402,4.1609625816345215,15.21690165410012,15.138326016494116,60.99520988704384,54.91003192271407,6.47544875391759e-05,0.0955438911914825,0,0,0
5054,181733.7881297096,2010-12-01 13:02:52,4862.433762451176,2,17,0.5501165986061096,4.164361953735352,15.221487997755633,15.138326016494116,61.01430154228798,54.91003192271407,6.47544875391759e-05,0.0955438911914825,0,0,0
5055,181763.8014521431,2010-12-01 13:03:22,4892.447084789457,2,17,0.550297200679779,4.16808557510376,15.226074083736506,15.138326016494116,61.03340813018506,54.91003192271407,0.0001295089750783,0.0955438911914825,0,0,0
5056,181793.81854234755,2010-12-01 13:03:52,4922.464175084151,2,17,0.5501165986061096,4.171647071838379,15.230660757168325,15.138326016494116,61.05253330636389,54.91003192271407,0.0001295089750783,0.0955438911914825,0,0,0
5057,181823.83147228937,2010-12-01 13:04:22,4952.477104940756,2,17,0.5499359965324402,4.175046443939209,15.23524618767415,15.138326016494116,61.071669435893554,54.91003192271407,9.70840483205393e-05,0.0955438911914825,0,0,0
5058,181853.84647332504,2010-12-01 13:04:52,4982.49210595636,2,17,0.5499359965324402,4.178607940673828,15.239831655109922,15.138326016494116,61.09082197200576,54.91003192271407,9.70840483205393e-05,0.0955438911914825,0,0,0
5059,181883.86146771416,2010-12-01 13:05:22,5012.50710033545,2,17,0.5499359965324402,4.182169437408447,15.244417276828006,15.138326016494116,61.10999166446609,54.91003192271407,9.70840483205393e-05,0.0955438911914825,0,0,0
5060,181913.87650837345,2010-12-01 13:05:52,5042.522141004731,2,17,0.550297200679779,4.185893058776856,15.249002828354174,15.138326016494116,61.12917759573347,54.91003192271407,0.0001295089750783,0.0955438911914825,0,0,0
5061,181943.89149099824,2010-12-01 13:06:22,5072.537123619545,2,17,0.5499359965324402,4.1896162033081055,15.253588377499907,15.138326016494116,61.14838021967563,54.91003192271407,0.0001618385285837,0.0955438911914825,0,0,0
5062,181973.906526224,2010-12-01 13:06:52,5102.552158840268,2,17,0.5499359965324402,4.193177700042725,15.258173860472011,15.138326016494116,61.16759926949824,54.91003192271407,0.0001295089750783,0.0955438911914825,0,0,0
5063,182003.9215202672,2010-12-01 13:07:22,5132.567152878509,2,17,0.5501165986061096,4.196739196777344,15.262759824488116,15.138326016494116,61.186837256659786,54.91003192271407,6.47544875391759e-05,0.0955438911914825,0,0,0
5064,182028.51477175264,2010-12-01 13:07:47,5157.160404373962,2,17,0.550297200679779,4.200138568878174,15.26651778641586,15.138326016494116,61.202614462721,54.91003192271407,0.0001618385285837,0.0955438911914825,0,0,0
5065,182058.5337949159,2010-12-01 13:08:17,30.014909948988443,3,17,0.0,4.107216358184815,15.26651778641586,15.138326016494116,61.202614462721,54.91003192271407,-0.0003885269106831,0.0955438911914825,0,0,0
5066,182088.54881284857,2010-12-01 13:08:47,60.029927881690206,3,17,0.0,4.095398902893066,15.26651778641586,15.138326016494116,61.202614462721,54.91003192271407,-0.0002590179501567,0.0955438911914825,0,0,0
5067,182118.563839523,2010-12-01 13:09:17,90.04495456115795,3,17,0.0,4.088275909423828,15.26651778641586,15.138326016494116,61.202614462721,54.91003192271407,-0.0001295089750783,0.0955438911914825,0,0,0
5068,182148.5319687099,2010-12-01 13:09:47,120.01308374300665,3,17,0.0,4.083743095397949,15.26651778641586,15.138326016494116,61.202614462721,54.91003192271407,-6.47544875391759e-05,0.0955438911914825,0,0,0
5069,182148.53852915904,2010-12-01 13:09:47,2.776910234e-06,4,17,0.9931511878967284,4.199976921081543,15.26651778718194,15.138326016494116,61.20261446593853,54.91003192271407,0.0,0.0955438911914825,0,0,0
5070,182149.4781400296,2010-12-01 13:09:48,0.939613742659618,4,17,0.9423999786376952,4.199653148651123,15.266768741714118,15.138326016494116,61.20366842320728,54.91003192271407,-6.47544875391759e-05,0.0955438911914825,0,0,0
5071,182151.71034559223,2010-12-01 13:09:50,3.171819220136262,4,17,0.892009973526001,4.199814796447754,15.267336334887508,15.138326016494116,61.20605220004066,54.91003192271407,-3.24249267578125e-05,0.0955438911914825,0,0,0
5072,182155.0714425578,2010-12-01 13:09:54,6.532916275886533,4,17,0.8416199684143066,4.199814796447754,15.268144419638112,15.138326016494116,61.209446014367565,54.91003192271407,0.0,0.0955438911914825,0,0,0
5073,182159.64768653992,2010-12-01 13:09:58,11.10916017782713,4,17,0.7914106249809265,4.199814796447754,15.269180985124953,15.138326016494116,61.213799422527394,54.91003192271407,0.0,0.0955438911914825,0,0,0
5074,182165.66317013948,2010-12-01 13:10:04,17.12464376737497,4,17,0.7412012219429016,4.199814796447754,15.270459834746852,15.138326016494116,61.21917038608528,54.91003192271407,0.0,0.0955438911914825,0,0,0
5075,182173.44425811764,2010-12-01 13:10:12,24.90573174052353,4,17,0.6911724805831909,4.199653148651123,15.272005803915418,15.138326016494116,61.22566321832361,54.91003192271407,-3.23295607813634e-05,0.0955438911914825,0,0,0
5076,182184.0065442455,2010-12-01 13:10:23,35.468017873323234,4,17,0.6411436796188354,4.199814796447754,15.273956786270777,15.138326016494116,61.23385703388439,54.91003192271407,-3.24249267578125e-05,0.0955438911914825,0,0,0
5077,182198.82068517536,2010-12-01 13:10:38,50.28215889347723,4,17,0.5911149382591248,4.199814796447754,15.276486138562424,15.138326016494116,61.2444799161315,54.91003192271407,0.0,0.0955438911914825,0,0,0
5078,182222.08395103773,2010-12-01 13:11:01,73.54542473578482,4,17,0.5410861372947693,4.199814796447754,15.280131358307091,15.138326016494116,61.25978928936684,54.91003192271407,0.0,0.0955438911914825,0,0,0
5079,182263.42683455325,2010-12-01 13:11:42,114.88830828137712,4,17,0.4910573661327362,4.199814796447754,15.2860301950934,15.138326016494116,61.28456349713749,54.91003192271407,0.0,0.0955438911914825,0,0,0
5080,182341.0658564932,2010-12-01 13:13:00,192.52733012110903,4,17,0.4410286247730255,4.199814796447754,15.296040569663637,15.138326016494116,61.32660559621382,54.91003192271407,0.0,0.0955438911914825,0,0,0
5081,182456.90735738777,2010-12-01 13:14:56,308.36883102065525,4,17,0.3909998536109924,4.199653148651123,15.309405358679824,15.138326016494116,61.38273565544375,54.91003192271407,-6.47544875391759e-05,0.0955438911914825,0,0,0
5082,182598.8124262788,2010-12-01 13:17:18,450.2738999969154,4,17,0.3409710824489593,4.199814796447754,15.323809979189354,15.138326016494116,61.44323290377035,54.91003192271407,-3.24249267578125e-05,0.0955438911914825,0,0,0
5083,182769.7603788088,2010-12-01 13:20:09,621.2218524416529,4,17,0.2909423112869262,4.199976921081543,15.338785440453403,15.138326016494116,61.5061275396418,54.91003192271407,3.24249267578125e-05,0.0955438911914825,0,0,0
5084,182977.0841292628,2010-12-01 13:23:36,828.5456029006798,4,17,0.240913525223732,4.199814796447754,15.35406432517754,15.138326016494116,61.570296451807,54.91003192271407,0.0,0.0955438911914825,0,0,0
5085,183238.45598465213,2010-12-01 13:27:57,1089.917458370252,4,17,0.1907041519880294,4.199814796447754,15.369692389299775,15.138326016494116,61.635931885189954,54.91003192271407,-3.24249267578125e-05,0.0955438911914825,0,0,0
5086,183586.89982077663,2010-12-01 13:33:46,1438.3612943995251,4,17,0.1406753808259964,4.199814796447754,15.385636184227089,15.138326016494116,61.702893311292215,54.91003192271407,3.23295607813634e-05,0.0955438911914825,0,0,0
5087,184108.95168016985,2010-12-01 13:42:28,1960.4131538277943,4,17,0.0906466171145439,4.199814796447754,15.402146352934905,15.138326016494116,61.77223340293974,54.91003192271407,0.0,0.0955438911914825,0,0,0
5088,184897.16991952737,2010-12-01 13:55:36,2748.631393175325,4,17,0.0498289167881011,4.199653148651123,15.417070516918264,15.138326016494116,61.83491263254266,54.91003192271407,-3.23295607813634e-05,0.0955438911914825,0,0,0
5089,184927.18558588493,2010-12-01 13:56:06,30.015496729168355,5,17,0.0,4.191235065460205,15.417070516918264,15.138326016494116,61.83491263254266,54.91003192271407,-3.24249267578125e-05,0.0955438911914825,0,0,0
5090,184957.18512056817,2010-12-01 13:56:36,60.01503141239932,5,17,0.0,4.189939975738525,15.417070516918264,15.138326016494116,61.83491263254266,54.91003192271407,0.0,0.0955438911914825,0,0,0
5091,184957.3711224185,2010-12-01 13:56:36,0.185259085107942,6,17,-0.0012835080269724,4.190587520599365,15.417070516918264,15.13832608254454,61.83491263254266,54.91003219950415,0.0,0.0988719761371612,0,0,0
5092,184962.19914768368,2010-12-01 13:56:41,5.013284325224694,6,17,0.0007031940040178,4.189778327941895,15.417071472140242,15.138326083262658,61.83491663486725,54.91003220251431,-3.23295607813634e-05,0.0988719761371612,0,0,0
5093,184992.21398968963,2010-12-01 13:57:11,30.013350513392943,7,17,-1.099568486213684,3.995353221893311,15.417071472140242,15.147492914513208,61.83491663486725,54.946873217966086,-0.0010037422180175,0.0988719761371612,0,0,0
5094,185022.2289953468,2010-12-01 13:57:41,60.02835617555995,7,17,-1.099568486213684,3.965080738067627,15.417071472140242,15.156660183923313,61.83491663486725,54.98335190350247,-0.0006475448608398,0.0988719761371612,0,0,0
5095,185052.24399518943,2010-12-01 13:58:11,90.04335600822044,7,17,-1.099568486213684,3.944035530090332,15.417071472140242,15.165827420097065,61.83491663486725,55.019599498179765,-0.0004856586456298,0.0988719761371612,0,0,0
5096,185082.2590071974,2010-12-01 13:58:41,120.05836801617872,7,17,-1.099568486213684,3.927685022354126,15.417071472140242,15.174994601573925,61.83491663486725,55.055677245676726,-0.0003561496851034,0.0988719761371612,0,0,0
5097,185112.2740547488,2010-12-01 13:59:11,150.0734155675855,7,17,-1.099568486213684,3.914086580276489,15.417071472140242,15.18416188715597,61.83491663486725,55.091619923514095,-0.0003237724304199,0.0988719761371612,0,0,0
5098,185142.28901313336,2010-12-01 13:59:41,180.0883739721538,7,17,-1.0993878841400146,3.902269124984741,15.417071472140242,15.193329112992464,61.83491663486725,55.12744528880078,-0.0002913951757363,0.0988719761371612,0,0,0
5099,185172.3040397126,2010-12-01 14:00:11,210.1034005513721,7,17,-1.099929690361023,3.891098976135254,15.417071472140242,15.202496353875976,61.83491663486725,55.16316602218927,-0.0003237724304199,0.0988719761371612,0,0,0
5100,185202.3190484173,2010-12-01 14:00:41,240.1184092561104,7,17,-1.0993878841400146,3.8809001445770255,15.417071472140242,15.211663595364742,61.83491663486725,55.19878961441923,-0.0002266406954731,0.0988719761371612,0,0,0
5101,185232.3340832721,2010-12-01 14:01:11,270.13344415603444,7,17,-1.099568486213684,3.8711869716644287,15.417071472140242,15.220830884466457,61.83491663486725,55.23432208659878,-0.0002913951757363,0.0988719761371612,0,0,0
5102,185262.3490566339,2010-12-01 14:01:41,300.14841747271095,7,17,-1.0993878841400146,3.861797571182251,15.417071472140242,15.229998132416071,61.83491663486725,55.26976706051924,-0.0002590179501567,0.0988719761371612,0,0,0
5103,185292.3641940038,2010-12-01 14:02:11,330.1635548275902,7,17,-1.0993878841400146,3.852731943130493,15.417071472140242,15.23916547018024,61.83491663486725,55.30512727613469,-0.0002266406954731,0.0988719761371612,0,0,0
5104,185322.3790846247,2010-12-01 14:02:42,360.17844555374336,7,17,-1.099568486213684,3.843828201293945,15.417071472140242,15.248332722589272,61.83491663486725,55.34040518334256,-0.0002266406954731,0.0988719761371612,0,0,0
5105,185352.39423333283,2010-12-01 14:03:12,390.19359417666266,7,17,-1.0993878841400146,3.8352482318878174,15.417071472140242,15.257500036945924,61.83491663486725,55.37560346799743,-0.0002266406954731,0.0988719761371612,0,0,0
5106,185382.4091023249,2010-12-01 14:03:42,420.20846313865655,7,17,-1.0993878841400146,3.826992273330689,15.417071472140242,15.266667295807308,61.83491663486725,55.4107236165175,-0.0001618862152099,0.0988719761371612,0,0,0
5107,185412.42411745564,2010-12-01 14:04:12,450.22347826938574,7,17,-1.099568486213684,3.818736076354981,15.417071472140242,15.27583455458664,61.83491663486725,55.44576762245655,-0.0002266406954731,0.0988719761371612,0,0,0
5108,185442.43928471493,2010-12-01 14:04:42,480.2386455286809,7,17,-1.099568486213684,3.810479879379273,15.417071472140242,15.28500176600593,61.83491663486725,55.48073674838148,-0.0002266406954731,0.0988719761371612,0,0,0
5109,185472.45433945424,2010-12-01 14:05:12,510.253700358199,7,17,-1.0993878841400146,3.802547454833984,15.417071472140242,15.294168781356944,61.83491663486725,55.515631064867605,-0.0001942634553415,0.0988719761371612,0,0,0
5110,185502.46916324884,2010-12-01 14:05:42,540.2685240876335,7,17,-1.0993878841400146,3.794776916503906,15.417071472140242,15.303335798808856,61.83491663486725,55.5504524618858,-0.0001942634553415,0.0988719761371612,0,0,0
5111,185532.4841637632,2010-12-01 14:06:12,570.2835245819405,7,17,-1.099568486213684,3.787168264389038,15.417071472140242,15.312503143012645,61.83491663486725,55.58520470464556,-0.0001618862152099,0.0988719761371612,0,0,0
5112,185562.50117981312,2010-12-01 14:06:42,600.3005406368925,7,17,-1.099568486213684,3.77972149848938,15.417071472140242,15.321671074160028,61.83491663486725,55.61989038314319,-0.0001942634553415,0.0988719761371612,0,0,0
5113,185592.5142810512,2010-12-01 14:07:12,630.313641965198,7,17,-1.0993878841400146,3.7725985050201416,15.417071472140242,15.3308378771456,61.83491663486725,55.65450471058836,-0.0001295089750783,0.0988719761371612,0,0,0
5114,185622.52924370635,2010-12-01 14:07:42,660.3286045952813,7,17,-1.099568486213684,3.7651517391204834,15.417071472140242,15.34000515651546,61.83491663486725,55.689054817099205,-0.0002266406954731,0.0988719761371612,0,0,0
5115,185652.54428885176,2010-12-01 14:08:12,690.3436496955886,7,17,-1.099568486213684,3.758190631866455,15.417071472140242,15.349172524731369,61.83491663486725,55.72354045094656,-0.0001942634553415,0.0988719761371612,0,0,0
5116,185682.55927827847,2010-12-01 14:08:42,720.3586391173419,7,17,-1.0993878841400146,3.751553535461426,15.417071472140242,15.358339779337964,61.83491663486725,55.757962210207005,-0.0001618862152099,0.0988719761371612,0,0,0
5117,185712.5743645112,2010-12-01 14:09:12,750.3737254251928,7,17,-1.099568486213684,3.744754314422608,15.417071472140242,15.367507139121544,61.83491663486725,55.79232214836895,-0.0001942634553415,0.0988719761371612,0,0,0
5118,185742.5893637524,2010-12-01 14:09:42,780.388724661369,7,17,-1.099568486213684,3.738116979598999,15.417071472140242,15.376674527609543,61.83491663486725,55.826621332813865,-0.0001942634553415,0.0988719761371612,0,0,0
5119,185772.6043104829,2010-12-01 14:10:12,810.4036713066747,7,17,-1.0993878841400146,3.7318034172058105,15.417071472140242,15.385841867939607,61.83491663486725,55.86086102507588,-0.0001618862152099,0.0988719761371612,0,0,0
5120,185802.6193031678,2010-12-01 14:10:42,840.4186639865356,7,17,-1.099568486213684,3.725327968597412,15.417071472140242,15.39500915353482,61.83491663486725,55.89504214373966,-0.0002266406954731,0.0988719761371612,0,0,0
5121,185832.63445468788,2010-12-01 14:11:12,870.4338155066647,7,17,-1.099568486213684,3.7191762924194336,15.417071472140242,15.40417654266894,61.83491663486725,55.92916657021078,-0.0002266406954731,0.0988719761371612,0,0,0
5122,185862.6493498902,2010-12-01 14:11:42,900.4487107340188,7,17,-1.0993878841400146,3.713348388671875,15.417071472140242,15.413343837835972,61.83491663486725,55.96323432267019,-0.0001295089750783,0.0988719761371612,0,0,0
5123,185892.66437886035,2010-12-01 14:12:12,930.463739799424,7,17,-1.0993878841400146,3.7073585987091056,15.417071472140242,15.422511217911428,61.83491663486725,55.99724708534894,-0.0001295089750783,0.0988719761371612,0,0,0
5124,185922.6793468037,2010-12-01 14:12:42,960.4787076224296,7,17,-1.099568486213684,3.701368808746338,15.417071472140242,15.431678541857012,61.83491663486725,56.031205721673885,-0.0001295089750783,0.0988719761371612,0,0,0
5125,185952.69438087652,2010-12-01 14:13:12,990.4937416952956,7,17,-1.0993878841400146,3.6955409049987793,15.417071472140242,15.44084587762682,61.83491663486725,56.06511116951555,-0.0001618862152099,0.0988719761371612,0,0,0
5126,185982.7093728095,2010-12-01 14:13:42,1020.5087336533604,7,17,-1.0993878841400146,3.6900367736816406,15.417071472140242,15.450013282052486,61.83491663486725,56.09896441512022,-0.0001295089750783,0.0988719761371612,0,0,0
5127,186012.7243910881,2010-12-01 14:14:12,1050.523751977035,7,17,-1.099568486213684,3.684370756149292,15.417071472140242,15.459180619469327,61.83491663486725,56.13276569904252,-0.0001295089750783,0.0988719761371612,0,0,0
5128,186042.7395137514,2010-12-01 14:14:42,1080.5388745701805,7,17,-1.099568486213684,3.678866624832153,15.417071472140242,15.468348099130168,61.83491663486725,56.16651614405298,-0.0001295089750783,0.0988719761371612,0,0,0
5129,186072.7544346076,2010-12-01 14:15:12,1110.5537954563856,7,17,-1.0997490882873535,3.6730387210845943,15.417071472140242,15.477515431481152,61.83491663486725,56.20021436815954,-0.0001618862152099,0.0988719761371612,0,0,0
5130,186102.76943794897,2010-12-01 14:15:42,1140.568798767703,7,17,-1.099568486213684,3.667696714401245,15.417071472140242,15.48668281315478,61.83491663486725,56.23386252443143,-0.0001618862152099,0.0988719761371612,0,0,0
5131,186132.7844321977,2010-12-01 14:16:12,1170.5837930214802,7,17,-1.0993878841400146,3.6625163555145264,15.417071472140242,15.49585017136796,61.83491663486725,56.26746144196397,-9.713172767078504e-05,0.0988719761371612,0,0,0
5132,186162.80124449564,2010-12-01 14:16:42,1200.6006054296654,7,17,-1.099568486213684,3.6571741104125977,15.417071472140242,15.505018165518578,61.83491663486725,56.30101406617496,-9.713172767078504e-05,0.0988719761371612,0,0,0
5133,186192.81460063803,2010-12-01 14:17:12,1230.6139614617916,7,17,-1.099568486213684,3.651993751525879,15.417071472140242,15.514185077661304,61.83491663486725,56.33451476320204,-0.0001295089750783,0.0988719761371612,0,0,0
5134,186222.82947668264,2010-12-01 14:17:42,1260.6288375164352,7,17,-1.099568486213684,3.64648962020874,15.417071472140242,15.523352392685297,61.83491663486725,56.36796920431114,-0.0001942634553415,0.0988719761371612,0,0,0
5135,186252.8444918485,2010-12-01 14:18:12,1290.643852667214,7,17,-1.099568486213684,3.6416330337524414,15.417071472140242,15.532519691763945,61.83491663486725,56.40137625270062,-0.0001295089750783,0.0988719761371612,0,0,0
5136,186282.8595283273,2010-12-01 14:18:42,1320.6588892563418,7,17,-1.0993878841400146,3.6366145610809326,15.417071472140242,15.541686993168312,61.83491663486725,56.43473716099796,-0.0001295089750783,0.0988719761371612,0,0,0
5137,186312.8746420383,2010-12-01 14:19:12,1350.6740029523469,7,17,-1.0997490882873535,3.631596088409424,15.417071472140242,15.550854388936012,61.83491663486725,56.46805268159292,-0.0001618862152099,0.0988719761371612,0,0,0
5138,186342.88951509053,2010-12-01 14:19:42,1380.6888759142946,7,17,-1.099568486213684,3.626739501953125,15.417071472140242,15.56002172804903,61.83491663486725,56.50132296807439,-0.0001295089750783,0.0988719761371612,0,0,0
5139,186372.9045236098,2010-12-01 14:20:12,1410.7038844285587,7,17,-1.099568486213684,3.621882915496826,15.417071472140242,15.569189031536853,61.83491663486725,56.53454831746617,-0.0001295089750783,0.0988719761371612,0,0,0
5140,186402.91953798867,2010-12-01 14:20:42,1440.7188988124292,7,17,-1.099568486213684,3.6170263290405273,15.417071472140242,15.578356435055827,61.83491663486725,56.56773036104881,-0.0001618862152099,0.0988719761371612,0,0,0
5141,186432.9349579217,2010-12-01 14:21:12,1470.734318835718,7,17,-1.099568486213684,3.612493515014648,15.417071472140242,15.587523902528622,61.83491663486725,56.60087038205089,-0.0001618862152099,0.0988719761371612,0,0,0
5142,186462.94961346764,2010-12-01 14:21:42,1500.7489743565718,7,17,-1.0993878841400146,3.6082844734191895,15.417071472140242,15.59669119543254,61.83491663486725,56.63396807223221,-9.713172767078504e-05,0.0988719761371612,0,0,0
5143,186492.9645987641,2010-12-01 14:22:12,1530.7639596079473,7,17,-1.099568486213684,3.603913545608521,15.417071472140242,15.605858527936544,61.83491663486725,56.66702546622805,-6.47544875391759e-05,0.0988719761371612,0,0,0
5144,186522.9795788226,2010-12-01 14:22:42,1560.7789396413384,7,17,-1.099568486213684,3.599542617797852,15.417071472140242,15.615025858743625,61.83491663486725,56.70004350164336,-9.713172767078504e-05,0.0988719761371612,0,0,0
5145,186552.9946040885,2010-12-01 14:23:12,1590.7939649072885,7,17,-1.099568486213684,3.5953335762023926,15.417071472140242,15.624193235897062,61.83491663486725,56.73302294189293,-0.0001618862152099,0.0988719761371612,0,0,0
5146,186583.0096120364,2010-12-01 14:23:42,1620.8089728802058,7,17,-1.099568486213684,3.5912866592407227,15.417071472140242,15.633360603036955,61.83491663486725,56.76596433094949,-9.713172767078504e-05,0.0988719761371612,0,0,0
5147,186613.02461201945,2010-12-01 14:24:12,1650.8239728331655,7,17,-1.0997490882873535,3.587401390075684,15.417071472140242,15.642528040406075,61.83491663486725,56.79886855645696,-9.713172767078504e-05,0.0988719761371612,0,0,0
5148,186643.03964166623,2010-12-01 14:24:42,1680.83900248503,7,17,-1.099568486213684,3.5833542346954346,15.417071472140242,15.651695454600128,61.83491663486725,56.83173611782558,-0.0001295089750783,0.0988719761371612,0,0,0
5149,186673.05464941863,2010-12-01 14:25:12,1710.8540102424108,7,17,-1.0997490882873535,3.579307079315185,15.417071472140242,15.660862898026233,61.83491663486725,56.86456796594566,-0.0001618862152099,0.0988719761371612,0,0,0
5150,186703.07199776047,2010-12-01 14:25:42,1740.871358674471,7,17,-1.0997490882873535,3.5755836963653564,15.417071472140242,15.670030963938782,61.83491663486725,56.89736744547347,-0.0001295089750783,0.0988719761371612,0,0,0
5151,186733.0846659459,2010-12-01 14:26:12,1770.8840267747046,7,17,-1.0997490882873535,3.571860313415528,15.417071472140242,15.67919756441545,61.83491663486725,56.930127847499655,-0.0001295089750783,0.0988719761371612,0,0,0
5152,186763.10143574307,2010-12-01 14:26:42,1800.9007966470408,7,17,-1.099568486213684,3.568460702896118,15.417071472140242,15.68836550645936,61.83491663486725,56.96285957217021,-6.47544875391759e-05,0.0988719761371612,0,0,0
5153,186793.11642854323,2010-12-01 14:27:12,1830.915789452214,7,17,-1.099568486213684,3.564899206161499,15.417071472140242,15.697532914189477,61.83491663486725,56.99555648914471,-6.47544875391759e-05,0.0988719761371612,0,0,0
5154,186823.1297098244,2010-12-01 14:27:42,1860.9290706481129,7,17,-1.0993878841400146,3.56149959564209,15.417071472140242,15.706699691260647,61.83491663486725,57.02821980919965,-9.713172767078504e-05,0.0988719761371612,0,0,0
5155,186853.1467866656,2010-12-01 14:28:12,1890.946147624666,7,17,-1.0993878841400146,3.55826187133789,15.417071472140242,15.715867595616889,61.83491663486725,57.0608559009426,-3.237724376958795e-05,0.0988719761371612,0,0,0
5156,186883.15972921377,2010-12-01 14:28:42,1920.9590900375165,7,17,-1.099568486213684,3.5547003746032715,15.417071472140242,15.725034347520973,61.83491663486725,57.09345633523724,-9.713172767078504e-05,0.0988719761371612,0,0,0
5157,186913.1747838428,2010-12-01 14:29:12,1950.9741446665355,7,17,-1.0997490882873535,3.5513007640838623,15.417071472140242,15.734201782780634,61.83491663486725,57.126028700750624,-0.0001295089750783,0.0988719761371612,0,0,0
5158,186943.19047527143,2010-12-01 14:29:42,1980.989836165381,7,17,-1.0993878841400146,3.548224925994873,15.417071472140242,15.743369341255704,61.83491663486725,57.15857187607136,-6.47544875391759e-05,0.0988719761371612,0,0,0
5159,186973.20474633056,2010-12-01 14:30:12,2011.0041071493288,7,17,-1.099568486213684,3.544987201690674,15.417071472140242,15.752536507125024,61.83491663486725,57.19108399643388,-6.47544875391759e-05,0.0988719761371612,0,0,0
5160,187003.21976051392,2010-12-01 14:30:42,2041.0191213327007,7,17,-1.099568486213684,3.541911363601685,15.417071472140242,15.761703917642468,61.83491663486725,57.223567868654925,-6.47544875391759e-05,0.0988719761371612,0,0,0
5161,187033.2349128561,2010-12-01 14:31:12,2071.034273755075,7,17,-1.099568486213684,3.5386736392974854,15.417071472140242,15.77087138782636,61.83491663486725,57.25602335650526,-9.713172767078504e-05,0.0988719761371612,0,0,0
5162,187063.24978347225,2010-12-01 14:31:42,2101.049144316048,7,17,-1.099568486213684,3.535597801208496,15.417071472140242,15.780038734841328,61.83491663486725,57.28844936899188,-6.47544875391759e-05,0.0988719761371612,0,0,0
5163,187093.26478481863,2010-12-01 14:32:12,2131.064145637413,7,17,-1.099568486213684,3.532198190689087,15.417071472140242,15.789206775252255,61.83491663486725,57.32084832646775,-0.0001295089750783,0.0988719761371612,0,0,0
5164,187123.27980691672,2010-12-01 14:32:42,2161.0791677505176,7,17,-1.099929690361023,3.5291223526000977,15.417071472140242,15.79837504173268,61.83491663486725,57.3532189005214,-6.47544875391759e-05,0.0988719761371612,0,0,0
5165,187153.2947803537,2010-12-01 14:33:12,2191.094141172456,7,17,-1.0997490882873535,3.5258846282958984,15.417071472140242,15.807543297930604,61.83491663486725,57.385560531115615,-9.713172767078504e-05,0.0988719761371612,0,0,0
5166,187183.30977555484,2010-12-01 14:33:42,2221.1091363986534,7,17,-1.0993878841400146,3.522970676422119,15.417071472140242,15.816711555265812,61.83491663486725,57.41787365800124,0.0,0.0988719761371612,0,0,0
5167,187213.32496425748,2010-12-01 14:34:12,2251.124325076248,7,17,-1.099568486213684,3.51957106590271,15.417071472140242,15.825879210359302,61.83491663486725,57.450155325371576,-9.713172767078504e-05,0.0988719761371612,0,0,0
5168,187243.3398485125,2010-12-01 14:34:43,2281.1392093563595,7,17,-1.099568486213684,3.5163333415985107,15.417071472140242,15.83504661665284,61.83491663486725,57.482406094033145,-6.47544875391759e-05,0.0988719761371612,0,0,0
5169,187273.35532505147,2010-12-01 14:35:13,2311.1546859704727,7,17,-1.099568486213684,3.512771844863892,15.417071472140242,15.844214327787038,61.83491663486725,57.51462648537862,-0.0001295089750783,0.0988719761371612,0,0,0
5170,187303.36987705977,2010-12-01 14:35:43,2341.169237903552,7,17,-1.0993878841400146,3.509372472763061,15.417071472140242,15.853381644040804,61.83491663486725,57.54681460023456,-9.713172767078504e-05,0.0988719761371612,0,0,0
5171,187333.3849165962,2010-12-01 14:36:13,2371.1842774199645,7,17,-1.0997490882873535,3.5058109760284424,15.417071472140242,15.86254911890774,61.83491663486725,57.57897094492053,-9.713172767078504e-05,0.0988719761371612,0,0,0
5172,187363.40178589092,2010-12-01 14:36:43,2401.2011468851333,7,17,-1.099568486213684,3.5022494792938232,15.417071472140242,15.87171724303427,61.83491663486725,57.61109624871022,-9.713172767078504e-05,0.0988719761371612,0,0,0
5173,187393.41512689067,2010-12-01 14:37:13,2431.2144877745773,7,17,-1.099568486213684,3.498202323913574,15.417071472140242,15.880884120606783,61.83491663486725,57.64318328237199,-0.0001295089750783,0.0988719761371612,0,0,0
5174,187423.4299209212,2010-12-01 14:37:43,2461.229281744957,7,17,-1.099929690361023,3.494317054748535,15.417071472140242,15.890051535692232,61.83491663486725,57.67523641904203,-9.713172767078504e-05,0.0988719761371612,0,0,0
5175,187453.4449282224,2010-12-01 14:38:13,2491.244289046203,7,17,-1.099568486213684,3.490269899368286,15.417071472140242,15.899218998043263,61.83491663486725,57.70725182146197,-9.713172767078504e-05,0.0988719761371612,0,0,0
5176,187483.4599457491,2010-12-01 14:38:43,2521.2593065929445,7,17,-1.099568486213684,3.4857370853424072,15.417071472140242,15.908386484761763,61.83491663486725,57.73922780650364,-9.713172767078504e-05,0.0988719761371612,0,0,0
5177,187513.47511837177,2010-12-01 14:39:13,2551.2744792707235,7,17,-1.0993878841400146,3.4808804988861084,15.417071472140242,15.917554009096218,61.83491663486725,57.771161672411424,-0.0001295089750783,0.0988719761371612,0,0,0
5178,187543.48998060703,2010-12-01 14:39:43,2581.289341450841,7,17,-1.0993878841400146,3.47553825378418,15.417071472140242,15.926721401552086,61.83491663486725,57.80304835981065,-0.0001942634553415,0.0988719761371612,0,0,0
5179,187573.50499496583,2010-12-01 14:40:13,2611.304355814662,7,17,-1.0993878841400146,3.469872236251831,15.417071472140242,15.93588878557958,61.83491663486725,57.83488494369739,-0.0001618862152099,0.0988719761371612,0,0,0
5180,187603.5199863625,2010-12-01 14:40:43,2641.319347181255,7,17,-1.0997490882873535,3.4635586738586426,15.417071472140242,15.94505616886384,61.83491663486725,57.86666658202807,-0.0001942634553415,0.0988719761371612,0,0,0
5181,187633.5350398036,2010-12-01 14:41:13,2671.3344006223174,7,17,-1.099568486213684,3.4565975666046143,15.417071472140242,15.954223645685405,61.83491663486725,57.89838833097853,-0.0002266406954731,0.0988719761371612,0,0,0
5182,187663.5500099373,2010-12-01 14:41:43,2701.3493707610864,7,17,-1.099568486213684,3.448503255844116,15.417071472140242,15.963391074516355,61.83491663486725,57.93004137912685,-0.0002590179501567,0.0988719761371612,0,0,0
5183,187693.56502803045,2010-12-01 14:42:13,2731.364388854187,7,17,-1.0993878841400146,3.4394376277923584,15.417071472140242,15.9725585144335,61.83491663486725,57.961615597927256,-0.0002590179501567,0.0988719761371612,0,0,0
5184,187723.5800314971,2010-12-01 14:42:43,2761.3793923409407,7,17,-1.0993878841400146,3.42891526222229,15.417071472140242,15.981726004644662,61.83491663486725,57.993099532589696,-0.0002913951757363,0.0988719761371612,0,0,0
5185,187753.5950984368,2010-12-01 14:43:13,2791.3944593307187,7,17,-1.099568486213684,3.416288137435913,15.417071472140242,15.990893535675228,61.83491663486725,58.02447847060194,-0.0003561496851034,0.0988719761371612,0,0,0
5186,187783.61005544788,2010-12-01 14:43:43,2821.409416296708,7,17,-1.0993878841400146,3.4012327194213867,15.417071472140242,16.000060990717838,61.83491663486725,58.05573003497485,-0.0004209041653666,0.0988719761371612,0,0,0
5187,187813.62508823257,2010-12-01 14:44:13,2851.4244491465306,7,17,-1.099568486213684,3.3821301460266118,15.417071472140242,16.009228554420716,61.83491663486725,58.08682579999919,-0.0005180359003134,0.0988719761371612,0,0,0
5188,187843.6400869524,2010-12-01 14:44:43,2881.439447796247,7,17,-1.099568486213684,3.3575234413146973,15.417071472140242,16.01839611048808,61.83491663486725,58.11772320979512,-0.0007446765666827,0.0988719761371612,0,0,0
5189,187873.65511546144,2010-12-01 14:45:13,2911.4544762852174,7,17,-1.099568486213684,3.3248226642608643,15.417071472140242,16.027563590595246,61.83491663486725,58.14836065928071,-0.0010036944877356,0.0988719761371612,0,0,0
5190,187903.67010627667,2010-12-01 14:45:43,2941.469467095426,7,17,-1.099568486213684,3.2812752723693848,15.417071472140242,16.036731026688752,61.83491663486725,58.17865192425646,-0.0013274669181555,0.0988719761371612,0,0,0
5191,187933.68511525707,2010-12-01 14:46:13,2971.4844761009126,7,17,-1.0993878841400146,3.2213776111602783,15.417071472140242,16.0458985289181,61.83491663486725,58.20847453538435,-0.0018455028766766,0.0988719761371612,0,0,0
5192,187963.70208578376,2010-12-01 14:46:43,3001.501446692732,7,17,-1.099568486213684,3.136225700378418,15.417071472140242,16.055066610237205,61.83491663486725,58.237643496008296,-0.0027520656585693,0.0988719761371612,0,0,0
5193,187993.71515457108,2010-12-01 14:47:13,3031.514515389836,7,17,-1.0993878841400146,3.0063934326171875,15.417071472140242,16.064232918593273,61.83491663486725,58.265844601601245,-0.0042737959884107,0.0988719761371612,0,0,0
5194,188019.605227592,2010-12-01 14:47:39,3057.404588410776,7,17,-1.0993878841400146,2.806302547454834,15.417071472140242,16.072139943921425,61.83491663486725,58.288904155012204,-0.0078352931886911,0.0988719761371612,0,0,0
5195,188029.3550493685,2010-12-01 14:47:49,3067.1544102574485,7,17,-1.0993878841400146,2.699943780899048,15.417071472140242,16.075117569405435,61.83491663486725,58.29710523377016,-0.0090008256956934,0.0988719761371612,0,0,0
5196,188089.37112776292,2010-12-01 14:48:49,60.01442497831141,8,17,0.0,3.392167091369629,15.417071472140242,16.075117569405435,61.83491663486725,58.29710523377016,0.0012627125252038,0.0988719761371612,0,0,0
5197,188089.56161905828,2010-12-01 14:48:49,0.187639107702629,9,17,-1.9243103452026844e-05,3.392328977584839,15.417071472140242,16.075117570408423,61.83491663486725,58.29710523717262,0.0,0.096440702676773,0,0,0
5198,188094.3914551396,2010-12-01 14:48:54,5.017475224115395,9,17,0.0007031940040178,3.399937629699707,15.417072312549935,16.07511757065894,61.83491948958663,58.297105238023065,0.0011008263099938,0.096440702676773,0,0,0
