Data_Point,Test_Time(s),Date_Time,Step_Time(s),Step_Index,Cycle_Index,Current(A),Voltage(V),Charge_Capacity(Ah),Discharge_Capacity(Ah),Charge_Energy(Wh),Discharge_Energy(Wh),dV/dt(V/s),Internal_Resistance(Ohm),Is_FC_Data,AC_Impedance(Ohm),ACI_Phase_Angle(Deg)
13863,497655.9304241854,2010-12-05 04:48:51,30.0150898416444,1,46,0.0,3.3845584392547607,41.3793693463531,42.05145761822388,165.81603144782437,152.52357445179774,0.0007446765666827,0.0953715816140174,0,0,0
13864,497685.9456629727,2010-12-05 04:49:21,60.03032862893431,1,46,0.0,3.4067368507385254,41.3793693463531,42.05145761822388,165.81603144782437,152.52357445179774,0.0005180359003134,0.0953715816140174,0,0,0
13865,497715.960648981,2010-12-05 04:49:51,90.04531464721828,1,46,0.0,3.4237349033355717,41.3793693463531,42.05145761822388,165.81603144782437,152.52357445179774,0.0003885269106831,0.0953715816140174,0,0,0
13866,497745.9288577809,2010-12-05 04:50:21,120.0135234471936,1,46,0.0,3.437494993209839,41.3793693463531,42.05145761822388,165.81603144782437,152.52357445179774,0.0003237724304199,0.0953715816140174,0,0,0
13867,497775.9511508624,2010-12-05 04:50:52,30.015083550990347,2,46,0.5501165986061096,3.6006758213043213,41.38395625285962,42.05145761822388,165.83238069648868,152.52357445179774,0.0015864849556237,0.0953715816140174,0,0,0
13868,497805.966298127,2010-12-05 04:51:22,60.03023084560425,2,46,0.5499359965324402,3.6489179134368896,41.388543133749465,42.05145761822388,165.84901397552417,152.52357445179774,0.0010684489971026,0.0953715816140174,0,0,0
13869,497835.9832087546,2010-12-05 04:51:52,90.0471415433791,2,46,0.5504778623580933,3.684046983718872,41.393130215004845,42.05145761822388,165.86583580098636,152.52357445179774,0.0008741855854168,0.0953715816140174,0,0,0
13870,497865.9964490537,2010-12-05 04:52:22,120.0603817422586,2,46,0.550297200679779,3.711405754089356,41.39771676886415,42.05145761822388,165.88279771958707,152.52357445179774,0.0006475448608398,0.0953715816140174,0,0,0
13871,497896.01153273,2010-12-05 04:52:52,150.07546542357326,2,46,0.5501165986061096,3.73358416557312,41.40230359469488,42.05145761822388,165.89987401361836,152.52357445179774,0.0005180359003134,0.0953715816140174,0,0,0
13872,497926.02665257134,2010-12-05 04:53:22,180.09058526988312,2,46,0.550297200679779,3.751553535461426,41.40689042564552,42.05145761822388,165.91704190899196,152.52357445179774,0.0004532813909463,0.0953715816140174,0,0,0
13873,497956.0417462024,2010-12-05 04:53:52,210.1056788959449,2,46,0.5501165986061096,3.7643423080444336,41.411477289171465,42.05145761822388,165.93428074920996,152.52357445179774,0.0002913951757363,0.0953715816140174,0,0,0
13874,497986.056810335,2010-12-05 04:54:22,240.120743033626,2,46,0.5501165986061096,3.772760391235352,41.41606405429744,42.05145761822388,165.95156765817228,152.52357445179774,0.0001618862152099,0.0953715816140174,0,0,0
13875,498016.0719703162,2010-12-05 04:54:52,270.1359030298474,2,46,0.5501165986061096,3.7784264087677,41.42065004676311,42.05145761822388,165.96888306109577,152.52357445179774,0.0001295089750783,0.0953715816140174,0,0,0
13876,498046.0870539825,2010-12-05 04:55:22,300.1509866760747,2,46,0.5499359965324402,3.783121109008789,41.425235989715965,42.05145761822388,165.9862217174419,152.52357445179774,9.713172767078504e-05,0.0953715816140174,0,0,0
13877,498076.1021189171,2010-12-05 04:55:52,330.1660516057265,2,46,0.5497553944587708,3.787492036819458,41.42982191101655,42.05145761822388,166.0035809071326,152.52357445179774,0.0001295089750783,0.0953715816140174,0,0,0
13878,498106.1172057864,2010-12-05 04:56:22,360.1811384799868,2,46,0.5501165986061096,3.791539192199707,41.43440793305056,42.05145761822388,166.02095976403163,152.52357445179774,9.713172767078504e-05,0.0953715816140174,0,0,0
13879,498136.1323158284,2010-12-05 04:56:52,390.1962485168862,2,46,0.550297200679779,3.795586347579956,41.43899475009216,42.05145761822388,166.03836006196633,152.52357445179774,0.0001295089750783,0.0953715816140174,0,0,0
13880,498166.1474222714,2010-12-05 04:57:22,420.2113549598424,2,46,0.550297200679779,3.799309730529785,41.44358156786944,42.05145761822388,166.05577784549246,152.52357445179774,9.713172767078504e-05,0.0953715816140174,0,0,0
13881,498196.162519376,2010-12-05 04:57:52,450.2264520695731,2,46,0.5499359965324402,3.8027093410491934,41.448168426465536,42.05145761822388,166.07321273771691,152.52357445179774,6.47544875391759e-05,0.0953715816140174,0,0,0
13882,498226.17775414325,2010-12-05 04:58:22,480.2416868418719,2,46,0.5501165986061096,3.806432723999024,41.45275525929244,42.05145761822388,166.0906638896108,152.52357445179774,3.237724376958795e-05,0.0953715816140174,0,0,0
13883,498256.192717435,2010-12-05 04:58:52,510.2566501336017,2,46,0.5501165986061096,3.8099942207336426,41.457342146037846,42.05145761822388,166.10813126875075,152.52357445179774,0.0001295089750783,0.0953715816140174,0,0,0
13884,498286.2078143994,2010-12-05 04:59:22,540.2717470879459,2,46,0.5501165986061096,3.813231945037842,41.46192905615301,42.05145761822388,166.1256144427838,152.52357445179774,9.713172767078504e-05,0.0953715816140174,0,0,0
13885,498316.222898196,2010-12-05 04:59:52,570.2868308845473,2,46,0.5501165986061096,3.816469669342041,41.46651590572807,42.05145761822388,166.14311323923687,152.52357445179774,6.47544875391759e-05,0.0953715816140174,0,0,0
13886,498346.2380280572,2010-12-05 05:00:22,600.3019608059286,2,46,0.5501165986061096,3.82003116607666,41.47110270228895,42.05145761822388,166.16062721083017,152.52357445179774,9.713172767078504e-05,0.0953715816140174,0,0,0
13887,498376.2530936285,2010-12-05 05:00:52,630.3170263320648,2,46,0.550297200679779,3.823430776596069,41.47568958512162,42.05145761822388,166.17815700526148,152.52357445179774,9.713172767078504e-05,0.0953715816140174,0,0,0
13888,498406.2686576501,2010-12-05 05:01:22,660.3325903687253,2,46,0.550297200679779,3.8268303871154794,41.48027647408578,42.05145761822388,166.19570232999007,152.52357445179774,9.713172767078504e-05,0.0953715816140174,0,0,0
13889,498436.2850964085,2010-12-05 05:01:52,690.3490292273465,2,46,0.550297200679779,3.830229997634888,41.48486355982181,42.05145761822388,166.213264116708,152.52357445179774,6.47544875391759e-05,0.0953715816140174,0,0,0
13890,498466.2985254072,2010-12-05 05:02:22,720.3624581959723,2,46,0.550297200679779,3.833791255950928,41.48945012711398,42.05145761822388,166.2308398639938,152.52357445179774,0.0001294612884521,0.0953715816140174,0,0,0
13891,498496.3134884032,2010-12-05 05:02:52,750.3774210917168,2,46,0.5501165986061096,3.837352752685547,41.49403688851272,42.05145761822388,166.2484325470538,152.52357445179774,6.47544875391759e-05,0.0953715816140174,0,0,0
13892,498526.32860497135,2010-12-05 05:03:22,780.3925376598689,2,46,0.5501165986061096,3.840914249420166,41.49862369470471,42.05145761822388,166.26604177966243,152.52357445179774,9.713172767078504e-05,0.0953715816140174,0,0,0
13893,498556.3436852242,2010-12-05 05:03:52,810.4076179126519,2,46,0.5501165986061096,3.844475746154785,41.50321049386662,42.05145761822388,166.28366745957462,152.52357445179774,9.713172767078504e-05,0.0953715816140174,0,0,0
13894,498586.3587819229,2010-12-05 05:04:22,840.4227146213848,2,46,0.5499359965324402,3.848037242889404,41.50779732142729,42.05145761822388,166.301309623505,152.52357445179774,9.713172767078504e-05,0.0953715816140174,0,0,0
13895,498616.3738723409,2010-12-05 05:04:52,870.4378050394636,2,46,0.550297200679779,3.8517606258392334,41.51238452005442,42.05145761822388,166.31896949400843,152.52357445179774,0.0001295089750783,0.0953715816140174,0,0,0
13896,498646.3890358759,2010-12-05 05:05:22,900.4529685694787,2,46,0.5501165986061096,3.8551602363586426,41.51697203635434,42.05145761822388,166.33664670248865,152.52357445179774,9.713172767078504e-05,0.0953715816140174,0,0,0
13897,498676.4044402453,2010-12-05 05:05:52,930.4683730591124,2,46,0.5501165986061096,3.858397960662842,41.52155949787768,42.05145761822388,166.35433959173892,152.52357445179774,6.47544875391759e-05,0.0953715816140174,0,0,0
13898,498706.4191635448,2010-12-05 05:06:22,960.4830962333192,2,46,0.5501165986061096,3.861959457397461,41.526146965340445,42.05145761822388,166.37204803732757,152.52357445179774,0.0001295089750783,0.0953715816140174,0,0,0
13899,498736.4342729902,2010-12-05 05:06:52,990.4982056787468,2,46,0.550297200679779,3.86503529548645,41.53073406076253,42.05145761822388,166.38977011108517,152.52357445179774,6.47544875391759e-05,0.0953715816140174,0,0,0
13900,498766.4493639195,2010-12-05 05:07:22,1020.5132966181228,2,46,0.5501165986061096,3.8682730197906494,41.53532077235676,42.05145761822388,166.40750525833934,152.52357445179774,9.713172767078504e-05,0.0953715816140174,0,0,0
13901,498796.4648790596,2010-12-05 05:07:52,1050.5288117631185,2,46,0.550297200679779,3.871348857879639,41.53990761135464,42.05145761822388,166.42525497546913,152.52357445179774,9.713172767078504e-05,0.0953715816140174,0,0,0
13902,498826.4795463948,2010-12-05 05:08:22,1080.5434790883469,2,46,0.5501165986061096,3.874100923538208,41.5444943200426,42.05145761822388,166.44301780398817,152.52357445179774,6.47544875391759e-05,0.0953715816140174,0,0,0
13903,498856.4946679653,2010-12-05 05:08:52,1110.558600673985,2,46,0.5501165986061096,3.876852989196777,41.54908108536173,42.05145761822388,166.46079372170186,152.52357445179774,6.47544875391759e-05,0.0953715816140174,0,0,0
13904,498886.50988518907,2010-12-05 05:09:22,1140.5738178875897,2,46,0.550297200679779,3.8794431686401367,41.553667846023785,42.05145761822388,166.47858195148785,152.52357445179774,6.47544875391759e-05,0.0953715816140174,0,0,0
13905,498916.5248399646,2010-12-05 05:09:52,1170.588772653102,2,46,0.550297200679779,3.882033348083496,41.55825459300122,42.05145761822388,166.49638175086028,152.52357445179774,9.713172767078504e-05,0.0953715816140174,0,0,0
13906,498946.5399430541,2010-12-05 05:10:22,1200.603875767776,2,46,0.5501165986061096,3.8841378688812256,41.562841444019405,42.05145761822388,166.51419295193705,152.52357445179774,3.237724376958795e-05,0.0953715816140174,0,0,0
13907,498976.5550640032,2010-12-05 05:10:52,1230.61899669678,2,46,0.5499359965324402,3.886242389678955,41.56742824552329,42.05145761822388,166.5320141392026,152.52357445179774,6.47544875391759e-05,0.0953715816140174,0,0,0
13908,499006.570138206,2010-12-05 05:11:22,1260.6340709195574,2,46,0.550297200679779,3.8885087966918954,41.57201504779941,42.05145761822388,166.54984504757653,152.52357445179774,6.47544875391759e-05,0.0953715816140174,0,0,0
13909,499036.58706135966,2010-12-05 05:11:52,1290.6509941485156,2,46,0.5501165986061096,3.890289545059204,41.576602157543824,42.05145761822388,166.56768628228505,152.52357445179774,3.237724376958795e-05,0.0953715816140174,0,0,0
13910,499066.6003633323,2010-12-05 05:12:22,1320.6642960308925,2,46,0.5501165986061096,3.892232179641724,41.581188739872246,42.05145761822388,166.58553416802275,152.52357445179774,3.237724376958795e-05,0.0953715816140174,0,0,0
13911,499096.6154174802,2010-12-05 05:12:52,1350.6793501737016,2,46,0.5501165986061096,3.8938510417938232,41.58577557329752,42.05145761822388,166.60339125925643,152.52357445179774,0.0,0.0953715816140174,0,0,0
13912,499126.6305686644,2010-12-05 05:13:22,1380.6945014381945,2,46,0.5501165986061096,3.895631790161133,41.59036244639022,42.05145761822388,166.62125616085666,152.52357445179774,6.47544875391759e-05,0.0953715816140174,0,0,0
13913,499156.6457314024,2010-12-05 05:13:52,1410.7096641010514,2,46,0.550297200679779,3.8974125385284415,41.59494925494669,42.05145761822388,166.6391283662076,152.52357445179774,9.713172767078504e-05,0.0953715816140174,0,0,0
13914,499186.6607140424,2010-12-05 05:14:22,1440.7246467309035,2,46,0.5501165986061096,3.898869514465332,41.59953602152742,42.05145761822388,166.65700778231653,152.52357445179774,3.237724376958795e-05,0.0953715816140174,0,0,0
13915,499216.6758199239,2010-12-05 05:14:52,1470.73975260745,2,46,0.5499359965324402,3.900164604187012,41.60412278136396,42.05145761822388,166.6748943990754,152.52357445179774,3.237724376958795e-05,0.0953715816140174,0,0,0
13916,499246.6909188531,2010-12-05 05:15:22,1500.7548515667834,2,46,0.550297200679779,3.9021072387695312,41.608709618414295,42.05145761822388,166.69278846028448,152.52357445179774,9.713172767078504e-05,0.0953715816140174,0,0,0
13917,499276.7060196671,2010-12-05 05:15:52,1530.7699523606825,2,46,0.550297200679779,3.903564214706421,41.61329642724623,42.05145761822388,166.71068942391315,152.52357445179774,9.713172767078504e-05,0.0953715816140174,0,0,0
13918,499306.72112701234,2010-12-05 05:16:22,1560.7850597008712,2,46,0.5501165986061096,3.9048593044281006,41.61788327458209,42.05145761822388,166.728597522575,152.52357445179774,0.0,0.0953715816140174,0,0,0
13919,499336.73625899886,2010-12-05 05:16:52,1590.800191717466,2,46,0.550297200679779,3.9064781665802,41.62247009666442,42.05145761822388,166.74651229143214,152.52357445179774,3.237724376958795e-05,0.0953715816140174,0,0,0
13920,499366.753635641,2010-12-05 05:17:22,1620.817568444938,2,46,0.5497553944587708,3.90793514251709,41.627057253456144,42.05145761822388,166.7644353225063,152.52357445179774,0.0,0.0953715816140174,0,0,0
13921,499396.766541082,2010-12-05 05:17:52,1650.830473780523,2,46,0.5501165986061096,3.90939211845398,41.63164370777096,42.05145761822388,166.78236248810674,152.52357445179774,3.237724376958795e-05,0.0953715816140174,0,0,0
13922,499426.7814635822,2010-12-05 05:18:22,1680.8453962957822,2,46,0.550297200679779,3.911010980606079,41.63623050731806,42.05145761822388,166.80029792970458,152.52357445179774,6.47544875391759e-05,0.0953715816140174,0,0,0
13923,499456.7965585566,2010-12-05 05:18:52,1710.8604912551618,2,46,0.5501165986061096,3.9124679565429688,41.640817291115866,42.05145761822388,166.81824019723854,152.52357445179774,3.237724376958795e-05,0.0953715816140174,0,0,0
13924,499486.81171362055,2010-12-05 05:19:22,1740.8756463592092,2,46,0.5501165986061096,3.914086580276489,41.64540406301699,42.05145761822388,166.83618934033993,152.52357445179774,3.237724376958795e-05,0.0953715816140174,0,0,0
13925,499516.8267468212,2010-12-05 05:19:52,1770.8906795398548,2,46,0.550297200679779,3.915543556213379,41.64999087155687,42.05145761822388,166.85414558742897,152.52357445179774,3.237724376958795e-05,0.0953715816140174,0,0,0
13926,499546.8419748267,2010-12-05 05:20:22,1800.9059075252649,2,46,0.5501165986061096,3.9168386459350586,41.65457765586672,42.05145761822388,166.87210847023076,152.52357445179774,0.0,0.0953715816140174,0,0,0
13927,499576.8569547148,2010-12-05 05:20:52,1830.920887433344,2,46,0.5501165986061096,3.918619394302368,41.65916446852227,42.05145761822388,166.8900785293883,152.52357445179774,6.47544875391759e-05,0.0953715816140174,0,0,0
13928,499606.8720855033,2010-12-05 05:21:23,1860.9360182920573,2,46,0.5499359965324402,3.919914484024048,41.66375124414454,42.05145761822388,166.9080554825569,152.52357445179774,0.0,0.0953715816140174,0,0,0
13929,499636.88956526713,2010-12-05 05:21:53,1890.953498070969,2,46,0.5501165986061096,3.921695232391357,41.66833844804834,42.05145761822388,166.92604111865305,152.52357445179774,6.47544875391759e-05,0.0953715816140174,0,0,0
13930,499666.9022248462,2010-12-05 05:22:23,1920.966157534711,2,46,0.5499359965324402,3.922990322113037,41.67292484611425,42.05145761822388,166.94403063748695,152.52357445179774,0.0,0.0953715816140174,0,0,0
13931,499696.91733572015,2010-12-05 05:22:53,1950.9812684137064,2,46,0.5501165986061096,3.9246091842651367,41.67751163705204,42.05145761822388,166.962028754082,152.52357445179774,3.237724376958795e-05,0.0953715816140174,0,0,0
13932,499726.9324256971,2010-12-05 05:23:23,1980.9963584207624,2,46,0.550297200679779,3.926228046417236,41.68209845822151,42.05145761822388,166.9800341153629,152.52357445179774,6.47544875391759e-05,0.0953715816140174,0,0,0
13933,499756.94763140206,2010-12-05 05:23:53,2011.011564120716,2,46,0.5501165986061096,3.927685022354126,41.68668523882857,42.05145761822388,166.99804639295868,152.52357445179774,3.237724376958795e-05,0.0953715816140174,0,0,0
13934,499786.9626303426,2010-12-05 05:24:23,2041.0265630310807,2,46,0.5501165986061096,3.9293038845062256,41.69127204825232,42.05145761822388,167.01606596205406,152.52357445179774,3.237724376958795e-05,0.0953715816140174,0,0,0
13935,499816.9778317017,2010-12-05 05:24:53,2071.0417644002573,2,46,0.5501165986061096,3.930922746658325,41.69585884341922,42.05145761822388,167.03409268456767,152.52357445179774,3.237724376958795e-05,0.0953715816140174,0,0,0
13936,499846.99289643584,2010-12-05 05:25:23,2101.0568292146227,2,46,0.5501165986061096,3.932541608810425,41.70044567860598,42.05145761822388,167.05212667197134,152.52357445179774,6.47544875391759e-05,0.0953715816140174,0,0,0
13937,499877.0079039325,2010-12-05 05:25:53,2131.071836646193,2,46,0.550297200679779,3.934160470962525,41.7050324530888,42.05145761822388,167.07016768587806,152.52357445179774,6.47544875391759e-05,0.0953715816140174,0,0,0
13938,499907.0230190973,2010-12-05 05:26:23,2161.08695180584,2,46,0.5501165986061096,3.935617446899414,41.70961931830764,42.05145761822388,167.08821640115949,152.52357445179774,6.47544875391759e-05,0.0953715816140174,0,0,0
13939,499937.0381096407,2010-12-05 05:26:53,2191.1020423291807,2,46,0.5501165986061096,3.937398195266724,41.714206182293005,42.05145761822388,167.10627233662942,152.52357445179774,9.713172767078504e-05,0.0953715816140174,0,0,0
13940,499967.05323092046,2010-12-05 05:27:23,2221.117163704295,2,46,0.5501165986061096,3.938855171203613,41.718792965867095,42.05145761822388,167.12433539881408,152.52357445179774,6.47544875391759e-05,0.0953715816140174,0,0,0
13941,499997.0682974191,2010-12-05 05:27:53,2251.1322301326763,2,46,0.5501165986061096,3.940635919570923,41.72337976314714,42.05145761822388,167.14240587865183,152.52357445179774,6.47544875391759e-05,0.0953715816140174,0,0,0
13942,500027.08339957136,2010-12-05 05:28:23,2281.147332284955,2,46,0.5501165986061096,3.9422547817230233,41.72796658885767,42.05145761822388,167.1604839085563,152.52357445179774,9.713172767078504e-05,0.0953715816140174,0,0,0
13943,500057.0984882551,2010-12-05 05:28:53,2311.162420953681,2,46,0.550297200679779,3.943711757659912,41.73255339995065,42.05145761822388,167.17856933921266,152.52357445179774,6.47544875391759e-05,0.0953715816140174,0,0,0
13944,500087.1136044473,2010-12-05 05:29:23,2341.177537165948,2,46,0.550297200679779,3.9454925060272217,41.73714023474199,42.05145761822388,167.19666238276315,152.52357445179774,6.47544875391759e-05,0.0953715816140174,0,0,0
13945,500117.12870677,2010-12-05 05:29:53,2371.1926394686006,2,46,0.5501165986061096,3.947111368179321,41.74172706314032,42.05145761822388,167.21476293748583,152.52357445179774,6.47544875391759e-05,0.0953715816140174,0,0,0
13946,500147.14378471207,2010-12-05 05:30:23,2401.2077174306837,2,46,0.5501165986061096,3.948730230331421,41.74631391097876,42.05145761822388,167.23287113955612,152.52357445179774,6.47544875391759e-05,0.0953715816140174,0,0,0
13947,500177.1588837967,2010-12-05 05:30:53,2431.2228165153283,2,46,0.5501165986061096,3.950349092483521,41.7509006964104,42.05145761822388,167.25098672142022,152.52357445179774,6.47544875391759e-05,0.0953715816140174,0,0,0
13948,500207.174112539,2010-12-05 05:31:23,2461.238045252609,2,46,0.5501165986061096,3.95196795463562,41.755487576394586,42.05145761822388,167.26911042013407,152.52357445179774,3.237724376958795e-05,0.0953715816140174,0,0,0
13949,500237.19089196005,2010-12-05 05:31:53,2491.254824738869,2,46,0.550297200679779,3.95391058921814,41.76007462943319,42.05145761822388,167.28724243028728,152.52357445179774,9.713172767078504e-05,0.0953715816140174,0,0,0
13950,500267.2041862335,2010-12-05 05:32:23,2521.268118922087,2,46,0.5501165986061096,3.955367565155029,41.764661171210655,42.05145761822388,167.30538018876408,152.52357445179774,6.47544875391759e-05,0.0953715816140174,0,0,0
13951,500297.21927881707,2010-12-05 05:32:53,2551.283211610816,2,46,0.5499359965324402,3.956986427307129,41.76924803681498,42.05145761822388,167.32352699887687,152.52357445179774,0.0,0.0953715816140174,0,0,0
13952,500327.234728474,2010-12-05 05:33:23,2581.2986612277477,2,46,0.5501165986061096,3.9587671756744394,41.77383492874095,42.05145761822388,167.3416816488145,152.52357445179774,0.0,0.0953715816140174,0,0,0
13953,500357.2496045036,2010-12-05 05:33:53,2611.313537202192,2,46,0.550297200679779,3.960547924041748,41.77842175680052,42.05145761822388,167.35984398207532,152.52357445179774,6.47544875391759e-05,0.0953715816140174,0,0,0
13954,500387.26457368,2010-12-05 05:34:23,2641.328506378565,2,46,0.5501165986061096,3.9623286724090576,41.78300856917435,42.05145761822388,167.37801423469267,152.52357445179774,3.237724376958795e-05,0.0953715816140174,0,0,0
13955,500417.2797932495,2010-12-05 05:34:53,2671.3437259630696,2,46,0.5501165986061096,3.964109420776367,41.78759537057565,42.05145761822388,167.39619246235043,152.52357445179774,3.237724376958795e-05,0.0953715816140174,0,0,0
13956,500447.29478523263,2010-12-05 05:35:23,2701.3587179211345,2,46,0.550297200679779,3.9658901691436768,41.792182209093454,42.05145761822388,167.41437900749509,152.52357445179774,6.47544875391759e-05,0.0953715816140174,0,0,0
13957,500477.3099876344,2010-12-05 05:35:53,2731.3739203379178,2,46,0.5499359965324402,3.967509031295776,41.79676909339128,42.05145761822388,167.43257389430983,152.52357445179774,3.237724376958795e-05,0.0953715816140174,0,0,0
13958,500507.32495874056,2010-12-05 05:36:23,2761.388891449106,2,46,0.5499359965324402,3.969289779663086,41.801355445338345,42.05145761822388,167.4507747980445,152.52357445179774,0.0,0.0953715816140174,0,0,0
13959,500537.34008054674,2010-12-05 05:36:53,2791.4040132603054,2,46,0.5501165986061096,3.9712324142456055,41.805941379105846,42.05145761822388,167.4689823042579,152.52357445179774,3.237724376958795e-05,0.0953715816140174,0,0,0
13960,500567.3552009293,2010-12-05 05:37:23,2821.419133617888,2,46,0.5499359965324402,3.973013162612915,41.81052789997754,42.05145761822388,167.48720063665365,152.52357445179774,3.237724376958795e-05,0.0953715816140174,0,0,0
13961,500597.3704331954,2010-12-05 05:37:53,2851.4343659691617,2,46,0.5499359965324402,3.9749557971954346,41.8151147855965,42.05145761822388,167.50542891641734,152.52357445179774,3.237724376958795e-05,0.0953715816140174,0,0,0
13962,500627.385384387,2010-12-05 05:38:23,2881.449317165793,2,46,0.550297200679779,3.976898431777954,41.81970166392442,42.05145761822388,167.52366571620186,152.52357445179774,6.47544875391759e-05,0.0953715816140174,0,0,0
13963,500657.40047369234,2010-12-05 05:38:53,2911.464406385891,2,46,0.5501165986061096,3.9785172939300537,41.82428854867176,42.05145761822388,167.54191075510502,152.52357445179774,3.237724376958795e-05,0.0953715816140174,0,0,0
13964,500687.4155819698,2010-12-05 05:39:23,2941.4795146884744,2,46,0.5501165986061096,3.980621814727783,41.82887532908112,42.05145761822388,167.5601645932171,152.52357445179774,3.237724376958795e-05,0.0953715816140174,0,0,0
13965,500717.43106676935,2010-12-05 05:39:53,2971.4949994679064,2,46,0.5501165986061096,3.982564449310303,41.83346217747267,42.05145761822388,167.57842756957226,152.52357445179774,3.237724376958795e-05,0.0953715816140174,0,0,0
13966,500747.445796961,2010-12-05 05:40:23,3001.509729654564,2,46,0.5501165986061096,3.9845070838928223,41.83804887628792,42.05145761822388,167.59669881360867,152.52357445179774,6.47544875391759e-05,0.0953715816140174,0,0,0
13967,500777.46088979,2010-12-05 05:40:53,3031.524822483642,2,46,0.5499359965324402,3.986287832260132,41.842635648673,42.05145761822388,167.6149794098148,152.52357445179774,3.237724376958795e-05,0.0953715816140174,0,0,0
13968,500807.4759822582,2010-12-05 05:41:23,3061.5399149768846,2,46,0.5501165986061096,3.988392353057861,41.84722244199487,42.05145761822388,167.63326915756585,152.52357445179774,6.47544875391759e-05,0.0953715816140174,0,0,0
13969,500837.4928657584,2010-12-05 05:41:53,3091.5567985772286,2,46,0.5501165986061096,3.990658760070801,41.851809456673294,42.05145761822388,167.6515690007388,152.52357445179774,9.713172767078504e-05,0.0953715816140174,0,0,0
13970,500867.506175395,2010-12-05 05:42:23,3121.57010810864,2,46,0.5501165986061096,3.99260139465332,41.85639596189614,42.05145761822388,167.669876146141,152.52357445179774,6.47544875391759e-05,0.0953715816140174,0,0,0
13971,500897.52139044827,2010-12-05 05:42:53,3151.585323136806,2,46,0.5501165986061096,3.994381904602051,41.86098281407037,42.05145761822388,167.6881941073699,152.52357445179774,0.0,0.0953715816140174,0,0,0
13972,500927.53637437633,2010-12-05 05:43:23,3181.6003070949632,2,46,0.5497553944587708,3.99648642539978,41.86556958443183,42.05145761822388,167.70652125873886,152.52357445179774,0.0,0.0953715816140174,0,0,0
13973,500957.5514817466,2010-12-05 05:43:53,3211.615414445177,2,46,0.550297200679779,3.9989147186279297,41.870156360530885,42.05145761822388,167.72485802007336,152.52357445179774,6.47544875391759e-05,0.0953715816140174,0,0,0
13974,500987.5665701446,2010-12-05 05:44:23,3241.6305028332044,2,46,0.5501165986061096,4.001019477844238,41.87474301768472,42.05145761822388,167.74320404321304,152.52357445179774,6.47544875391759e-05,0.0953715816140174,0,0,0
13975,501017.5816624524,2010-12-05 05:44:53,3271.645595166048,2,46,0.5501165986061096,4.003123760223389,41.87932975931631,42.05145761822388,167.761560333722,152.52357445179774,6.47544875391759e-05,0.0953715816140174,0,0,0
13976,501047.5968986032,2010-12-05 05:45:23,3301.660831296727,2,46,0.5501165986061096,4.005390167236328,41.883916490325895,42.05145761822388,167.77992654987415,152.52357445179774,9.70840483205393e-05,0.0953715816140174,0,0,0
13977,501077.61185630097,2010-12-05 05:45:53,3331.675788989524,2,46,0.5499359965324402,4.007494926452637,41.88850316654731,42.05145761822388,167.7983026456732,152.52357445179774,6.47544875391759e-05,0.0953715816140174,0,0,0
13978,501107.6269530348,2010-12-05 05:46:23,3361.690885748382,2,46,0.5499359965324402,4.009761333465576,41.893089916092975,42.05145761822388,167.8166892152624,152.52357445179774,6.47544875391759e-05,0.0953715816140174,0,0,0
13979,501137.6420670816,2010-12-05 05:46:53,3391.7059998654345,2,46,0.5501165986061096,4.012027740478516,41.89767665139309,42.05145761822388,167.8350860238288,152.52357445179774,6.47544875391759e-05,0.0953715816140174,0,0,0
13980,501167.6574090909,2010-12-05 05:47:23,3421.7213418796,2,46,0.5499359965324402,4.014132022857666,41.90226348511676,42.05145761822388,167.8534936594765,152.52357445179774,3.23295607813634e-05,0.0953715816140174,0,0,0
13981,501197.6722471559,2010-12-05 05:47:53,3451.7361798544844,2,46,0.5501165986061096,4.0165605545043945,41.90685015430936,42.05145761822388,167.87191112494088,152.52357445179774,6.47544875391759e-05,0.0953715816140174,0,0,0
13982,501227.6873960996,2010-12-05 05:48:23,3481.751328888426,2,46,0.5501165986061096,4.018826961517334,41.91143689427646,42.05145761822388,167.890339473971,152.52357445179774,6.47544875391759e-05,0.0953715816140174,0,0,0
13983,501257.7024446535,2010-12-05 05:48:53,3511.7663773671406,2,46,0.550297200679779,4.021255016326904,41.91602359557861,42.05145761822388,167.90877825164,152.52357445179774,3.23295607813634e-05,0.0953715816140174,0,0,0
13984,501287.71756110137,2010-12-05 05:49:23,3541.781493789931,2,46,0.5501165986061096,4.023521423339844,41.92061031682078,42.05145761822388,167.9272280089533,152.52357445179774,6.47544875391759e-05,0.0953715816140174,0,0,0
13985,501317.71943743166,2010-12-05 05:49:53,3571.7833702104854,2,46,0.550297200679779,4.025949954986572,41.925195069442125,42.05145761822388,167.94568077185025,152.52357445179774,6.47544875391759e-05,0.0953715816140174,0,0,0
13986,501347.73214784224,2010-12-05 05:50:23,3601.79608054582,2,46,0.5501165986061096,4.028378009796143,41.92978143755994,42.05145761822388,167.96415108394507,152.52357445179774,6.47544875391759e-05,0.0953715816140174,0,0,0
13987,501377.7473487102,2010-12-05 05:50:53,3631.811281413749,2,46,0.5501165986061096,4.030806541442871,41.934368249695005,42.05145761822388,167.9826342839534,152.52357445179774,6.47544875391759e-05,0.0953715816140174,0,0,0
13988,501407.7623097413,2010-12-05 05:51:23,3661.82624243984,2,46,0.5499359965324402,4.033234596252441,41.9389549627986,42.05145761822388,168.0011282901578,152.52357445179774,3.23295607813634e-05,0.0953715816140174,0,0,0
13989,501437.7775629745,2010-12-05 05:51:53,3691.841495678091,2,46,0.5501165986061096,4.035824775695801,41.943541687322245,42.05145761822388,168.0196337427505,152.52357445179774,6.47544875391759e-05,0.0953715816140174,0,0,0
13990,501467.7942536197,2010-12-05 05:52:23,3721.858186408485,2,46,0.550297200679779,4.038252830505371,41.94812871669513,42.05145761822388,168.03815190472864,152.52357445179774,3.23295607813634e-05,0.0953715816140174,0,0,0
13991,501497.8076186091,2010-12-05 05:52:53,3751.871551327727,2,46,0.5501165986061096,4.0408430099487305,41.95271520999329,42.05145761822388,168.05667943454213,152.52357445179774,6.47544875391759e-05,0.0953715816140174,0,0,0
13992,501527.8227318941,2010-12-05 05:53:23,3781.886664602685,2,46,0.550297200679779,4.04343318939209,41.9573019390537,42.05145761822388,168.07521955300942,152.52357445179774,6.47544875391759e-05,0.0953715816140174,0,0,0
13993,501557.83782221685,2010-12-05 05:53:54,3811.901754905476,2,46,0.550297200679779,4.046023368835449,41.96188872145898,42.05145761822388,168.09377167728516,152.52357445179774,9.70840483205393e-05,0.0953715816140174,0,0,0
13994,501587.8551958818,2010-12-05 05:54:24,3841.919128670576,2,46,0.5501165986061096,4.048451900482178,41.96647581668906,42.05145761822388,168.11233691222387,152.52357445179774,3.24249267578125e-05,0.0953715816140174,0,0,0
13995,501617.8680123914,2010-12-05 05:54:54,3871.931945084884,2,46,0.5499359965324402,4.051042079925537,41.9710622517599,42.05145761822388,168.13091145239832,152.52357445179774,3.24249267578125e-05,0.0953715816140174,0,0,0
13996,501647.8831099622,2010-12-05 05:55:24,3901.9470426808257,2,46,0.550297200679779,4.053956031799316,41.975648973841565,42.05145761822388,168.14949924972186,152.52357445179774,9.71794142969884e-05,0.0953715816140174,0,0,0
13997,501677.8982375528,2010-12-05 05:55:54,3931.9621703465937,2,46,0.5501165986061096,4.056546211242676,41.980235739880335,42.05145761822388,168.1680993623145,152.52357445179774,6.47544875391759e-05,0.0953715816140174,0,0,0
13998,501707.9133004274,2010-12-05 05:56:24,3961.9772331208815,2,46,0.5501165986061096,4.059136390686035,41.98482252955468,42.05145761822388,168.1867119077763,152.52357445179774,6.47544875391759e-05,0.0953715816140174,0,0,0
13999,501737.92850022257,2010-12-05 05:56:54,3991.992433061502,2,46,0.5501165986061096,4.0617265701293945,41.98940930256248,42.05145761822388,168.20533650444742,152.52357445179774,3.24249267578125e-05,0.0953715816140174,0,0,0
14000,501767.94346537394,2010-12-05 05:57:24,4022.007398097574,2,46,0.550297200679779,4.064640522003174,41.99399600769567,42.05145761822388,168.22397318345037,152.52357445179774,9.71794142969884e-05,0.0953715816140174,0,0,0
14001,501797.95857118536,2010-12-05 05:57:54,4052.0225038838953,2,46,0.5501165986061096,4.067392349243164,41.99858269943118,42.05145761822388,168.24262241634008,152.52357445179774,6.47544875391759e-05,0.0953715816140174,0,0,0
14002,501827.97366272623,2010-12-05 05:58:24,4082.0375954347937,2,46,0.5501165986061096,4.0701446533203125,42.00316941968599,42.05145761822388,168.26128453702202,152.52357445179774,9.71794142969884e-05,0.0953715816140174,0,0,0
14003,501857.98876549,2010-12-05 05:58:54,4112.052698198594,2,46,0.5499359965324402,4.073058605194092,42.00775616096716,42.05145761822388,168.27995946866395,152.52357445179774,9.71794142969884e-05,0.0953715816140174,0,0,0
14004,501888.0040060818,2010-12-05 05:59:24,4142.067938770325,2,46,0.550297200679779,4.075972557067871,42.01234347337466,42.05145761822388,168.29864975689037,152.52357445179774,0.0001619339018361,0.0953715816140174,0,0,0
14005,501918.0189744361,2010-12-05 05:59:54,4172.082907134677,2,46,0.550297200679779,4.078724384307861,42.01693092978638,42.05145761822388,168.31735367364985,152.52357445179774,0.0001295089750783,0.0953715816140174,0,0,0
14006,501948.0341030041,2010-12-05 06:00:24,4202.098035692666,2,46,0.5501165986061096,4.08147668838501,42.02151789157935,42.05145761822388,168.33606872781584,152.52357445179774,6.47544875391759e-05,0.0953715816140174,0,0,0
14007,501978.04918531707,2010-12-05 06:00:54,4232.113118005575,2,46,0.550297200679779,4.084390640258789,42.02610459878397,42.05145761822388,168.35479591359743,152.52357445179774,9.71794142969884e-05,0.0953715816140174,0,0,0
14008,502008.06427404087,2010-12-05 06:01:24,4262.128206729438,2,46,0.5499359965324402,4.087142467498779,42.03069139006626,42.05145761822388,168.37353685177507,152.52357445179774,6.47544875391759e-05,0.0953715816140174,0,0,0
14009,502038.079369226,2010-12-05 06:01:54,4292.143301919391,2,46,0.5501165986061096,4.090218544006348,42.035278123012425,42.05145761822388,168.39229103212816,152.52357445179774,6.47544875391759e-05,0.0953715816140174,0,0,0
14010,502068.0962251423,2010-12-05 06:02:24,4322.160158031332,2,46,0.5499359965324402,4.093132495880127,42.03986505140172,42.05145761822388,168.41105952604127,152.52357445179774,6.47544875391759e-05,0.0953715816140174,0,0,0
14011,502098.10953911976,2010-12-05 06:02:54,4352.1734718183325,2,46,0.550297200679779,4.096370220184326,42.04445148046448,42.05145761822388,168.42983964046255,152.52357445179774,0.0001295089750783,0.0953715816140174,0,0,0
14012,502128.1247136221,2010-12-05 06:03:24,4382.18864633569,2,46,0.5501165986061096,4.099445819854736,42.049038201846905,42.05145761822388,168.44863477299617,152.52357445179774,9.70840483205393e-05,0.0953715816140174,0,0,0
14013,502158.1398456387,2010-12-05 06:03:54,4412.203778412434,2,46,0.5501165986061096,4.102198123931885,42.05362493691776,42.05145761822388,168.46744395724613,152.52357445179774,3.24249267578125e-05,0.0953715816140174,0,0,0
14014,502188.1548928843,2010-12-05 06:04:24,4442.218825597931,2,46,0.5501165986061096,4.105435848236084,42.058211596541405,42.05145761822388,168.48626687580716,152.52357445179774,9.71794142969884e-05,0.0953715816140174,0,0,0
14015,502218.1701162032,2010-12-05 06:04:54,4472.234048911715,2,46,0.5501165986061096,4.108511447906494,42.0627982397678,42.05145761822388,168.5051039497938,152.52357445179774,9.70840483205393e-05,0.0953715816140174,0,0,0
14016,502248.1850908932,2010-12-05 06:05:24,4502.2490236068215,2,46,0.550297200679779,4.111749172210693,42.067384808345885,42.05145761822388,168.52395496959804,152.52357445179774,9.70840483205393e-05,0.0953715816140174,0,0,0
14017,502278.2005297935,2010-12-05 06:05:54,4532.2644625872845,2,46,0.5501165986061096,4.114663124084473,42.07197152337761,42.05145761822388,168.5428208910764,152.52357445179774,6.47544875391759e-05,0.0953715816140174,0,0,0
14018,502308.21529580426,2010-12-05 06:06:24,4562.279228492826,2,46,0.5499359965324402,4.117900848388672,42.07655813512654,42.05145761822388,168.56170085180062,152.52357445179774,9.71794142969884e-05,0.0953715816140174,0,0,0
14019,502338.2304142822,2010-12-05 06:06:54,4592.294346975744,2,46,0.5501165986061096,4.120976448059082,42.08114478809134,42.05145761822388,168.5805955472736,152.52357445179774,3.23295607813634e-05,0.0953715816140174,0,0,0
14020,502368.2455196374,2010-12-05 06:07:24,4622.309452330993,2,46,0.550297200679779,4.12437629699707,42.08573150249952,42.05145761822388,168.59950513822628,152.52357445179774,9.71794142969884e-05,0.0953715816140174,0,0,0
14021,502398.26061626594,2010-12-05 06:07:54,4652.324548954514,2,46,0.5499359965324402,4.1274518966674805,42.09031821573105,42.05145761822388,168.6184295548527,152.52357445179774,6.47544875391759e-05,0.0953715816140174,0,0,0
14022,502428.275690183,2010-12-05 06:08:24,4682.33962287153,2,46,0.5501165986061096,4.130851745605469,42.09490494386181,42.05145761822388,168.63736897563604,152.52357445179774,9.71794142969884e-05,0.0953715816140174,0,0,0
14023,502458.2907894281,2010-12-05 06:08:54,4712.354722116575,2,46,0.5501165986061096,4.134089469909668,42.099491700590114,42.05145761822388,168.65632358320298,152.52357445179774,0.0001295089750783,0.0953715816140174,0,0,0
14024,502488.3058963773,2010-12-05 06:09:24,4742.369829070803,2,46,0.5501165986061096,4.137488842010498,42.10407840892236,42.05145761822388,168.67529313293997,152.52357445179774,0.0001295089750783,0.0953715816140174,0,0,0
14025,502518.3210026448,2010-12-05 06:09:54,4772.384935398472,2,46,0.5501165986061096,4.140726566314697,42.10866511994404,42.05145761822388,168.69427798933856,152.52357445179774,6.47544875391759e-05,0.0953715816140174,0,0,0
14026,502548.3362175426,2010-12-05 06:10:24,4802.400150306339,2,46,0.5501165986061096,4.144288063049316,42.11325183083637,42.05145761822388,168.7132781629488,152.52357445179774,0.0001618385285837,0.0953715816140174,0,0,0
14027,502578.3512034356,2010-12-05 06:10:54,4832.415136144175,2,46,0.5499359965324402,4.147525787353516,42.117838480347885,42.05145761822388,168.73229393768256,152.52357445179774,9.70840483205393e-05,0.0953715816140174,0,0,0
14028,502608.36629098153,2010-12-05 06:11:24,4862.430223760281,2,46,0.5501165986061096,4.151087284088135,42.122425204032254,42.05145761822388,168.75132562221324,152.52357445179774,6.47544875391759e-05,0.0953715816140174,0,0,0
14029,502638.38152475125,2010-12-05 06:11:54,4892.445457439861,2,46,0.5501165986061096,4.154487133026123,42.12701183776197,42.05145761822388,168.77037256056744,152.52357445179774,0.0001295089750783,0.0953715816140174,0,0,0
14030,502668.39859018417,2010-12-05 06:12:24,4922.462522962912,2,46,0.550297200679779,4.157886505126953,42.13159880638634,42.05145761822388,168.78943672254636,152.52357445179774,0.0001295089750783,0.0953715816140174,0,0,0
14031,502698.41159934807,2010-12-05 06:12:54,4952.475532061707,2,46,0.5501165986061096,4.161286354064941,42.13618519505108,42.05145761822388,168.80851439915884,152.52357445179774,9.71794142969884e-05,0.0953715816140174,0,0,0
14032,502728.4268051634,2010-12-05 06:13:24,4982.49073786191,2,46,0.5501165986061096,4.1648478507995605,42.14077188624153,42.05145761822388,168.8276092812688,152.52357445179774,9.71794142969884e-05,0.0953715816140174,0,0,0
14033,502758.44181165256,2010-12-05 06:13:54,5012.505744341111,2,46,0.5501165986061096,4.16840934753418,42.14535849864957,42.05145761822388,168.84671990557703,152.52357445179774,9.71794142969884e-05,0.0953715816140174,0,0,0
14034,502788.4569047924,2010-12-05 06:14:24,5042.520837506024,2,46,0.5501165986061096,4.171970844268799,42.14994522673828,42.05145761822388,168.86584725645116,152.52357445179774,9.71794142969884e-05,0.0953715816140174,0,0,0
14035,502818.4721102868,2010-12-05 06:14:54,5072.536042975405,2,46,0.5501165986061096,4.175532341003418,42.154531901362,42.05145761822388,168.8849907028435,152.52357445179774,9.71794142969884e-05,0.0953715816140174,0,0,0
14036,502848.4870810722,2010-12-05 06:15:24,5102.551013765794,2,46,0.550297200679779,4.179093837738037,42.15911855086009,42.05145761822388,168.90415046955667,152.52357445179774,9.71794142969884e-05,0.0953715816140174,0,0,0
14037,502878.50220313406,2010-12-05 06:15:54,5132.566135822604,2,46,0.5499359965324402,4.182655334472656,42.16370524675639,42.05145761822388,168.92332699104188,152.52357445179774,6.47544875391759e-05,0.0953715816140174,0,0,0
14038,502908.5173169704,2010-12-05 06:16:24,5162.581249764221,2,46,0.5499359965324402,4.186378479003906,42.16829194115847,42.05145761822388,168.94252019045146,152.52357445179774,9.70840483205393e-05,0.0953715816140174,0,0,0
14039,502938.5323929475,2010-12-05 06:16:54,5192.596325641114,2,46,0.5501165986061096,4.189939975738525,42.17287858364955,42.05145761822388,168.96172997981373,152.52357445179774,6.47544875391759e-05,0.0953715816140174,0,0,0
14040,502968.5475961964,2010-12-05 06:17:24,5222.611528905006,2,46,0.5499359965324402,4.193663597106934,42.17746525858749,42.05145761822388,168.980956697277,152.52357445179774,6.47544875391759e-05,0.0953715816140174,0,0,0
14041,502998.5625930366,2010-12-05 06:17:54,5252.62652574522,2,46,0.5501165986061096,4.197386741638184,42.1820519247074,42.05145761822388,169.00020028804184,152.52357445179774,6.47544875391759e-05,0.0953715816140174,0,0,0
14042,503018.8903441935,2010-12-05 06:18:15,5272.954276882088,2,46,0.550297200679779,4.200138568878174,42.18515822605622,42.05145761822388,169.0132426450086,152.52357445179774,0.0001618385285837,0.0953715816140174,0,0,0
14043,503048.8976462933,2010-12-05 06:18:45,30.01685666832464,3,46,0.0,4.113530158996582,42.18515822605622,42.05145761822388,169.0132426450086,152.52357445179774,-0.0003561019839253,0.0953715816140174,0,0,0
14044,503078.9109828821,2010-12-05 06:19:15,60.0301931668421,3,46,0.0,4.102845668792725,42.18515822605622,42.05145761822388,169.0132426450086,152.52357445179774,-0.0001942634553415,0.0953715816140174,0,0,0
14045,503108.92608216224,2010-12-05 06:19:45,90.04529244697382,3,46,0.0,4.096531867980957,42.18515822605622,42.05145761822388,169.0132426450086,152.52357445179774,-9.71794142969884e-05,0.0953715816140174,0,0,0
14046,503138.8960672424,2010-12-05 06:20:15,120.01527764745347,3,46,0.0,4.092161178588867,42.18515822605622,42.05145761822388,169.0132426450086,152.52357445179774,-9.70840483205393e-05,0.0953715816140174,0,0,0
14047,503138.9021345974,2010-12-05 06:20:15,0.015281908441391,4,46,0.9920675158500672,4.199814796447754,42.1851624565281,42.05145761822388,169.013260412207,152.52357445179774,0.0,0.0953715816140174,0,0,0
14048,503139.90214624297,2010-12-05 06:20:16,1.015293543934329,4,46,0.941316306591034,4.199653148651123,42.18542950643711,42.05145761822388,169.01438194236673,152.52357445179774,-3.23295607813634e-05,0.0953715816140174,0,0,0
14049,503141.98023499694,2010-12-05 06:20:18,3.093382302884486,4,46,0.8909263014793396,4.199653148651123,42.18595731570197,42.05145761822388,169.01659857739762,152.52357445179774,-3.23295607813634e-05,0.0953715816140174,0,0,0
14050,503145.1832748885,2010-12-05 06:20:21,6.296422109248784,4,46,0.8407169580459595,4.199814796447754,42.18672653972113,42.05145761822388,169.01982908263528,152.52357445179774,3.23295607813634e-05,0.0953715816140174,0,0,0
14051,503149.5582010591,2010-12-05 06:20:26,10.671348274745233,4,46,0.7903269529342651,4.199653148651123,42.18771628145715,42.05145761822388,169.02398571485105,152.52357445179774,-3.23295607813634e-05,0.0953715816140174,0,0,0
14052,503155.3237668427,2010-12-05 06:20:31,16.43691408350781,4,46,0.7402982115745544,4.199653148651123,42.1889403091262,42.05145761822388,169.02912629119294,152.52357445179774,0.0,0.0953715816140174,0,0,0
14053,503162.8392148912,2010-12-05 06:20:39,23.95236211187069,4,46,0.6900888085365295,4.199491024017334,42.1904312514612,42.05145761822388,169.0353878524151,152.52357445179774,-3.24249267578125e-05,0.0953715816140174,0,0,0
14054,503172.9484500189,2010-12-05 06:20:49,34.06159732488153,4,46,0.6400600075721741,4.199814796447754,42.19229569579713,42.05145761822388,169.04321802949295,152.52357445179774,3.23295607813634e-05,0.0953715816140174,0,0,0
14055,503187.1669198643,2010-12-05 06:21:03,48.28006709504035,4,46,0.5900312662124634,4.199814796447754,42.19471914733548,42.05145761822388,169.05339589906745,152.52357445179774,3.23295607813634e-05,0.0953715816140174,0,0,0
14056,503209.1509065647,2010-12-05 06:21:25,70.26405378036884,4,46,0.5400024652481079,4.199653148651123,42.19815753068542,42.05145761822388,169.06783619244578,152.52357445179774,-3.23295607813634e-05,0.0953715816140174,0,0,0
14057,503247.7283551266,2010-12-05 06:22:04,108.84150240251702,4,46,0.4899737238883972,4.199653148651123,42.20365054432335,42.05145761822388,169.09090542310267,152.52357445179774,0.0,0.0953715816140174,0,0,0
14058,503317.2115073385,2010-12-05 06:23:13,178.32465455421763,4,46,0.4399449527263641,4.199653148651123,42.212589345077696,42.05145761822388,169.12844608946185,152.52357445179774,-3.23295607813634e-05,0.0953715816140174,0,0,0
14059,503421.05355990736,2010-12-05 06:24:57,282.1667071231102,4,46,0.389916181564331,4.199653148651123,42.22453388209488,42.05145761822388,169.17861003249277,152.52357445179774,-3.23295607813634e-05,0.0953715816140174,0,0,0
14060,503548.53558956005,2010-12-05 06:27:05,409.6487367807582,4,46,0.339887410402298,4.199653148651123,42.237438209434565,42.05145761822388,169.23280489847565,152.52357445179774,3.24249267578125e-05,0.0953715816140174,0,0,0
14061,503700.8942461871,2010-12-05 06:29:37,562.007393412839,4,46,0.289497435092926,4.199491024017334,42.25074486981382,42.05145761822388,169.2886894122181,152.52357445179774,-3.24249267578125e-05,0.0953715816140174,0,0,0
14062,503885.7796551061,2010-12-05 06:32:42,746.892802321932,4,46,0.2394686639308929,4.199491024017334,42.26430930542564,42.05145761822388,169.34565652194527,152.52357445179774,-6.47544875391759e-05,0.0953715816140174,0,0,0
14063,504117.8382304356,2010-12-05 06:36:34,978.9513776513091,4,46,0.1894398927688598,4.199653148651123,42.27808110983439,42.05145761822388,169.40349459792355,152.52357445179774,-3.23295607813634e-05,0.0953715816140174,0,0,0
14064,504435.0826401174,2010-12-05 06:41:51,1296.1957873581566,4,46,0.1394111216068267,4.199814796447754,42.29245981957139,42.05145761822388,169.4638815939274,152.52357445179774,3.23295607813634e-05,0.0953715816140174,0,0,0
14065,504939.5425566774,2010-12-05 06:50:16,1800.6557038931494,4,46,0.0893823504447937,4.199814796447754,42.308213741448895,42.05145761822388,169.53004396443106,152.52357445179774,0.0,0.0953715816140174,0,0,0
14066,505692.9355615834,2010-12-05 07:02:49,2554.048708799204,4,46,0.0498289167881011,4.199653148651123,42.32238617387032,42.05145761822388,169.58956451310974,152.52357445179774,0.0,0.0953715816140174,0,0,0
14067,505722.93886332,2010-12-05 07:03:19,30.01292500954298,5,46,0.0,4.191720962524414,42.32238617387032,42.05145761822388,169.58956451310974,152.52357445179774,-3.23295607813634e-05,0.0953715816140174,0,0,0
14068,505752.9383417834,2010-12-05 07:03:49,60.0124034879103,5,46,0.0,4.190425872802734,42.32238617387032,42.05145761822388,169.58956451310974,152.52357445179774,-6.47544875391759e-05,0.0953715816140174,0,0,0
14069,505753.1175179382,2010-12-05 07:03:49,0.187637814484506,6,46,-1.9243103452026844e-05,4.190425872802734,42.32238617387032,42.05145761922686,169.58956451310974,152.52357445600066,0.0,0.0948198437690734,0,0,0
14070,505757.94542438776,2010-12-05 07:03:54,5.015544263995404,6,46,0.0003419754502829,4.190425872802734,42.322386956746975,42.051457619393176,169.58956779386833,152.52357445669762,-6.47544875391759e-05,0.0948198437690734,0,0,0
14071,505787.9521359016,2010-12-05 07:04:24,30.01507954101167,7,46,-1.099568486213684,4.013160705566406,42.322386956746975,42.060627075646885,169.58956779386833,152.5605713271846,-0.0009389877086505,0.0948198437690734,0,0,0
14072,505817.9672000342,2010-12-05 07:04:54,60.03014365363038,7,46,-1.0997490882873535,3.986449718475342,42.322386956746975,42.069796499344775,169.58956779386833,152.59723774078876,-0.0005827903514727,0.0948198437690734,0,0,0
14073,505847.98468178295,2010-12-05 07:05:24,90.0476255127182,7,46,-1.099929690361023,3.967832803726196,42.322386956746975,42.07896662761098,169.58956779386833,152.63370443429574,-0.0004209041653666,0.0948198437690734,0,0,0
14074,505877.999183481,2010-12-05 07:05:54,120.0621272158024,7,46,-1.0997490882873535,3.9534249305725098,42.322386956746975,42.08813589381754,169.58956779386833,152.67001891589888,-0.0003885269106831,0.0948198437690734,0,0,0
14075,505908.0126803336,2010-12-05 07:06:24,150.0756239530678,7,46,-1.099568486213684,3.9411215782165527,42.322386956746975,42.09730484436296,169.58956779386833,152.70620947154987,-0.0002590179501567,0.0948198437690734,0,0,0
14076,505938.0276529486,2010-12-05 07:06:54,180.09059656799806,7,46,-1.099568486213684,3.929465770721436,42.322386956746975,42.10647420204632,169.58956779386833,152.74229201896833,-0.0002913951757363,0.0948198437690734,0,0,0
14077,505968.0427940678,2010-12-05 07:07:24,210.1057376922573,7,46,-1.0997490882873535,3.918619394302368,42.322386956746975,42.115643692049424,169.58956779386833,152.77827249625167,-0.0002913951757363,0.0948198437690734,0,0,0
14078,505998.0578474889,2010-12-05 07:07:54,240.12079110825783,7,46,-1.0997490882873535,3.9080970287323,42.322386956746975,42.12481309074134,169.58956779386833,152.81415544038668,-0.0002913951757363,0.0948198437690734,0,0,0
14079,506028.07293985673,2010-12-05 07:08:24,270.13588347618884,7,46,-1.099568486213684,3.898221969604492,42.322386956746975,42.1339825395803,169.58956779386833,152.8499455167379,-0.0002590179501567,0.0948198437690734,0,0,0
14080,506058.08803807927,2010-12-05 07:08:54,300.15098169868867,7,46,-1.0997490882873535,3.8888325691223145,42.322386956746975,42.14315200982392,169.58956779386833,152.88564626879307,-0.0002266406954731,0.0948198437690734,0,0,0
14081,506088.103155294,2010-12-05 07:09:25,330.16609891345,7,46,-1.0997490882873535,3.8794431686401367,42.322386956746975,42.15232142639184,169.58956779386833,152.92126091274417,-0.0002266406954731,0.0948198437690734,0,0,0
14082,506118.1210274193,2010-12-05 07:09:55,360.18397114897454,7,46,-1.0997490882873535,3.870215654373169,42.322386956746975,42.16149169350872,169.58956779386833,152.95679449320082,-0.0002590179501567,0.0948198437690734,0,0,0
14083,506148.1333475035,2010-12-05 07:10:25,390.19629112290966,7,46,-1.099929690361023,3.861311912536621,42.322386956746975,42.17066029053533,169.58956779386833,152.99223888172764,-0.0002590179501567,0.0948198437690734,0,0,0
14084,506178.1484665327,2010-12-05 07:10:55,420.2114101571989,7,46,-1.0997490882873535,3.852731943130493,42.322386956746975,42.179829724881806,169.58956779386833,153.02760626348802,-0.0002266406954731,0.0948198437690734,0,0,0
14085,506208.1635558731,2010-12-05 07:11:25,450.226499582808,7,46,-1.0997490882873535,3.844313859939575,42.322386956746975,42.18899920026737,169.58956779386833,153.06289520867784,-0.0001942634553415,0.0948198437690734,0,0,0
14086,506238.1786297501,2010-12-05 07:11:55,480.2415733644879,7,46,-1.0997490882873535,3.835895776748657,42.322386956746975,42.19816866294942,169.58956779386833,153.09810744555094,-0.0002266406954731,0.0948198437690734,0,0,0
14087,506268.1937360728,2010-12-05 07:12:25,510.2566796871446,7,46,-1.099929690361023,3.8278017044067374,42.322386956746975,42.20733815346288,169.58956779386833,153.1332444311268,-0.0002266406954731,0.0948198437690734,0,0,0
14088,506298.2088374882,2010-12-05 07:12:55,540.2717811025899,7,46,-1.0997490882873535,3.81970739364624,42.322386956746975,42.216507613645646,169.58956779386833,153.16830712254767,-0.0002590179501567,0.0948198437690734,0,0,0
14089,506328.223939881,2010-12-05 07:13:25,570.2868835004801,7,46,-1.0997490882873535,3.811936855316162,42.322386956746975,42.22567708317105,169.58956779386833,153.20329709960993,-0.0002266406954731,0.0948198437690734,0,0,0
14090,506358.2390482588,2010-12-05 07:13:55,600.3019919835127,7,46,-1.099568486213684,3.804328203201294,42.322386956746975,42.23484652649196,169.58956779386833,153.23821539015793,-0.0001942634553415,0.0948198437690734,0,0,0
14091,506388.2541851074,2010-12-05 07:14:25,630.3171287769951,7,46,-1.0997490882873535,3.796719551086426,42.322386956746975,42.24401601027193,169.58956779386833,153.2730637930964,-0.0001618862152099,0.0948198437690734,0,0,0
14092,506418.2692479618,2010-12-05 07:14:55,660.3321915763457,7,46,-1.0997490882873535,3.7894346714019775,42.322386956746975,42.253185518592126,169.58956779386833,153.30784399871607,-0.0001942634553415,0.0948198437690734,0,0,0
14093,506448.2843403298,2010-12-05 07:15:25,690.3472839442768,7,46,-1.0997490882873535,3.782149791717529,42.322386956746975,42.262355045707146,169.58956779386833,153.34255809679294,-0.0002266406954731,0.0948198437690734,0,0,0
14094,506478.3013416682,2010-12-05 07:15:55,720.3642853778441,7,46,-1.099568486213684,3.775350570678711,42.322386956746975,42.27152511275579,169.58956779386833,153.37720926448267,-0.0001618862152099,0.0948198437690734,0,0,0
14095,506508.3145349152,2010-12-05 07:16:25,750.3774785296488,7,46,-1.099929690361023,3.7683894634246826,42.322386956746975,42.280694045493306,169.58956779386833,153.41179277075332,-0.0001295089750783,0.0948198437690734,0,0,0
14096,506538.32962540846,2010-12-05 07:16:55,780.3925690279272,7,46,-1.0997490882873535,3.761590242385864,42.322386956746975,42.28986353669321,169.58956779386833,153.4463162717176,-0.0002266406954731,0.0948198437690734,0,0,0
14097,506568.3448675541,2010-12-05 07:17:25,810.4078111835992,7,46,-1.0997490882873535,3.755276679992676,42.322386956746975,42.29903307721025,169.58956779386833,153.48077915682583,-0.0001618862152099,0.0948198437690734,0,0,0
14098,506598.3598444647,2010-12-05 07:17:55,840.4227881142688,7,46,-1.099568486213684,3.7489633560180655,42.322386956746975,42.30820261942351,169.58956779386833,153.51518280232932,-0.0001295089750783,0.0948198437690734,0,0,0
14099,506628.37488503376,2010-12-05 07:18:25,870.4378286482131,7,46,-1.1001102924346924,3.742326021194458,42.322386956746975,42.31737260068828,169.58956779386833,153.54952976286333,-0.0002266406954731,0.0948198437690734,0,0,0
14100,506658.38998116105,2010-12-05 07:18:55,900.4529248055737,7,46,-1.099929690361023,3.7363362312316895,42.322386956746975,42.32654288061696,169.58956779386833,153.58382088543055,-0.0001618862152099,0.0948198437690734,0,0,0
14101,506688.4051195635,2010-12-05 07:19:25,930.4680632030476,7,46,-1.099929690361023,3.730184555053711,42.322386956746975,42.335713008944005,169.58956779386833,153.6180554484289,-0.0001618862152099,0.0948198437690734,0,0,0
14102,506718.4202067936,2010-12-05 07:19:55,960.4831504331936,7,46,-1.099929690361023,3.7245185375213614,42.322386956746975,42.34488324772023,169.58956779386833,153.65223549246662,-0.0001295089750783,0.0948198437690734,0,0,0
14103,506748.43530628434,2010-12-05 07:20:25,990.498249999036,7,46,-1.099929690361023,3.7185287475585938,42.322386956746975,42.35405344818653,169.58956779386833,153.68636143102094,-0.0001295089750783,0.0948198437690734,0,0,0
14104,506778.4507907079,2010-12-05 07:20:55,1020.5137344025324,7,46,-1.099929690361023,3.712700843811035,42.322386956746975,42.36322388142577,169.58956779386833,153.72043514425152,-0.0001618862152099,0.0948198437690734,0,0,0
14105,506808.465881136,2010-12-05 07:21:25,1050.5288248206114,7,46,-1.0997490882873535,3.7070348262786874,42.322386956746975,42.372393748711325,169.58956779386833,153.75445461326458,-0.0001942634553415,0.0948198437690734,0,0,0
14106,506838.4806172574,2010-12-05 07:21:55,1080.5435608818868,7,46,-1.0997490882873535,3.701530694961548,42.322386956746975,42.38156307164235,169.58956779386833,153.78842043206467,-0.0001618862152099,0.0948198437690734,0,0,0
14107,506868.4957051543,2010-12-05 07:22:25,1110.5586487786916,7,46,-1.0997490882873535,3.695864677429199,42.322386956746975,42.39073250516808,169.58956779386833,153.8223354254134,-0.0001618862152099,0.0948198437690734,0,0,0
14108,506898.51080113614,2010-12-05 07:22:55,1140.573744750591,7,46,-1.099568486213684,3.690684318542481,42.322386956746975,42.3999019248513,169.58956779386833,153.85619992600422,-6.47544875391759e-05,0.0948198437690734,0,0,0
14109,506928.5259510172,2010-12-05 07:23:25,1170.588894641666,7,46,-1.099568486213684,3.685180187225342,42.322386956746975,42.4090712745961,169.58956779386833,153.89001465330708,-0.0001295089750783,0.0948198437690734,0,0,0
14110,506958.5410001776,2010-12-05 07:23:55,1200.6039438070893,7,46,-1.099929690361023,3.679837942123413,42.322386956746975,42.41824070265614,169.58956779386833,153.92378129504138,-0.0001618862152099,0.0948198437690734,0,0,0
14111,506988.5562250452,2010-12-05 07:24:25,1230.6191686647155,7,46,-1.099929690361023,3.6746575832366943,42.322386956746975,42.42741016991438,169.58956779386833,153.9575003520473,-0.0001295089750783,0.0948198437690734,0,0,0
14112,507018.57120716886,2010-12-05 07:24:55,1260.6341508183823,7,46,-1.0997490882873535,3.6696393489837646,42.322386956746975,42.43657954263374,169.58956779386833,153.99117224501543,-0.0001618862152099,0.0948198437690734,0,0,0
14113,507048.5863092459,2010-12-05 07:25:25,1290.6492528603872,7,46,-1.0997490882873535,3.664782762527466,42.322386956746975,42.44574896469703,169.58956779386833,154.02479812220716,-9.713172767078504e-05,0.0948198437690734,0,0,0
14114,507078.6033150253,2010-12-05 07:25:55,1320.666258735006,7,46,-1.0997490882873535,3.659764289855957,42.322386956746975,42.45491894949071,169.58956779386833,154.05838064741104,-0.0001295089750783,0.0948198437690734,0,0,0
14115,507108.6164983226,2010-12-05 07:26:25,1350.6794419420637,7,46,-1.0997490882873535,3.654907703399658,42.322386956746975,42.46408778146856,169.58956779386833,154.09191403783092,-9.713172767078504e-05,0.0948198437690734,0,0,0
14116,507138.631598555,2010-12-05 07:26:55,1380.6945421745652,7,46,-1.0997490882873535,3.65005111694336,42.322386956746975,42.47325716033367,169.58956779386833,154.12540516657094,-9.713172767078504e-05,0.0948198437690734,0,0,0
14117,507168.6467586666,2010-12-05 07:27:25,1410.7097023612605,7,46,-1.099929690361023,3.6453564167022714,42.322386956746975,42.48242659092456,169.58956779386833,154.15885232101076,-9.713172767078504e-05,0.0948198437690734,0,0,0
14118,507198.66205924266,2010-12-05 07:27:55,1440.7250028721471,7,46,-1.099929690361023,3.640499830245972,42.322386956746975,42.4915959722751,169.58956779386833,154.19225623259973,-0.0001618862152099,0.0948198437690734,0,0,0
14119,507228.67691554816,2010-12-05 07:28:25,1470.7398591726335,7,46,-1.099568486213684,3.636128902435303,42.322386956746975,42.50076529174666,169.58956779386833,154.22561776375494,-9.713172767078504e-05,0.0948198437690734,0,0,0
14120,507258.69198652287,2010-12-05 07:28:55,1500.7549301423155,7,46,-1.0997490882873535,3.631757974624634,42.322386956746975,42.50993464228588,169.58956779386833,154.25893797343963,-0.0001295089750783,0.0948198437690734,0,0,0
14121,507288.7070944495,2010-12-05 07:29:25,1530.770038068964,7,46,-1.099929690361023,3.627225160598755,42.322386956746975,42.51910403985927,169.58956779386833,154.2922173496452,-9.713172767078504e-05,0.0948198437690734,0,0,0
14122,507318.7223030517,2010-12-05 07:29:55,1560.7852466962015,7,46,-1.099568486213684,3.622854232788086,42.322386956746975,42.528273485204735,169.58956779386833,154.32545733606935,-0.0001295089750783,0.0948198437690734,0,0,0
14123,507348.7373013154,2010-12-05 07:30:25,1590.8002450301326,7,46,-1.0997490882873535,3.618807077407837,42.322386956746975,42.5374428849246,169.58956779386833,154.35865811369047,-9.713172767078504e-05,0.0948198437690734,0,0,0
14124,507378.75239972334,2010-12-05 07:30:55,1620.815343362907,7,46,-1.0997490882873535,3.614598035812378,42.322386956746975,42.546612329209424,169.58956779386833,154.3918213906469,-0.0001295089750783,0.0948198437690734,0,0,0
14125,507408.7676319092,2010-12-05 07:31:25,1650.8305756490188,7,46,-1.0997490882873535,3.610874652862549,42.322386956746975,42.55578186031178,169.58956779386833,154.42494819140273,-6.47544875391759e-05,0.0948198437690734,0,0,0
14126,507438.7827307583,2010-12-05 07:31:55,1680.8456744028408,7,46,-1.0997490882873535,3.6069893836975098,42.322386956746975,42.564951319150914,169.58956779386833,154.45803900085846,-6.47544875391759e-05,0.0948198437690734,0,0,0
14127,507468.7976805616,2010-12-05 07:32:25,1710.8606241859552,7,46,-1.0997490882873535,3.6032660007476807,42.322386956746975,42.57412069086882,169.58956779386833,154.49109462154368,-6.47544875391759e-05,0.0948198437690734,0,0,0
14128,507498.81277754594,2010-12-05 07:32:55,1740.8757211653617,7,46,-1.099568486213684,3.599542617797852,42.322386956746975,42.58329007964518,169.58956779386833,154.5241163882096,-9.713172767078504e-05,0.0948198437690734,0,0,0
14129,507528.8279094923,2010-12-05 07:33:25,1770.8908532070188,7,46,-1.0997490882873535,3.5959811210632324,42.322386956746975,42.5924595396723,169.58956779386833,154.55710513189854,-6.47544875391759e-05,0.0948198437690734,0,0,0
14130,507558.8430442959,2010-12-05 07:33:55,1800.9059880105492,7,46,-1.0997490882873535,3.5924196243286133,42.322386956746975,42.60162895205942,169.58956779386833,154.5900614962928,-6.47544875391759e-05,0.0948198437690734,0,0,0
14131,507588.85807086,2010-12-05 07:34:25,1830.9210144794936,7,46,-1.0997490882873535,3.589020252227783,42.322386956746975,42.61079838454828,169.58956779386833,154.62298653600317,-9.713172767078504e-05,0.0948198437690734,0,0,0
14132,507618.87316056126,2010-12-05 07:34:55,1860.9361041807883,7,46,-1.0997490882873535,3.585782527923584,42.322386956746975,42.61996787259604,169.58956779386833,154.6558811844765,-6.47544875391759e-05,0.0948198437690734,0,0,0
14133,507648.8884330776,2010-12-05 07:35:25,1890.951376797261,7,46,-1.099929690361023,3.582382917404175,42.322386956746975,42.629137333334654,169.58956779386833,154.6887457488714,-0.0001295089750783,0.0948198437690734,0,0,0
14134,507678.9051774464,2010-12-05 07:35:55,1920.9681211661327,7,46,-1.099929690361023,3.579307079315185,42.322386956746975,42.63830733660403,169.58956779386833,154.72158275527306,-9.713172767078504e-05,0.0948198437690734,0,0,0
14135,507708.9184878199,2010-12-05 07:36:25,1950.981431444402,7,46,-1.099929690361023,3.5762312412261963,42.322386956746975,42.6474762698151,169.58956779386833,154.7543869549923,-3.237724376958795e-05,0.0948198437690734,0,0,0
14136,507738.9335615615,2010-12-05 07:36:55,1980.9965051809693,7,46,-1.099929690361023,3.572993516921997,42.322386956746975,42.65664577810487,169.58956779386833,154.78716457567572,-9.713172767078504e-05,0.0948198437690734,0,0,0
14137,507768.95116649184,2010-12-05 07:37:25,2011.0141102366272,7,46,-1.0997490882873535,3.569917678833008,42.322386956746975,42.66581596542299,169.58956779386833,154.81991613535052,-9.713172767078504e-05,0.0948198437690734,0,0,0
14138,507798.9637760013,2010-12-05 07:37:55,2041.0267196207487,7,46,-1.0997490882873535,3.5670037269592285,42.322386956746975,42.67498462367056,169.58956779386833,154.8526340947386,-6.47544875391759e-05,0.0948198437690734,0,0,0
14139,507828.97886653966,2010-12-05 07:38:25,2071.0418101541145,7,46,-1.099929690361023,3.5639278888702397,42.322386956746975,42.684154044472656,169.58956779386833,154.8853267698437,-6.47544875391759e-05,0.0948198437690734,0,0,0
14140,507858.99398509774,2010-12-05 07:38:55,2101.056928717231,7,46,-1.0997490882873535,3.56069016456604,42.322386956746975,42.69332339355259,169.58956779386833,154.91799151594677,-0.0001295089750783,0.0948198437690734,0,0,0
14141,507889.0091387882,2010-12-05 07:39:25,2131.0720825531225,7,46,-1.099929690361023,3.5577762126922607,42.322386956746975,42.7024928540326,169.58956779386833,154.95062864219938,-9.713172767078504e-05,0.0948198437690734,0,0,0
14142,507919.02414005954,2010-12-05 07:39:55,2161.087083699051,7,46,-1.0997490882873535,3.5547003746032715,42.322386956746975,42.7116622293208,169.58956779386833,154.98323713983626,-6.47544875391759e-05,0.0948198437690734,0,0,0
14143,507949.0392336756,2010-12-05 07:40:25,2191.102177305063,7,46,-1.099568486213684,3.5516245365142822,42.322386956746975,42.72083159624595,169.58956779386833,155.01581671851173,-6.47544875391759e-05,0.0948198437690734,0,0,0
14144,507979.0543781181,2010-12-05 07:40:55,2221.1173217375544,7,46,-1.0997490882873535,3.548224925994873,42.322386956746975,42.730001066597445,169.58956779386833,155.04836735787882,-0.0001295089750783,0.0948198437690734,0,0,0
14145,508009.0694881299,2010-12-05 07:41:26,2251.1324317744543,7,46,-1.0997490882873535,3.544987201690674,42.322386956746975,42.73917052458189,169.58956779386833,155.08088825213034,-0.0001618862152099,0.0948198437690734,0,0,0
14146,508039.08478756313,2010-12-05 07:41:56,2281.147731247759,7,46,-1.099929690361023,3.5415875911712646,42.322386956746975,42.74834000665175,169.58956779386833,155.11337874845856,-0.0001295089750783,0.0948198437690734,0,0,0
14147,508069.0863535712,2010-12-05 07:42:26,2311.149297305988,7,46,-1.0997490882873535,3.5381879806518555,42.322386956746975,42.75750536912322,169.58956779386833,155.1458235930087,-6.47544875391759e-05,0.0948198437690734,0,0,0
14148,508099.0992838438,2010-12-05 07:42:56,2341.1622274633414,7,46,-1.0997490882873535,3.5346264839172363,42.322386956746975,42.76667417131544,169.58956779386833,155.17824874358277,-0.0001295089750783,0.0948198437690734,0,0,0
14149,508129.11424351664,2010-12-05 07:43:26,2371.177187131053,7,46,-1.099929690361023,3.531226873397827,42.322386956746975,42.77584362437428,169.58956779386833,155.21064386712527,-9.713172767078504e-05,0.0948198437690734,0,0,0
14150,508159.1293542051,2010-12-05 07:43:56,2401.1922978245866,7,46,-1.099929690361023,3.527341604232788,42.322386956746975,42.78501319115593,169.58956779386833,155.2430061829415,-9.713172767078504e-05,0.0948198437690734,0,0,0
14151,508189.1444127739,2010-12-05 07:44:26,2431.207356503684,7,46,-1.0997490882873535,3.523780107498169,42.322386956746975,42.79418259001443,169.58956779386833,155.2753335618212,-6.47544875391759e-05,0.0948198437690734,0,0,0
14152,508219.1595307857,2010-12-05 07:44:56,2461.222474425204,7,46,-1.0997490882873535,3.51973295211792,42.322386956746975,42.8033519236533,169.58956779386833,155.30762499513088,-9.713172767078504e-05,0.0948198437690734,0,0,0
14153,508249.1746633085,2010-12-05 07:45:26,2491.237606933022,7,46,-1.099929690361023,3.515362024307251,42.322386956746975,42.81252131919752,169.58956779386833,155.33987939505,-0.0001618862152099,0.0948198437690734,0,0,0
14154,508279.18976910994,2010-12-05 07:45:56,2521.2527127544317,7,46,-1.0997490882873535,3.511315107345581,42.322386956746975,42.82169079982517,169.58956779386833,155.37209536233348,-0.0001294612884521,0.0948198437690734,0,0,0
14155,508309.2067026796,2010-12-05 07:46:26,2551.2696464143464,7,46,-1.0997490882873535,3.5064585208892822,42.322386956746975,42.83086021115477,169.58956779386833,155.40427044546666,-0.0001618862152099,0.0948198437690734,0,0,0
14156,508339.2200508772,2010-12-05 07:46:56,2581.2829944966898,7,46,-1.099568486213684,3.5017638206481934,42.322386956746975,42.84002850862934,169.58956779386833,155.43639809749823,-0.0001295089750783,0.0948198437690734,0,0,0
14157,508369.23505543167,2010-12-05 07:47:26,2611.2979990511003,7,46,-1.099929690361023,3.4964215755462646,42.322386956746975,42.84919733763929,169.58956779386833,155.4684810030425,-0.0001618862152099,0.0948198437690734,0,0,0
14158,508399.2501645713,2010-12-05 07:47:56,2641.3131081957795,7,46,-1.099568486213684,3.490593671798706,42.322386956746975,42.85836610701553,169.58956779386833,155.50051287081823,-0.0001618862152099,0.0948198437690734,0,0,0
14159,508429.26545997954,2010-12-05 07:48:26,2671.328403714243,7,46,-1.0997490882873535,3.484118223190308,42.322386956746975,42.86753494014032,169.58956779386833,155.53248876480907,-0.0001942634553415,0.0948198437690734,0,0,0
14160,508459.2803223801,2010-12-05 07:48:56,2701.343266004634,7,46,-1.0997490882873535,3.4766714572906494,42.322386956746975,42.8767036396886,169.58956779386833,155.5644007152436,-0.0002266406954731,0.0948198437690734,0,0,0
14161,508489.2954381263,2010-12-05 07:49:26,2731.358381745729,7,46,-1.0997490882873535,3.4684152603149414,42.322386956746975,42.88587285428866,169.58956779386833,155.59624240690567,-0.0002913951757363,0.0948198437690734,0,0,0
14162,508519.3105311759,2010-12-05 07:49:56,2761.373474795356,7,46,-1.099929690361023,3.458540201187134,42.322386956746975,42.895042165926185,169.58956779386833,155.62800124807313,-0.0002913951757363,0.0948198437690734,0,0,0
14163,508549.3256353332,2010-12-05 07:50:26,2791.3885789526244,7,46,-1.099568486213684,3.4468843936920166,42.322386956746975,42.90421152235096,169.58956779386833,155.6596616517953,-0.0003237724304199,0.0948198437690734,0,0,0
14164,508579.3407174606,2010-12-05 07:50:56,2821.4036610900976,7,46,-1.0997490882873535,3.4319908618927,42.322386956746975,42.9133809082799,169.58956779386833,155.69120148677263,-0.0004856586456298,0.0948198437690734,0,0,0
14165,508609.3559416015,2010-12-05 07:51:26,2851.418885220915,7,46,-1.0997490882873535,3.413374185562134,42.322386956746975,42.92255031834219,169.58956779386833,155.72259015794302,-0.0005504131549969,0.0948198437690734,0,0,0
14166,508639.37093176006,2010-12-05 07:51:56,2881.433875399552,7,46,-1.099929690361023,3.3892531394958496,42.322386956746975,42.93171968202663,169.58956779386833,155.75378370152274,-0.0007446765666827,0.0948198437690734,0,0,0
14167,508669.3860243936,2010-12-05 07:52:26,2911.448968098306,7,46,-1.099929690361023,3.3567140102386475,42.322386956746975,42.94088908680484,169.58956779386833,155.78471980782976,-0.0009713172912597,0.0948198437690734,0,0,0
14168,508699.40111333306,2010-12-05 07:52:56,2941.464056952493,7,46,-1.0997490882873535,3.312843084335327,42.322386956746975,42.950058422982096,169.58956779386833,155.81530870891933,-0.0013274669181555,0.0948198437690734,0,0,0
14169,508729.4162184526,2010-12-05 07:53:26,2971.4791620721567,7,46,-1.099929690361023,3.252297878265381,42.322386956746975,42.959227809973065,169.58956779386833,155.84542320317132,-0.0018778800731524,0.0948198437690734,0,0,0
14170,508759.43164887687,2010-12-05 07:53:56,3001.4945926116143,7,46,-1.0997490882873535,3.1661746501922607,42.322386956746975,42.96839731024035,169.58956779386833,155.87487521065125,-0.0026873112656176,0.0948198437690734,0,0,0
14171,508789.4464072186,2010-12-05 07:54:26,3031.509350838047,7,46,-1.0997490882873535,3.033590078353882,42.322386956746975,42.977566611271484,169.58956779386833,155.90334793205704,-0.0043385503813624,0.0948198437690734,0,0,0
14172,508813.83673621423,2010-12-05 07:54:50,3055.899679833663,7,46,-1.0997490882873535,2.8334994316101074,42.322386956746975,42.985017665038605,169.58956779386833,155.9252875876172,-0.0084504131227731,0.0948198437690734,0,0,0
14173,508825.21136794274,2010-12-05 07:55:02,3067.2743115722587,7,46,-1.0997490882873535,2.699781894683838,42.322386956746975,42.9884925191148,169.58956779386833,155.9349051123068,-0.0096483705565333,0.0948198437690734,0,0,0
14174,508885.24006662815,2010-12-05 07:56:02,60.01452201478294,8,46,0.0,3.353638172149658,42.322386956746975,42.9884925191148,169.58956779386833,155.9349051123068,0.0013274193042889,0.0948198437690734,0,0,0
14175,508885.4427064412,2010-12-05 07:56:02,0.187420157854353,9,46,-1.9243103452026844e-05,3.353961944580078,42.322386956746975,42.988492520116615,169.58956779386833,155.93490511566688,0.0,0.0939245000481605,0,0,0
14176,508890.2709078046,2010-12-05 07:56:07,5.015621521247104,9,46,0.0005225847125984,3.362056255340576,42.3223877995479,42.98849252020146,169.58957062450503,155.93490511595144,0.0011979580158367,0.0939245000481605,0,0,0
