Data_Point,Test_Time(s),Date_Time,Step_Time(s),Step_Index,Cycle_Index,Current(A),Voltage(V),Charge_Capacity(Ah),Discharge_Capacity(Ah),Charge_Energy(Wh),Discharge_Energy(Wh),dV/dt(V/s),Internal_Resistance(Ohm),Is_FC_Data,AC_Impedance(Ohm),ACI_Phase_Angle(Deg)
13583,489384.85632620455,2010-12-05 02:30:59,30.01521711335516,1,45,0.0,3.397347450256348,40.57671880401915,41.24235668543309,162.63105738388853,149.60623165598344,0.0007770538213662,0.0947341993451118,0,0,0
13584,489414.8733772666,2010-12-05 02:31:29,60.03226830073297,1,45,0.0,3.421630382537842,40.57671880401915,41.24235668543309,162.63105738388853,149.60623165598344,0.0005827903514727,0.0947341993451118,0,0,0
13585,489444.8863943051,2010-12-05 02:31:59,90.0452852089623,1,45,0.0,3.4399232864379883,40.57671880401915,41.24235668543309,162.63105738388853,149.60623165598344,0.0004209041653666,0.0947341993451118,0,0,0
13586,489474.8546401773,2010-12-05 02:32:29,120.01353107617804,1,45,0.0,3.4546549320220947,40.57671880401915,41.24235668543309,162.63105738388853,149.60623165598344,0.0003237724304199,0.0947341993451118,0,0,0
13587,489504.8566507112,2010-12-05 02:32:59,30.015208486888525,2,45,0.550297200679779,3.613141059875488,40.58130553391089,41.24235668543309,162.64746883070492,149.60623165598344,0.0015864849556237,0.0947341993451118,0,0,0
13588,489534.8716066046,2010-12-05 02:33:29,60.03016430502057,2,45,0.5501165986061096,3.658792972564697,40.58589230541929,41.24235668543309,162.66415246433243,149.60623165598344,0.0010360718006268,0.0947341993451118,0,0,0
13589,489564.88669022574,2010-12-05 02:33:59,90.04524792618555,2,45,0.5501165986061096,3.69181752204895,40.590479018600526,41.24235668543309,162.6810134220811,149.60623165598344,0.0007770538213662,0.0947341993451118,0,0,0
13590,489594.9018106986,2010-12-05 02:34:29,120.06036840406703,2,45,0.5501165986061096,3.717881202697754,40.59506574178593,41.24235668543309,162.69800837372136,149.60623165598344,0.0006475448608398,0.0947341993451118,0,0,0
13591,489624.9170060378,2010-12-05 02:34:59,150.07556374825046,2,45,0.5501165986061096,3.738440752029419,40.5996524501258,41.24235668543309,162.71510981828024,149.60623165598344,0.0005180359003134,0.0947341993451118,0,0,0
13592,489654.931986001,2010-12-05 02:35:29,180.0905437114666,2,45,0.5501165986061096,3.754791021347046,40.60423916345575,41.24235668543309,162.73229642497924,149.60623165598344,0.0003884792386088,0.0947341993451118,0,0,0
13593,489684.9470953462,2010-12-05 02:35:59,210.10565312180697,2,45,0.5501165986061096,3.766284942626953,40.60882590704048,41.24235668543309,162.74954694940283,149.60623165598344,0.0002590179501567,0.0947341993451118,0,0,0
13594,489714.9621894685,2010-12-05 02:36:29,240.12074717392892,2,45,0.5501165986061096,3.7737317085266113,40.61341261782347,41.24235668543309,162.76683983946168,149.60623165598344,0.0001618862152099,0.0947341993451118,0,0,0
13595,489744.97727412224,2010-12-05 02:36:59,270.13583182265097,2,45,0.5501165986061096,3.77891206741333,40.6179993305986,41.24235668543309,162.7841612282911,149.60623165598344,0.0001295089750783,0.0947341993451118,0,0,0
13596,489774.99253638287,2010-12-05 02:37:29,300.1510940933785,2,45,0.5501165986061096,3.783606767654419,40.62258605235505,41.24235668543309,162.80150517801883,149.60623165598344,0.0001295089750783,0.0947341993451118,0,0,0
13597,489805.00749091787,2010-12-05 02:37:59,330.1660486483673,2,45,0.5501165986061096,3.787977695465088,40.62717275598712,41.24235668543309,162.818869347693,149.60623165598344,0.0001618862152099,0.0947341993451118,0,0,0
13598,489835.0250181799,2010-12-05 02:38:29,360.1835759956507,2,45,0.550297200679779,3.791862964630127,40.6317598699253,41.24235668543309,162.8362541021222,149.60623165598344,9.713172767078504e-05,0.0947341993451118,0,0,0
13599,489865.0394201348,2010-12-05 02:38:59,390.1979779354779,2,45,0.550297200679779,3.796072006225586,40.63634646780656,41.24235668543309,162.85365507774645,149.60623165598344,0.0001295089750783,0.0947341993451118,0,0,0
13600,489895.0527725229,2010-12-05 02:39:29,420.2113302834361,2,45,0.5501165986061096,3.799633502960205,40.64093289661115,41.24235668543309,162.87107284164696,149.60623165598344,0.0001295089750783,0.0947341993451118,0,0,0
13601,489925.067864184,2010-12-05 02:39:59,450.2264218894711,2,45,0.550297200679779,3.803194999694824,40.64551963447629,41.24235668543309,162.8885086922657,149.60623165598344,9.713172767078504e-05,0.0947341993451118,0,0,0
13602,489955.0829691935,2010-12-05 02:40:29,480.2415268938474,2,45,0.5501165986061096,3.8067564964294434,40.65010628139725,41.24235668543309,162.90596064495222,149.60623165598344,0.0001295089750783,0.0947341993451118,0,0,0
13603,489985.0980500427,2010-12-05 02:40:59,510.2566078383515,2,45,0.550297200679779,3.8103179931640634,40.654693062699046,41.24235668543309,162.9234292015016,149.60623165598344,0.0001295089750783,0.0947341993451118,0,0,0
13604,490015.1132994163,2010-12-05 02:41:29,540.2718571267732,2,45,0.5501165986061096,3.8138794898986816,40.65927982869212,41.24235668543309,162.94091355822462,149.60623165598344,0.0001295089750783,0.0947341993451118,0,0,0
13605,490045.1282464175,2010-12-05 02:41:59,570.2868041179397,2,45,0.5501165986061096,3.816955327987671,40.6638664592288,41.24235668543309,162.95841332767583,149.60623165598344,6.47544875391759e-05,0.0947341993451118,0,0,0
13606,490075.1434789292,2010-12-05 02:42:30,600.3020366396379,2,45,0.550297200679779,3.82051682472229,40.66845315693449,41.24235668543309,162.9759290244882,149.60623165598344,9.713172767078504e-05,0.0947341993451118,0,0,0
13607,490105.160732816,2010-12-05 02:43:00,630.3192906066249,2,45,0.5501165986061096,3.823916435241699,40.67304018745209,41.24235668543309,162.99346160828895,149.60623165598344,6.47544875391759e-05,0.0947341993451118,0,0,0
13608,490135.173598568,2010-12-05 02:43:30,660.3321563587081,2,45,0.5501165986061096,3.8274779319763184,40.67762652754008,41.24235668543309,163.01100738034194,149.60623165598344,9.713172767078504e-05,0.0947341993451118,0,0,0
13609,490165.1885632282,2010-12-05 02:44:00,690.347120933631,2,45,0.550297200679779,3.8310394287109375,40.68221319330626,41.24235668543309,163.02857040225774,149.60623165598344,0.0001295089750783,0.0947341993451118,0,0,0
13610,490195.20375074784,2010-12-05 02:44:30,720.3623085134932,2,45,0.5501165986061096,3.834438800811768,40.686799908023815,41.24235668543309,163.0461498385746,149.60623165598344,9.713172767078504e-05,0.0947341993451118,0,0,0
13611,490225.21879530186,2010-12-05 02:45:00,750.3773530072912,2,45,0.5501165986061096,3.8381621837615967,40.69138654906767,41.24235668543309,163.0637454549364,149.60623165598344,9.713172767078504e-05,0.0947341993451118,0,0,0
13612,490255.23408702586,2010-12-05 02:45:30,780.3926447313122,2,45,0.5499359965324402,3.841723680496216,40.69597325620967,41.24235668543309,163.08135792008844,149.60623165598344,9.713172767078504e-05,0.0947341993451118,0,0,0
13613,490285.2490475256,2010-12-05 02:46:00,810.4076052310943,2,45,0.5501165986061096,3.845447063446045,40.70055993367324,41.24235668543309,163.09898683015788,149.60623165598344,9.713172767078504e-05,0.0947341993451118,0,0,0
13614,490315.2641588357,2010-12-05 02:46:30,840.4227165361496,2,45,0.5501165986061096,3.849008560180664,40.705146631370326,41.24235668543309,163.11663224885248,149.60623165598344,0.0001295089750783,0.0947341993451118,0,0,0
13615,490345.2792492688,2010-12-05 02:47:00,870.4378069692658,2,45,0.5499359965324402,3.852408170700073,40.70973338097968,41.24235668543309,163.13429420072566,149.60623165598344,0.0001295089750783,0.0947341993451118,0,0,0
13616,490375.29433356674,2010-12-05 02:47:30,900.4528912671145,2,45,0.550297200679779,3.8558077812194815,40.71432012802017,41.24235668543309,163.15197219076217,149.60623165598344,9.713172767078504e-05,0.0947341993451118,0,0,0
13617,490405.3099956824,2010-12-05 02:48:00,930.4685533828412,2,45,0.550297200679779,3.8593692779541016,40.71890683687207,41.24235668543309,163.16966586363424,149.60623165598344,9.713172767078504e-05,0.0947341993451118,0,0,0
13618,490435.32455206657,2010-12-05 02:48:30,960.4831097970718,2,45,0.5501165986061096,3.862607002258301,40.72349339931267,41.24235668543309,163.1873744000801,149.60623165598344,6.47544875391759e-05,0.0947341993451118,0,0,0
13619,490465.3415562269,2010-12-05 02:49:00,990.5001140275996,2,45,0.5501165986061096,3.8658447265625,40.728080352596166,41.24235668543309,163.20509940052992,149.60623165598344,9.713172767078504e-05,0.0947341993451118,0,0,0
13620,490495.3547565265,2010-12-05 02:49:30,1020.5133142369666,2,45,0.5501165986061096,3.868920564651489,40.73266670922192,41.24235668543309,163.22283653977124,149.60623165598344,9.713172767078504e-05,0.0947341993451118,0,0,0
13621,490525.36983556126,2010-12-05 02:50:00,1050.5283932616935,2,45,0.5501165986061096,3.871834516525269,40.737253373107045,41.24235668543309,163.24058876684143,149.60623165598344,6.47544875391759e-05,0.0947341993451118,0,0,0
13622,490555.384945538,2010-12-05 02:50:30,1080.5435032384432,2,45,0.5501165986061096,3.874748468399048,40.74184013937146,41.24235668543309,163.25835474970378,149.60623165598344,0.0001295089750783,0.0947341993451118,0,0,0
13623,490585.40002488845,2010-12-05 02:51:00,1110.5585825889812,2,45,0.5501165986061096,3.877500534057617,40.746426834054105,41.24235668543309,163.2761331596773,149.60623165598344,9.713172767078504e-05,0.0947341993451118,0,0,0
13624,490615.41513294046,2010-12-05 02:51:30,1140.573690640941,2,45,0.5501165986061096,3.880090713500977,40.75101355114296,41.24235668543309,163.29392373868205,149.60623165598344,0.0001295089750783,0.0947341993451118,0,0,0
13625,490645.43035977805,2010-12-05 02:52:00,1170.5889175386442,2,45,0.550297200679779,3.882519006729126,40.755600298526495,41.24235668543309,163.31172579971886,149.60623165598344,6.47544875391759e-05,0.0947341993451118,0,0,0
13626,490675.4453208643,2010-12-05 02:52:30,1200.603878564736,2,45,0.550297200679779,3.884623527526856,40.76018696915956,41.24235668543309,163.32953824449635,149.60623165598344,3.237724376958795e-05,0.0947341993451118,0,0,0
13627,490705.4604454624,2010-12-05 02:53:00,1230.6190031678832,2,45,0.5501165986061096,3.886889934539795,40.7647737470068,41.24235668543309,163.34736109258188,149.60623165598344,9.713172767078504e-05,0.0947341993451118,0,0,0
13628,490735.4755047932,2010-12-05 02:53:30,1260.6340624986024,2,45,0.5501165986061096,3.888670682907105,40.769360388809865,41.24235668543309,163.36519289238498,149.60623165598344,6.47544875391759e-05,0.0947341993451118,0,0,0
13629,490765.4906014668,2010-12-05 02:54:00,1290.6491591672354,2,45,0.550297200679779,3.890775203704834,40.7739471530252,41.24235668543309,163.38303414176798,149.60623165598344,6.47544875391759e-05,0.0947341993451118,0,0,0
13630,490795.5060388934,2010-12-05 02:54:30,1320.6645966790438,2,45,0.5499359965324402,3.8923940658569336,40.778533908851934,41.24235668543309,163.40088382051894,149.60623165598344,3.237724376958795e-05,0.0947341993451118,0,0,0
13631,490825.5207944081,2010-12-05 02:55:00,1350.6793521185411,2,45,0.550297200679779,3.894336700439453,40.78312053972722,41.24235668543309,163.41874117593184,149.60623165598344,6.47544875391759e-05,0.0947341993451118,0,0,0
13632,490855.5359351614,2010-12-05 02:55:30,1380.6944928668647,2,45,0.5501165986061096,3.895793676376343,40.787707333602846,41.24235668543309,163.43660662603946,149.60623165598344,3.237724376958795e-05,0.0947341993451118,0,0,0
13633,490885.550983605,2010-12-05 02:56:00,1410.7095413054794,2,45,0.5501165986061096,3.897574424743652,40.79229404370721,41.24235668543309,163.45447934127907,149.60623165598344,6.47544875391759e-05,0.0947341993451118,0,0,0
13634,490915.5662273597,2010-12-05 02:56:30,1440.724785065143,2,45,0.5501165986061096,3.899031400680542,40.79688070975715,41.24235668543309,163.47235930864065,149.60623165598344,3.237724376958795e-05,0.0947341993451118,0,0,0
13635,490945.58118017536,2010-12-05 02:57:00,1470.7397378757908,2,45,0.5501165986061096,3.9006502628326416,40.80146733462546,41.24235668543309,163.49024645078376,149.60623165598344,6.47544875391759e-05,0.0947341993451118,0,0,0
13636,490975.59628415713,2010-12-05 02:57:30,1500.7548418576223,2,45,0.5501165986061096,3.902269124984741,40.80605388063377,41.24235668543309,163.50814046970314,149.60623165598344,6.47544875391759e-05,0.0947341993451118,0,0,0
13637,491005.6113795778,2010-12-05 02:58:00,1530.7699372831623,2,45,0.5501165986061096,3.903726100921631,40.81064057614438,41.24235668543309,163.52604210259543,149.60623165598344,6.47544875391759e-05,0.0947341993451118,0,0,0
13638,491035.62660682126,2010-12-05 02:58:30,1560.7851645317385,2,45,0.5501165986061096,3.905183076858521,40.815227265404594,41.24235668543309,163.54395077493314,149.60623165598344,3.237724376958795e-05,0.0947341993451118,0,0,0
13639,491065.6435330928,2010-12-05 02:59:00,1590.8020909386048,2,45,0.5501165986061096,3.90664005279541,40.81981417452683,41.24235668543309,163.56186711932932,149.60623165598344,3.237724376958795e-05,0.0947341993451118,0,0,0
13640,491095.656676145,2010-12-05 02:59:30,1620.815233845377,2,45,0.5501165986061096,3.9082589149475098,40.82440057373136,41.24235668543309,163.5797884976236,149.60623165598344,6.47544875391759e-05,0.0947341993451118,0,0,0
13641,491125.6717687735,2010-12-05 03:00:00,1650.8303264990188,2,45,0.5499359965324402,3.90987777709961,40.828987238458375,41.24235668543309,163.59771792403353,149.60623165598344,6.47544875391759e-05,0.0947341993451118,0,0,0
13642,491155.6868729408,2010-12-05 03:00:30,1680.8454306412495,2,45,0.5501165986061096,3.911172866821289,40.833573945666856,41.24235668543309,163.6156544588598,149.60623165598344,0.0,0.0947341993451118,0,0,0
13643,491185.7022400324,2010-12-05 03:01:00,1710.8607978280568,2,45,0.5501165986061096,3.9127917289733887,40.838160624611824,41.24235668543309,163.63359784894794,149.60623165598344,3.237724376958795e-05,0.0947341993451118,0,0,0
13644,491215.7170617267,2010-12-05 03:01:30,1740.8756194322025,2,45,0.5499359965324402,3.914410352706909,40.84274726861718,41.24235668543309,163.65154804777933,149.60623165598344,3.237724376958795e-05,0.0947341993451118,0,0,0
13645,491245.7321579895,2010-12-05 03:02:00,1770.8907156898129,2,45,0.5501165986061096,3.915867328643799,40.84733394496179,41.24235668543309,163.66950532172308,149.60623165598344,6.47544875391759e-05,0.0947341993451118,0,0,0
13646,491275.7474130121,2010-12-05 03:02:30,1800.9059707225283,2,45,0.5499359965324402,3.917324304580689,40.85192063535937,41.24235668543309,163.68746958170107,149.60623165598344,3.237724376958795e-05,0.0947341993451118,0,0,0
13647,491305.7624719869,2010-12-05 03:03:00,1830.9210297775617,2,45,0.5501165986061096,3.918943166732788,40.85650732313789,41.24235668543309,163.70544085552683,149.60623165598344,3.237724376958795e-05,0.0947341993451118,0,0,0
13648,491335.7774415442,2010-12-05 03:03:30,1860.935999249671,2,45,0.550297200679779,3.9207239151000977,40.86109398860448,41.24235668543309,163.72341909387262,149.60623165598344,9.713172767078504e-05,0.0947341993451118,0,0,0
13649,491365.7926671687,2010-12-05 03:04:00,1890.9512248691933,2,45,0.550297200679779,3.9221808910369873,40.86568067163241,41.24235668543309,163.7414044035475,149.60623165598344,9.713172767078504e-05,0.0947341993451118,0,0,0
13650,491395.8076702595,2010-12-05 03:04:30,1920.966227969987,2,45,0.5501165986061096,3.923475980758667,40.87026736241867,41.24235668543309,163.75939682356903,149.60623165598344,3.237724376958795e-05,0.0947341993451118,0,0,0
13651,491425.8228572479,2010-12-05 03:05:00,1950.981414948352,2,45,0.5501165986061096,3.925094842910767,40.87485403889962,41.24235668543309,163.77739626312732,149.60623165598344,6.47544875391759e-05,0.0947341993451118,0,0,0
13652,491455.8378428301,2010-12-05 03:05:30,1980.996400530551,2,45,0.5501165986061096,3.926713705062866,40.87944073421288,41.24235668543309,163.79540286698983,149.60623165598344,6.47544875391759e-05,0.0947341993451118,0,0,0
13653,491485.8529488772,2010-12-05 03:06:00,2011.0115065975715,2,45,0.5499359965324402,3.928170680999756,40.88402744591249,41.24235668543309,163.81341669911325,149.60623165598344,3.237724376958795e-05,0.0947341993451118,0,0,0
13654,491515.868058122,2010-12-05 03:06:30,2041.026615912675,2,45,0.550297200679779,3.929789543151856,40.88861412076472,41.24235668543309,163.83143755590604,149.60623165598344,6.47544875391759e-05,0.0947341993451118,0,0,0
13655,491545.88325039856,2010-12-05 03:07:00,2071.0418081040125,2,45,0.5501165986061096,3.931408405303955,40.89320080625319,41.24235668543309,163.84946573798126,149.60623165598344,6.47544875391759e-05,0.0947341993451118,0,0,0
13656,491575.8982260059,2010-12-05 03:07:30,2101.05678373144,2,45,0.550297200679779,3.933027267456055,40.89778748023251,41.24235668543309,163.8675010999834,149.60623165598344,3.237724376958795e-05,0.0947341993451118,0,0,0
13657,491605.9133390503,2010-12-05 03:08:00,2131.071896755773,2,45,0.5501165986061096,3.934484243392944,40.9023741736204,41.24235668543309,163.88554381140517,149.60623165598344,0.0,0.0947341993451118,0,0,0
13658,491635.9284322453,2010-12-05 03:08:30,2161.08698994575,2,45,0.5501165986061096,3.936103105545044,40.906960881025725,41.24235668543309,163.9035939506185,149.60623165598344,3.237724376958795e-05,0.0947341993451118,0,0,0
13659,491665.9453297152,2010-12-05 03:09:00,2191.103887480769,2,45,0.5497553944587708,3.937721967697144,40.91154784786816,41.24235668543309,163.9216522804388,149.60623165598344,6.47544875391759e-05,0.0947341993451118,0,0,0
13660,491695.9587772802,2010-12-05 03:09:30,2221.117335045672,2,45,0.5501165986061096,3.939340829849243,40.91613434944532,41.24235668543309,163.93971630068637,149.60623165598344,3.237724376958795e-05,0.0947341993451118,0,0,0
13661,491725.9737074845,2010-12-05 03:10:00,2251.1322651849027,2,45,0.5499359965324402,3.940959692001343,40.9207210301349,41.24235668543309,163.9577884465925,149.60623165598344,6.47544875391759e-05,0.0947341993451118,0,0,0
13662,491755.99113845685,2010-12-05 03:10:30,2281.149696267635,2,45,0.550297200679779,3.9425785541534415,40.9253081410014,41.24235668543309,163.97586971147928,149.60623165598344,3.237724376958795e-05,0.0947341993451118,0,0,0
13663,491786.0039109318,2010-12-05 03:11:00,2311.16246863734,2,45,0.5501165986061096,3.944035530090332,40.92989449119749,41.24235668543309,163.99395546856024,149.60623165598344,0.0,0.0947341993451118,0,0,0
13664,491816.0190053048,2010-12-05 03:11:30,2341.1775630052475,2,45,0.5499359965324402,3.9458162784576416,40.934481136774586,41.24235668543309,164.01204993583897,149.60623165598344,6.47544875391759e-05,0.0947341993451118,0,0,0
13665,491846.0341161838,2010-12-05 03:12:00,2371.1926738892557,2,45,0.5501165986061096,3.947435140609741,40.93906780714198,41.24235668543309,164.0301519794727,149.60623165598344,0.0,0.0947341993451118,0,0,0
13666,491876.0492585813,2010-12-05 03:12:30,2401.2078163718948,2,45,0.5501165986061096,3.949054002761841,40.94365442509715,41.24235668543309,164.0482614432483,149.60623165598344,3.237724376958795e-05,0.0947341993451118,0,0,0
13667,491906.064304258,2010-12-05 03:13:00,2431.2228619634243,2,45,0.5501165986061096,3.9508347511291504,40.9482409995972,41.24235668543309,164.0663783121263,149.60623165598344,6.47544875391759e-05,0.0947341993451118,0,0,0
13668,491936.07950376754,2010-12-05 03:13:30,2461.238061558185,2,45,0.5501165986061096,3.95261549949646,40.95282767164056,41.24235668543309,164.08450323673082,149.60623165598344,6.47544875391759e-05,0.0947341993451118,0,0,0
13669,491966.0944826931,2010-12-05 03:14:00,2491.253040393595,2,45,0.5501165986061096,3.95423436164856,40.95741427126454,41.24235668543309,164.10263554254388,149.60623165598344,6.47544875391759e-05,0.0947341993451118,0,0,0
13670,491996.1095894819,2010-12-05 03:14:31,2521.268147187424,2,45,0.5501165986061096,3.955853223800659,40.96200099380307,41.24235668543309,164.120776137081,149.60623165598344,3.237724376958795e-05,0.0947341993451118,0,0,0
13671,492026.12698780815,2010-12-05 03:15:01,2551.2855456289303,2,45,0.550297200679779,3.9576339721679688,40.96658805366096,41.24235668543309,164.1389258955525,149.60623165598344,9.713172767078504e-05,0.0947341993451118,0,0,0
13672,492056.1399501707,2010-12-05 03:15:31,2581.2985079463124,2,45,0.550297200679779,3.959576606750488,40.97117438265959,41.24235668543309,164.15708064507322,149.60623165598344,9.713172767078504e-05,0.0947341993451118,0,0,0
13673,492086.15486449056,2010-12-05 03:16:01,2611.313422196003,2,45,0.550297200679779,3.961033582687378,40.97576095196682,41.24235668543309,164.17524428319933,149.60623165598344,6.47544875391759e-05,0.0947341993451118,0,0,0
13674,492116.17001808085,2010-12-05 03:16:31,2641.328575876508,2,45,0.550297200679779,3.962814331054688,40.98034764113308,41.24235668543309,164.19341643223532,149.60623165598344,3.237724376958795e-05,0.0947341993451118,0,0,0
13675,492146.185063928,2010-12-05 03:17:01,2671.3436216284367,2,45,0.550297200679779,3.964595079421997,40.9849342998928,41.24235668543309,164.21159650281697,149.60623165598344,6.47544875391759e-05,0.0947341993451118,0,0,0
13676,492176.20017157897,2010-12-05 03:17:31,2701.358729364611,2,45,0.5499359965324402,3.966375827789306,40.989521044312106,41.24235668543309,164.22978504304788,149.60623165598344,3.237724376958795e-05,0.0947341993451118,0,0,0
13677,492206.2152526137,2010-12-05 03:18:01,2731.3738103191404,2,45,0.5501165986061096,3.968156576156616,40.9941077224186,41.24235668543309,164.2479815119223,149.60623165598344,3.237724376958795e-05,0.0947341993451118,0,0,0
13678,492236.23037259525,2010-12-05 03:18:31,2761.3889303007877,2,45,0.5499359965324402,3.969775438308716,40.99869440940973,41.24235668543309,164.2661862819914,149.60623165598344,0.0,0.0947341993451118,0,0,0
13679,492266.24722135393,2010-12-05 03:19:01,2791.4057791847404,2,45,0.5501165986061096,3.971879959106445,41.00328130901909,41.24235668543309,164.28440023919023,149.60623165598344,6.47544875391759e-05,0.0947341993451118,0,0,0
13680,492296.26055196783,2010-12-05 03:19:31,2821.419109678315,2,45,0.5501165986061096,3.973660707473755,41.00786775965839,41.24235668543309,164.30262083336643,149.60623165598344,3.237724376958795e-05,0.0947341993451118,0,0,0
13681,492326.2756860947,2010-12-05 03:20:01,2851.4342437951364,2,45,0.5501165986061096,3.9756033420562735,41.01245448551273,41.24235668543309,164.32085101430658,149.60623165598344,6.47544875391759e-05,0.0947341993451118,0,0,0
13682,492356.2907550243,2010-12-05 03:20:31,2881.449312724742,2,45,0.5501165986061096,3.977222204208374,41.01704120724541,41.24235668543309,164.33908980536853,149.60623165598344,3.237724376958795e-05,0.0947341993451118,0,0,0
13683,492386.3058497231,2010-12-05 03:21:01,2911.464407423473,2,45,0.5501165986061096,3.9791648387908936,41.02162791812293,41.24235668543309,164.3573368226264,149.60623165598344,3.237724376958795e-05,0.0947341993451118,0,0,0
13684,492416.3210595583,2010-12-05 03:21:31,2941.4796172587166,2,45,0.5499359965324402,3.981269359588623,41.02621454148765,41.24235668543309,164.37559271789627,149.60623165598344,6.47544875391759e-05,0.0947341993451118,0,0,0
13685,492446.3360495114,2010-12-05 03:22:01,2971.4946072117923,2,45,0.5501165986061096,3.983211994171143,41.03080110175079,41.24235668543309,164.39385730422285,149.60623165598344,6.47544875391759e-05,0.0947341993451118,0,0,0
13686,492476.3511391474,2010-12-05 03:22:31,3001.509696872988,2,45,0.550297200679779,3.985316514968872,41.03538773865927,41.24235668543309,164.41213123029004,149.60623165598344,3.237724376958795e-05,0.0947341993451118,0,0,0
13687,492506.3662460015,2010-12-05 03:23:01,3031.524803706917,2,45,0.5499359965324402,3.9870972633361816,41.03997433176372,41.24235668543309,164.4304140827413,149.60623165598344,6.47544875391759e-05,0.0947341993451118,0,0,0
13688,492536.3814790996,2010-12-05 03:23:31,3061.5400368952746,2,45,0.5501165986061096,3.989201784133911,41.04456101416873,41.24235668543309,164.44870646614842,149.60623165598344,6.47544875391759e-05,0.0947341993451118,0,0,0
13689,492566.396420983,2010-12-05 03:24:01,3091.554978683493,2,45,0.5501165986061096,3.9913063049316406,41.04914765312046,41.24235668543309,164.46700797315154,149.60623165598344,9.713172767078504e-05,0.0947341993451118,0,0,0
13690,492596.4116574246,2010-12-05 03:24:31,3121.5702151249457,2,45,0.5501165986061096,3.99324893951416,41.05373432542458,41.24235668543309,164.4853190732138,149.60623165598344,3.237724376958795e-05,0.0947341993451118,0,0,0
13691,492626.4265785062,2010-12-05 03:25:01,3151.585136221675,2,45,0.5499359965324402,3.9951913356781006,41.05832006212844,41.24235668543309,164.5036357431537,149.60623165598344,3.237724376958795e-05,0.0947341993451118,0,0,0
13692,492656.4417973789,2010-12-05 03:25:31,3181.6003550793707,2,45,0.5499359965324402,3.99745774269104,41.06290586520946,41.24235668543309,164.52196232925925,149.60623165598344,6.47544875391759e-05,0.0947341993451118,0,0,0
13693,492686.4567834022,2010-12-05 03:26:01,3211.615341102667,2,45,0.5499359965324402,3.99940037727356,41.06749179439866,41.24235668543309,164.54029911191222,149.60623165598344,3.237724376958795e-05,0.0947341993451118,0,0,0
13694,492716.4720279288,2010-12-05 03:26:31,3241.6305856342515,2,45,0.5501165986061096,4.001667022705078,41.07207761361439,41.24235668543309,164.5586452891878,149.60623165598344,3.24249267578125e-05,0.0947341993451118,0,0,0
13695,492746.4870059622,2010-12-05 03:27:01,3271.645563752877,2,45,0.5501165986061096,4.0037713050842285,41.07666334112797,41.24235668543309,164.57700106824478,149.60623165598344,3.23295607813634e-05,0.0947341993451118,0,0,0
13696,492776.5020898841,2010-12-05 03:27:31,3301.6606475845665,2,45,0.5501165986061096,4.006199836730957,41.08124909332548,41.24235668543309,164.59536694144106,149.60623165598344,6.47544875391759e-05,0.0947341993451118,0,0,0
13697,492806.5171770742,2010-12-05 03:28:01,3331.6757347796247,2,45,0.5501165986061096,4.0084662437438965,41.08583561827502,41.24235668543309,164.6137462307215,149.60623165598344,9.71794142969884e-05,0.0947341993451118,0,0,0
13698,492836.5323234114,2010-12-05 03:28:31,3361.690881111844,2,45,0.5501165986061096,4.010570526123047,41.09042229238396,41.24235668543309,164.63213634757355,149.60623165598344,3.23295607813634e-05,0.0947341993451118,0,0,0
13699,492866.5492047762,2010-12-05 03:29:01,3391.707762566849,2,45,0.5501165986061096,4.012999057769775,41.09500923556793,41.24235668543309,164.6505379790096,149.60623165598344,6.47544875391759e-05,0.0947341993451118,0,0,0
13700,492896.562497576,2010-12-05 03:29:31,3421.721055386673,2,45,0.5501165986061096,4.015103340148926,41.0995955774955,41.24235668543309,164.66894772922092,149.60623165598344,6.47544875391759e-05,0.0947341993451118,0,0,0
13701,492926.57757028,2010-12-05 03:30:01,3451.73612798541,2,45,0.5501165986061096,4.017531871795654,41.10418220708746,41.24235668543309,164.68736922442602,149.60623165598344,6.47544875391759e-05,0.0947341993451118,0,0,0
13702,492956.5928239141,2010-12-05 03:30:31,3481.751381634683,2,45,0.550297200679779,4.019798278808594,41.108768882271455,41.24235668543309,164.70580149427803,149.60623165598344,6.47544875391759e-05,0.0947341993451118,0,0,0
13703,492986.6078920117,2010-12-05 03:31:01,3511.766449722193,2,45,0.5499359965324402,4.022226333618164,41.11335547677498,41.24235668543309,164.72424432262198,149.60623165598344,6.47544875391759e-05,0.0947341993451118,0,0,0
13704,493016.62286806526,2010-12-05 03:31:31,3541.781425770668,2,45,0.550297200679779,4.024654865264893,41.11794215361753,41.24235668543309,164.7426983970575,149.60623165598344,6.47544875391759e-05,0.0947341993451118,0,0,0
13705,493046.6379673654,2010-12-05 03:32:01,3571.796525065837,2,45,0.5501165986061096,4.026921272277832,41.12252880779676,41.24235668543309,164.7611633275496,149.60623165598344,3.24249267578125e-05,0.0947341993451118,0,0,0
13706,493076.6530780539,2010-12-05 03:32:31,3601.811635749345,2,45,0.5501165986061096,4.029511451721191,41.127115521555965,41.24235668543309,164.77963964604436,149.60623165598344,6.47544875391759e-05,0.0947341993451118,0,0,0
13707,493106.6684177773,2010-12-05 03:33:01,3631.8269754978737,2,45,0.550297200679779,4.031939506530762,41.13170221634293,41.24235668543309,164.79812700691724,149.60623165598344,6.47544875391759e-05,0.0947341993451118,0,0,0
13708,493136.6832489002,2010-12-05 03:33:31,3661.8418066908807,2,45,0.5499359965324402,4.034205913543701,41.13628879315109,41.24235668543309,164.81662526258546,149.60623165598344,6.47544875391759e-05,0.0947341993451118,0,0,0
13709,493166.6983570875,2010-12-05 03:34:01,3691.856914818028,2,45,0.5501165986061096,4.036957740783691,41.14087541471178,41.24235668543309,164.8351350565562,149.60623165598344,6.47544875391759e-05,0.0947341993451118,0,0,0
13710,493196.7134851192,2010-12-05 03:34:31,3721.8720429248942,2,45,0.5501165986061096,4.03938627243042,41.14546203432732,41.24235668543309,164.85365634554807,149.60623165598344,6.47544875391759e-05,0.0947341993451118,0,0,0
13711,493226.7285079541,2010-12-05 03:35:01,3751.887065654532,2,45,0.5501165986061096,4.041976451873779,41.1500492398736,41.24235668543309,164.8721915750676,149.60623165598344,6.47544875391759e-05,0.0947341993451118,0,0,0
13712,493256.7435917457,2010-12-05 03:35:31,3781.9021494511344,2,45,0.5501165986061096,4.04440450668335,41.15463664868241,41.24235668543309,164.8907394217796,149.60623165598344,6.47544875391759e-05,0.0947341993451118,0,0,0
13713,493286.7587194766,2010-12-05 03:36:01,3811.9172771870767,2,45,0.5501165986061096,4.046994686126709,41.159224005341926,41.24235668543309,164.9092988846517,149.60623165598344,3.23295607813634e-05,0.0947341993451118,0,0,0
13714,493316.7738244159,2010-12-05 03:36:31,3841.932382131304,2,45,0.5501165986061096,4.049746990203857,41.16381148832292,41.24235668543309,164.92787076612896,149.60623165598344,6.47544875391759e-05,0.0947341993451118,0,0,0
13715,493346.7888991248,2010-12-05 03:37:01,3871.9474568252535,2,45,0.5501165986061096,4.052337169647217,41.16839895189848,41.24235668543309,164.94645447108115,149.60623165598344,6.47544875391759e-05,0.0947341993451118,0,0,0
13716,493376.8040313118,2010-12-05 03:37:31,3901.9625890172856,2,45,0.550297200679779,4.054927349090576,41.17298641186553,41.24235668543309,164.96505039673738,149.60623165598344,6.47544875391759e-05,0.0947341993451118,0,0,0
13717,493406.81907012645,2010-12-05 03:38:01,3931.977627836963,2,45,0.550297200679779,4.057679176330566,41.17757348717146,41.24235668543309,164.9836570084141,149.60623165598344,9.70840483205393e-05,0.0947341993451118,0,0,0
13718,493436.8341817274,2010-12-05 03:38:31,3961.9927394277306,2,45,0.5501165986061096,4.060269355773926,41.18216031817797,41.24235668543309,165.00227500690696,149.60623165598344,6.47544875391759e-05,0.0947341993451118,0,0,0
13719,493466.85106213466,2010-12-05 03:39:01,3992.009619915328,2,45,0.5501165986061096,4.062859535217285,41.186747411619685,41.24235668543309,165.02090606410945,149.60623165598344,3.23295607813634e-05,0.0947341993451118,0,0,0
13720,493496.8644196605,2010-12-05 03:39:31,4022.0229774612208,2,45,0.5501165986061096,4.0657734870910645,41.19133390958559,41.24235668543309,165.03954734944767,149.60623165598344,9.70840483205393e-05,0.0947341993451118,0,0,0
13721,493526.8794869461,2010-12-05 03:40:01,4052.038044736711,2,45,0.5501165986061096,4.068525791168213,41.19592077232258,41.24235668543309,165.05820285036992,149.60623165598344,9.71794142969884e-05,0.0947341993451118,0,0,0
13722,493556.8945880507,2010-12-05 03:40:31,4082.053145751157,2,45,0.5501165986061096,4.071277618408203,41.20050762313247,41.24235668543309,165.0768711203074,149.60623165598344,3.23295607813634e-05,0.0947341993451118,0,0,0
13723,493586.9096811154,2010-12-05 03:41:01,4112.068238815823,2,45,0.5499359965324402,4.074029922485352,41.20509442195565,41.24235668543309,165.09555202343995,149.60623165598344,3.24249267578125e-05,0.0947341993451118,0,0,0
13724,493616.92478941294,2010-12-05 03:41:31,4142.0833471083815,2,45,0.5499359965324402,4.076943874359131,41.209681226842406,41.24235668543309,165.11424605173858,149.60623165598344,6.47544875391759e-05,0.0947341993451118,0,0,0
13725,493646.9398515055,2010-12-05 03:42:01,4172.098409200973,2,45,0.550297200679779,4.080019474029541,41.21426805274294,41.24235668543309,165.1329533389522,149.60623165598344,9.70840483205393e-05,0.0947341993451118,0,0,0
13726,493676.9551738608,2010-12-05 03:42:31,4202.113731626393,2,45,0.550297200679779,4.08293342590332,41.21885491964603,41.24235668543309,165.1516740029052,149.60623165598344,9.70840483205393e-05,0.0947341993451118,0,0,0
13727,493706.9567818684,2010-12-05 03:43:01,4232.115339679125,2,45,0.5501165986061096,4.0858473777771,41.2234396503538,41.24235668543309,165.1703993442911,149.60623165598344,9.70840483205393e-05,0.0947341993451118,0,0,0
13728,493736.9695503534,2010-12-05 03:43:31,4262.128108063913,2,45,0.5501165986061096,4.088761329650879,41.22802614637241,41.24235668543309,165.18914539228368,149.60623165598344,9.70840483205393e-05,0.0947341993451118,0,0,0
13729,493766.984620877,2010-12-05 03:44:01,4292.14317857746,2,45,0.550297200679779,4.091675281524658,41.23261299707209,41.24235668543309,165.20790655229976,149.60623165598344,9.70840483205393e-05,0.0947341993451118,0,0,0
13730,493796.9997191646,2010-12-05 03:44:31,4322.158276870135,2,45,0.5501165986061096,4.094751358032227,41.23719986488609,41.24235668543309,165.22668143538252,149.60623165598344,6.47544875391759e-05,0.0947341993451118,0,0,0
13731,493827.0148264247,2010-12-05 03:45:01,4352.173384125112,2,45,0.550297200679779,4.097826957702637,41.24178670394949,41.24235668543309,165.2454701207873,149.60623165598344,9.70840483205393e-05,0.0947341993451118,0,0,0
13732,493857.0299052489,2010-12-05 03:45:31,4382.188462944327,2,45,0.5501165986061096,4.100740909576416,41.24637353524891,41.24235668543309,165.2642726790379,149.60623165598344,9.70840483205393e-05,0.0947341993451118,0,0,0
13733,493887.0451391891,2010-12-05 03:46:01,4412.203696899593,2,45,0.550297200679779,4.103978633880615,41.25096044201096,41.24235668543309,165.2830895379456,149.60623165598344,9.70840483205393e-05,0.0947341993451118,0,0,0
13734,493917.0601017791,2010-12-05 03:46:31,4442.218659479551,2,45,0.5501165986061096,4.107054710388184,41.25554725531836,41.24235668543309,165.3019202745378,149.60623165598344,9.71794142969884e-05,0.0947341993451118,0,0,0
13735,493947.0752324974,2010-12-05 03:47:02,4472.233790217966,2,45,0.5501165986061096,4.110130310058594,41.26013411322087,41.24235668543309,165.320765444715,149.60623165598344,9.70840483205393e-05,0.0947341993451118,0,0,0
13736,493977.09260829765,2010-12-05 03:47:32,4502.251166083292,2,45,0.5501165986061096,4.113206386566162,41.26472136787602,41.24235668543309,165.3396266961094,149.60623165598344,6.47544875391759e-05,0.0947341993451118,0,0,0
13737,494007.1055031772,2010-12-05 03:48:02,4532.264060907721,2,45,0.550297200679779,4.116443634033203,41.269307852238654,41.24235668543309,165.3584992761149,149.60623165598344,6.47544875391759e-05,0.0947341993451118,0,0,0
13738,494037.1204795916,2010-12-05 03:48:32,4562.279037302055,2,45,0.5501165986061096,4.119519710540772,41.27389470690797,41.24235668543309,165.3773880292461,149.60623165598344,9.71794142969884e-05,0.0947341993451118,0,0,0
13739,494067.1356342595,2010-12-05 03:49:02,4592.294192025155,2,45,0.550297200679779,4.122919082641602,41.27848165705104,41.24235668543309,165.3962919588813,149.60623165598344,9.70840483205393e-05,0.0947341993451118,0,0,0
13740,494097.152445595,2010-12-05 03:49:32,4622.3110034258325,2,45,0.5501165986061096,4.12599515914917,41.2830687191312,41.24235668543309,165.4152110259938,149.60623165598344,9.71794142969884e-05,0.0947341993451118,0,0,0
13741,494127.1658142987,2010-12-05 03:50:02,4652.324371999167,2,45,0.5499359965324402,4.129232883453369,41.28765527096674,41.24235668543309,165.4341430332694,149.60623165598344,3.24249267578125e-05,0.0947341993451118,0,0,0
13742,494157.1810577778,2010-12-05 03:50:32,4682.339615508207,2,45,0.550297200679779,4.132794380187988,41.29224214311569,41.24235668543309,165.45309150010414,149.60623165598344,9.71794142969884e-05,0.0947341993451118,0,0,0
13743,494187.19647016696,2010-12-05 03:51:02,4712.355027947623,2,45,0.5501165986061096,4.136032104492188,41.29682907245764,41.24235668543309,165.47205540027656,149.60623165598344,6.47544875391759e-05,0.0947341993451118,0,0,0
13744,494217.21123111015,2010-12-05 03:51:32,4742.369788880792,2,45,0.550297200679779,4.139269828796387,41.301415862733485,41.24235668543309,165.49103410805944,149.60623165598344,3.24249267578125e-05,0.0947341993451118,0,0,0
13745,494247.2263230521,2010-12-05 03:52:02,4772.38488077755,2,45,0.5501165986061096,4.142831325531006,41.3060027756453,41.24235668543309,165.5100288713523,149.60623165598344,9.71794142969884e-05,0.0947341993451118,0,0,0
13746,494277.2413021231,2010-12-05 03:52:32,4802.399859833508,2,45,0.5499359965324402,4.146230697631836,41.31058959292379,41.24235668543309,165.52903894690212,149.60623165598344,9.70840483205393e-05,0.0947341993451118,0,0,0
13747,494307.2564250019,2010-12-05 03:53:02,4832.414982752464,2,45,0.5501165986061096,4.149630546569824,41.31517642649708,41.24235668543309,165.54806492091566,149.60623165598344,6.47544875391759e-05,0.0947341993451118,0,0,0
13748,494337.2714944778,2010-12-05 03:53:32,4862.430052178305,2,45,0.5499359965324402,4.153029918670654,41.319763172093054,41.24235668543309,165.56710631698112,149.60623165598344,6.47544875391759e-05,0.0947341993451118,0,0,0
13749,494367.28661038936,2010-12-05 03:54:02,4892.4451681098735,2,45,0.5501165986061096,4.156429767608643,41.3243500056641,41.24235668543309,165.58616382478905,149.60623165598344,3.24249267578125e-05,0.0947341993451118,0,0,0
13750,494397.3017848716,2010-12-05 03:54:32,4922.460342672342,2,45,0.5501165986061096,4.159991264343262,41.3289367903367,41.24235668543309,165.6052370566895,149.60623165598344,9.71794142969884e-05,0.0947341993451118,0,0,0
13751,494427.31679686456,2010-12-05 03:55:02,4952.475354565014,2,45,0.5504778623580933,4.163714408874512,41.33352352428873,41.24235668543309,165.62432605754688,149.60623165598344,0.0001295089750783,0.0947341993451118,0,0,0
13752,494457.3318762954,2010-12-05 03:55:32,4982.490433995751,2,45,0.5501165986061096,4.166952133178711,41.33811031919789,41.24235668543309,165.64343137295714,149.60623165598344,0.0001295089750783,0.0947341993451118,0,0,0
13753,494487.34697830223,2010-12-05 03:56:02,5012.505536002668,2,45,0.550297200679779,4.17051362991333,41.34269713256836,41.24235668543309,165.66255306122977,149.60623165598344,9.70840483205393e-05,0.0947341993451118,0,0,0
13754,494517.3621431856,2010-12-05 03:56:32,5042.520700976276,2,45,0.5501165986061096,4.174237251281738,41.34728397343808,41.24235668543309,165.68169127525437,149.60623165598344,0.0001295089750783,0.0947341993451118,0,0,0
13755,494547.3771937245,2010-12-05 03:57:02,5072.5357515201285,2,45,0.5501165986061096,4.177798748016357,41.35187077208593,41.24235668543309,165.7008457864933,149.60623165598344,9.71794142969884e-05,0.0947341993451118,0,0,0
13756,494577.3922865636,2010-12-05 03:57:32,5102.5508442840455,2,45,0.5501165986061096,4.181521892547607,41.3564575514658,41.24235668543309,165.72001681327558,149.60623165598344,0.0001295089750783,0.0947341993451118,0,0,0
13757,494607.4073880542,2010-12-05 03:58:02,5132.565945849865,2,45,0.5501165986061096,4.185083389282227,41.3610443663821,41.24235668543309,165.73920470762678,149.60623165598344,6.47544875391759e-05,0.0947341993451118,0,0,0
13758,494637.4224593096,2010-12-05 03:58:32,5162.581017010021,2,45,0.5499359965324402,4.188807010650635,41.36563119758426,41.24235668543309,165.75840945899955,149.60623165598344,9.71794142969884e-05,0.0947341993451118,0,0,0
13759,494667.43788562855,2010-12-05 03:59:02,5192.596443394138,2,45,0.5499359965324402,4.192530155181885,41.37021802670214,41.24235668543309,165.7776312405134,149.60623165598344,9.70840483205393e-05,0.0947341993451118,0,0,0
13760,494697.4546280275,2010-12-05 03:59:32,5222.6131858131575,2,45,0.5499359965324402,4.196091651916504,41.37480507147436,41.24235668543309,165.79687102315785,149.60623165598344,6.47544875391759e-05,0.0947341993451118,0,0,0
13761,494727.3115128671,2010-12-05 04:00:02,5252.47007057254,2,45,0.5501165986061096,4.200138568878174,41.37936766380008,41.24235668543309,165.81602519277774,149.60623165598344,0.0001295089750783,0.0947341993451118,0,0,0
13762,494757.3135752863,2010-12-05 04:00:32,30.01659008995462,3,45,0.0,4.113691806793213,41.37936766380008,41.24235668543309,165.81602519277774,149.60623165598344,-0.0003885269106831,0.0947341993451118,0,0,0
13763,494787.3268465173,2010-12-05 04:01:02,60.02986121078222,3,45,0.0,4.102845668792725,41.37936766380008,41.24235668543309,165.81602519277774,149.60623165598344,-0.0002590179501567,0.0947341993451118,0,0,0
13764,494817.3419297175,2010-12-05 04:01:32,90.0449444159119,3,45,0.0,4.096693992614746,41.37936766380008,41.24235668543309,165.81602519277774,149.60623165598344,-9.70840483205393e-05,0.0947341993451118,0,0,0
13765,494847.3119585666,2010-12-05 04:02:02,120.01497327002193,3,45,0.0,4.092322826385498,41.37936766380008,41.24235668543309,165.81602519277774,149.60623165598344,-0.0001295089750783,0.0947341993451118,0,0,0
13766,494847.3133743701,2010-12-05 04:02:02,2.801972601e-06,4,45,0.0001613661734154,4.092322826385498,41.37936766380021,41.24235668543309,165.81602519277826,149.60623165598344,0.0,0.0947341993451118,0,0,0
13767,494877.31776972034,2010-12-05 04:02:32,30.01683391670812,5,45,0.0,4.089570999145508,41.37936766380021,41.24235668543309,165.81602519277826,149.60623165598344,-0.0001295089750783,0.0947341993451118,0,0,0
13768,494907.3173104435,2010-12-05 04:03:02,60.01637457480732,5,45,0.0,4.087466239929199,41.37936766380021,41.24235668543309,165.81602519277826,149.60623165598344,-3.24249267578125e-05,0.0947341993451118,0,0,0
13769,494907.5071242944,2010-12-05 04:03:03,0.187366213616191,6,45,-1.9243103452026844e-05,4.087628364562988,41.37936766380021,41.24235668643463,165.81602519277826,149.60623166007733,0.0,0.0970755815505981,0,0,0
13770,494912.3352991719,2010-12-05 04:03:07,5.015541101124722,6,45,0.0008838032954372,4.087304592132568,41.37936850351796,41.242356686519216,165.81602862507444,149.60623166042313,-3.23295607813634e-05,0.0970755815505981,0,0,0
13771,494942.3545973653,2010-12-05 04:03:37,30.015080393132138,7,45,-1.0997490882873535,3.9136011600494394,41.37936850351796,41.25152597497596,165.81602862507444,149.64230620944247,-0.0008741378551349,0.0970755815505981,0,0,0
13772,494972.3696937883,2010-12-05 04:04:07,60.03017681615405,7,45,-1.0997490882873535,3.887861251831055,41.37936850351796,41.26069529874179,165.81602862507444,149.67806425397322,-0.0005504131549969,0.0970755815505981,0,0,0
13773,495002.38482831616,2010-12-05 04:04:37,90.04531133898587,7,45,-1.0997490882873535,3.870215654373169,41.37936850351796,41.26986448509719,165.81602862507444,149.71362772759488,-0.0003885269106831,0.0970755815505981,0,0,0
13774,495032.4000547326,2010-12-05 04:05:08,120.06053776050403,7,45,-1.099568486213684,3.856293439865112,41.37936850351796,41.27903370946682,165.81602862507444,149.7490481592617,-0.0003237724304199,0.0970755815505981,0,0,0
13775,495062.4174367032,2010-12-05 04:05:38,150.07791982625994,7,45,-1.099929690361023,3.844475746154785,41.37936850351796,41.28820358433027,165.81602862507444,149.7843543801193,-0.0002913951757363,0.0970755815505981,0,0,0
13776,495092.430154096,2010-12-05 04:06:08,180.0906372542442,7,45,-1.0997490882873535,3.8339531421661377,41.37936850351796,41.29737208318033,165.81602862507444,149.81955338544745,-0.0002590179501567,0.0970755815505981,0,0,0
13777,495122.4451792266,2010-12-05 04:06:38,210.1056622545334,7,45,-1.0997490882873535,3.824402093887329,41.37936850351796,41.30654124631139,165.81602862507444,149.8546626313,-0.0002266406954731,0.0970755815505981,0,0,0
13778,495152.4604076232,2010-12-05 04:07:08,240.1208906509661,7,45,-1.0997490882873535,3.815174579620361,41.37936850351796,41.315710477612726,165.81602862507444,149.88968638267085,-0.0002590179501567,0.0970755815505981,0,0,0
13779,495182.4753935712,2010-12-05 04:07:38,270.1358766091003,7,45,-1.099568486213684,3.8062708377838135,41.37936850351796,41.3248795390457,165.81602862507444,149.92462736503063,-0.0002590179501567,0.0970755815505981,0,0,0
13780,495212.4904577591,2010-12-05 04:08:08,300.1509407868812,7,45,-1.0997490882873535,3.797852754592896,41.37936850351796,41.334048702563024,165.81602862507444,149.9594895857095,-0.0002266406954731,0.0970755815505981,0,0,0
13781,495242.5055472648,2010-12-05 04:08:38,330.16603030271483,7,45,-1.099929690361023,3.7897584438323975,41.37936850351796,41.34321790141529,165.81602862507444,149.99427553284988,-0.0001942634553415,0.0970755815505981,0,0,0
13782,495272.5207029001,2010-12-05 04:09:08,360.18118592805945,7,45,-1.099568486213684,3.7819879055023193,41.37936850351796,41.35238712862482,165.81602862507444,150.02898849303352,-0.0002266406954731,0.0970755815505981,0,0,0
13783,495302.5359322339,2010-12-05 04:09:38,390.1964152618246,7,45,-1.0997490882873535,3.7740554809570312,41.37936850351796,41.3615564328029,165.81602862507444,150.06363031717456,-0.0002266406954731,0.0970755815505981,0,0,0
13784,495332.5508938014,2010-12-05 04:10:08,420.2113768292636,7,45,-1.0997490882873535,3.766608715057373,41.37936850351796,41.37072555856918,165.81602862507444,150.09820084687337,-0.0001618862152099,0.0970755815505981,0,0,0
13785,495362.5661362327,2010-12-05 04:10:38,450.2266192606216,7,45,-1.0997490882873535,3.759161949157715,41.37936850351796,41.37989473396853,165.81602862507444,150.13270241089714,-0.0001618862152099,0.0970755815505981,0,0,0
13786,495392.5811063915,2010-12-05 04:11:08,480.241589504652,7,45,-1.099929690361023,3.7518773078918457,41.37936850351796,41.389063868454485,165.81602862507444,150.16713689064076,-0.0001618862152099,0.0970755815505981,0,0,0
13787,495422.5963127081,2010-12-05 04:11:38,510.25679573592754,7,45,-1.099568486213684,3.7449162006378174,41.37936850351796,41.39823314018954,165.81602862507444,150.2015069461353,-0.0001942634553415,0.0970755815505981,0,0,0
13788,495452.6113463498,2010-12-05 04:12:08,540.2718294729577,7,45,-1.0997490882873535,3.738116979598999,41.37936850351796,41.40740232877989,165.81602862507444,150.2358134400045,-0.0001942634553415,0.0970755815505981,0,0,0
13789,495482.6263740718,2010-12-05 04:12:38,570.2868570997829,7,45,-1.0997490882873535,3.731479644775391,41.37936850351796,41.416571514692805,165.81602862507444,150.27005827051372,-0.0001942634553415,0.0970755815505981,0,0,0
13790,495512.64150204347,2010-12-05 04:13:08,600.3019850763245,7,45,-1.099929690361023,3.7248423099517822,41.37936850351796,41.42574067733232,165.81602862507444,150.3042429975174,-0.0001942634553415,0.0970755815505981,0,0,0
13791,495542.65656883776,2010-12-05 04:13:38,630.317051865604,7,45,-1.099929690361023,3.718690633773804,41.37936850351796,41.43490985504382,165.81602862507444,150.33836920787925,-0.0001618862152099,0.0970755815505981,0,0,0
13792,495572.6716827141,2010-12-05 04:14:08,660.3321657420581,7,45,-1.0997490882873535,3.712538957595825,41.37936850351796,41.44407904765126,165.81602862507444,150.37243866513393,-0.0001618862152099,0.0970755815505981,0,0,0
13793,495602.6867654181,2010-12-05 04:14:38,690.3472484409281,7,45,-1.0997490882873535,3.7065491676330566,41.37936850351796,41.453248228482,165.81602862507444,150.40645237954195,-0.0001295089750783,0.0970755815505981,0,0,0
13794,495632.701886718,2010-12-05 04:15:08,720.3623697458676,7,45,-1.0997490882873535,3.700721263885498,41.37936850351796,41.46241753546378,165.81602862507444,150.4404122566999,-0.0001618862152099,0.0970755815505981,0,0,0
13795,495662.71878229314,2010-12-05 04:15:38,750.3792654162473,7,45,-1.0997490882873535,3.69489336013794,41.37936850351796,41.47158732697016,165.81602862507444,150.4743208943807,-0.0001618862152099,0.0970755815505981,0,0,0
13796,495692.7320676043,2010-12-05 04:16:08,780.3925506321501,7,45,-1.0997490882873535,3.6895511150360103,41.37936850351796,41.48075599557036,165.81602862507444,150.5081736779446,-0.0001295089750783,0.0970755815505981,0,0,0
13797,495722.7472099716,2010-12-05 04:16:38,810.4076931097769,7,45,-1.099929690361023,3.683885097503662,41.37936850351796,41.4899252583595,165.81602862507444,150.54197796004843,-0.0001295089750783,0.0970755815505981,0,0,0
13798,495752.7627684244,2010-12-05 04:17:08,840.4232514622928,7,45,-1.099568486213684,3.678542852401733,41.37936850351796,41.49909463295758,165.81602862507444,150.57573294952442,-0.0001618862152099,0.0970755815505981,0,0,0
13799,495782.7773601015,2010-12-05 04:17:38,870.4378431292487,7,45,-1.099568486213684,3.673362493515015,41.37936850351796,41.5082637457502,165.81602862507444,150.6094381021759,-0.0001295089750783,0.0970755815505981,0,0,0
13800,495812.7924618677,2010-12-05 04:18:08,900.452944895567,7,45,-1.0997490882873535,3.668020486831665,41.37936850351796,41.51743302259719,165.81602862507444,150.64309573315933,-0.0001295089750783,0.0970755815505981,0,0,0
13801,495842.8076196334,2010-12-05 04:18:38,930.4681027514622,7,45,-1.0997490882873535,3.663163900375366,41.37936850351796,41.5266023022062,165.81602862507444,150.67670614679872,-0.0001295089750783,0.0970755815505981,0,0,0
13802,495872.82284709247,2010-12-05 04:19:08,960.48333020555,7,45,-1.099568486213684,3.657983541488648,41.37936850351796,41.53577157014522,165.81602862507444,150.71027023383826,-0.0001295089750783,0.0970755815505981,0,0,0
13803,495902.8377392623,2010-12-05 04:19:38,990.498222295096,7,45,-1.0997490882873535,3.6529650688171382,41.37936850351796,41.54494077573038,165.81602862507444,150.74378825356715,-0.0001295089750783,0.0970755815505981,0,0,0
13804,495932.8528602814,2010-12-05 04:20:08,1020.513343309312,7,45,-1.099568486213684,3.64827036857605,41.37936850351796,41.55411007482413,165.81602862507444,150.77726141745973,-9.713172767078504e-05,0.0970755815505981,0,0,0
13805,495962.86794360186,2010-12-05 04:20:38,1050.528426634741,7,45,-1.099568486213684,3.643251895904541,41.37936850351796,41.56327922944278,165.81602862507444,150.810689160608,-0.0001295089750783,0.0970755815505981,0,0,0
13806,495992.883059368,2010-12-05 04:21:08,1080.5435423958852,7,45,-1.0997490882873535,3.638557195663452,41.37936850351796,41.57244842846698,165.81602862507444,150.84407331734852,-0.0001295089750783,0.0970755815505981,0,0,0
13807,496022.89828641614,2010-12-05 04:21:38,1110.5587695091249,7,45,-1.0997490882873535,3.6338624954223633,41.37936850351796,41.58161773670543,165.81602862507444,150.87741498509445,-0.0001295089750783,0.0970755815505981,0,0,0
13808,496052.91323695605,2010-12-05 04:22:08,1140.57371998396,7,45,-1.099929690361023,3.629329681396485,41.37936850351796,41.59078691764055,165.81602862507444,150.91071408938114,-9.713172767078504e-05,0.0970755815505981,0,0,0
13809,496082.9283333341,2010-12-05 04:22:38,1170.5888163618697,7,45,-1.0997490882873535,3.6247968673706055,41.37936850351796,41.59995611783502,165.81602862507444,150.94397189314157,-0.0001295089750783,0.0970755815505981,0,0,0
13810,496112.9435877802,2010-12-05 04:23:08,1200.6040708833134,7,45,-1.0997490882873535,3.6205878257751465,41.37936850351796,41.60912546024208,165.81602862507444,150.97719011090305,-0.0001295089750783,0.0970755815505981,0,0,0
13811,496142.9588162619,2010-12-05 04:23:38,1230.6192993850082,7,45,-1.0997490882873535,3.616378784179688,41.37936850351796,41.61829475621386,165.81602862507444,151.01036901359328,-9.713172767078504e-05,0.0970755815505981,0,0,0
13812,496172.97375260654,2010-12-05 04:24:08,1260.6342356845687,7,45,-1.099929690361023,3.6120078563690186,41.37936850351796,41.6274639379976,165.81602862507444,151.04350930816733,-0.0001618862152099,0.0970755815505981,0,0,0
13813,496202.9887178582,2010-12-05 04:24:38,1290.6492008810385,7,45,-1.0997490882873535,3.6082844734191895,41.37936850351796,41.63663312218202,165.81602862507444,151.07661226366798,-6.47544875391759e-05,0.0970755815505981,0,0,0
13814,496233.0039557683,2010-12-05 04:25:08,1320.6644387961585,7,45,-1.0997490882873535,3.6043992042541504,41.37936850351796,41.64580232459423,165.81602862507444,151.1096786140856,-6.47544875391759e-05,0.0970755815505981,0,0,0
13815,496263.0207489186,2010-12-05 04:25:38,1350.6812320516824,7,45,-1.0997490882873535,3.6005139350891118,41.37936850351796,41.65497203913369,165.81602862507444,151.14271146536367,-9.713172767078504e-05,0.0970755815505981,0,0,0
13816,496293.0340240194,2010-12-05 04:26:08,1380.694507047152,7,45,-1.0997490882873535,3.5966286659240723,41.37936850351796,41.6641406592134,165.81602862507444,151.17570580233868,-0.0001295089750783,0.0970755815505981,0,0,0
13817,496323.0491135301,2010-12-05 04:26:38,1410.709596557973,7,45,-1.099929690361023,3.592905282974243,41.37936850351796,41.67330986136013,165.81602862507444,151.2086686150667,-0.0001295089750783,0.0970755815505981,0,0,0
13818,496353.0642225996,2010-12-05 04:27:08,1440.7247056274653,7,45,-1.0997490882873535,3.589667797088623,41.37936850351796,41.68247907464999,165.81602862507444,151.24159895149091,-9.713172767078504e-05,0.0970755815505981,0,0,0
13819,496383.0792872837,2010-12-05 04:27:38,1470.739770311506,7,45,-1.099929690361023,3.586268186569214,41.37936850351796,41.691648277776906,165.81602862507444,151.27449756117977,-6.47544875391759e-05,0.0970755815505981,0,0,0
13820,496413.0944229192,2010-12-05 04:28:08,1500.7549059471069,7,45,-1.0997490882873535,3.5827066898345947,41.37936850351796,41.70081746819385,165.81602862507444,151.3073646404946,-0.0001295089750783,0.0970755815505981,0,0,0
13821,496443.1095289913,2010-12-05 04:28:38,1530.77001201914,7,45,-1.0997490882873535,3.579630851745605,41.37936850351796,41.709986719752045,165.81602862507444,151.34020125610604,-6.47544875391759e-05,0.0970755815505981,0,0,0
13822,496473.1246673787,2010-12-05 04:29:08,1560.7851504667383,7,45,-1.0997490882873535,3.5762312412261963,41.37936850351796,41.719155922011055,165.81602862507444,151.37300730333143,-3.237724376958795e-05,0.0970755815505981,0,0,0
13823,496503.139723316,2010-12-05 04:29:38,1590.8002063438637,7,45,-1.0997490882873535,3.573155403137207,41.37936850351796,41.72832511265915,165.81602862507444,151.40578349808868,-6.47544875391759e-05,0.0970755815505981,0,0,0
13824,496533.1548282953,2010-12-05 04:30:08,1620.8153113231774,7,45,-1.0997490882873535,3.569755792617798,41.37936850351796,41.737494304579606,165.81602862507444,151.43853036198053,-9.713172767078504e-05,0.0970755815505981,0,0,0
13825,496563.1700980847,2010-12-05 04:30:38,1650.8305811777768,7,45,-1.0997490882873535,3.566518068313598,41.37936850351796,41.74666357767633,165.81602862507444,151.4712480860644,-9.713172767078504e-05,0.0970755815505981,0,0,0
13826,496593.1850355172,2010-12-05 04:31:08,1680.8455185449948,7,45,-1.099929690361023,3.5632803440093994,41.37936850351796,41.755832738400514,165.81602862507444,151.50393578037637,-0.0001295089750783,0.0970755815505981,0,0,0
13827,496623.20010155445,2010-12-05 04:31:38,1710.8605845874156,7,45,-1.0997490882873535,3.56020450592041,41.37936850351796,41.76500189843775,165.81602862507444,151.5365949598857,-6.47544875391759e-05,0.0970755815505981,0,0,0
13828,496653.21522511006,2010-12-05 04:32:08,1740.87570823318,7,45,-1.0997490882873535,3.557128667831421,41.37936850351796,41.77417105754839,165.81602862507444,151.56922428170208,-6.47544875391759e-05,0.0970755815505981,0,0,0
13829,496683.2303401043,2010-12-05 04:32:38,1770.8908231321789,7,45,-1.0997490882873535,3.553729057312012,41.37936850351796,41.783340213247065,165.81602862507444,151.60182386299354,-6.47544875391759e-05,0.0970755815505981,0,0,0
13830,496713.24544870766,2010-12-05 04:33:08,1800.905931735511,7,45,-1.0997490882873535,3.5504913330078125,41.37936850351796,41.79250944600724,165.81602862507444,151.63439356978589,-6.47544875391759e-05,0.0970755815505981,0,0,0
13831,496743.2470964592,2010-12-05 04:33:38,1830.907579587281,7,45,-1.0997490882873535,3.5472536087036133,41.37936850351796,41.80167459347643,165.81602862507444,151.6669184413567,-9.713172767078504e-05,0.0970755815505981,0,0,0
13832,496773.2600711624,2010-12-05 04:34:08,1860.920554280459,7,45,-1.0997490882873535,3.543530225753784,41.37936850351796,41.8108431943644,165.81602862507444,151.6994247960683,-0.0001295089750783,0.0970755815505981,0,0,0
13833,496803.2751291096,2010-12-05 04:34:38,1890.9356122377608,7,45,-1.099568486213684,3.540292501449585,41.37936850351796,41.82001246076332,165.81602862507444,151.7319020949178,-9.713172767078504e-05,0.0970755815505981,0,0,0
13834,496833.2902093424,2010-12-05 04:35:08,1920.9506923752567,7,45,-1.0997490882873535,3.536892890930176,41.37936850351796,41.82918173506838,165.81602862507444,151.76434722796105,-6.47544875391759e-05,0.0970755815505981,0,0,0
13835,496863.30544814974,2010-12-05 04:35:38,1950.9659311775845,7,45,-1.0997490882873535,3.5330076217651367,41.37936850351796,41.83835114518862,165.81602862507444,151.79675971868778,-9.713172767078504e-05,0.0970755815505981,0,0,0
13836,496893.3221786592,2010-12-05 04:36:08,1980.9826618172915,7,45,-1.0997490882873535,3.529284238815308,41.37936850351796,41.84752091834286,165.81602862507444,151.82913951780796,-9.713172767078504e-05,0.0970755815505981,0,0,0
13837,496923.33552940807,2010-12-05 04:36:38,2010.9960124710333,7,45,-1.0997490882873535,3.525398969650269,41.37936850351796,41.85668964868665,165.81602862507444,151.86148068417856,-0.0001295089750783,0.0970755815505981,0,0,0
13838,496953.3506015306,2010-12-05 04:37:08,2041.01108456351,7,45,-1.099929690361023,3.5213518142700195,41.37936850351796,41.86585895906423,165.81602862507444,151.89378743291786,-9.713172767078504e-05,0.0970755815505981,0,0,0
13839,496983.3657126904,2010-12-05 04:37:39,2071.026195718191,7,45,-1.0997490882873535,3.5171427726745605,41.37936850351796,41.875028216401525,165.81602862507444,151.92605666118024,-0.0001295089750783,0.0970755815505981,0,0,0
13840,497013.3831267958,2010-12-05 04:38:09,2101.043609913901,7,45,-1.0997490882873535,3.512771844863892,41.37936850351796,41.88419817265459,165.81602862507444,151.95828933769815,-0.0001618862152099,0.0970755815505981,0,0,0
13841,497043.395907772,2010-12-05 04:38:39,2131.056390809823,7,45,-1.099568486213684,3.5084011554718018,41.37936850351796,41.893366724142986,165.81602862507444,151.99047607186054,-9.713172767078504e-05,0.0970755815505981,0,0,0
13842,497073.4109611027,2010-12-05 04:39:09,2161.071444140611,7,45,-1.099929690361023,3.503220796585083,41.37936850351796,41.90253600629798,165.81602862507444,152.0226219882043,-0.0001618862152099,0.0970755815505981,0,0,0
13843,497103.4262077245,2010-12-05 04:39:39,2191.086690762397,7,45,-1.0997490882873535,3.498364210128784,41.37936850351796,41.91170527565083,165.81602862507444,152.05472237142868,-0.0001295089750783,0.0970755815505981,0,0,0
13844,497133.44118661,2010-12-05 04:40:09,2221.101669642919,7,45,-1.1001102924346924,3.4925363063812256,41.37936850351796,41.92087446238034,165.81602862507444,152.08677320149573,-0.0001942634553415,0.0970755815505981,0,0,0
13845,497163.4562602714,2010-12-05 04:40:39,2251.1167432992875,7,45,-1.0997490882873535,3.486384630203247,41.37936850351796,41.93004371190982,165.81602862507444,152.11877067690338,-0.0001942634553415,0.0970755815505981,0,0,0
13846,497193.471359727,2010-12-05 04:41:09,2281.131842754856,7,45,-1.0997490882873535,3.4795854091644287,41.37936850351796,41.93921295756085,165.81602862507444,152.15070851502202,-0.0001942634553415,0.0970755815505981,0,0,0
13847,497223.48648149305,2010-12-05 04:41:39,2311.146964586105,7,45,-1.099929690361023,3.4718148708343506,41.37936850351796,41.94838206879167,165.81602862507444,152.18257820081604,-0.0002266406954731,0.0970755815505981,0,0,0
13848,497253.50155260816,2010-12-05 04:42:09,2341.1620356359863,7,45,-1.0997490882873535,3.462587356567383,41.37936850351796,41.95755118822659,165.81602862507444,152.2143703534986,-0.0002590179501567,0.0970755815505981,0,0,0
13849,497283.5166568255,2010-12-05 04:42:39,2371.1771398634296,7,45,-1.099929690361023,3.4517409801483154,41.37936850351796,41.966720296994254,165.81602862507444,152.24607134961337,-0.0003237724304199,0.0970755815505981,0,0,0
13850,497313.5317588224,2010-12-05 04:43:09,2401.192241915459,7,45,-1.0997490882873535,3.438466310501098,41.37936850351796,41.9758894588408,165.81602862507444,152.27766229561382,-0.0003561496851034,0.0970755815505981,0,0,0
13851,497343.5468915759,2010-12-05 04:43:39,2431.207374608738,7,45,-1.099568486213684,3.421306610107422,41.37936850351796,41.98505866144771,165.81602862507444,152.3091146895605,-0.0005504131549969,0.0970755815505981,0,0,0
13852,497373.5619596885,2010-12-05 04:44:09,2461.222442791485,7,45,-1.099568486213684,3.3989663124084477,41.37936850351796,41.99422782397338,165.81602862507444,152.34038717170654,-0.0006151676061563,0.0970755815505981,0,0,0
13853,497403.57704228704,2010-12-05 04:44:39,2491.2375253149185,7,45,-1.0997490882873535,3.368693590164185,41.37936850351796,42.00339702073496,165.81602862507444,152.37142026653856,-0.0008741855854168,0.0970755815505981,0,0,0
13854,497433.59213432414,2010-12-05 04:45:09,2521.252617352026,7,45,-1.099929690361023,3.326279640197754,41.37936850351796,42.01256623493433,165.81602862507444,152.4021242482534,-0.0012950897216796,0.0970755815505981,0,0,0
13855,497463.60737160273,2010-12-05 04:45:39,2551.2678546355737,7,45,-1.0997490882873535,3.2667057514190674,41.37936850351796,42.0217354608677,165.81602862507444,152.4323659324583,-0.0018130779499188,0.0970755815505981,0,0,0
13856,497493.6240972199,2010-12-05 04:46:09,2581.28458034802,7,45,-1.099568486213684,3.1805825233459477,41.37936850351796,42.03090511329586,165.81602862507444,152.46195008429487,-0.0026872635353356,0.0970755815505981,0,0,0
13857,497523.6374330568,2010-12-05 04:46:39,2611.2979160846417,7,45,-1.099929690361023,3.048969268798828,41.37936850351796,42.04007372046853,165.81602862507444,152.49055556648173,-0.0042737959884107,0.0970755815505981,0,0,0
13858,497548.73125770426,2010-12-05 04:47:04,2636.391740852429,7,45,-1.0997490882873535,2.8488786220550537,41.37936850351796,42.04773950784495,165.81602862507444,152.51325084432682,-0.0083856582641601,0.0970755815505981,0,0,0
13859,497560.902397287,2010-12-05 04:47:16,2648.5628803148606,7,45,-1.0997490882873535,2.699943780899048,41.37936850351796,42.051457617137565,165.81602862507444,152.5235744481643,-0.0102959154173731,0.0970755815505981,0,0,0
13860,497620.9053035296,2010-12-05 04:48:16,60.01456121733699,8,45,0.0,3.3445727825164795,41.37936850351796,42.051457617137565,165.81602862507444,152.5235744481643,0.0012627125252038,0.0970755815505981,0,0,0
13861,497621.1135645951,2010-12-05 04:48:16,0.203227734400605,9,45,-1.9243103452026844e-05,3.344734668731689,41.37936850351796,42.05145761822388,165.81602862507444,152.52357445179774,0.0,0.0953715816140174,0,0,0
13862,497625.9103474998,2010-12-05 04:48:21,5.00001064417994,9,45,0.0007031940040178,3.3520193099975586,41.3793693463531,42.05145761822388,165.81603144782437,152.52357445179774,0.001003646873869,0.0953715816140174,0,0,0
