Data_Point,Test_Time(s),Date_Time,Step_Time(s),Step_Index,Cycle_Index,Current(A),Voltage(V),Charge_Capacity(Ah),Discharge_Capacity(Ah),Charge_Energy(Wh),Discharge_Energy(Wh),dV/dt(V/s),Internal_Resistance(Ohm),Is_FC_Data,AC_Impedance(Ohm),ACI_Phase_Angle(Deg)
3008,108761.39134840292,2010-11-30 16:46:32,30.01501256935528,1,11,0.0,3.4269726276397705,8.80612140266136,9.465330262797698,35.33028372430055,34.3350999009464,0.0007446765666827,0.0978845432400703,0,0,0
3009,108791.40634733337,2010-11-30 16:47:02,60.030011484733166,1,11,0.0,3.450284004211426,8.80612140266136,9.465330262797698,35.33028372430055,34.3350999009464,0.0004856586456298,0.0978845432400703,0,0,0
3010,108821.42148446268,2010-11-30 16:47:32,90.04514862908853,1,11,0.0,3.4677677154541016,8.80612140266136,9.465330262797698,35.33028372430055,34.3350999009464,0.0003885269106831,0.0978845432400703,0,0,0
3011,108851.389496904,2010-11-30 16:48:02,120.01316105038308,1,11,0.0,3.481851816177368,8.80612140266136,9.465330262797698,35.33028372430055,34.3350999009464,0.0003237724304199,0.0978845432400703,0,0,0
3012,108881.40882141428,2010-11-30 16:48:32,30.01512619210111,2,11,0.5501165986061096,3.640823602676392,8.810707622156245,9.465330262797698,35.34683085809991,34.3350999009464,0.0014569759368896,0.0978845432400703,0,0,0
3013,108911.42374262628,2010-11-30 16:49:02,60.03004740912965,2,11,0.5497553944587708,3.684046983718872,8.815293856751294,9.465330262797698,35.36363440795765,34.3350999009464,0.0009713172912597,0.0978845432400703,0,0,0
3014,108941.43890036688,2010-11-30 16:49:32,90.04520516978789,2,11,0.5501165986061096,3.715452909469605,8.819880065708773,9.465330262797698,35.380605522079385,34.3350999009464,0.0007446765666827,0.0978845432400703,0,0,0
3015,108971.45378064705,2010-11-30 16:50:02,120.06008541987175,2,11,0.5501165986061096,3.7395739555358887,8.824466245344295,9.465330262797698,35.39770239500546,34.3350999009464,0.0005827903514727,0.0978845432400703,0,0,0
3016,109001.46883829356,2010-11-30 16:50:32,150.07514315662436,2,11,0.5499359965324402,3.759161949157715,8.829052358261983,9.465330262797698,35.41489895359285,34.3350999009464,0.0005180359003134,0.0978845432400703,0,0,0
3017,109031.48392452624,2010-11-30 16:51:02,180.0902293642256,2,11,0.5501165986061096,3.773893594741821,8.833638598027663,9.465330262797698,35.43217471367992,34.3350999009464,0.0003561496851034,0.0978845432400703,0,0,0
3018,109061.49930280064,2010-11-30 16:51:32,210.1056076536612,2,11,0.5499359965324402,3.783121109008789,8.838224917472374,9.465330262797698,35.4495060559118,34.3350999009464,0.0001618862152099,0.0978845432400703,0,0,0
3019,109091.51385013224,2010-11-30 16:52:02,240.1201549752654,2,11,0.5501165986061096,3.789272785186768,8.842811010538274,9.465330262797698,35.466871334228365,34.3350999009464,9.713172767078504e-05,0.0978845432400703,0,0,0
3020,109121.52884528328,2010-11-30 16:52:32,270.1351500661261,2,11,0.5501165986061096,3.7941293716430655,8.847397181878273,9.465330262797698,35.48426119800501,34.3350999009464,0.0001295089750783,0.0978845432400703,0,0,0
3021,109151.54399313428,2010-11-30 16:53:02,300.1502979070996,2,11,0.5499359965324402,3.798338413238525,8.851983397696912,9.465330262797698,35.5016718477473,34.3350999009464,9.713172767078504e-05,0.0978845432400703,0,0,0
3022,109181.55889335906,2010-11-30 16:53:32,330.16519813690223,2,11,0.5499359965324402,3.8023855686187744,8.85656957707748,9.465330262797698,35.51910166861997,34.3350999009464,6.47544875391759e-05,0.0978845432400703,0,0,0
3023,109211.57403935544,2010-11-30 16:54:02,360.180344138298,2,11,0.5501165986061096,3.8067564964294434,8.861155804825092,9.465330262797698,35.5365504720453,34.3350999009464,0.0001295089750783,0.0978845432400703,0,0,0
3024,109241.58891213192,2010-11-30 16:54:32,390.1952168997467,2,11,0.5499359965324402,3.8103179931640634,8.865741999954377,9.465330262797698,35.5540172330684,34.3350999009464,6.47544875391759e-05,0.0978845432400703,0,0,0
3025,109271.60393171875,2010-11-30 16:55:02,420.2102364915771,2,11,0.5499359965324402,3.814365148544312,8.87032821112452,9.465330262797698,35.571501669944425,34.3350999009464,0.0001295089750783,0.0978845432400703,0,0,0
3026,109301.61897346572,2010-11-30 16:55:32,450.2252782686146,2,11,0.5499359965324402,3.8180885314941406,8.874914360638845,9.465330262797698,35.58900324448053,34.3350999009464,9.713172767078504e-05,0.0978845432400703,0,0,0
3027,109331.636289437,2010-11-30 16:56:02,480.2425943100717,2,11,0.5501165986061096,3.8218119144439697,8.879500921430134,9.465330262797698,35.60652334485644,34.3350999009464,0.0001295089750783,0.0978845432400703,0,0,0
3028,109361.64898034898,2010-11-30 16:56:32,510.2552851318473,2,11,0.5501165986061096,3.825211524963379,8.884086653812556,9.465330262797698,35.62405677187743,34.3350999009464,6.47544875391759e-05,0.0978845432400703,0,0,0
3029,109391.6657562764,2010-11-30 16:57:02,540.2720612146379,2,11,0.5499359965324402,3.828773021697998,8.88867310551821,9.465330262797698,35.64160918141067,34.3350999009464,6.47544875391759e-05,0.0978845432400703,0,0,0
3030,109421.6792302871,2010-11-30 16:57:32,570.2855350649501,2,11,0.5501165986061096,3.8321726322174072,8.893259009897355,9.465330262797698,35.65917548815036,34.3350999009464,6.47544875391759e-05,0.0978845432400703,0,0,0
3031,109451.68011721032,2010-11-30 16:58:02,600.286422038303,2,11,0.5501165986061096,3.8357338905334473,8.897843001746711,9.465330262797698,35.676750124491384,34.3350999009464,9.713172767078504e-05,0.0978845432400703,0,0,0
3032,109481.69341031589,2010-11-30 16:58:32,630.2997150987264,2,11,0.5501165986061096,3.8389716148376474,8.902428840015771,9.465330262797698,35.69434751383648,34.3350999009464,6.47544875391759e-05,0.0978845432400703,0,0,0
3033,109511.7106477016,2010-11-30 16:59:02,660.3169525897137,2,11,0.5501165986061096,3.8425331115722656,8.907015230887193,9.465330262797698,35.71196275431608,34.3350999009464,9.713172767078504e-05,0.0978845432400703,0,0,0
3034,109541.72343297844,2010-11-30 16:59:32,690.3297377562626,2,11,0.5501165986061096,3.845770835876465,8.911601078465244,9.465330262797698,35.72959173623654,34.3350999009464,3.237724376958795e-05,0.0978845432400703,0,0,0
3035,109571.73848053986,2010-11-30 17:00:02,720.3447853227069,2,11,0.5499359965324402,3.849494218826294,8.916187289917241,9.465330262797698,35.747238286038886,34.3350999009464,6.47544875391759e-05,0.0978845432400703,0,0,0
3036,109601.75347453298,2010-11-30 17:00:32,750.3597793108236,2,11,0.5501165986061096,3.853055715560913,8.920773516365518,9.465330262797698,35.76490109999206,34.3350999009464,9.713172767078504e-05,0.0978845432400703,0,0,0
3037,109631.76859878024,2010-11-30 17:01:02,780.37490356811,2,11,0.5501165986061096,3.856617212295532,8.925359743383705,9.465330262797698,35.78258012972577,34.3350999009464,9.713172767078504e-05,0.0978845432400703,0,0,0
3038,109661.78350057895,2010-11-30 17:01:32,810.3898053517792,2,11,0.5501165986061096,3.860178709030152,8.929945884838403,9.465330262797698,35.800275229306635,34.3350999009464,9.713172767078504e-05,0.0978845432400703,0,0,0
3039,109691.79862030996,2010-11-30 17:02:02,840.4049251830517,2,11,0.5499359965324402,3.8637402057647705,8.934532103895863,9.465330262797698,35.817987021004754,34.3350999009464,6.47544875391759e-05,0.0978845432400703,0,0,0
3040,109721.8135189458,2010-11-30 17:02:32,870.4198237386884,2,11,0.5499359965324402,3.86713981628418,8.939118237184077,9.465330262797698,35.83571466453271,34.3350999009464,6.47544875391759e-05,0.0978845432400703,0,0,0
3041,109751.82857059744,2010-11-30 17:03:02,900.4348754654853,2,11,0.550297200679779,3.870863199234009,8.94370440852274,9.465330262797698,35.85345858948517,34.3350999009464,0.0001295089750783,0.0978845432400703,0,0,0
3042,109781.8435697183,2010-11-30 17:03:32,930.4498744911376,2,11,0.550297200679779,3.874262809753418,8.948290627027452,9.465330262797698,35.87121856604843,34.3350999009464,9.713172767078504e-05,0.0978845432400703,0,0,0
3043,109811.85857917993,2010-11-30 17:04:02,960.4648839527594,2,11,0.5501165986061096,3.877500534057617,8.952876814334832,9.465330262797698,35.88899395571847,34.3350999009464,9.713172767078504e-05,0.0978845432400703,0,0,0
3044,109841.87359006007,2010-11-30 17:04:32,990.479894862986,2,11,0.5499359965324402,3.880738258361816,8.957463013240899,9.465330262797698,35.90678459098707,34.3350999009464,6.47544875391759e-05,0.0978845432400703,0,0,0
3045,109871.88859089524,2010-11-30 17:05:02,1020.4948956680664,2,11,0.550297200679779,3.8841378688812256,8.962049189507406,9.465330262797698,35.924589973120824,34.3350999009464,9.713172767078504e-05,0.0978845432400703,0,0,0
3046,109901.90360928907,2010-11-30 17:05:33,1050.509914086978,2,11,0.5501165986061096,3.887051820755005,8.966635406288706,9.465330262797698,35.942409808657985,34.3350999009464,6.47544875391759e-05,0.0978845432400703,0,0,0
3047,109931.91877602208,2010-11-30 17:06:03,1080.5250808099386,2,11,0.5501165986061096,3.889965772628784,8.971221655410112,9.465330262797698,35.96024344477473,34.3350999009464,6.47544875391759e-05,0.0978845432400703,0,0,0
3048,109961.9336398112,2010-11-30 17:06:33,1110.539944589035,2,11,0.5501165986061096,3.8927178382873535,8.975807837670143,9.465330262797698,35.97808985802388,34.3350999009464,6.47544875391759e-05,0.0978845432400703,0,0,0
3049,109991.94867250563,2010-11-30 17:07:03,1140.5549772784584,2,11,0.5499359965324402,3.895146131515503,8.98039413537958,9.465330262797698,35.995949001094594,34.3350999009464,6.47544875391759e-05,0.0978845432400703,0,0,0
3050,110021.9655058058,2010-11-30 17:07:33,1170.5718106788815,2,11,0.5501165986061096,3.8977363109588623,8.984980535169553,9.465330262797698,36.013819851102944,34.3350999009464,9.713172767078504e-05,0.0978845432400703,0,0,0
3051,110051.9789459773,2010-11-30 17:08:03,1200.585250845373,2,11,0.5501165986061096,3.9000027179718018,8.989566483078594,9.465330262797698,36.031699905785885,34.3350999009464,3.237724376958795e-05,0.0978845432400703,0,0,0
3052,110081.9937109806,2010-11-30 17:08:33,1230.600015753433,2,11,0.5501165986061096,3.902431011199951,8.994152660606863,9.465330262797698,36.04959102240412,34.3350999009464,0.0001295089750783,0.0978845432400703,0,0,0
3053,110112.00873930918,2010-11-30 17:09:03,1260.6150441672162,2,11,0.5501165986061096,3.9042117595672607,8.998738873531165,9.465330262797698,36.06749185561343,34.3350999009464,6.47544875391759e-05,0.0978845432400703,0,0,0
3054,110142.0237365604,2010-11-30 17:09:33,1290.6300413482784,2,11,0.5499359965324402,3.90615439414978,9.003325111183292,9.465330262797698,36.085401682692776,34.3350999009464,6.47544875391759e-05,0.0978845432400703,0,0,0
3055,110172.03875602192,2010-11-30 17:10:03,1320.645060804772,2,11,0.5501165986061096,3.90777325630188,9.0079112633803,9.465330262797698,36.10331949508973,34.3350999009464,3.237724376958795e-05,0.0978845432400703,0,0,0
3056,110202.05377613504,2010-11-30 17:10:33,1350.6600809178994,2,11,0.5499359965324402,3.9095540046691895,9.012497465068725,9.465330262797698,36.12124535034819,34.3350999009464,6.47544875391759e-05,0.0978845432400703,0,0,0
3057,110232.0687773762,2010-11-30 17:11:03,1380.6750821590647,2,11,0.5501165986061096,3.911172866821289,9.017083659535423,9.465330262797698,36.13917867734112,34.3350999009464,9.713172767078504e-05,0.0978845432400703,0,0,0
3058,110262.08378339426,2010-11-30 17:11:33,1410.6900881971676,2,11,0.5501165986061096,3.9126298427581783,9.021669830077316,9.465330262797698,36.15711908086075,34.3350999009464,0.0,0.0978845432400703,0,0,0
3059,110292.0988851756,2010-11-30 17:12:03,1440.7051900386732,2,11,0.5501165986061096,3.914086580276489,9.026256003006903,9.465330262797698,36.17506640919324,34.3350999009464,3.237724376958795e-05,0.0978845432400703,0,0,0
3060,110322.11380976604,2010-11-30 17:12:33,1470.7201145388717,2,11,0.5501165986061096,3.915543556213379,9.030842173394436,9.465330262797698,36.19302054415056,34.3350999009464,3.237724376958795e-05,0.0978845432400703,0,0,0
3061,110352.12883144808,2010-11-30 17:13:03,1500.7351362509785,2,11,0.5499359965324402,3.917000532150269,9.03542837262667,9.465330262797698,36.21098133006234,34.3350999009464,3.237724376958795e-05,0.0978845432400703,0,0,0
3062,110382.14384379688,2010-11-30 17:13:33,1530.7501485947726,2,11,0.550297200679779,3.918457508087158,9.040014557262376,9.465330262797698,36.22894872971922,34.3350999009464,6.47544875391759e-05,0.0978845432400703,0,0,0
3063,110412.15900906122,2010-11-30 17:14:03,1560.765313844066,2,11,0.5501165986061096,3.919914484024048,9.0446007511234,9.465330262797698,36.24692264514509,34.3350999009464,3.237724376958795e-05,0.0978845432400703,0,0,0
3064,110442.17388421862,2010-11-30 17:14:33,1590.7801890165142,2,11,0.550297200679779,3.921209573745728,9.049186911589397,9.465330262797698,36.26490289021243,34.3350999009464,3.237724376958795e-05,0.0978845432400703,0,0,0
3065,110472.18889251734,2010-11-30 17:15:03,1620.7951973002048,2,11,0.5501165986061096,3.922666549682617,9.053773074700002,9.465330262797698,36.28288961545601,34.3350999009464,3.237724376958795e-05,0.0978845432400703,0,0,0
3066,110502.20403017296,2010-11-30 17:15:33,1650.8103349558326,2,11,0.5501165986061096,3.924123525619507,9.058359243028082,9.465330262797698,36.300882868917526,34.3350999009464,6.47544875391759e-05,0.0978845432400703,0,0,0
3067,110532.21893232256,2010-11-30 17:16:03,1680.8252371003998,2,11,0.550297200679779,3.9257423877716064,9.062945388011345,9.465330262797698,36.31888252909396,34.3350999009464,9.713172767078504e-05,0.0978845432400703,0,0,0
3068,110562.23405570768,2010-11-30 17:16:33,1710.8403604905284,2,11,0.5499359965324402,3.926875591278076,9.067531594973769,9.465330262797698,36.33688885633429,34.3350999009464,6.47544875391759e-05,0.0978845432400703,0,0,0
3069,110592.2490249041,2010-11-30 17:17:03,1740.8553297771762,2,11,0.5501165986061096,3.928332567214966,9.072117791952063,9.465330262797698,36.354901676786646,34.3350999009464,3.237724376958795e-05,0.0978845432400703,0,0,0
3070,110622.26602738026,2010-11-30 17:17:33,1770.872332253338,2,11,0.5499359965324402,3.929789543151856,9.07670426888316,9.465330262797698,36.37292214342811,34.3350999009464,6.47544875391759e-05,0.0978845432400703,0,0,0
3071,110652.27900726136,2010-11-30 17:18:03,1800.885312034177,2,11,0.5501165986061096,3.931246519088745,9.081290217798188,9.465330262797698,36.39094722572696,34.3350999009464,3.237724376958795e-05,0.0978845432400703,0,0,0
3072,110682.293994232,2010-11-30 17:18:33,1830.9002990198687,2,11,0.550297200679779,3.9327034950256343,9.085876485090395,9.465330262797698,36.40898017342092,34.3350999009464,6.47544875391759e-05,0.0978845432400703,0,0,0
3073,110712.3091297072,2010-11-30 17:19:03,1860.9154344900576,2,11,0.5501165986061096,3.934160470962525,9.090462686226438,9.465330262797698,36.42701946286602,34.3350999009464,3.237724376958795e-05,0.0978845432400703,0,0,0
3074,110742.32404957588,2010-11-30 17:19:33,1890.9303543737688,2,11,0.5499359965324402,3.935617446899414,9.095048902395376,9.465330262797698,36.44506554589126,34.3350999009464,3.237724376958795e-05,0.0978845432400703,0,0,0
3075,110772.33905283205,2010-11-30 17:20:03,1920.945357604886,2,11,0.5501165986061096,3.937074422836304,9.09963509646137,9.465330262797698,36.463118116458205,34.3350999009464,6.47544875391759e-05,0.0978845432400703,0,0,0
3076,110802.35404359216,2010-11-30 17:20:33,1950.9603483699825,2,11,0.5501165986061096,3.9386932849884033,9.104221269938051,9.465330262797698,36.48117750696375,34.3350999009464,9.713172767078504e-05,0.0978845432400703,0,0,0
3077,110832.36921627994,2010-11-30 17:21:03,1980.9755210627984,2,11,0.5501165986061096,3.939988374710083,9.108807462547333,9.465330262797698,36.49924372172522,34.3350999009464,3.237724376958795e-05,0.0978845432400703,0,0,0
3078,110862.38415078504,2010-11-30 17:21:33,2010.9904555829312,2,11,0.5501165986061096,3.9414453506469727,9.11339362706696,9.465330262797698,36.51731669973098,34.3350999009464,3.237724376958795e-05,0.0978845432400703,0,0,0
3079,110892.39923325332,2010-11-30 17:22:03,2041.0055380913277,2,11,0.5501165986061096,3.9429023265838623,9.11797987641348,9.465330262797698,36.535396824250725,34.3350999009464,3.237724376958795e-05,0.0978845432400703,0,0,0
3080,110922.4141079546,2010-11-30 17:22:33,2071.020412727441,2,11,0.550297200679779,3.944683074951172,9.12256609506742,9.465330262797698,36.55348382037201,34.3350999009464,6.47544875391759e-05,0.0978845432400703,0,0,0
3081,110952.4291242432,2010-11-30 17:23:03,2101.0354290260766,2,11,0.5499359965324402,3.9461400508880615,9.127152316776744,9.465330262797698,36.57157784051172,34.3350999009464,6.47544875391759e-05,0.0978845432400703,0,0,0
3082,110982.4441310332,2010-11-30 17:23:33,2131.05043581605,2,11,0.5501165986061096,3.947435140609741,9.131738523190071,9.465330262797698,36.589678725329954,34.3350999009464,0.0,0.0978845432400703,0,0,0
3083,111012.45956736204,2010-11-30 17:24:03,2161.065872215089,2,11,0.550297200679779,3.949215888977051,9.1363247930241,9.465330262797698,36.607786968308346,34.3350999009464,6.47544875391759e-05,0.0978845432400703,0,0,0
3084,111042.47422077268,2010-11-30 17:24:33,2191.080525610654,2,11,0.5499359965324402,3.950672864913941,9.140910955181765,9.465330262797698,36.62590182172964,34.3350999009464,6.47544875391759e-05,0.0978845432400703,0,0,0
3085,111072.48918103184,2010-11-30 17:25:03,2221.095485804676,2,11,0.5501165986061096,3.95229172706604,9.14549763435958,9.465330262797698,36.6440258543069,34.3350999009464,6.47544875391759e-05,0.0978845432400703,0,0,0
3086,111102.50422391164,2010-11-30 17:25:33,2251.110528774682,2,11,0.5501165986061096,3.95391058921814,9.150084699999065,9.465330262797698,36.662158594776216,34.3350999009464,6.47544875391759e-05,0.0978845432400703,0,0,0
3087,111132.51922878182,2010-11-30 17:26:03,2281.1255335696906,2,11,0.5501165986061096,3.955367565155029,9.154671228235358,9.465330262797698,36.68029636177818,34.3350999009464,3.237724376958795e-05,0.0978845432400703,0,0,0
3088,111162.53422483508,2010-11-30 17:26:33,2311.140529607909,2,11,0.5501165986061096,3.956986427307129,9.159257471074506,9.465330262797698,36.69844024044036,34.3350999009464,3.237724376958795e-05,0.0978845432400703,0,0,0
3089,111192.54923952972,2010-11-30 17:27:03,2341.1555443125776,2,11,0.550297200679779,3.958605289459229,9.163843669397734,9.465330262797698,36.716591003004616,34.3350999009464,6.47544875391759e-05,0.0978845432400703,0,0,0
3090,111222.56630526832,2010-11-30 17:27:33,2371.172610136377,2,11,0.5501165986061096,3.960224151611328,9.168430226166596,9.465330262797698,36.7347505290575,34.3350999009464,6.47544875391759e-05,0.0978845432400703,0,0,0
3091,111252.57930285847,2010-11-30 17:28:03,2401.185607641323,2,11,0.5499359965324402,3.961519241333008,9.17301612023175,9.465330262797698,36.752914733641234,34.3350999009464,3.237724376958795e-05,0.0978845432400703,0,0,0
3092,111282.59639846638,2010-11-30 17:28:33,2431.202703329439,2,11,0.5499359965324402,3.963299989700317,9.177602657429688,9.465330262797698,36.77108879707166,34.3350999009464,6.47544875391759e-05,0.0978845432400703,0,0,0
3093,111312.6093053057,2010-11-30 17:29:03,2461.215610083554,2,11,0.5501165986061096,3.964918851852417,9.182188559714684,9.465330262797698,36.78926778502123,34.3350999009464,3.237724376958795e-05,0.0978845432400703,0,0,0
3094,111342.62431612068,2010-11-30 17:29:33,2491.230620893531,2,11,0.5501165986061096,3.9665377140045166,9.186774851905428,9.465330262797698,36.80745582560995,34.3350999009464,3.237724376958795e-05,0.0978845432400703,0,0,0
3095,111372.64105695076,2010-11-30 17:30:03,2521.247361828859,2,11,0.5499359965324402,3.968318462371826,9.191361496538788,9.465330262797698,36.82565280478441,34.3350999009464,6.47544875391759e-05,0.0978845432400703,0,0,0
3096,111402.65435663768,2010-11-30 17:30:33,2551.2606614105102,2,11,0.550297200679779,3.969937324523926,9.195947481604724,9.465330262797698,36.843854817640384,34.3350999009464,6.47544875391759e-05,0.0978845432400703,0,0,0
3097,111432.67149052586,2010-11-30 17:31:03,2581.27779538891,2,11,0.550297200679779,3.9717180728912354,9.200534043152432,9.465330262797698,36.862066858640034,34.3350999009464,3.237724376958795e-05,0.0978845432400703,0,0,0
3098,111462.68442103908,2010-11-30 17:31:33,2611.290725836987,2,11,0.550297200679779,3.973336935043335,9.205120031954454,9.465330262797698,36.88028437778459,34.3350999009464,6.47544875391759e-05,0.0978845432400703,0,0,0
3099,111492.69941317762,2010-11-30 17:32:03,2641.305717950438,2,11,0.5501165986061096,3.9749557971954346,9.209706316876572,9.465330262797698,36.8985108878323,34.3350999009464,3.237724376958795e-05,0.0978845432400703,0,0,0
3100,111522.7144134614,2010-11-30 17:32:33,2671.320718239234,2,11,0.5499359965324402,3.976574659347534,9.214292673076976,9.465330262797698,36.916745516016114,34.3350999009464,3.237724376958795e-05,0.0978845432400703,0,0,0
3101,111552.7295513526,2010-11-30 17:33:03,2701.3358561354603,2,11,0.5499359965324402,3.978355407714844,9.218879111390857,9.465330262797698,36.93498799810359,34.3350999009464,9.713172767078504e-05,0.0978845432400703,0,0,0
3102,111582.74445502595,2010-11-30 17:33:33,2731.3507598038195,2,11,0.5499359965324402,3.980136156082153,9.223465312423938,9.465330262797698,36.95323786236184,34.3350999009464,3.237724376958795e-05,0.0978845432400703,0,0,0
3103,111612.75948654248,2010-11-30 17:34:03,2761.3657913253364,2,11,0.5499359965324402,3.981755018234253,9.228051516379956,9.465330262797698,36.97149587498111,34.3350999009464,3.237724376958795e-05,0.0978845432400703,0,0,0
3104,111642.77437587015,2010-11-30 17:34:33,2791.3806806530097,2,11,0.5495747923851013,3.9835357666015625,9.232637708169344,9.465330262797698,36.9897619605164,34.3350999009464,3.237724376958795e-05,0.0978845432400703,0,0,0
3105,111672.78949145084,2010-11-30 17:35:03,2821.395796233705,2,11,0.5501165986061096,3.985478401184082,9.237223849820912,9.465330262797698,37.00803611601624,34.3350999009464,3.237724376958795e-05,0.0978845432400703,0,0,0
3106,111702.8044293945,2010-11-30 17:35:33,2851.410734167332,2,11,0.5501165986061096,3.987259149551392,9.241810014498636,9.465330262797698,37.02631864058076,34.3350999009464,3.237724376958795e-05,0.0978845432400703,0,0,0
3107,111732.81956112538,2010-11-30 17:36:03,2881.425865898216,2,11,0.550297200679779,3.989363670349121,9.246396305399829,9.465330262797698,37.04461004497392,34.3350999009464,9.713172767078504e-05,0.0978845432400703,0,0,0
3108,111762.83461420052,2010-11-30 17:36:33,2911.440919093668,2,11,0.5501165986061096,3.9909825325012207,9.250982490654804,9.465330262797698,37.06290941660925,34.3350999009464,6.47544875391759e-05,0.0978845432400703,0,0,0
3109,111792.84957884563,2010-11-30 17:37:03,2941.455883618466,2,11,0.5501165986061096,3.99292516708374,9.255568676917877,9.465330262797698,37.08121728785747,34.3350999009464,6.47544875391759e-05,0.0978845432400703,0,0,0
3110,111822.86646867648,2010-11-30 17:37:34,2971.472773504451,2,11,0.550297200679779,3.99502944946289,9.260155093240485,9.465330262797698,37.09953462825979,34.3350999009464,0.0001295089750783,0.0978845432400703,0,0,0
3111,111852.87989134944,2010-11-30 17:38:04,3001.4861962175105,2,11,0.5499359965324402,3.99648642539978,9.26474096068208,9.465330262797698,37.11785851939224,34.3350999009464,0.0,0.0978845432400703,0,0,0
3112,111882.89462373656,2010-11-30 17:38:34,3031.500928529456,2,11,0.5501165986061096,3.9985909461975098,9.26932705396658,9.465330262797698,37.13619214906847,34.3350999009464,3.237724376958795e-05,0.0978845432400703,0,0,0
3113,111912.90961241648,2010-11-30 17:39:04,3061.515917214376,2,11,0.5501165986061096,4.000533580780029,9.27391318361264,9.465330262797698,37.15453474605964,34.3350999009464,9.70840483205393e-05,0.0978845432400703,0,0,0
3114,111942.92475865848,2010-11-30 17:39:34,3091.531063431308,2,11,0.550297200679779,4.002476215362549,9.278499306999764,9.465330262797698,37.17288641786415,34.3350999009464,3.23295607813634e-05,0.0978845432400703,0,0,0
3115,111972.93988166764,2010-11-30 17:40:04,3121.5461865056504,2,11,0.5501165986061096,4.004418849945068,9.28308550926908,9.465330262797698,37.19124752291093,34.3350999009464,3.23295607813634e-05,0.0978845432400703,0,0,0
3116,112002.95479270436,2010-11-30 17:40:34,3151.5610974771835,2,11,0.5499359965324402,4.006361484527588,9.287671601424188,9.465330262797698,37.20961740334949,34.3350999009464,0.0,0.0978845432400703,0,0,0
3117,112032.96971224724,2010-11-30 17:41:04,3181.5760170250587,2,11,0.5501165986061096,4.008627891540527,9.292257776848825,9.465330262797698,37.22799691940523,34.3350999009464,6.47544875391759e-05,0.0978845432400703,0,0,0
3118,112062.98470227046,2010-11-30 17:41:34,3211.591007043296,2,11,0.550297200679779,4.010732650756836,9.29684395394998,9.465330262797698,37.24638556899036,34.3350999009464,6.47544875391759e-05,0.0978845432400703,0,0,0
3119,112092.9998697453,2010-11-30 17:42:04,3241.6061745231405,2,11,0.5501165986061096,4.012675285339356,9.301430122467918,9.465330262797698,37.264783489797054,34.3350999009464,6.47544875391759e-05,0.0978845432400703,0,0,0
3120,112123.01474765956,2010-11-30 17:42:34,3271.621052537661,2,11,0.5499359965324402,4.014617919921875,9.30601623741824,9.465330262797698,37.28319053784104,34.3350999009464,3.24249267578125e-05,0.0978845432400703,0,0,0
3121,112153.02977445432,2010-11-30 17:43:04,3301.636079237179,2,11,0.5501165986061096,4.016722202301025,9.310602360228089,9.465330262797698,37.30160703133615,34.3350999009464,3.23295607813634e-05,0.0978845432400703,0,0,0
3122,112183.04476710912,2010-11-30 17:43:34,3331.651071886965,2,11,0.5499359965324402,4.018826961517334,9.315188511590971,9.465330262797698,37.32003317745375,34.3350999009464,3.24249267578125e-05,0.0978845432400703,0,0,0
3123,112213.05979321216,2010-11-30 17:44:04,3361.6660979899984,2,11,0.5499359965324402,4.020931243896484,9.319774624133672,9.465330262797698,37.33846870392138,34.3350999009464,3.23295607813634e-05,0.0978845432400703,0,0,0
3124,112243.07479485932,2010-11-30 17:44:34,3391.681099632161,2,11,0.5501165986061096,4.023197650909424,9.324360794755956,9.465330262797698,37.35691442233904,34.3350999009464,3.23295607813634e-05,0.0978845432400703,0,0,0
3125,112273.08993080573,2010-11-30 17:45:04,3421.6962355785354,2,11,0.5499359965324402,4.025302410125732,9.32894697964672,9.465330262797698,37.37537023223794,34.3350999009464,3.24249267578125e-05,0.0978845432400703,0,0,0
3126,112303.10484618822,2010-11-30 17:45:34,3451.711150981095,2,11,0.5501165986061096,4.027568817138672,9.33353308282663,9.465330262797698,37.39383599093838,34.3350999009464,9.71794142969884e-05,0.0978845432400703,0,0,0
3127,112333.11986346428,2010-11-30 17:46:04,3481.726168237113,2,11,0.550297200679779,4.029996871948242,9.338119300298333,9.465330262797698,37.41231256075696,34.3350999009464,9.70840483205393e-05,0.0978845432400703,0,0,0
3128,112363.13501291424,2010-11-30 17:46:34,3511.7413177522526,2,11,0.5499359965324402,4.032263278961182,9.342705441144666,9.465330262797698,37.43079929774965,34.3350999009464,9.70840483205393e-05,0.0978845432400703,0,0,0
3129,112393.149875751,2010-11-30 17:47:04,3541.756180543892,2,11,0.5501165986061096,4.034529685974121,9.34729158344792,9.465330262797698,37.44929677237352,34.3350999009464,6.47544875391759e-05,0.0978845432400703,0,0,0
3130,112423.16670003875,2010-11-30 17:47:34,3571.773004931888,2,11,0.5501165986061096,4.036957740783691,9.351878065234724,9.465330262797698,37.46780635845701,34.3350999009464,6.47544875391759e-05,0.0978845432400703,0,0,0
3131,112453.17991433818,2010-11-30 17:48:04,3601.7862191110185,2,11,0.5501165986061096,4.039224147796631,9.356463875681037,9.465330262797698,37.486324172035786,34.3350999009464,3.23295607813634e-05,0.0978845432400703,0,0,0
3132,112483.19503393889,2010-11-30 17:48:34,3631.8013387117167,2,11,0.5501165986061096,4.041652679443359,9.3610500437843,9.465330262797698,37.504854303227525,34.3350999009464,9.71794142969884e-05,0.0978845432400703,0,0,0
3133,112513.20999230836,2010-11-30 17:49:04,3661.81629710626,2,11,0.5501165986061096,4.04408073425293,9.365636182537685,9.465330262797698,37.523395403302025,34.3350999009464,6.47544875391759e-05,0.0978845432400703,0,0,0
3134,112543.22523639385,2010-11-30 17:49:34,3691.8315411766966,2,11,0.5501165986061096,4.046509265899658,9.370222481624475,9.465330262797698,37.54194836321449,34.3350999009464,6.47544875391759e-05,0.0978845432400703,0,0,0
3135,112573.240031482,2010-11-30 17:50:04,3721.8463362548346,2,11,0.5501165986061096,4.049099445343018,9.374808640693724,9.465330262797698,37.560511997727545,34.3350999009464,9.71794142969884e-05,0.0978845432400703,0,0,0
3136,112603.25503184098,2010-11-30 17:50:34,3751.8613366138047,2,11,0.5499359965324402,4.051365852355957,9.379394871070932,9.465330262797698,37.57908716999342,34.3350999009464,6.47544875391759e-05,0.0978845432400703,0,0,0
3137,112633.27004650052,2010-11-30 17:51:04,3781.8763512733617,2,11,0.5501165986061096,4.053956031799316,9.383981058594372,9.465330262797698,37.5976734336482,34.3350999009464,9.71794142969884e-05,0.0978845432400703,0,0,0
3138,112663.28519251697,2010-11-30 17:51:34,3811.891497299819,2,11,0.5501165986061096,4.056546211242676,9.388567295816795,9.465330262797698,37.61627137546096,34.3350999009464,6.47544875391759e-05,0.0978845432400703,0,0,0
3139,112693.30024303574,2010-11-30 17:52:04,3841.9065478186094,2,11,0.550297200679779,4.058974266052246,9.393153538502157,9.465330262797698,37.63488097468895,34.3350999009464,3.23295607813634e-05,0.0978845432400703,0,0,0
3140,112723.3152217308,2010-11-30 17:52:34,3871.9215265637954,2,11,0.5501165986061096,4.0615644454956055,9.397739784472192,9.465330262797698,37.65350216946169,34.3350999009464,6.47544875391759e-05,0.0978845432400703,0,0,0
3141,112753.33011138932,2010-11-30 17:53:04,3901.936416162142,2,11,0.5501165986061096,4.063992977142334,9.4023259246232,9.465330262797698,37.67213471214629,34.3350999009464,3.24249267578125e-05,0.0978845432400703,0,0,0
3142,112783.3451236479,2010-11-30 17:53:34,3931.951428425736,2,11,0.550297200679779,4.066744804382324,9.406912096573892,9.465330262797698,37.69077943802933,34.3350999009464,9.70840483205393e-05,0.0978845432400703,0,0,0
3143,112813.36028967412,2010-11-30 17:54:04,3961.9665944469502,2,11,0.550297200679779,4.069658756256104,9.411498263254432,9.465330262797698,37.70943636335471,34.3350999009464,0.0001295089750783,0.0978845432400703,0,0,0
3144,112843.3751633729,2010-11-30 17:54:34,3991.981468145732,2,11,0.5499359965324402,4.072087287902832,9.416084426899982,9.465330262797698,37.72810562723418,34.3350999009464,9.71794142969884e-05,0.0978845432400703,0,0,0
3145,112873.3901864083,2010-11-30 17:55:04,4021.996491251306,2,11,0.5499359965324402,4.074839115142822,9.420670513568336,9.465330262797698,37.74678700460806,34.3350999009464,9.70840483205393e-05,0.0978845432400703,0,0,0
3146,112903.405194697,2010-11-30 17:55:34,4052.011499474848,2,11,0.5501165986061096,4.077591419219971,9.425256675314513,9.465330262797698,37.76548130192014,34.3350999009464,6.47544875391759e-05,0.0978845432400703,0,0,0
3147,112933.42069852883,2010-11-30 17:56:04,4082.027003396915,2,11,0.5501165986061096,4.08050537109375,9.429842885574486,9.465330262797698,37.78418856587408,34.3350999009464,9.71794142969884e-05,0.0978845432400703,0,0,0
3148,112963.43523672776,2010-11-30 17:56:34,4112.041541500581,2,11,0.5499359965324402,4.083095550537109,9.43442898969853,9.465330262797698,37.80290823085755,34.3350999009464,6.47544875391759e-05,0.0978845432400703,0,0,0
3149,112993.45025160284,2010-11-30 17:57:04,4142.056556375674,2,11,0.5501165986061096,4.086009502410889,9.43901519978531,9.465330262797698,37.82164137806428,34.3350999009464,3.24249267578125e-05,0.0978845432400703,0,0,0
3150,113023.4671027374,2010-11-30 17:57:34,4172.073407605464,2,11,0.5501165986061096,4.089085102081299,9.44360165854738,9.465330262797698,37.84038859428247,34.3350999009464,9.70840483205393e-05,0.0978845432400703,0,0,0
3151,113053.4803109968,2010-11-30 17:58:04,4202.086615769626,2,11,0.550297200679779,4.091837406158447,9.448187572610593,9.465330262797698,37.85914675775278,34.3350999009464,6.47544875391759e-05,0.0978845432400703,0,0,0
3152,113083.49532124535,2010-11-30 17:58:34,4232.101626023219,2,11,0.5501165986061096,4.094751358032227,9.452773709678045,9.465330262797698,37.877918951751234,34.3350999009464,9.71794142969884e-05,0.0978845432400703,0,0,0
3153,113113.51034057156,2010-11-30 17:59:04,4262.116645444626,2,11,0.5501165986061096,4.097665309906006,9.45735988490688,9.465330262797698,37.89670466832225,34.3350999009464,0.0001295089750783,0.0978845432400703,0,0,0
3154,113143.52536005812,2010-11-30 17:59:34,4292.131664856008,2,11,0.5501165986061096,4.100740909576416,9.461946045046648,9.465330262797698,37.91550386795232,34.3350999009464,0.0001295089750783,0.0978845432400703,0,0,0
3155,113173.54036939442,2010-11-30 18:00:04,4322.146674172267,2,11,0.5499359965324402,4.1034932136535645,9.466532194239273,9.465330262797698,37.93431675858512,34.3350999009464,3.24249267578125e-05,0.0978845432400703,0,0,0
3156,113203.557513493,2010-11-30 18:00:34,4352.163818356064,2,11,0.5501165986061096,4.106568813323975,9.471118703334865,9.465330262797698,37.95314505598077,34.3350999009464,6.47544875391759e-05,0.0978845432400703,0,0,0
3157,113233.5705201858,2010-11-30 18:01:04,4382.176825023809,2,11,0.5499359965324402,4.109482765197754,9.475704527205844,9.465330262797698,37.97198433975484,34.3350999009464,3.23295607813634e-05,0.0978845432400703,0,0,0
3158,113263.58540299226,2010-11-30 18:01:34,4412.191707765092,2,11,0.5499359965324402,4.112558841705322,9.480290615108002,9.465330262797698,37.99083869888245,34.3350999009464,6.47544875391759e-05,0.0978845432400703,0,0,0
3159,113293.60229211132,2010-11-30 18:02:04,4442.2085970144935,2,11,0.5499359965324402,4.115796089172363,9.484877047221737,9.465330262797698,38.009708645711896,34.3350999009464,6.47544875391759e-05,0.0978845432400703,0,0,0
3160,113323.61544499797,2010-11-30 18:02:34,4472.221749775787,2,11,0.550297200679779,4.1190338134765625,9.489462930720473,9.465330262797698,38.02859058776152,34.3350999009464,9.70840483205393e-05,0.0978845432400703,0,0,0
3161,113353.63253653071,2010-11-30 18:03:04,4502.238841393776,2,11,0.5501165986061096,4.122109889984131,9.494049403196248,9.465330262797698,38.04748923560551,34.3350999009464,9.71794142969884e-05,0.0978845432400703,0,0,0
3162,113383.6454703572,2010-11-30 18:03:34,4532.251775135048,2,11,0.5501165986061096,4.12534761428833,9.498635262006918,9.465330262797698,38.06639967872117,34.3350999009464,9.71794142969884e-05,0.0978845432400703,0,0,0
3163,113413.66053747229,2010-11-30 18:04:04,4562.26684233535,2,11,0.5501165986061096,4.12842321395874,9.50322139689546,9.465330262797698,38.08532578319876,34.3350999009464,9.70840483205393e-05,0.0978845432400703,0,0,0
3164,113443.67552325,2010-11-30 18:04:34,4592.281828027823,2,11,0.5501165986061096,4.13166093826294,9.507807520741748,9.465330262797698,38.10426658255656,34.3350999009464,9.70840483205393e-05,0.0978845432400703,0,0,0
3165,113473.69052257136,2010-11-30 18:05:04,4622.296827429411,2,11,0.5499359965324402,4.134898662567139,9.512393677614757,9.465330262797698,38.12322232281996,34.3350999009464,9.70840483205393e-05,0.0978845432400703,0,0,0
3166,113503.705530023,2010-11-30 18:05:34,4652.311834805843,2,11,0.5499359965324402,4.138136386871338,9.516979867655248,9.465330262797698,38.14219316488066,34.3350999009464,6.47544875391759e-05,0.0978845432400703,0,0,0
3167,113533.72057282257,2010-11-30 18:06:04,4682.3268775954,2,11,0.550297200679779,4.141697883605957,9.521566109960132,9.465330262797698,38.16117936045273,34.3350999009464,0.0001295089750783,0.0978845432400703,0,0,0
3168,113563.73559786296,2010-11-30 18:06:34,4712.341902660853,2,11,0.5501165986061096,4.144935607910156,9.526152293746753,9.465330262797698,38.18018067560782,34.3350999009464,9.70840483205393e-05,0.0978845432400703,0,0,0
3169,113593.75058212689,2010-11-30 18:07:04,4742.35688690472,2,11,0.5499359965324402,4.1483354568481445,9.530738394263988,9.465330262797698,38.19919736383612,34.3350999009464,9.71794142969884e-05,0.0978845432400703,0,0,0
3170,113623.76785541695,2010-11-30 18:07:34,4772.374160300054,2,11,0.5501165986061096,4.151734828948975,9.5353248295674,9.465330262797698,38.2182308769697,34.3350999009464,9.70840483205393e-05,0.0978845432400703,0,0,0
3171,113653.78063894944,2010-11-30 18:08:04,4802.386943732287,2,11,0.5501165986061096,4.155134677886963,9.539910601315173,9.465330262797698,38.23727728098478,34.3350999009464,9.71794142969884e-05,0.0978845432400703,0,0,0
3172,113683.79563184484,2010-11-30 18:08:34,4832.401936622673,2,11,0.5499359965324402,4.158372402191162,9.544496679865574,9.465330262797698,38.25634073961782,34.3350999009464,3.24249267578125e-05,0.0978845432400703,0,0,0
3173,113713.81060244476,2010-11-30 18:09:04,4862.416907242638,2,11,0.5499359965324402,4.161771774291992,9.549082109235236,9.465330262797698,38.27541723147328,34.3350999009464,6.47544875391759e-05,0.0978845432400703,0,0,0
3174,113743.82561758049,2010-11-30 18:09:35,4892.4319223533175,2,11,0.5499359965324402,4.1654953956604,9.55366730706464,9.465330262797698,38.29450863531259,34.3350999009464,6.47544875391759e-05,0.0978845432400703,0,0,0
3175,113773.84083390186,2010-11-30 18:10:05,4922.44713872984,2,11,0.5501165986061096,4.16921854019165,9.558252746496509,9.465330262797698,38.31361713960272,34.3350999009464,0.0001618385285837,0.0978845432400703,0,0,0
3176,113803.85569200684,2010-11-30 18:10:35,4952.461996784691,2,11,0.5499359965324402,4.17245626449585,9.562837985449052,9.465330262797698,38.33274097564664,34.3350999009464,6.47544875391759e-05,0.0978845432400703,0,0,0
3177,113833.87068567416,2010-11-30 18:11:05,4982.476990446997,2,11,0.5501165986061096,4.176017761230469,9.567423218478108,9.465330262797698,38.3518811549544,34.3350999009464,9.70840483205393e-05,0.0978845432400703,0,0,0
3178,113863.8857291304,2010-11-30 18:11:35,5012.492033948325,2,11,0.5499359965324402,4.179741382598877,9.572008425953202,9.465330262797698,38.371037710984645,34.3350999009464,9.71794142969884e-05,0.0978845432400703,0,0,0
3179,113893.9009277878,2010-11-30 18:12:05,5042.507232585704,2,11,0.5501165986061096,4.183302879333496,9.576594248099056,9.465330262797698,38.39021345754019,34.3350999009464,6.47544875391759e-05,0.0978845432400703,0,0,0
3180,113923.91574588824,2010-11-30 18:12:35,5072.522050666081,2,11,0.5501165986061096,4.187026023864746,9.581180374305822,9.465330262797698,38.40940711554758,34.3350999009464,9.70840483205393e-05,0.0978845432400703,0,0,0
3181,113953.93075169576,2010-11-30 18:13:05,5102.5370564736095,2,11,0.5501165986061096,4.190587520599365,9.585766639570068,9.465330262797698,38.42861811509119,34.3350999009464,6.47544875391759e-05,0.0978845432400703,0,0,0
3182,113983.94578550298,2010-11-30 18:13:35,5132.552090295852,2,11,0.5501165986061096,4.194472789764404,9.590352868692214,9.465330262797698,38.44784576968047,34.3350999009464,0.0001295089750783,0.0978845432400703,0,0,0
3183,114013.96081909964,2010-11-30 18:14:05,5162.567123872483,2,11,0.5499359965324402,4.197872161865234,9.594939059822396,9.465330262797698,38.46709018022724,34.3350999009464,6.47544875391759e-05,0.0978845432400703,0,0,0
3184,114029.11675254712,2010-11-30 18:14:20,5177.723057350021,2,11,0.5501165986061096,4.200138568878174,9.597254814658578,9.465330262797698,38.476813909127024,34.3350999009464,0.0001618385285837,0.0978845432400703,0,0,0
3185,114059.1317630552,2010-11-30 18:14:50,30.015128522901225,3,11,0.0,4.1068925857543945,9.597254814658578,9.465330262797698,38.476813909127024,34.3350999009464,-0.0004532813909463,0.0978845432400703,0,0,0
3186,114089.14667825724,2010-11-30 18:15:20,60.03004371994926,3,11,0.0,4.095398902893066,9.597254814658578,9.465330262797698,38.476813909127024,34.3350999009464,-0.0002913475036621,0.0978845432400703,0,0,0
3187,114119.16179564744,2010-11-30 18:15:50,90.04516113019707,3,11,0.0,4.088437557220459,9.597254814658578,9.465330262797698,38.476813909127024,34.3350999009464,-0.0001295089750783,0.0978845432400703,0,0,0
3188,114149.1299238318,2010-11-30 18:16:20,120.01328928950116,3,11,0.0,4.083743095397949,9.597254814658578,9.465330262797698,38.476813909127024,34.3350999009464,-9.70840483205393e-05,0.0978845432400703,0,0,0
3189,114149.13215616178,2010-11-30 18:16:20,2.661623347e-06,4,11,0.9904420375823976,4.199814796447754,9.597254815390851,9.465330262797698,38.47681391220244,34.3350999009464,0.0,0.0978845432400703,0,0,0
3190,114150.06937624792,2010-11-30 18:16:21,0.937222863047661,4,11,0.9400520324707032,4.199814796447754,9.597504385864028,9.465330262797698,38.47786206068522,34.3350999009464,0.0,0.0978845432400703,0,0,0
3191,114152.30360669443,2010-11-30 18:16:23,3.171453274494608,4,11,0.8900232911109924,4.199814796447754,9.598071105232451,9.465330262797698,38.48024215966972,34.3350999009464,0.0,0.0978845432400703,0,0,0
3192,114155.69401243876,2010-11-30 18:16:27,6.561858978689277,4,11,0.8398138880729675,4.199814796447754,9.598884524445568,9.465330262797698,38.48365838689426,34.3350999009464,0.0,0.0978845432400703,0,0,0
3193,114160.30343050831,2010-11-30 18:16:31,11.171277088369903,4,11,0.7897851467132568,4.199653148651123,9.59992658259519,9.465330262797698,38.4880348565354,34.3350999009464,-3.23295607813634e-05,0.0978845432400703,0,0,0
3194,114166.38131080968,2010-11-30 18:16:37,17.249157329585547,4,11,0.7397563457489014,4.199814796447754,9.601216365217669,9.465330262797698,38.49345171712903,34.3350999009464,0.0,0.0978845432400703,0,0,0
3195,114174.351955723,2010-11-30 18:16:45,25.2198023631884,4,11,0.6897276043891907,4.199814796447754,9.602796984205524,9.465330262797698,38.50009010345245,34.3350999009464,-3.24249267578125e-05,0.0978845432400703,0,0,0
3196,114185.06854939918,2010-11-30 18:16:56,35.93639592408802,4,11,0.6396988034248352,4.199814796447754,9.60477249116586,9.465330262797698,38.50838695724205,34.3350999009464,0.0,0.0978845432400703,0,0,0
3197,114200.23997941928,2010-11-30 18:17:11,51.107825964226365,4,11,0.5896700620651245,4.199653148651123,9.607356490261605,9.465330262797698,38.51923939975055,34.3350999009464,0.0,0.0978845432400703,0,0,0
3198,114223.989487226,2010-11-30 18:17:35,74.85733374088598,4,11,0.5394606590270996,4.199814796447754,9.611068432960224,9.465330262797698,38.53482906257115,34.3350999009464,0.0,0.0978845432400703,0,0,0
3199,114267.16060506731,2010-11-30 18:18:18,118.02845164736864,4,11,0.4894318878650665,4.199814796447754,9.617207956385604,9.465330262797698,38.560614266040574,34.3350999009464,0.0,0.0978845432400703,0,0,0
3200,114347.34844326352,2010-11-30 18:19:38,198.2162898786596,4,11,0.439222514629364,4.199976921081543,9.627505925570794,9.465330262797698,38.60386442595136,34.3350999009464,3.24249267578125e-05,0.0978845432400703,0,0,0
3201,114464.32839357563,2010-11-30 18:21:35,315.19624012060785,4,11,0.3891937434673309,4.199653148651123,9.640944198775532,9.465330262797698,38.66030349707952,34.3350999009464,-6.47544875391759e-05,0.0978845432400703,0,0,0
3202,114606.92113804093,2010-11-30 18:23:58,457.7889846760978,4,11,0.3391649723052978,4.199814796447754,9.655352884856656,9.465330262797698,38.72081819175232,34.3350999009464,-3.24249267578125e-05,0.0978845432400703,0,0,0
3203,114777.61925669888,2010-11-30 18:26:49,628.4871033039911,4,11,0.2891362011432647,4.199653148651123,9.670233666995534,9.465330262797698,38.78331558298397,34.3350999009464,-3.23295607813634e-05,0.0978845432400703,0,0,0
3204,114986.83337443418,2010-11-30 18:30:18,837.7012209691038,4,11,0.2391074448823928,4.199653148651123,9.685558414523127,9.465330262797698,38.84767764598137,34.3350999009464,0.0,0.0978845432400703,0,0,0
3205,115246.33017645536,2010-11-30 18:34:37,1097.1980231005616,4,11,0.1890786737203598,4.199814796447754,9.700941274960996,9.465330262797698,38.91228366467363,34.3350999009464,0.0,0.0978845432400703,0,0,0
3206,115593.22731454128,2010-11-30 18:40:24,1444.0951610561667,4,11,0.1390499025583267,4.199653148651123,9.716660714502314,9.465330262797698,38.978303345712696,34.3350999009464,-3.23295607813634e-05,0.0978845432400703,0,0,0
3207,116116.52935940292,2010-11-30 18:49:08,1967.3972059178031,4,11,0.0890211313962936,4.199814796447754,9.732967257269944,9.465330262797698,39.04678876904526,34.3350999009464,-3.24249267578125e-05,0.0978845432400703,0,0,0
3208,116859.56100901985,2010-11-30 19:01:31,2710.428855574834,4,11,0.0498289167881011,4.199814796447754,9.7469122206189,9.465330262797698,39.10535593035063,34.3350999009464,0.0,0.0978845432400703,0,0,0
3209,116889.57871071708,2010-11-30 19:02:01,30.015040042721697,5,11,0.0,4.191235065460205,9.7469122206189,9.465330262797698,39.10535593035063,34.3350999009464,0.0,0.0978845432400703,0,0,0
3210,116919.5780978281,2010-11-30 19:02:31,60.01442715372485,5,11,0.0,4.189778327941895,9.7469122206189,9.465330262797698,39.10535593035063,34.3350999009464,-3.23295607813634e-05,0.0978845432400703,0,0,0
3211,116919.7714265979,2010-11-30 19:02:31,0.189420400380948,6,11,0.0001613661734154,4.190425872802734,9.746912229109467,9.465330262797698,39.105355965929725,34.3350999009464,0.0,0.0973391383886337,0,0,0
3212,116924.59750213628,2010-11-30 19:02:36,5.01549584350287,6,11,0.0007031940040178,4.189778327941895,9.746913115482249,9.465330262797698,39.10535967973812,34.3350999009464,-3.23295607813634e-05,0.0973391383886337,0,0,0
3213,116954.61655738205,2010-11-30 19:03:06,30.015057831989605,7,11,-1.099568486213684,3.9948675632476807,9.746913115482249,9.474497917117413,39.10535967973812,34.371938024809545,-0.0010036944877356,0.0973391383886337,0,0,0
3214,116984.6315438364,2010-11-30 19:03:36,60.03004425127144,7,11,-1.099568486213684,3.964595079421997,9.746913115482249,9.483665480148176,39.10535967973812,34.40841246543181,-0.0006475448608398,0.0973391383886337,0,0,0
3215,117014.64669672494,2010-11-30 19:04:06,90.04519715484301,7,11,-1.0997490882873535,3.943387985229492,9.746913115482249,9.49283303461062,39.10535967973812,34.44465643693518,-0.0005504131549969,0.0973391383886337,0,0,0
3216,117044.66167716432,2010-11-30 19:04:36,120.0601775842192,7,11,-1.099568486213684,3.927199363708496,9.746913115482249,9.502000460425467,39.10535967973812,34.48073106236635,-0.0004209041653666,0.0973391383886337,0,0,0
3217,117074.67656879273,2010-11-30 19:05:06,150.07506921261756,7,11,-1.099568486213684,3.913762807846069,9.746913115482249,9.511167864512696,39.10535967973812,34.51667057740289,-0.0003237724304199,0.0973391383886337,0,0,0
3218,117104.6934401526,2010-11-30 19:05:36,180.09194066773856,7,11,-1.0993878841400146,3.901945352554321,9.746913115482249,9.520335921464582,39.10535967973812,34.552496998483655,-0.0003237724304199,0.0973391383886337,0,0,0
3219,117134.7067540148,2010-11-30 19:06:06,210.10525443970187,7,11,-1.099568486213684,3.891098976135254,9.746913115482249,9.529502864727192,39.10535967973812,34.588215715117336,-0.0002913951757363,0.0973391383886337,0,0,0
3220,117164.721618636,2010-11-30 19:06:36,240.1201190508689,7,11,-1.099568486213684,3.8812239170074463,9.746913115482249,9.538670262640274,39.10535967973812,34.6238404510448,-0.0002266406954731,0.0973391383886337,0,0,0
3221,117194.73673146484,2010-11-30 19:07:06,270.13523200001544,7,11,-1.099568486213684,3.871348857879639,9.746913115482249,9.54783770859146,39.10535967973812,34.65937474080471,-0.0002590179501567,0.0973391383886337,0,0,0
3222,117224.75180528162,2010-11-30 19:07:36,300.15030579172014,7,11,-1.0993878841400146,3.862121343612671,9.746913115482249,9.557005194066733,39.10535967973812,34.694822379838776,-0.0002590179501567,0.0973391383886337,0,0,0
3223,117254.76695109256,2010-11-30 19:08:06,330.16545160765446,7,11,-1.099568486213684,3.852893829345703,9.746913115482249,9.566172723840756,39.10535967973812,34.73018624022387,-0.0002590179501567,0.0973391383886337,0,0,0
3224,117284.78174430104,2010-11-30 19:08:36,360.18024481613867,7,11,-1.0993878841400146,3.844313859939575,9.746913115482249,9.575340112491324,39.10535967973812,34.765468100884966,-0.0002266406954731,0.0973391383886337,0,0,0
3225,117314.7968063836,2010-11-30 19:09:06,390.195306913743,7,11,-1.099568486213684,3.835572004318237,9.746913115482249,9.584507533730765,39.10535967973812,34.800670298326686,-0.0002590179501567,0.0973391383886337,0,0,0
3226,117344.81170503446,2010-11-30 19:09:36,420.2102054543421,7,11,-1.099568486213684,3.8274779319763184,9.746913115482249,9.593674924512277,39.10535967973812,34.835794987594056,-0.0001942634553415,0.0973391383886337,0,0,0
3227,117374.82673325777,2010-11-30 19:10:06,450.22523367263926,7,11,-1.099568486213684,3.81938362121582,9.746913115482249,9.602842427504074,39.10535967973812,34.870844530368224,-0.0001618862152099,0.0973391383886337,0,0,0
3228,117404.84172306547,2010-11-30 19:10:36,480.2402234853655,7,11,-1.099568486213684,3.8109655380249023,9.746913115482249,9.612009869581165,39.10535967973812,34.90581952858047,-0.0001942634553415,0.0973391383886337,0,0,0
3229,117434.85688935236,2010-11-30 19:11:06,510.25538977224096,7,11,-1.099568486213684,3.803194999694824,9.746913115482249,9.621177387114557,39.10535967973812,34.94072099966927,-0.0001942634553415,0.0973391383886337,0,0,0
3230,117464.87175365778,2010-11-30 19:11:36,540.2702541027095,7,11,-1.099568486213684,3.795262575149536,9.746913115482249,9.630344824633056,39.10535967973812,34.9755496298705,-0.0001942634553415,0.0973391383886337,0,0,0
3231,117494.88678244248,2010-11-30 19:12:06,570.2852828623536,7,11,-1.0997490882873535,3.787492036819458,9.746913115482249,9.639512309835892,39.10535967973812,35.01030784515307,-0.0002266406954731,0.0973391383886337,0,0,0
3232,117524.90391198984,2010-11-30 19:12:36,600.3024125250141,7,11,-1.0993878841400146,3.78036904335022,9.746913115482249,9.648680062766276,39.10535967973812,35.044998609602615,-0.0001295089750783,0.0973391383886337,0,0,0
3233,117554.916766118,2010-11-30 19:13:06,630.3152665679595,7,11,-1.099568486213684,3.773084163665772,9.746913115482249,9.65784613268249,39.10535967973812,35.079616383291,-0.0001942634553415,0.0973391383886337,0,0,0
3234,117584.93180728352,2010-11-30 19:13:36,660.3303077635501,7,11,-1.0993878841400146,3.766123056411743,9.746913115482249,9.667013007566212,39.10535967973812,35.114171557115924,-0.0001295089750783,0.0973391383886337,0,0,0
3235,117614.94853559244,2010-11-30 19:14:06,690.3470361025321,7,11,-1.099568486213684,3.759161949157715,9.746913115482249,9.676180294381124,39.10535967973812,35.14866398538727,-0.0001942634553415,0.0973391383886337,0,0,0
3236,117644.96184327424,2010-11-30 19:14:36,720.3603436991283,7,11,-1.0992072820663452,3.7525248527526855,9.746913115482249,9.685346570241617,39.10535967973812,35.18308982796612,-0.0001294612884521,0.0973391383886337,0,0,0
3237,117674.9789483858,2010-11-30 19:15:06,750.3774488959064,7,11,-1.0992072820663452,3.745725631713867,9.746913115482249,9.694514025848337,39.10535967973812,35.21745860380735,-0.0001942634553415,0.0973391383886337,0,0,0
3238,117704.9935685236,2010-11-30 19:15:36,780.392069068798,7,11,-1.099568486213684,3.7392501831054688,9.746913115482249,9.703680904630762,39.10535967973812,35.25176473388999,-0.0001618862152099,0.0973391383886337,0,0,0
3239,117735.00703384772,2010-11-30 19:16:06,810.4055342776062,7,11,-1.0993878841400146,3.73293662071228,9.746913115482249,9.712847753973527,39.10535967973812,35.28601160997166,-0.0001295089750783,0.0973391383886337,0,0,0
3240,117765.0219184837,2010-11-30 19:16:36,840.4204189887913,7,11,-1.099568486213684,3.726461172103882,9.746913115482249,9.7220151285389,39.10535967973812,35.32020246443496,-0.0001618862152099,0.0973391383886337,0,0,0
3241,117795.03690441175,2010-11-30 19:17:06,870.4354048366512,7,11,-1.099568486213684,3.720471382141113,9.746913115482249,9.731182480400538,39.10535967973812,35.35433715916561,-0.0001618862152099,0.0973391383886337,0,0,0
3242,117825.05191073558,2010-11-30 19:17:36,900.4504111554521,7,11,-1.099568486213684,3.7144815921783447,9.746913115482249,9.740349876413736,39.10535967973812,35.3884159704264,-0.0001295089750783,0.0973391383886337,0,0,0
3243,117855.06696671296,2010-11-30 19:18:06,930.4654671428516,7,11,-1.099568486213684,3.708329916000366,9.746913115482249,9.749517302911975,39.10535967973812,35.42243951020976,-0.0001618862152099,0.0973391383886337,0,0,0
3244,117885.08193767376,2010-11-30 19:18:36,960.4804380936406,7,11,-1.099568486213684,3.702502012252808,9.746913115482249,9.758684729029648,39.10535967973812,35.45640863559906,-0.0001295089750783,0.0973391383886337,0,0,0
3245,117915.09694883462,2010-11-30 19:19:06,990.4954492544912,7,11,-1.0993878841400146,3.696835994720459,9.746913115482249,9.767852132501398,39.10535967973812,35.490324336756764,-0.0001295089750783,0.0973391383886337,0,0,0
3246,117945.1119873335,2010-11-30 19:19:36,1020.5104877483584,7,11,-1.0993878841400146,3.691008090972901,9.746913115482249,9.777019550909106,39.10535967973812,35.52418713723448,-0.0001295089750783,0.0973391383886337,0,0,0
3247,117975.12701586256,2010-11-30 19:20:06,1050.5255163476031,7,11,-1.099568486213684,3.6855039596557617,9.746913115482249,9.786186980666246,39.10535967973812,35.557997797023624,-9.713172767078504e-05,0.0973391383886337,0,0,0
3248,118005.14199234713,2010-11-30 19:20:36,1080.5404927720135,7,11,-1.0993878841400146,3.679999828338623,9.746913115482249,9.795354354206207,39.10535967973812,35.591756641222666,-6.47544875391759e-05,0.0973391383886337,0,0,0
3249,118035.15701026478,2010-11-30 19:21:06,1110.5555106846653,7,11,-1.099568486213684,3.6740100383758554,9.746913115482249,9.80452177297259,39.10535967973812,35.625464296074576,-0.0001295089750783,0.0973391383886337,0,0,0
3250,118065.172044884,2010-11-30 19:21:37,1140.5705453289534,7,11,-1.099568486213684,3.668668031692505,9.746913115482249,9.813689197126092,39.10535967973812,35.65912143570051,-0.0001295089750783,0.0973391383886337,0,0,0
3251,118095.18720297048,2010-11-30 19:22:07,1170.5857034404846,7,11,-1.0993878841400146,3.663325786590576,9.746913115482249,9.822856609771067,39.10535967973812,35.69272847557606,-0.0001295089750783,0.0973391383886337,0,0,0
3252,118125.20205270464,2010-11-30 19:22:37,1200.600553124506,7,11,-1.099568486213684,3.6578216552734375,9.746913115482249,9.8320239234553,39.10535967973812,35.72628574005077,-0.0001618862152099,0.0973391383886337,0,0,0
3253,118155.21706615618,2010-11-30 19:23:07,1230.6155665760566,7,11,-1.099568486213684,3.652641296386719,9.746913115482249,9.841191336103703,39.10535967973812,35.75979497919055,-0.0001618862152099,0.0973391383886337,0,0,0
3254,118185.23209602358,2010-11-30 19:23:37,1260.6305964434573,7,11,-1.099568486213684,3.6474609375,9.746913115482249,9.850358782776514,39.10535967973812,35.793256402738,-0.0001295089750783,0.0973391383886337,0,0,0
3255,118215.24730511196,2010-11-30 19:24:07,1290.6458055970047,7,11,-1.099568486213684,3.642280578613281,9.746913115482249,9.859526136849286,39.10535967973812,35.82667009035685,-0.0001295089750783,0.0973391383886337,0,0,0
3256,118245.26211139298,2010-11-30 19:24:37,1320.6606118128575,7,11,-1.0993878841400146,3.637262105941773,9.746913115482249,9.868693394458443,39.10535967973812,35.86003708394282,-0.0001295089750783,0.0973391383886337,0,0,0
3257,118275.27714168644,2010-11-30 19:25:07,1350.6756421063185,7,11,-1.099568486213684,3.6324055194854736,9.746913115482249,9.877860731058268,39.10535967973812,35.893358615867974,-0.0001295089750783,0.0973391383886337,0,0,0
3258,118305.2940672462,2010-11-30 19:25:37,1380.6925677563013,7,11,-1.099568486213684,3.627548933029175,9.746913115482249,9.887028642744484,39.10535967973812,35.926637320478534,-9.713172767078504e-05,0.0973391383886337,0,0,0
3259,118335.30717593282,2010-11-30 19:26:07,1410.705676362718,7,11,-1.0997490882873535,3.622692346572876,9.746913115482249,9.89619547185465,39.10535967973812,35.95986776867231,-0.0001618862152099,0.0973391383886337,0,0,0
3260,118365.32220613104,2010-11-30 19:26:37,1440.7207066210915,7,11,-1.0993878841400146,3.617997646331787,9.746913115482249,9.905362896101046,39.10535967973812,35.99305684561864,-0.0001295089750783,0.0973391383886337,0,0,0
3261,118395.33719854524,2010-11-30 19:27:07,1470.7356989601044,7,11,-1.0993878841400146,3.613141059875488,9.746913115482249,9.914530237166538,39.10535967973812,36.02620216158106,-0.0001295089750783,0.0973391383886337,0,0,0
3262,118425.35219615736,2010-11-30 19:27:37,1500.7506965772518,7,11,-1.099568486213684,3.60860824584961,9.746913115482249,9.923697636655891,39.10535967973812,36.05930529512207,-0.0001618862152099,0.0973391383886337,0,0,0
3263,118455.3672191677,2010-11-30 19:28:07,1530.765719587589,7,11,-1.099568486213684,3.604237318038941,9.746913115482249,9.93286502904028,39.10535967973812,36.09236676023557,-0.0001295089750783,0.0973391383886337,0,0,0
3264,118485.38236274807,2010-11-30 19:28:37,1560.7808631629478,7,11,-1.0993878841400146,3.599704504013061,9.746913115482249,9.942032455188878,39.10535967973812,36.125387308006125,-9.713172767078504e-05,0.0973391383886337,0,0,0
3265,118515.3972271738,2010-11-30 19:29:07,1590.7957275936658,7,11,-1.0997490882873535,3.5953335762023926,9.746913115482249,9.951199774604769,39.10535967973812,36.158367193077055,-9.713172767078504e-05,0.0973391383886337,0,0,0
3266,118545.41224589344,2010-11-30 19:29:37,1620.8107463233507,7,11,-1.0993878841400146,3.5914485454559326,9.746913115482249,9.960367124942792,39.10535967973812,36.19130865719078,-6.47544875391759e-05,0.0973391383886337,0,0,0
3267,118575.42727932472,2010-11-30 19:30:07,1650.8257797445954,7,11,-1.0993878841400146,3.587077617645264,9.746913115482249,9.969534589389394,39.10535967973812,36.22421254195098,-0.0001295089750783,0.0973391383886337,0,0,0
3268,118605.44227688172,2010-11-30 19:30:37,1680.8407773015929,7,11,-1.099568486213684,3.583030462265014,9.746913115482249,9.978701914584914,39.10535967973812,36.257078502250025,-0.0001295089750783,0.0973391383886337,0,0,0
3269,118635.45728611277,2010-11-30 19:31:07,1710.8557865326409,7,11,-1.099568486213684,3.579145193099976,9.746913115482249,9.9878692996435,39.10535967973812,36.28990895353839,-0.0001295089750783,0.0973391383886337,0,0,0
3270,118665.47229964452,2010-11-30 19:31:37,1740.870800064391,7,11,-1.0997490882873535,3.5755836963653564,9.746913115482249,9.997036689727295,39.10535967973812,36.32270461123915,-9.713172767078504e-05,0.0973391383886337,0,0,0
3271,118695.48735854415,2010-11-30 19:32:07,1770.885858959025,7,11,-1.0997490882873535,3.571860313415528,9.746913115482249,10.006204071547792,39.10535967973812,36.35546644021559,-9.713172767078504e-05,0.0973391383886337,0,0,0
3272,118725.50231655774,2010-11-30 19:32:37,1800.9008169726203,7,11,-1.0997490882873535,3.5681369304656982,9.746913115482249,10.015371453422503,39.10535967973812,36.38819451648465,-6.47544875391759e-05,0.0973391383886337,0,0,0
3273,118755.51732059086,2010-11-30 19:33:07,1830.9158210358084,7,11,-1.0993878841400146,3.564575433731079,9.746913115482249,10.024538860360297,39.10535967973812,36.42088934678887,-9.713172767078504e-05,0.0973391383886337,0,0,0
3274,118785.53246499828,2010-11-30 19:33:37,1860.9309654131628,7,11,-1.0993878841400146,3.56133770942688,9.746913115482249,10.033706154730478,39.10535967973812,36.45355155429441,-9.713172767078504e-05,0.0973391383886337,0,0,0
3275,118815.54736042111,2010-11-30 19:34:07,1890.945860836004,7,11,-1.0997490882873535,3.5577762126922607,9.746913115482249,10.042873441500095,39.10535967973812,36.48618220052177,-6.47544875391759e-05,0.0973391383886337,0,0,0
3276,118845.56238780236,2010-11-30 19:34:37,1920.9608882272423,7,11,-1.0997490882873535,3.5542147159576416,9.746913115482249,10.0520408127613,39.10535967973812,36.51878175429791,-9.713172767078504e-05,0.0973391383886337,0,0,0
3277,118875.5773830436,2010-11-30 19:35:07,1950.9758834634647,7,11,-1.0993878841400146,3.5511388778686523,9.746913115482249,10.06120814858254,39.10535967973812,36.55135085209146,-9.713172767078504e-05,0.0973391383886337,0,0,0
3278,118905.59419893545,2010-11-30 19:35:37,1980.992699485643,7,11,-1.099568486213684,3.547901153564453,9.746913115482249,10.07037599031884,39.10535967973812,36.58389183190718,-6.47544875391759e-05,0.0973391383886337,0,0,0
3279,118935.60740558583,2010-11-30 19:36:07,2011.0059060157391,7,11,-1.0997490882873535,3.544663429260254,9.746913115482249,10.07954278906862,39.10535967973812,36.616400342798016,-9.713172767078504e-05,0.0973391383886337,0,0,0
3280,118965.6224008772,2010-11-30 19:36:37,2041.020901322136,7,11,-1.099568486213684,3.5415875911712646,9.746913115482249,10.088710078555522,39.10535967973812,36.64888167549129,-9.713172767078504e-05,0.0973391383886337,0,0,0
3281,118995.63754466808,2010-11-30 19:37:07,2071.036045158144,7,11,-1.099568486213684,3.538349866867065,9.746913115482249,10.097877437513324,39.10535967973812,36.68133436446506,-9.713172767078504e-05,0.0973391383886337,0,0,0
3282,119025.65241742451,2010-11-30 19:37:37,2101.05091787448,7,11,-1.0997490882873535,3.535112142562866,9.746913115482249,10.107045438831864,39.10535967973812,36.71376020580075,-0.0001295089750783,0.0973391383886337,0,0,0
3283,119055.6676889533,2010-11-30 19:38:07,2131.066189383196,7,11,-1.099568486213684,3.532198190689087,9.746913115482249,10.116213605212511,39.10535967973812,36.74615758391367,-3.237724376958795e-05,0.0973391383886337,0,0,0
3284,119085.68245507438,2010-11-30 19:38:37,2161.080955514299,7,11,-1.099568486213684,3.528960466384888,9.746913115482249,10.12538162243258,39.10535967973812,36.77852576812532,-6.47544875391759e-05,0.0973391383886337,0,0,0
3285,119115.69748660592,2010-11-30 19:39:07,2191.095987045841,7,11,-1.099568486213684,3.5257227420806885,9.746913115482249,10.134549646291411,39.10535967973812,36.81086412171702,-6.47544875391759e-05,0.0973391383886337,0,0,0
3286,119145.71260273297,2010-11-30 19:39:37,2221.1111031528453,7,11,-1.099568486213684,3.522646903991699,9.746913115482249,10.143717025636631,39.10535967973812,36.8431715768352,-6.47544875391759e-05,0.0973391383886337,0,0,0
3287,119175.72799117264,2010-11-30 19:40:07,2251.12649167274,7,11,-1.099568486213684,3.51924729347229,9.746913115482249,10.152884330429387,39.10535967973812,36.87544960460082,-9.713172767078504e-05,0.0973391383886337,0,0,0
3288,119205.74264764588,2010-11-30 19:40:37,2281.1411481259133,7,11,-1.0993878841400146,3.516009569168091,9.746913115482249,10.162051487689263,39.10535967973812,36.907697259952926,-9.713172767078504e-05,0.0973391383886337,0,0,0
3289,119235.75764736829,2010-11-30 19:41:07,2311.1561478082,7,11,-1.0993878841400146,3.512771844863892,9.746913115482249,10.171218769267512,39.10535967973812,36.9399147216264,-9.713172767078504e-05,0.0973391383886337,0,0,0
3290,119265.77254249535,2010-11-30 19:41:37,2341.1710429202667,7,11,-1.099568486213684,3.509372472763061,9.746913115482249,10.180385994940616,39.10535967973812,36.97210135355434,-9.713172767078504e-05,0.0973391383886337,0,0,0
3291,119295.78756450322,2010-11-30 19:42:07,2371.186064923097,7,11,-1.0993878841400146,3.5059728622436523,9.746913115482249,10.189553313929204,39.10535967973812,37.00425636867156,-3.237724376958795e-05,0.0973391383886337,0,0,0
3292,119325.80258618025,2010-11-30 19:42:37,2401.2010866101414,7,11,-1.0997490882873535,3.5020875930786133,9.746913115482249,10.1987206908457,39.10535967973812,37.03637835257012,-9.713172767078504e-05,0.0973391383886337,0,0,0
3293,119355.81769961058,2010-11-30 19:43:07,2431.2162000304606,7,11,-1.0997490882873535,3.498526096343994,9.746913115482249,10.20788797504098,39.10535967973812,37.06846701684668,-0.0001295089750783,0.0973391383886337,0,0,0
3294,119385.8325890385,2010-11-30 19:43:37,2461.2310894533703,7,11,-1.0993878841400146,3.494640827178955,9.746913115482249,10.21705528217158,39.10535967973812,37.10052092461797,-0.0001295089750783,0.0973391383886337,0,0,0
3295,119415.84763145712,2010-11-30 19:44:07,2491.246131877017,7,11,-1.0993878841400146,3.490431785583496,9.746913115482249,10.226222555997794,39.10535967973812,37.13253698319985,-9.713172767078504e-05,0.0973391383886337,0,0,0
3296,119445.86478148548,2010-11-30 19:44:37,2521.263282020644,7,11,-1.099568486213684,3.4857370853424072,9.746913115482249,10.235390480936871,39.10535967973812,37.16451597913524,-0.0001618862152099,0.0973391383886337,0,0,0
3297,119475.87778411317,2010-11-30 19:45:07,2551.276284583174,7,11,-1.099568486213684,3.4812042713165283,9.746913115482249,10.24455716383563,39.10535967973812,37.19644938871545,-0.0001295089750783,0.0973391383886337,0,0,0
3298,119505.89436431351,2010-11-30 19:45:37,2581.292864858706,7,11,-1.0993878841400146,3.476347684860229,9.746913115482249,10.253724839040492,39.10535967973812,37.228342008010536,-0.0001295089750783,0.0973391383886337,0,0,0
3299,119535.90949494165,2010-11-30 19:46:07,2611.307995466796,7,11,-1.0992072820663452,3.471005439758301,9.746913115482249,10.262892146743026,39.10535967973812,37.260186225430914,-0.0001295089750783,0.0973391383886337,0,0,0
3300,119565.92268582784,2010-11-30 19:46:37,2641.321186247701,7,11,-1.0993878841400146,3.4648537635803223,9.746913115482249,10.272058862846032,39.10535967973812,37.29197640188404,-0.0001942634553415,0.0973391383886337,0,0,0
3301,119595.9397669998,2010-11-30 19:47:07,2671.3382675349817,7,11,-1.099568486213684,3.458216428756714,9.746913115482249,10.281226770589315,39.10535967973812,37.32371293260334,-0.0002266406954731,0.0973391383886337,0,0,0
3302,119625.95271096652,2010-11-30 19:47:37,2701.3512113864117,7,11,-1.099568486213684,3.4509315490722656,9.746913115482249,10.29039341962719,39.10535967973812,37.35538056818957,-0.0001942634553415,0.0973391383886337,0,0,0
3303,119655.9678353792,2010-11-30 19:48:07,2731.36633582916,7,11,-1.0993878841400146,3.442513465881348,9.746913115482249,10.299560677323589,39.10535967973812,37.38697795522361,-0.0001942634553415,0.0973391383886337,0,0,0
3304,119685.98270398533,2010-11-30 19:48:37,2761.381204415218,7,11,-1.0993878841400146,3.43280029296875,9.746913115482249,10.308727878216466,39.10535967973812,37.41849212378709,-0.0002266406954731,0.0973391383886337,0,0,0
3305,119715.99777826322,2010-11-30 19:49:07,2791.39627868812,7,11,-1.099568486213684,3.420982837677002,9.746913115482249,10.317895105349864,39.10535967973812,37.44990940013409,-0.0003561496851034,0.0973391383886337,0,0,0
3306,119746.01280161442,2010-11-30 19:49:37,2821.411302059355,7,11,-1.0993878841400146,3.407384395599365,9.746913115482249,10.327062335720711,39.10535967973812,37.48121081675572,-0.0003885269106831,0.0973391383886337,0,0,0
3307,119776.02781739176,2010-11-30 19:50:07,2851.4263178166434,7,11,-1.099568486213684,3.3900625705718994,9.746913115482249,10.33622958782731,39.10535967973812,37.512370479155614,-0.0005180359003134,0.0973391383886337,0,0,0
3308,119806.04283117916,2010-11-30 19:50:37,2881.44133160403,7,11,-1.099568486213684,3.3680460453033447,9.746913115482249,10.345396848577373,39.10535967973812,37.54335138729592,-0.0006475448608398,0.0973391383886337,0,0,0
3309,119836.05782889151,2010-11-30 19:51:07,2911.456329311402,7,11,-1.0997490882873535,3.338906764984131,9.746913115482249,10.354564145726222,39.10535967973812,37.574100247068735,-0.0008741855854168,0.0973391383886337,0,0,0
3310,119866.07286083908,2010-11-30 19:51:37,2941.471361319129,7,11,-1.099568486213684,3.30021595954895,9.746913115482249,10.363731395649582,39.10535967973812,37.6045406770814,-0.0011979580158367,0.0973391383886337,0,0,0
3311,119896.08786397496,2010-11-30 19:52:07,2971.486364399872,7,11,-1.0993878841400146,3.247926950454712,9.746913115482249,10.372898616835691,39.10535967973812,37.634567038300695,-0.0015541076427325,0.0973391383886337,0,0,0
3312,119926.10285803828,2010-11-30 19:52:37,3001.5013584581634,7,11,-1.0993878841400146,3.1747546195983887,9.746913115482249,10.382065851186775,39.10535967973812,37.66402528165767,-0.0022664070129394,0.0973391383886337,0,0,0
3313,119956.1179043867,2010-11-30 19:53:07,3031.5164049168507,7,11,-1.099568486213684,3.066614866256714,9.746913115482249,10.391233147454184,39.10535967973812,37.692668385476985,-0.0034643649123609,0.0973391383886337,0,0,0
3314,119986.13288650528,2010-11-30 19:53:38,3061.5313869251563,7,11,-1.099568486213684,2.879474878311157,9.746913115482249,10.400400372074444,39.10535967973812,37.72002281264005,-0.0066049573943018,0.0973391383886337,0,0,0
3315,120003.24191036313,2010-11-30 19:53:55,3078.6404107829867,7,11,-1.099568486213684,2.699620008468628,9.746913115482249,10.405625773108584,39.10535967973812,37.73462218989469,-0.0092598441988229,0.0973391383886337,0,0,0
3316,120063.26231696358,2010-11-30 19:54:55,60.01615326909656,8,11,0.0,3.3865010738372803,9.746913115482249,10.405625773108584,39.10535967973812,37.73462218989469,0.0012950897216796,0.0973391383886337,0,0,0
3317,120063.4539836752,2010-11-30 19:54:55,0.18796272801934,9,11,-1.9243103452026844e-05,3.3866629600524902,9.746913115482249,10.405625774113302,39.10535967973812,37.73462219329733,0.0,0.096440702676773,0,0,0
3318,120068.28162408769,2010-11-30 19:55:00,5.015603060307766,9,11,0.0007031940040178,3.3945953845977783,9.746914072660642,10.40562577427784,39.10536292583535,37.73462219385456,0.0011332035064697,0.096440702676773,0,0,0
