Data_Point,Test_Time(s),Date_Time,Step_Time(s),Step_Index,Cycle_Index,Current(A),Voltage(V),Charge_Capacity(Ah),Discharge_Capacity(Ah),Charge_Energy(Wh),Discharge_Energy(Wh),dV/dt(V/s),Internal_Resistance(Ohm),Is_FC_Data,AC_Impedance(Ohm),ACI_Phase_Angle(Deg)
10178,368822.5548517764,2010-12-03 17:01:23,30.015024724603148,1,34,0.0,3.4308578968048096,30.40410743190079,31.061043668371376,121.9238551611212,112.61215701833358,0.0007446765666827,0.0926398560404777,0,0,0
10179,368852.5698863154,2010-12-03 17:01:53,60.03005929871642,1,34,0.0,3.453845500946045,30.40410743190079,31.061043668371376,121.9238551611212,112.61215701833358,0.0005504131549969,0.0926398560404777,0,0,0
10180,368882.5866922074,2010-12-03 17:02:23,90.04686525083575,1,34,0.0,3.4713292121887207,30.40410743190079,31.061043668371376,121.9238551611212,112.61215701833358,0.0004209041653666,0.0926398560404777,0,0,0
10181,368912.5530251394,2010-12-03 17:02:53,120.01319808754864,1,34,0.0,3.4852514266967773,30.40410743190079,31.061043668371376,121.9238551611212,112.61215701833358,0.0003237724304199,0.0926398560404777,0,0,0
10182,368942.57992103184,2010-12-03 17:03:23,30.01511499924813,2,34,0.5501165986061096,3.642604351043701,30.408693965767142,31.061043668371376,121.94041340967124,112.61215701833358,0.0014245987404137,0.0926398560404777,0,0,0
10183,368972.5948186451,2010-12-03 17:03:53,60.03001262256462,2,34,0.5501165986061096,3.684856414794922,30.41328040433364,31.061043668371376,121.95722303886434,112.61215701833358,0.0009713172912597,0.0926398560404777,0,0,0
10184,369002.6099754935,2010-12-03 17:04:23,90.04516955115228,2,34,0.5501165986061096,3.715129137039185,30.41786690125192,31.061043668371376,121.97419589442552,112.61215701833358,0.0007446765666827,0.0926398560404777,0,0,0
10185,369032.6250943072,2010-12-03 17:04:53,120.06028830975544,2,34,0.550297200679779,3.738602638244629,30.422453370596344,31.061043668371376,121.99129082222984,112.61215701833358,0.0005827903514727,0.0926398560404777,0,0,0
10186,369062.6399924167,2010-12-03 17:05:23,150.0751863641446,2,34,0.550297200679779,3.757381200790405,30.427039833239213,31.061043668371376,122.00848227408136,112.61215701833358,0.0004532813909463,0.0926398560404777,0,0,0
10187,369092.6548931277,2010-12-03 17:05:53,180.09008708015716,2,34,0.550297200679779,3.771303415298462,30.43162631842368,31.061043668371376,122.02574867781088,112.61215701833358,0.0003237724304199,0.0926398560404777,0,0,0
10188,369122.6699557918,2010-12-03 17:06:23,210.10514976422093,2,34,0.550297200679779,3.78036904335022,30.43621280193455,31.061043668371376,122.04306744726664,112.61215701833358,0.0001942634553415,0.0926398560404777,0,0,0
10189,369152.6852887234,2010-12-03 17:06:53,240.12048273588508,2,34,0.5501165986061096,3.7865207195281982,30.440799355510983,31.061043668371376,122.06042090886136,112.61215701833358,0.0001618862152099,0.0926398560404777,0,0,0
10190,369182.6999580085,2010-12-03 17:07:23,270.13515203101565,2,34,0.5501165986061096,3.791539192199707,30.445385776280457,31.061043668371376,122.07779922227722,112.61215701833358,9.713172767078504e-05,0.0926398560404777,0,0,0
10191,369212.7149651143,2010-12-03 17:07:53,300.1501590816377,2,34,0.5501165986061096,3.796072006225586,30.4499722308615,31.061043668371376,122.09519968586712,112.61215701833358,9.713172767078504e-05,0.0926398560404777,0,0,0
10192,369242.7300074827,2010-12-03 17:08:23,330.1652014300972,2,34,0.5501165986061096,3.800604820251465,30.454558746891664,31.061043668371376,122.11262095636631,112.61215701833358,0.0001618862152099,0.0926398560404777,0,0,0
10193,369272.7468478254,2010-12-03 17:08:53,360.1820418379583,2,34,0.5499359965324402,3.804651975631714,30.45914551019345,31.061043668371376,122.13006273962915,112.61215701833358,9.713172767078504e-05,0.0926398560404777,0,0,0
10194,369302.7600663403,2010-12-03 17:09:23,390.195260372928,2,34,0.5501165986061096,3.808699131011963,30.463731691864144,31.061043668371376,122.14752118241348,112.61215701833358,9.713172767078504e-05,0.0926398560404777,0,0,0
10195,369332.7750739223,2010-12-03 17:09:53,420.21026788971017,2,34,0.5501165986061096,3.812746286392212,30.4683182178422,31.061043668371376,122.16499916944032,112.61215701833358,0.0001295089750783,0.0926398560404777,0,0,0
10196,369362.7902209112,2010-12-03 17:10:23,450.22541486352577,2,34,0.5501165986061096,3.816631555557251,30.47290468429204,31.061043668371376,122.18249492096508,112.61215701833358,0.0001295089750783,0.0926398560404777,0,0,0
10197,369392.8051200633,2010-12-03 17:10:53,480.24031400562166,2,34,0.5501165986061096,3.82035493850708,30.477491175932663,31.061043668371376,122.20000784275608,112.61215701833358,0.0001295089750783,0.0926398560404777,0,0,0
10198,369422.8201073598,2010-12-03 17:11:23,510.2553013121114,2,34,0.5504778623580933,3.823916435241699,30.48207763181359,31.061043668371376,122.2175373463728,112.61215701833358,0.0001295089750783,0.0926398560404777,0,0,0
10199,369452.8351546204,2010-12-03 17:11:53,540.2703485778071,2,34,0.550297200679779,3.827316045761109,30.48666407119425,31.061043668371376,122.23508313130402,112.61215701833358,9.713172767078504e-05,0.0926398560404777,0,0,0
10200,369482.85016935016,2010-12-03 17:12:23,570.2853633476382,2,34,0.5501165986061096,3.8307156562805176,30.49125058253233,31.061043668371376,122.25264533642522,112.61215701833358,6.47544875391759e-05,0.0926398560404777,0,0,0
10201,369512.8651621352,2010-12-03 17:12:53,600.3003560776239,2,34,0.550297200679779,3.834438800811768,30.49583707927512,31.061043668371376,122.2702234585906,112.61215701833358,9.713172767078504e-05,0.0926398560404777,0,0,0
10202,369542.8802039974,2010-12-03 17:13:23,630.3153979649359,2,34,0.550297200679779,3.8378384113311768,30.5004235677048,31.061043668371376,122.28781759876225,112.61215701833358,9.713172767078504e-05,0.0926398560404777,0,0,0
10203,369572.8951800912,2010-12-03 17:13:53,660.3303740585225,2,34,0.5501165986061096,3.841399908065796,30.50500996045144,31.061043668371376,122.30542744806584,112.61215701833358,6.47544875391759e-05,0.0926398560404777,0,0,0
10204,369602.9103343931,2010-12-03 17:14:23,690.3455283505493,2,34,0.5499359965324402,3.844799518585205,30.50959642992588,31.061043668371376,122.32305383029012,112.61215701833358,6.47544875391759e-05,0.0926398560404777,0,0,0
10205,369632.9252432394,2010-12-03 17:14:53,720.3604371867686,2,34,0.5501165986061096,3.848361015319824,30.51418287508938,31.061043668371376,122.34069651445796,112.61215701833358,9.713172767078504e-05,0.0926398560404777,0,0,0
10206,369662.9404126992,2010-12-03 17:15:23,750.3756066465397,2,34,0.550297200679779,3.8522462844848633,30.518769424865745,31.061043668371376,122.35835599847832,112.61215701833358,0.0001295089750783,0.0926398560404777,0,0,0
10207,369692.9553004279,2010-12-03 17:15:53,780.3904944704707,2,34,0.5501165986061096,3.8558077812194815,30.523355920805336,31.061043668371376,122.37603167477774,112.61215701833358,9.713172767078504e-05,0.0926398560404777,0,0,0
10208,369722.97266942606,2010-12-03 17:16:23,810.4078634586837,2,34,0.5499359965324402,3.8590455055236816,30.52794276728979,31.061043668371376,122.3937250029882,112.61215701833358,6.47544875391759e-05,0.0926398560404777,0,0,0
10209,369752.9854811337,2010-12-03 17:16:53,840.4206751863292,2,34,0.5501165986061096,3.862768888473511,30.532528866196856,31.061043668371376,122.41143153638332,112.61215701833358,9.713172767078504e-05,0.0926398560404777,0,0,0
10210,369783.00034230633,2010-12-03 17:17:23,870.4355362486649,2,34,0.5499359965324402,3.86616849899292,30.537115380138196,31.061043668371376,122.4291556106972,112.61215701833358,9.713172767078504e-05,0.0926398560404777,0,0,0
10211,369813.01540775725,2010-12-03 17:17:53,900.4506017246764,2,34,0.5501165986061096,3.869406223297119,30.54170188352489,31.061043668371376,122.4468952923396,112.61215701833358,6.47544875391759e-05,0.0926398560404777,0,0,0
10212,369843.03046816064,2010-12-03 17:18:23,930.4656621130274,2,34,0.5501165986061096,3.872805833816528,30.54628839773197,31.061043668371376,122.46465036048691,112.61215701833358,6.47544875391759e-05,0.0926398560404777,0,0,0
10213,369873.0473062678,2010-12-03 17:18:53,960.4825003053752,2,34,0.5501165986061096,3.876043558120728,30.550875182449406,31.061043668371376,122.48242134925314,112.61215701833358,9.713172767078504e-05,0.0926398560404777,0,0,0
10214,369903.0606416836,2010-12-03 17:19:23,990.4958357312236,2,34,0.5501165986061096,3.879119396209717,30.555461469055835,31.061043668371376,122.500204943323,112.61215701833358,6.47544875391759e-05,0.0926398560404777,0,0,0
10215,369933.0754820244,2010-12-03 17:19:53,1020.5106759717452,2,34,0.5501165986061096,3.882033348083496,30.560047938733423,31.061043668371376,122.51800315608648,112.61215701833358,6.47544875391759e-05,0.0926398560404777,0,0,0
10216,369963.09056684846,2010-12-03 17:20:24,1050.525760820966,2,34,0.5501165986061096,3.884623527526856,30.56463447859727,31.061043668371376,122.53581501804898,112.61215701833358,0.0,0.0926398560404777,0,0,0
10217,369993.1079396663,2010-12-03 17:20:54,1080.5431337138957,2,34,0.5501165986061096,3.8876993656158447,30.569221311971443,31.061043668371376,122.55364064793602,112.61215701833358,9.713172767078504e-05,0.0926398560404777,0,0,0
10218,370023.1205495617,2010-12-03 17:21:24,1110.5557435090398,2,34,0.5499359965324402,3.889965772628784,30.573807421078797,31.061043668371376,122.57147553609369,112.61215701833358,0.0,0.0926398560404777,0,0,0
10219,370053.13555562985,2010-12-03 17:21:54,1140.5707495772167,2,34,0.5501165986061096,3.892555952072144,30.57839393781048,31.061043668371376,122.58932338969056,112.61215701833358,6.47544875391759e-05,0.0926398560404777,0,0,0
10220,370083.15059524646,2010-12-03 17:22:24,1170.5857891938786,2,34,0.5501165986061096,3.894822359085083,30.58298052016777,31.061043668371376,122.60718219259542,112.61215701833358,3.237724376958795e-05,0.0926398560404777,0,0,0
10221,370113.1655937258,2010-12-03 17:22:54,1200.6007876731717,2,34,0.5501165986061096,3.896926879882813,30.587567032982463,31.061043668371376,122.62505027795125,112.61215701833358,6.47544875391759e-05,0.0926398560404777,0,0,0
10222,370143.1807462936,2010-12-03 17:23:24,1230.6159403060694,2,34,0.5497553944587708,3.898707628250122,30.59215350541353,31.061043668371376,122.64292764724108,112.61215701833358,6.47544875391759e-05,0.0926398560404777,0,0,0
10223,370173.1957296602,2010-12-03 17:23:54,1260.6309237228795,2,34,0.5501165986061096,3.9006502628326416,30.596740051104483,31.061043668371376,122.66081416269338,112.61215701833358,6.47544875391759e-05,0.0926398560404777,0,0,0
10224,370203.2106626114,2010-12-03 17:24:24,1290.6458565588214,2,34,0.5499359965324402,3.902431011199951,30.60132655012154,31.061043668371376,122.67870882398212,112.61215701833358,3.237724376958795e-05,0.0926398560404777,0,0,0
10225,370233.22567679983,2010-12-03 17:24:54,1320.660870752218,2,34,0.550297200679779,3.9042117595672607,30.60591303273739,31.061043668371376,122.69661135505524,112.61215701833358,6.47544875391759e-05,0.0926398560404777,0,0,0
10226,370263.2406990132,2010-12-03 17:25:24,1350.6758930307342,2,34,0.5501165986061096,3.90583062171936,30.61049965315781,31.061043668371376,122.71452198916624,112.61215701833358,6.47544875391759e-05,0.0926398560404777,0,0,0
10227,370293.25573013874,2010-12-03 17:25:54,1380.690924096116,2,34,0.5499359965324402,3.90728759765625,30.615086135705777,31.061043668371376,122.7324394741354,112.61215701833358,3.237724376958795e-05,0.0926398560404777,0,0,0
10228,370323.27073616174,2010-12-03 17:26:24,1410.7059301091565,2,34,0.5501165986061096,3.9089064598083496,30.61967263344576,31.061043668371376,122.75036415529765,112.61215701833358,0.0,0.0926398560404777,0,0,0
10229,370353.28574688657,2010-12-03 17:26:54,1440.7209408339213,2,34,0.5501165986061096,3.9103634357452393,30.624259168202343,31.061043668371376,122.76829602757049,112.61215701833358,3.237724376958795e-05,0.0926398560404777,0,0,0
10230,370383.3007937061,2010-12-03 17:27:24,1470.7359876785692,2,34,0.5501165986061096,3.911820411682129,30.628845724090645,31.061043668371376,122.78623481802953,112.61215701833358,-3.237724376958795e-05,0.0926398560404777,0,0,0
10231,370413.3157867218,2010-12-03 17:27:54,1500.7509806692035,2,34,0.550297200679779,3.9132773876190186,30.63343219502606,31.061043668371376,122.80418010807848,112.61215701833358,0.0,0.0926398560404777,0,0,0
10232,370443.33081829344,2010-12-03 17:28:24,1530.7660122408454,2,34,0.5501165986061096,3.914896011352539,30.638018746064503,31.061043668371376,122.82213258675608,112.61215701833358,3.237724376958795e-05,0.0926398560404777,0,0,0
10233,370473.3476286565,2010-12-03 17:28:54,1560.7828227242403,2,34,0.5499359965324402,3.9161911010742183,30.64260562780053,31.061043668371376,122.84009301492782,112.61215701833358,-3.237724376958795e-05,0.0926398560404777,0,0,0
10234,370503.3608556525,2010-12-03 17:29:24,1590.7960496049786,2,34,0.5501165986061096,3.917971849441528,30.64719184022638,31.061043668371376,122.85805757833346,112.61215701833358,6.47544875391759e-05,0.0926398560404777,0,0,0
10235,370533.3758605629,2010-12-03 17:29:54,1620.811054510262,2,34,0.5499359965324402,3.919266939163208,30.651778329085616,31.061043668371376,122.87602992718448,112.61215701833358,3.237724376958795e-05,0.0926398560404777,0,0,0
10236,370563.39090032986,2010-12-03 17:30:24,1650.826094277298,2,34,0.5499359965324402,3.9207239151000977,30.656364792537108,31.061043668371376,122.89400887743948,112.61215701833358,0.0,0.0926398560404777,0,0,0
10237,370593.4059255106,2010-12-03 17:30:54,1680.8411194830985,2,34,0.5501165986061096,3.9221808910369873,30.66095129852912,31.061043668371376,122.91199470603168,112.61215701833358,3.237724376958795e-05,0.0926398560404777,0,0,0
10238,370623.4209656688,2010-12-03 17:31:24,1710.8561596912316,2,34,0.5501165986061096,3.923637866973877,30.66553782567669,31.061043668371376,122.92998743695394,112.61215701833358,6.47544875391759e-05,0.0926398560404777,0,0,0
10239,370653.435942053,2010-12-03 17:31:54,1740.871136000355,2,34,0.5501165986061096,3.925094842910767,30.670124366032503,31.061043668371376,122.94798709023276,112.61215701833358,0.0,0.0926398560404777,0,0,0
10240,370683.4512768041,2010-12-03 17:32:24,1770.8864707765092,2,34,0.5499359965324402,3.926551818847656,30.67471092533676,31.061043668371376,122.96599355413984,112.61215701833358,3.237724376958795e-05,0.0926398560404777,0,0,0
10241,370713.4659847855,2010-12-03 17:32:54,1800.9011787278343,2,34,0.5499359965324402,3.928170680999756,30.679297379244527,31.061043668371376,122.98400649096962,112.61215701833358,3.237724376958795e-05,0.0926398560404777,0,0,0
10242,370743.48099814175,2010-12-03 17:33:24,1830.9161920941729,2,34,0.5501165986061096,3.9296276569366455,30.68388389563805,31.061043668371376,123.00202657905086,112.61215701833358,3.237724376958795e-05,0.0926398560404777,0,0,0
10243,370773.4960201997,2010-12-03 17:33:54,1860.93121417219,2,34,0.550297200679779,3.931246519088745,30.688470377634307,31.061043668371376,123.0200535103494,112.61215701833358,3.237724376958795e-05,0.0926398560404777,0,0,0
10244,370803.5110713,2010-12-03 17:34:24,1890.946265252378,2,34,0.550297200679779,3.9328653812408447,30.693056912602252,31.061043668371376,123.03808757376858,112.61215701833358,9.713172767078504e-05,0.0926398560404777,0,0,0
10245,370833.5260771176,2010-12-03 17:34:54,1920.9612710649192,2,34,0.5501165986061096,3.9343223571777344,30.6976435026344,31.061043668371376,123.05612895034731,112.61215701833358,6.47544875391759e-05,0.0926398560404777,0,0,0
10246,370863.5410738124,2010-12-03 17:35:24,1950.9762677597712,2,34,0.5501165986061096,3.935941219329834,30.70223004460164,31.061043668371376,123.07417726675106,112.61215701833358,6.47544875391759e-05,0.0926398560404777,0,0,0
10247,370893.5562159542,2010-12-03 17:35:54,1980.9914099667249,2,34,0.5501165986061096,3.937398195266724,30.706816610178823,31.061043668371376,123.09223264917637,112.61215701833358,3.237724376958795e-05,0.0926398560404777,0,0,0
10248,370923.5712365986,2010-12-03 17:36:24,2011.0064305460128,2,34,0.5501165986061096,3.9390170574188232,30.71140307181428,31.061043668371376,123.11029488007496,112.61215701833358,3.237724376958795e-05,0.0926398560404777,0,0,0
10249,370953.58625954384,2010-12-03 17:36:54,2041.0214535563496,2,34,0.5501165986061096,3.940312147140503,30.71598957413665,31.061043668371376,123.12836441525232,112.61215701833358,0.0,0.0926398560404777,0,0,0
10250,370983.601160721,2010-12-03 17:37:24,2071.036354668348,2,34,0.5499359965324402,3.942092895507813,30.72057610534613,31.061043668371376,123.146441312713,112.61215701833358,3.237724376958795e-05,0.0926398560404777,0,0,0
10251,371013.6161913202,2010-12-03 17:37:54,2101.0513852976446,2,34,0.5499359965324402,3.943549871444702,30.725162631250647,31.061043668371376,123.16452542934722,112.61215701833358,3.237724376958795e-05,0.0926398560404777,0,0,0
10252,371043.6312798436,2010-12-03 17:38:24,2131.066473881158,2,34,0.5501165986061096,3.9451687335968018,30.729749118622085,31.061043668371376,123.18261661712344,112.61215701833358,3.237724376958795e-05,0.0926398560404777,0,0,0
10253,371073.648323427,2010-12-03 17:38:54,2161.083517474639,2,34,0.5499359965324402,3.946787595748901,30.734336035934916,31.061043668371376,123.20071685779914,112.61215701833358,3.237724376958795e-05,0.0926398560404777,0,0,0
10254,371103.6612720202,2010-12-03 17:39:24,2191.096466057844,2,34,0.5501165986061096,3.948406457901001,30.73892219542172,31.061043668371376,123.2188212908276,112.61215701833358,3.237724376958795e-05,0.0926398560404777,0,0,0
10255,371133.67625275534,2010-12-03 17:39:54,2221.111446727819,2,34,0.5501165986061096,3.9500253200531006,30.74350871226437,31.061043668371376,123.23693461936548,112.61215701833358,0.0,0.0926398560404777,0,0,0
10256,371163.6912836053,2010-12-03 17:40:24,2251.126477557614,2,34,0.5501165986061096,3.9516441822052,30.74809523230352,31.061043668371376,123.25505538802028,112.61215701833358,3.237724376958795e-05,0.0926398560404777,0,0,0
10257,371193.7062869767,2010-12-03 17:40:54,2281.141480924069,2,34,0.5501165986061096,3.9532630443573,30.75268180532169,31.061043668371376,123.27318371721856,112.61215701833358,3.237724376958795e-05,0.0926398560404777,0,0,0
10258,371223.7213338364,2010-12-03 17:41:24,2311.1565278088165,2,34,0.5501165986061096,3.95504379272461,30.757268296028546,31.061043668371376,123.29131918880584,112.61215701833358,6.47544875391759e-05,0.0926398560404777,0,0,0
10259,371253.7363333182,2010-12-03 17:41:54,2341.1715272855918,2,34,0.550297200679779,3.956662654876709,30.761854856386464,31.061043668371376,123.30946248408463,112.61215701833358,6.47544875391759e-05,0.0926398560404777,0,0,0
10260,371283.7513665438,2010-12-03 17:42:24,2371.1865605865364,2,34,0.5501165986061096,3.9582815170288086,30.76644140503792,31.061043668371376,123.3276130742754,112.61215701833358,9.713172767078504e-05,0.0926398560404777,0,0,0
10261,371313.7663614844,2010-12-03 17:42:54,2401.201555431786,2,34,0.5501165986061096,3.959900379180908,30.7710279035335,31.061043668371376,123.34577109217784,112.61215701833358,3.237724376958795e-05,0.0926398560404777,0,0,0
10262,371343.7814908243,2010-12-03 17:43:24,2431.216684846908,2,34,0.5501165986061096,3.961519241333008,30.77561441067541,31.061043668371376,123.36393673104304,112.61215701833358,3.237724376958795e-05,0.0926398560404777,0,0,0
10263,371373.7964704165,2010-12-03 17:43:54,2461.231664434188,2,34,0.5497553944587708,3.9631381034851074,30.78020097045074,31.061043668371376,123.38211029745834,112.61215701833358,3.237724376958795e-05,0.0926398560404777,0,0,0
10264,371403.8114604048,2010-12-03 17:44:24,2491.2466543521764,2,34,0.5497553944587708,3.964756965637207,30.78478742449012,31.061043668371376,123.4002912150026,112.61215701833358,0.0,0.0926398560404777,0,0,0
10265,371433.82660933846,2010-12-03 17:44:54,2521.261803295894,2,34,0.5497553944587708,3.9665377140045166,30.7893733803421,31.061043668371376,123.41847790064328,112.61215701833358,6.47544875391759e-05,0.0926398560404777,0,0,0
10266,371463.84147272666,2010-12-03 17:45:24,2551.276666704068,2,34,0.5501165986061096,3.968318462371826,30.79395899140022,31.061043668371376,123.43667097411372,112.61215701833358,6.47544875391759e-05,0.0926398560404777,0,0,0
10267,371493.856619951,2010-12-03 17:45:54,2581.2918139285066,2,34,0.5499359965324402,3.969937324523926,30.79854467637388,31.061043668371376,123.45487228779072,112.61215701833358,0.0,0.0926398560404777,0,0,0
10268,371523.87155396485,2010-12-03 17:46:24,2611.306748012554,2,34,0.5499359965324402,3.9717180728912354,30.80313028426689,31.061043668371376,123.47308131120688,112.61215701833358,3.237724376958795e-05,0.0926398560404777,0,0,0
10269,371553.8865141489,2010-12-03 17:46:54,2641.321708106326,2,34,0.5499359965324402,3.973498821258545,30.807716486865036,31.061043668371376,123.49130081871616,112.61215701833358,3.237724376958795e-05,0.0926398560404777,0,0,0
10270,371583.9015380014,2010-12-03 17:47:24,2671.336731978809,2,34,0.550297200679779,3.9752795696258554,30.812303058601582,31.061043668371376,123.50952999597328,112.61215701833358,3.237724376958795e-05,0.0926398560404777,0,0,0
10271,371613.9166135775,2010-12-03 17:47:54,2701.3518075349043,2,34,0.5501165986061096,3.977222204208374,30.816889612783797,31.061043668371376,123.52776734208084,112.61215701833358,9.713172767078504e-05,0.0926398560404777,0,0,0
10272,371643.9340353772,2010-12-03 17:48:24,2731.3692294397983,2,34,0.550297200679779,3.9791648387908936,30.82147654259866,31.061043668371376,123.54601407475656,112.61215701833358,6.47544875391759e-05,0.0926398560404777,0,0,0
10273,371673.9485320076,2010-12-03 17:48:54,2761.3837260552223,2,34,0.5501165986061096,3.980945587158203,30.826062942743143,31.061043668371376,123.56426754142733,112.61215701833358,9.713172767078504e-05,0.0926398560404777,0,0,0
10274,371703.9616941924,2010-12-03 17:49:24,2791.396888234954,2,34,0.550297200679779,3.9827263355255127,30.83064909289997,31.061043668371376,123.5825285125578,112.61215701833358,9.713172767078504e-05,0.0926398560404777,0,0,0
10275,371733.97678633966,2010-12-03 17:49:54,2821.411980357273,2,34,0.5499359965324402,3.984345197677612,30.835235555206538,31.061043668371376,123.60079913956324,112.61215701833358,0.0,0.0926398560404777,0,0,0
10276,371763.9917130153,2010-12-03 17:50:24,2851.4269069627107,2,34,0.5501165986061096,3.986611604690552,30.83982199426793,31.061043668371376,123.61907837424562,112.61215701833358,9.713172767078504e-05,0.0926398560404777,0,0,0
10277,371794.0067077403,2010-12-03 17:50:54,2881.441901687662,2,34,0.5501165986061096,3.9882304668426514,30.84440845711097,31.061043668371376,123.63736640255848,112.61215701833358,3.237724376958795e-05,0.0926398560404777,0,0,0
10278,371824.0217581288,2010-12-03 17:51:24,2911.456952076128,2,34,0.5499359965324402,3.990173101425171,30.84899492753353,31.061043668371376,123.6556631795722,112.61215701833358,3.237724376958795e-05,0.0926398560404777,0,0,0
10279,371854.0367716154,2010-12-03 17:51:54,2941.4719656830653,2,34,0.5501165986061096,3.992277622222901,30.853581395538352,31.061043668371376,123.67396882719476,112.61215701833358,9.713172767078504e-05,0.0926398560404777,0,0,0
10280,371884.0518058938,2010-12-03 17:52:25,2971.486999846156,2,34,0.5501165986061096,3.994220018386841,30.85816791535944,31.061043668371376,123.69228361908638,112.61215701833358,6.470680091297254e-05,0.0926398560404777,0,0,0
10281,371914.06996605074,2010-12-03 17:52:55,3001.505160088374,2,34,0.550297200679779,3.9963245391845694,30.862754826293592,31.061043668371376,123.71060900014744,112.61215701833358,9.713172767078504e-05,0.0926398560404777,0,0,0
10282,371944.08185545326,2010-12-03 17:53:25,3031.517049525936,2,34,0.550297200679779,3.99826717376709,30.86734084272444,31.061043668371376,123.72894004216508,112.61215701833358,6.47544875391759e-05,0.0926398560404777,0,0,0
10283,371974.09683422354,2010-12-03 17:53:55,3061.5320281808963,2,34,0.5501165986061096,4.000209808349609,30.87192726329613,31.061043668371376,123.74728186840744,112.61215701833358,6.47544875391759e-05,0.0926398560404777,0,0,0
10284,372004.1118536048,2010-12-03 17:54:25,3091.5470475521784,2,34,0.5501165986061096,4.002314567565918,30.87651364557996,31.061043668371376,123.76563298583643,112.61215701833358,9.71794142969884e-05,0.0926398560404777,0,0,0
10285,372034.1268600389,2010-12-03 17:54:55,3121.5620539862657,2,34,0.5499359965324402,4.0042572021484375,30.88110006055155,31.061043668371376,123.78399376535906,112.61215701833358,6.47544875391759e-05,0.0926398560404777,0,0,0
10286,372064.1418983773,2010-12-03 17:55:25,3151.577092349809,2,34,0.5501165986061096,4.006361484527588,30.88568646390045,31.061043668371376,123.80236413546602,112.61215701833358,6.47544875391759e-05,0.0926398560404777,0,0,0
10287,372094.156898631,2010-12-03 17:55:55,3181.592092603518,2,34,0.5501165986061096,4.0084662437438965,30.89027285692229,31.061043668371376,123.82074419793264,112.61215701833358,0.0,0.0926398560404777,0,0,0
10288,372124.1719209447,2010-12-03 17:56:25,3211.6071148920587,2,34,0.550297200679779,4.010894298553467,30.894859324931016,31.061043668371376,123.8391342959014,112.61215701833358,9.70840483205393e-05,0.0926398560404777,0,0,0
10289,372154.1869302008,2010-12-03 17:56:55,3241.622124158194,2,34,0.5501165986061096,4.012836933135986,30.899445712298142,31.061043668371376,123.8575340103216,112.61215701833358,6.47544875391759e-05,0.0926398560404777,0,0,0
10290,372184.20194872,2010-12-03 17:57:25,3271.63714266733,2,34,0.5499359965324402,4.015103340148926,30.90403221682648,31.061043668371376,123.87594428258436,112.61215701833358,6.47544875391759e-05,0.0926398560404777,0,0,0
10291,372214.2169935446,2010-12-03 17:57:55,3301.652187491951,2,34,0.5501165986061096,4.017369747161865,30.908618628315764,31.061043668371376,123.8943643588046,112.61215701833358,6.47544875391759e-05,0.0926398560404777,0,0,0
10292,372244.2321296664,2010-12-03 17:58:25,3331.6673236137617,2,34,0.550297200679779,4.019636154174805,30.91320511301977,31.061043668371376,123.91279503308506,112.61215701833358,6.47544875391759e-05,0.0926398560404777,0,0,0
10293,372274.2487645178,2010-12-03 17:58:55,3361.683958565353,2,34,0.550297200679779,4.022064685821533,30.91779178521731,31.061043668371376,123.93123690568768,112.61215701833358,9.71794142969884e-05,0.0926398560404777,0,0,0
10294,372304.26190945454,2010-12-03 17:59:25,3391.697103426989,2,34,0.5501165986061096,4.024168968200684,30.922377922745493,31.061043668371376,123.94968713760652,112.61215701833358,6.47544875391759e-05,0.0926398560404777,0,0,0
10295,372334.2769945494,2010-12-03 17:59:55,3421.712188496759,2,34,0.5501165986061096,4.026435375213623,30.92696515332945,31.061043668371376,123.9681524097749,112.61215701833358,6.47544875391759e-05,0.0926398560404777,0,0,0
10296,372364.29202771495,2010-12-03 18:00:25,3451.727221757604,2,34,0.5499359965324402,4.028863906860352,30.93155231180947,31.061043668371376,123.98662819519866,112.61215701833358,9.71794142969884e-05,0.0926398560404777,0,0,0
10297,372394.30712647387,2010-12-03 18:00:55,3481.7423205114264,2,34,0.5501165986061096,4.031291961669922,30.93613939920544,31.061043668371376,124.00511446733977,112.61215701833358,9.70840483205393e-05,0.0926398560404777,0,0,0
10298,372424.3220807231,2010-12-03 18:01:25,3511.757274675442,2,34,0.5501165986061096,4.033882141113281,30.940726553370435,31.061043668371376,124.02361201943984,112.61215701833358,9.70840483205393e-05,0.0926398560404777,0,0,0
10299,372454.33709460567,2010-12-03 18:01:55,3541.772288553053,2,34,0.5499359965324402,4.035986423492432,30.945313761863783,31.061043668371376,124.0421209348284,112.61215701833358,6.47544875391759e-05,0.0926398560404777,0,0,0
10300,372484.352208808,2010-12-03 18:02:25,3571.78740282048,2,34,0.5501165986061096,4.03841495513916,30.949901034096527,31.061043668371376,124.06064131414658,112.61215701833358,6.47544875391759e-05,0.0926398560404777,0,0,0
10301,372514.36712961394,2010-12-03 18:02:55,3601.8023235663363,2,34,0.550297200679779,4.04116678237915,30.95448762872005,31.061043668371376,124.0791701873087,112.61215701833358,9.70840483205393e-05,0.0926398560404777,0,0,0
10302,372544.38215056405,2010-12-03 18:03:25,3631.8173445115344,2,34,0.5499359965324402,4.043595314025879,30.959074102454007,31.061043668371376,124.09770994842272,112.61215701833358,6.47544875391759e-05,0.0926398560404777,0,0,0
10303,372574.3971661359,2010-12-03 18:03:55,3661.832360083361,2,34,0.550297200679779,4.046023368835449,30.96366064460033,31.061043668371376,124.11626153113696,112.61215701833358,6.47544875391759e-05,0.0926398560404777,0,0,0
10304,372604.41262846446,2010-12-03 18:04:25,3691.847822442,2,34,0.5501165986061096,4.048613548278809,30.968247196554408,31.061043668371376,124.13482476909944,112.61215701833358,3.23295607813634e-05,0.0926398560404777,0,0,0
10305,372634.4272071993,2010-12-03 18:04:55,3721.862401256974,2,34,0.5499359965324402,4.051203727722168,30.97283361786111,31.061043668371376,124.15339926019372,112.61215701833358,9.70840483205393e-05,0.0926398560404777,0,0,0
10306,372664.44232041406,2010-12-03 18:05:25,3751.8775143865696,2,34,0.5501165986061096,4.053793907165527,30.977420152732524,31.061043668371376,124.17198598708124,112.61215701833358,6.47544875391759e-05,0.0926398560404777,0,0,0
10307,372694.4572482727,2010-12-03 18:05:55,3781.8924422501377,2,34,0.5499359965324402,4.056384086608887,30.98200669164221,31.061043668371376,124.19058475055488,112.61215701833358,6.47544875391759e-05,0.0926398560404777,0,0,0
10308,372724.4723654723,2010-12-03 18:06:25,3811.907559515024,2,34,0.5499359965324402,4.058974266052246,30.98659329337378,31.061043668371376,124.20919586745744,112.61215701833358,6.47544875391759e-05,0.0926398560404777,0,0,0
10309,372754.48735102447,2010-12-03 18:06:55,3841.922544981936,2,34,0.5501165986061096,4.0615644454956055,30.99117989398653,31.061043668371376,124.22781886174737,112.61215701833358,6.47544875391759e-05,0.0926398560404777,0,0,0
10310,372784.5022470188,2010-12-03 18:07:25,3871.9374409711854,2,34,0.5499359965324402,4.064316749572754,30.9957664493921,31.061043668371376,124.24645387712252,112.61215701833358,6.47544875391759e-05,0.0926398560404777,0,0,0
10311,372814.5174413404,2010-12-03 18:07:55,3901.9526353830497,2,34,0.5501165986061096,4.067068576812744,31.000353083490552,31.061043668371376,124.26510163824454,112.61215701833358,9.70840483205393e-05,0.0926398560404777,0,0,0
10312,372844.532291636,2010-12-03 18:08:25,3931.967485593381,2,34,0.5499359965324402,4.069658756256104,31.00493961343015,31.061043668371376,124.2837614226164,112.61215701833358,6.47544875391759e-05,0.0926398560404777,0,0,0
10313,372874.5498135949,2010-12-03 18:08:55,3961.985007682579,2,34,0.550297200679779,4.072572708129883,31.00952655486577,31.061043668371376,124.3024355139549,112.61215701833358,9.70840483205393e-05,0.0926398560404777,0,0,0
10314,372904.56239757576,2010-12-03 18:09:25,3991.9975915231366,2,34,0.5501165986061096,4.075162887573242,31.014112756399523,31.061043668371376,124.3211192817853,112.61215701833358,3.23295607813634e-05,0.0926398560404777,0,0,0
10315,372934.57735499286,2010-12-03 18:09:55,4022.012548940248,2,34,0.5501165986061096,4.0780768394470215,31.018699278982265,31.061043668371376,124.33981718476896,112.61215701833358,6.47544875391759e-05,0.0926398560404777,0,0,0
10316,372964.5923813465,2010-12-03 18:10:25,4052.027575288892,2,34,0.5501165986061096,4.080990791320801,31.02328584575337,31.061043668371376,124.3585283054086,112.61215701833358,9.70840483205393e-05,0.0926398560404777,0,0,0
10317,372994.6077775856,2010-12-03 18:10:55,4082.0429716182193,2,34,0.5499359965324402,4.083743095397949,31.02787246855521,31.061043668371376,124.37725262005168,112.61215701833358,6.47544875391759e-05,0.0926398560404777,0,0,0
10318,373024.6224239086,2010-12-03 18:11:25,4112.057617921135,2,34,0.5499359965324402,4.08649492263794,31.03245895945074,31.061043668371376,124.39598959384232,112.61215701833358,6.47544875391759e-05,0.0926398560404777,0,0,0
10319,373054.63754738896,2010-12-03 18:11:55,4142.072741341338,2,34,0.5501165986061096,4.089570999145508,31.037045482643663,31.061043668371376,124.41474008140524,112.61215701833358,6.47544875391759e-05,0.0926398560404777,0,0,0
10320,373084.6524484057,2010-12-03 18:12:25,4172.087642353086,2,34,0.5499359965324402,4.092484951019287,31.04163201491315,31.061043668371376,124.4335040863134,112.61215701833358,6.47544875391759e-05,0.0926398560404777,0,0,0
10321,373114.66747804754,2010-12-03 18:12:55,4202.102672014976,2,34,0.5499359965324402,4.095398902893066,31.04621855840418,31.061043668371376,124.45228166382896,112.61215701833358,3.24249267578125e-05,0.0926398560404777,0,0,0
10322,373144.6824814892,2010-12-03 18:13:25,4232.11767544158,2,34,0.5501165986061096,4.098636627197266,31.05080506592003,31.061043668371376,124.47107273995478,112.61215701833358,9.71794142969884e-05,0.0926398560404777,0,0,0
10323,373174.6975020184,2010-12-03 18:13:55,4262.13269596573,2,34,0.5501165986061096,4.101550579071045,31.05539163112071,31.061043668371376,124.48987790927998,112.61215701833358,6.47544875391759e-05,0.0926398560404777,0,0,0
10324,373204.7125520359,2010-12-03 18:14:25,4292.147746088535,2,34,0.550297200679779,4.104626178741455,31.05997825493037,31.061043668371376,124.50869720414968,112.61215701833358,6.47544875391759e-05,0.0926398560404777,0,0,0
10325,373234.72753747774,2010-12-03 18:14:55,4322.162731420111,2,34,0.5499359965324402,4.107702255249023,31.064564834870936,31.061043668371376,124.52753044578635,112.61215701833358,9.71794142969884e-05,0.0926398560404777,0,0,0
10326,373264.7426796346,2010-12-03 18:15:25,4352.177873581953,2,34,0.5499359965324402,4.110939979553223,31.069151441269725,31.061043668371376,124.5463779700946,112.61215701833358,9.71794142969884e-05,0.0926398560404777,0,0,0
10327,373294.7575723156,2010-12-03 18:15:55,4382.192766257957,2,34,0.5501165986061096,4.114015579223633,31.07373797682039,31.061043668371376,124.565239438918,112.61215701833358,0.0001295089750783,0.0926398560404777,0,0,0
10328,373324.77261893474,2010-12-03 18:16:25,4412.2078128770445,2,34,0.5499359965324402,4.117091178894043,31.078324545283955,31.061043668371376,124.5841154235338,112.61215701833358,9.70840483205393e-05,0.0926398560404777,0,0,0
10329,373354.7876217548,2010-12-03 18:16:55,4442.222815702152,2,34,0.5501165986061096,4.120328903198242,31.082911084278237,31.061043668371376,124.60300574182422,112.61215701833358,9.70840483205393e-05,0.0926398560404777,0,0,0
10330,373384.80263147707,2010-12-03 18:17:25,4472.237825424421,2,34,0.5501165986061096,4.1232428550720215,31.08749763580594,31.061043668371376,124.62191060562996,112.61215701833358,6.47544875391759e-05,0.0926398560404777,0,0,0
10331,373414.8176552944,2010-12-03 18:17:55,4502.252849241767,2,34,0.5501165986061096,4.126804351806641,31.09208420703062,31.061043668371376,124.64083014618777,112.61215701833358,0.0001295089750783,0.0926398560404777,0,0,0
10332,373444.83268463047,2010-12-03 18:18:25,4532.267878577846,2,34,0.5501165986061096,4.129880428314209,31.096670817588866,31.061043668371376,124.6597646033878,112.61215701833358,9.71794142969884e-05,0.0926398560404777,0,0,0
10333,373474.84950332425,2010-12-03 18:18:55,4562.28469734686,2,34,0.5501165986061096,4.132956027984619,31.10125768096409,31.061043668371376,124.67871504903816,112.61215701833358,6.47544875391759e-05,0.0926398560404777,0,0,0
10334,373504.8627479141,2010-12-03 18:19:25,4592.297941951703,2,34,0.550297200679779,4.136517524719238,31.10584394481976,31.061043668371376,124.69767792685458,112.61215701833358,0.0001295089750783,0.0926398560404777,0,0,0
10335,373534.87775862886,2010-12-03 18:19:55,4622.312952571206,2,34,0.5499359965324402,4.139593601226807,31.110430470236818,31.061043668371376,124.71665715188416,112.61215701833358,9.71794142969884e-05,0.0926398560404777,0,0,0
10336,373564.8950630213,2010-12-03 18:20:25,4652.330257083975,2,34,0.5504778623580933,4.143155097961426,31.115017391808298,31.061043668371376,124.73565331787042,112.61215701833358,9.71794142969884e-05,0.0926398560404777,0,0,0
10337,373594.9077863991,2010-12-03 18:20:55,4682.342980341466,2,34,0.5501165986061096,4.146554470062256,31.119603501978407,31.061043668371376,124.75466161778952,112.61215701833358,9.70840483205393e-05,0.0926398560404777,0,0,0
10338,373624.9228340708,2010-12-03 18:21:25,4712.358028108409,2,34,0.5497553944587708,4.149630546569824,31.124190033457648,31.061043668371376,124.7736873175988,112.61215701833358,6.47544875391759e-05,0.0926398560404777,0,0,0
10339,373654.9380485777,2010-12-03 18:21:55,4742.373242655377,2,34,0.5499359965324402,4.153353691101074,31.12877662003496,31.061043668371376,124.79272902441072,112.61215701833358,9.70840483205393e-05,0.0926398560404777,0,0,0
10340,373684.9528717507,2010-12-03 18:22:25,4772.388065708128,2,34,0.5501165986061096,4.156753540039063,31.13336311661993,31.061043668371376,124.81178615234568,112.61215701833358,9.71794142969884e-05,0.0926398560404777,0,0,0
10341,373714.9678460699,2010-12-03 18:22:55,4802.403040102486,2,34,0.5501165986061096,4.160152912139893,31.13794963719993,31.061043668371376,124.83085938298316,112.61215701833358,3.23295607813634e-05,0.0926398560404777,0,0,0
10342,373744.9828897717,2010-12-03 18:23:25,4832.418083714088,2,34,0.5501165986061096,4.163876533508301,31.142536226131178,31.061043668371376,124.84994896796756,112.61215701833358,0.0001295089750783,0.0926398560404777,0,0,0
10343,373774.9978828025,2010-12-03 18:23:55,4862.433076744823,2,34,0.5501165986061096,4.16743803024292,31.14712279847073,31.061043668371376,124.86905453537337,112.61215701833358,0.0001295089750783,0.0926398560404777,0,0,0
10344,373805.0131180659,2010-12-03 18:24:26,4892.448312128644,2,34,0.550297200679779,4.17083740234375,31.151709357797905,31.061043668371376,124.88817630783736,112.61215701833358,9.70840483205393e-05,0.0926398560404777,0,0,0
10345,373835.0304097668,2010-12-03 18:24:56,4922.465603844567,2,34,0.5501165986061096,4.174561023712158,31.15629627067545,31.061043668371376,124.90731596621028,112.61215701833358,9.71794142969884e-05,0.0926398560404777,0,0,0
10346,373865.0430950649,2010-12-03 18:25:26,4952.478289072423,2,34,0.5501165986061096,4.178122520446777,31.160882444989458,31.061043668371376,124.92646905371096,112.61215701833358,0.0001295089750783,0.0926398560404777,0,0,0
10347,373895.0579605381,2010-12-03 18:25:56,4982.493154485585,2,34,0.5501165986061096,4.1816840171813965,31.165468945991417,31.061043668371376,124.94564022582608,112.61215701833358,9.71794142969884e-05,0.0926398560404777,0,0,0
10348,373925.0730197887,2010-12-03 18:26:26,5012.508213741117,2,34,0.550297200679779,4.185407161712647,31.17005555733456,31.061043668371376,124.96482860307242,112.61215701833358,9.70840483205393e-05,0.0926398560404777,0,0,0
10349,373955.0880187392,2010-12-03 18:26:56,5042.523212691583,2,34,0.5501165986061096,4.189130783081055,31.174642109588124,31.061043668371376,124.98403364167336,112.61215701833358,9.71794142969884e-05,0.0926398560404777,0,0,0
10350,373985.1030173789,2010-12-03 18:27:26,5072.538211326262,2,34,0.5501165986061096,4.192692279815674,31.17922863358829,31.061043668371376,125.00325553544172,112.61215701833358,9.71794142969884e-05,0.0926398560404777,0,0,0
10351,374015.1180332966,2010-12-03 18:27:56,5102.55322724395,2,34,0.5501165986061096,4.196415424346924,31.183815220261007,31.061043668371376,125.022494776161,112.61215701833358,9.71794142969884e-05,0.0926398560404777,0,0,0
10352,374042.0395419554,2010-12-03 18:28:23,5129.47473591283,2,34,0.5501165986061096,4.200138568878174,31.18792900491841,31.061043668371376,125.03976530389144,112.61215701833358,0.0001295089750783,0.0926398560404777,0,0,0
10353,374072.060298105,2010-12-03 18:28:53,30.014995306397072,3,34,0.0,4.108997344970703,31.18792900491841,31.061043668371376,125.03976530389144,112.61215701833358,-0.0004208564641885,0.0926398560404777,0,0,0
10354,374102.0753229449,2010-12-03 18:29:23,60.03002014628711,3,34,0.0,4.097341537475586,31.18792900491841,31.061043668371376,125.03976530389144,112.61215701833358,-0.0003237724304199,0.0926398560404777,0,0,0
10355,374132.0903429026,2010-12-03 18:29:53,90.04504010402809,3,34,0.0,4.090703964233398,31.18792900491841,31.061043668371376,125.03976530389144,112.61215701833358,-0.0001619339018361,0.0926398560404777,0,0,0
10356,374162.058475934,2010-12-03 18:30:23,120.0131731404688,3,34,0.0,4.08617115020752,31.18792900491841,31.061043668371376,125.03976530389144,112.61215701833358,-9.71794142969884e-05,0.0926398560404777,0,0,0
10357,374162.06684258895,2010-12-03 18:30:23,2.686685714e-06,4,34,1.010309100151062,4.199814796447754,31.187929005672405,31.061043668371376,125.03976530705808,112.61215701833358,0.0,0.0926398560404777,0,0,0
10358,374162.59812560136,2010-12-03 18:30:23,0.531285764190119,4,34,0.9590160250663756,4.199491024017334,31.188072656510307,31.061043668371376,125.04036859423783,112.61215701833358,-6.47544875391759e-05,0.0926398560404777,0,0,0
10359,374164.41053553374,2010-12-03 18:30:25,2.343695626424217,4,34,0.9086260199546814,4.199653148651123,31.18854163500453,31.061043668371376,125.0423381544925,112.61215701833358,-3.23295607813634e-05,0.0926398560404777,0,0,0
10360,374167.3326137581,2010-12-03 18:30:28,5.265773945934691,4,34,0.8585972785949707,4.199814796447754,31.189257675218222,31.061043668371376,125.0453453054498,112.61215701833358,0.0,0.0926398560404777,0,0,0
10361,374171.3635408551,2010-12-03 18:30:32,9.29670094774304,4,34,0.8083878755569458,4.199653148651123,31.190189645893973,31.061043668371376,125.04925931199392,112.61215701833358,0.0,0.0926398560404777,0,0,0
10362,374176.77207971097,2010-12-03 18:30:38,14.705239898902269,4,34,0.7583591341972351,4.199653148651123,31.19136504873683,31.061043668371376,125.05419566478557,112.61215701833358,-3.23295607813634e-05,0.0926398560404777,0,0,0
10363,374183.8007656857,2010-12-03 18:30:45,21.733925783391747,4,34,0.7083303332328796,4.199814796447754,31.19279454498185,31.061043668371376,125.06019914116762,112.61215701833358,0.0,0.0926398560404777,0,0,0
10364,374193.05066777125,2010-12-03 18:30:54,30.98382799427807,4,34,0.6581209897994995,4.199653148651123,31.194547372727364,31.061043668371376,125.06756054881012,112.61215701833358,-3.23295607813634e-05,0.0926398560404777,0,0,0
10365,374206.0815802408,2010-12-03 18:31:07,44.014740343470095,4,34,0.6079115867614746,4.199814796447754,31.196835088036423,31.061043668371376,125.0771684195708,112.61215701833358,3.23295607813634e-05,0.0926398560404777,0,0,0
10366,374225.471814924,2010-12-03 18:31:26,63.40497502670106,4,34,0.5578827857971191,4.199491024017334,31.19996644133545,31.061043668371376,125.09031944574951,112.61215701833358,-6.47544875391759e-05,0.0926398560404777,0,0,0
10367,374258.1119144462,2010-12-03 18:31:59,96.04507453894884,4,34,0.507673442363739,4.199976921081543,31.20477763463274,31.061043668371376,125.11052549372026,112.61215701833358,3.24249267578125e-05,0.0926398560404777,0,0,0
10368,374319.6886833323,2010-12-03 18:33:00,157.6218434249845,4,34,0.4576446712017059,4.199814796447754,31.21299392368699,31.061043668371376,125.14503224480931,112.61215701833358,0.0,0.0926398560404777,0,0,0
10369,374419.0147983644,2010-12-03 18:34:40,256.9479584770564,4,34,0.4074352979660034,4.199814796447754,31.224896509789232,31.061043668371376,125.19502071687818,112.61215701833358,0.0,0.0926398560404777,0,0,0
10370,374547.0121643868,2010-12-03 18:36:48,384.9453244793775,4,34,0.3574065268039703,4.199814796447754,31.23848041967821,31.061043668371376,125.2520704600395,112.61215701833358,3.23295607813634e-05,0.0926398560404777,0,0,0
10371,374700.2278475664,2010-12-03 18:39:21,538.1610077593087,4,34,0.3073777556419372,4.199814796447754,31.25261931601911,31.061043668371376,125.31145096038594,112.61215701833358,0.0,0.0926398560404777,0,0,0
10372,374887.6946943343,2010-12-03 18:42:28,725.6278545272273,4,34,0.2573489844799042,4.199653148651123,31.26730451684893,31.061043668371376,125.3731258662296,112.61215701833358,-3.23295607813634e-05,0.0926398560404777,0,0,0
10373,375115.71942478087,2010-12-03 18:46:16,953.652584893562,4,34,0.2073202133178711,4.199653148651123,31.28198315374861,31.061043668371376,125.43477320734137,112.61215701833358,0.0,0.0926398560404777,0,0,0
10374,375413.51024150976,2010-12-03 18:51:14,1251.4434016024493,4,34,0.1571108251810073,4.199653148651123,31.29699954808609,31.061043668371376,125.49783910877574,112.61215701833358,-6.47544875391759e-05,0.0926398560404777,0,0,0
10375,375853.1263308598,2010-12-03 18:58:34,1691.0594909524857,4,34,0.1070820614695549,4.199814796447754,31.31296164179158,31.061043668371376,125.56487667751476,112.61215701833358,0.0,0.0926398560404777,0,0,0
10376,376672.3285119798,2010-12-03 19:12:13,2510.2616720824512,4,34,0.0570532865822315,4.199814796447754,31.33098312065448,31.061043668371376,125.64056333105054,112.61215701833358,3.23295607813634e-05,0.0926398560404777,0,0,0
10377,376862.2780371524,2010-12-03 19:15:23,2700.2111973002047,4,34,0.0498289167881011,4.199814796447754,31.33381931496788,31.061043668371376,125.65247478867282,112.61215701833358,0.0,0.0926398560404777,0,0,0
10378,376892.3089326076,2010-12-03 19:15:53,30.01499119616893,5,34,0.0,4.191235065460205,31.33381931496788,31.061043668371376,125.65247478867282,112.61215701833358,-3.24249267578125e-05,0.0926398560404777,0,0,0
10379,376922.3084417924,2010-12-03 19:16:23,60.014500380947965,5,34,0.0,4.189939975738525,31.33381931496788,31.061043668371376,125.65247478867282,112.61215701833358,-3.24249267578125e-05,0.0926398560404777,0,0,0
10380,376922.4811802865,2010-12-03 19:16:24,0.186706617235968,6,34,-1.9243103452026844e-05,4.189939975738525,31.33381931496788,31.06104366837139,125.65247478867282,112.61215701833363,0.0,0.0979729741811752,0,0,0
10381,376927.3098757645,2010-12-03 19:16:28,5.015402095213859,6,34,0.0008838032954372,4.189939975738525,31.33382024291264,31.06104366945682,125.65247867682224,112.6121570228815,-3.24249267578125e-05,0.0979729741811752,0,0,0
10382,376957.3111745347,2010-12-03 19:16:58,30.01504039359483,7,34,-1.0997490882873535,3.9998860359191895,31.33382024291264,31.070211732732336,125.65247867682224,112.64904154698118,-0.0010037422180175,0.0979729741811752,0,0,0
10383,376987.32795633166,2010-12-03 19:17:28,60.03182231090444,7,34,-1.099568486213684,3.9705848693847656,31.33382024291264,31.079380247179845,125.65247867682224,112.68557146990156,-0.0006475448608398,0.0979729741811752,0,0,0
10384,377017.34119401936,2010-12-03 19:17:58,90.04505987322298,7,34,-1.099568486213684,3.9500253200531006,31.33382024291264,31.088547599531463,125.65247867682224,112.72187285862351,-0.0004856586456298,0.0979729741811752,0,0,0
10385,377047.3563472437,2010-12-03 19:18:28,120.06021312766768,7,34,-1.0997490882873535,3.934160470962525,31.33382024291264,31.09771552824841,125.65247867682224,112.75801216467237,-0.0003885269106831,0.0979729741811752,0,0,0
10386,377077.3714588596,2010-12-03 19:18:59,150.07532479863352,7,34,-1.099568486213684,3.920885801315308,31.33382024291264,31.10688344481745,125.65247867682224,112.7940184966079,-0.0003237724304199,0.0979729741811752,0,0,0
10387,377107.3885480916,2010-12-03 19:19:29,180.092414040709,7,34,-1.099568486213684,3.90874457359314,31.33382024291264,31.11605201292182,125.65247867682224,112.8299113680326,-0.0003237724304199,0.0979729741811752,0,0,0
10388,377137.4013783002,2010-12-03 19:19:59,210.10524415911905,7,34,-1.099568486213684,3.8977363109588623,31.33382024291264,31.12521929086705,125.65247867682224,112.86569335709775,-0.0002913951757363,0.0979729741811752,0,0,0
10389,377167.4162622896,2010-12-03 19:20:29,240.12012813848307,7,34,-1.099568486213684,3.886889934539795,31.33382024291264,31.134387152749625,125.65247867682224,112.90137859472875,-0.0003561496851034,0.0979729741811752,0,0,0
10390,377197.4312956858,2010-12-03 19:20:59,270.13516163992705,7,34,-1.099568486213684,3.8773386478424072,31.33382024291264,31.143555029195955,125.65247867682224,112.93697022481194,-0.0002266406954731,0.0979729741811752,0,0,0
10391,377227.446308581,2010-12-03 19:21:29,300.1501744398561,7,34,-1.099568486213684,3.8676254749298096,31.33382024291264,31.15272295355994,125.65247867682224,112.97247184107282,-0.0002266406954731,0.0979729741811752,0,0,0
10392,377257.46135519,2010-12-03 19:21:59,330.1652210489179,7,34,-1.0997490882873535,3.858236074447632,31.33382024291264,31.161890939460484,125.65247867682224,113.00788676451302,-0.0002913951757363,0.0979729741811752,0,0,0
10393,377287.4763191434,2010-12-03 19:22:29,360.1801850022942,7,34,-1.099568486213684,3.849170446395874,31.33382024291264,31.17105881975444,125.65247867682224,113.04321804784313,-0.0002913951757363,0.0979729741811752,0,0,0
10394,377317.4914725432,2010-12-03 19:22:59,390.19533839207566,7,34,-1.099568486213684,3.840428590774536,31.33382024291264,31.18022673511076,125.65247867682224,113.07846737510286,-0.0002266406954731,0.0979729741811752,0,0,0
10395,377347.5063480114,2010-12-03 19:23:29,420.210213870285,7,34,-1.099568486213684,3.8321726322174072,31.33382024291264,31.1893946285847,125.65247867682224,113.1136365973068,-0.0001618862152099,0.0979729741811752,0,0,0
10396,377377.5214982784,2010-12-03 19:23:59,450.2253642174951,7,34,-1.099568486213684,3.823430776596069,31.33382024291264,31.198562645476983,125.65247867682224,113.1487282134723,-0.0002266406954731,0.0979729741811752,0,0,0
10397,377407.5363842778,2010-12-03 19:24:29,480.2402501366863,7,34,-1.099568486213684,3.815174579620361,31.33382024291264,31.20773060153489,125.65247867682224,113.18374308807036,-0.0002266406954731,0.0979729741811752,0,0,0
10398,377437.5515275524,2010-12-03 19:24:59,510.2553934112967,7,34,-1.099568486213684,3.807242155075073,31.33382024291264,31.21689855178349,125.65247867682224,113.21868287535963,-0.0001295089750783,0.0979729741811752,0,0,0
10399,377467.56642209314,2010-12-03 19:25:29,540.2702879519419,7,34,-1.0993878841400146,3.799147844314575,31.33382024291264,31.22606649511176,125.65247867682224,113.25354906455478,-0.0001942634553415,0.0979729741811752,0,0,0
10400,377497.581424848,2010-12-03 19:25:59,570.2852907168993,7,34,-1.0997490882873535,3.791215419769287,31.33382024291264,31.23523444252361,125.65247867682224,113.28834282009488,-0.0002266406954731,0.0979729741811752,0,0,0
10401,377527.5965645687,2010-12-03 19:26:29,600.3004304426785,7,34,-1.099568486213684,3.783768653869629,31.33382024291264,31.24440237208856,125.65247867682224,113.32306601396589,-0.0001618862152099,0.0979729741811752,0,0,0
10402,377557.6114727584,2010-12-03 19:26:59,630.3153386172514,7,34,-1.099568486213684,3.7763218879699703,31.33382024291264,31.253570308751872,125.65247867682224,113.35772049211336,-0.0001618862152099,0.0979729741811752,0,0,0
10403,377587.62826656026,2010-12-03 19:27:29,660.3321325043473,7,34,-1.099568486213684,3.769198894500733,31.33382024291264,31.2627385201548,125.65247867682224,113.39230873797328,-0.0001295089750783,0.0979729741811752,0,0,0
10404,377617.6414873107,2010-12-03 19:27:59,690.3453531595933,7,34,-1.099568486213684,3.762075901031494,31.33382024291264,31.271905257470387,125.65247867682224,113.42682546656278,-0.0001618862152099,0.0979729741811752,0,0,0
10405,377647.6565212683,2010-12-03 19:28:29,720.3603871773221,7,34,-1.0997490882873535,3.754791021347046,31.33382024291264,31.28107263956492,125.65247867682224,113.461280291422,-0.0001942634553415,0.0979729741811752,0,0,0
10406,377677.6715412561,2010-12-03 19:28:59,750.3754071100007,7,34,-1.099568486213684,3.7481539249420166,31.33382024291264,31.29024003502791,125.65247867682224,113.49567260891156,-0.0001942634553415,0.0979729741811752,0,0,0
10407,377707.6866545261,2010-12-03 19:29:29,780.390520374933,7,34,-1.099568486213684,3.741678476333618,31.33382024291264,31.29940776153304,125.65247867682224,113.53000475195398,-0.0001295089750783,0.0979729741811752,0,0,0
10408,377737.70154842513,2010-12-03 19:29:59,810.4054142990442,7,34,-1.099568486213684,3.73520302772522,31.33382024291264,31.30857570917158,125.65247867682224,113.56427738478934,-0.0001618862152099,0.0979729741811752,0,0,0
10409,377767.7165719117,2010-12-03 19:30:29,840.4204377855666,7,34,-1.0993878841400146,3.7288894653320312,31.33382024291264,31.31774377037772,125.65247867682224,113.59849135432069,-0.0001295089750783,0.0979729741811752,0,0,0
10410,377797.7319057054,2010-12-03 19:30:59,870.4357715492015,7,34,-1.0997490882873535,3.722252130508423,31.33382024291264,31.32691180230687,125.65247867682224,113.6326475847384,-0.0002266406954731,0.0979729741811752,0,0,0
10411,377827.74660073954,2010-12-03 19:31:29,900.4504665833824,7,34,-1.0997490882873535,3.7162623405456543,31.33382024291264,31.33607968982995,125.65247867682224,113.66674605036556,-0.0001942634553415,0.0979729741811752,0,0,0
10412,377857.7616138503,2010-12-03 19:31:59,930.4654796990974,7,34,-1.0997490882873535,3.7102725505828857,31.33382024291264,31.345247680518288,125.65247867682224,113.70078874679685,-0.0001295089750783,0.0979729741811752,0,0,0
10413,377887.7766453016,2010-12-03 19:32:29,960.4805111554522,7,34,-1.099568486213684,3.7041208744049072,31.33382024291264,31.35441570128242,125.65247867682224,113.73477667996087,-0.0001942634553415,0.0979729741811752,0,0,0
10414,377917.7916630789,2010-12-03 19:32:59,990.4955289277548,7,34,-1.099568486213684,3.6981310844421382,31.33382024291264,31.363583766088368,125.65247867682224,113.76871012085536,-0.0001618862152099,0.0979729741811752,0,0,0
10415,377947.80666383385,2010-12-03 19:33:29,1020.5105296827104,7,34,-1.0993878841400146,3.69278883934021,31.33382024291264,31.372751793294245,125.65247867682224,113.80258958988613,-9.713172767078504e-05,0.0979729741811752,0,0,0
10416,377977.82169675385,2010-12-03 19:33:59,1050.52556262777,7,34,-1.0993878841400146,3.6869609355926514,31.33382024291264,31.381919777525987,125.65247867682224,113.83641608903687,-9.713172767078504e-05,0.0979729741811752,0,0,0
10417,378007.8368382089,2010-12-03 19:34:29,1080.5407041329772,7,34,-1.099568486213684,3.680971145629883,31.33382024291264,31.391087865731365,125.65247867682224,113.87019068302288,-0.0001942634553415,0.0979729741811752,0,0,0
10418,378037.8516764896,2010-12-03 19:34:59,1110.5555423384344,7,34,-1.099568486213684,3.675628900527954,31.33382024291264,31.40025589553679,125.65247867682224,113.9039133471112,-0.0001295089750783,0.0979729741811752,0,0,0
10419,378067.8668296137,2010-12-03 19:35:29,1140.570695537742,7,34,-1.0997490882873535,3.669801235198975,31.33382024291264,31.409423989345168,125.65247867682224,113.93758578602008,-0.0001942634553415,0.0979729741811752,0,0,0
10420,378097.8818669648,2010-12-03 19:35:59,1170.5857328236034,7,34,-1.099568486213684,3.664782762527466,31.33382024291264,31.4185920705809,125.65247867682224,113.97120859943456,-0.0001295089750783,0.0979729741811752,0,0,0
10421,378127.89673010726,2010-12-03 19:36:29,1200.6005959560907,7,34,-1.099568486213684,3.659440517425537,31.33382024291264,31.42776016051328,125.65247867682224,114.00478296908612,-0.0001618862152099,0.0979729741811752,0,0,0
10422,378157.9117434636,2010-12-03 19:36:59,1230.6156093174168,7,34,-1.099568486213684,3.654098272323608,31.33382024291264,31.436928218469056,125.65247867682224,114.03830896673004,-0.0001942634553415,0.0979729741811752,0,0,0
10423,378187.9289067048,2010-12-03 19:37:29,1260.632772648861,7,34,-1.099568486213684,3.6490797996521,31.33382024291264,31.446096889087745,125.65247867682224,114.07178973422234,-0.0001295089750783,0.0979729741811752,0,0,0
10424,378217.9419210065,2010-12-03 19:37:59,1290.6457868603793,7,34,-1.099568486213684,3.644061326980591,31.33382024291264,31.455264332362173,125.65247867682224,114.10521915897782,-0.0001295089750783,0.0979729741811752,0,0,0
10425,378247.9567986752,2010-12-03 19:38:29,1320.6606645490897,7,34,-1.099568486213684,3.639042854309082,31.33382024291264,31.464432255621617,125.65247867682224,114.13860406498742,-0.0001618862152099,0.0979729741811752,0,0,0
10426,378277.9718302417,2010-12-03 19:38:59,1350.6756960906564,7,34,-1.099568486213684,3.634024381637573,31.33382024291264,31.47360032258616,125.65247867682224,114.1719439456678,-0.0001618862152099,0.0979729741811752,0,0,0
10427,378307.98697856895,2010-12-03 19:39:29,1380.6908444278647,7,34,-1.0997490882873535,3.6291677951812735,31.33382024291264,31.482768355697328,125.65247867682224,114.20523884118846,-0.0001618862152099,0.0979729741811752,0,0,0
10428,378338.0019603918,2010-12-03 19:39:59,1410.7058264311574,7,34,-1.099568486213684,3.6244730949401855,31.33382024291264,31.49193633313572,125.65247867682224,114.2384893286162,-0.0001618862152099,0.0979729741811752,0,0,0
10429,378368.0168794034,2010-12-03 19:40:29,1440.7207452772864,7,34,-1.099568486213684,3.619940280914306,31.33382024291264,31.501104294146685,125.65247867682224,114.27169664241156,-9.713172767078504e-05,0.0979729741811752,0,0,0
10430,378398.0319160827,2010-12-03 19:40:59,1470.7357819817005,7,34,-1.099568486213684,3.615083694458008,31.33382024291264,31.51027236915753,125.65247867682224,114.3048617845244,-0.0001295089750783,0.0979729741811752,0,0,0
10431,378428.0469014093,2010-12-03 19:41:29,1500.7507673433504,7,34,-1.0993878841400146,3.610712766647339,31.33382024291264,31.51944036040088,125.65247867682224,114.33798496904733,-0.0001295089750783,0.0979729741811752,0,0,0
10432,378458.06191311154,2010-12-03 19:41:59,1530.765778960336,7,34,-1.099568486213684,3.60634183883667,31.33382024291264,31.528608376228085,125.65247867682224,114.37106730709124,-9.713172767078504e-05,0.0979729741811752,0,0,0
10433,378488.0770509525,2010-12-03 19:42:29,1560.7809168064375,7,34,-1.099568486213684,3.601970911026001,31.33382024291264,31.53777641545556,125.65247867682224,114.40411028053988,-0.0001618862152099,0.0979729741811752,0,0,0
10434,378518.09198742267,2010-12-03 19:42:59,1590.7958532814348,7,34,-1.0997490882873535,3.597761869430542,31.33382024291264,31.546944429127,125.65247867682224,114.43711457405578,-0.0001295089750783,0.0979729741811752,0,0,0
10435,378548.10695898486,2010-12-03 19:43:29,1620.8108248587832,7,34,-1.099568486213684,3.593876600265503,31.33382024291264,31.5561124141196,125.65247867682224,114.4700806380402,-9.713172767078504e-05,0.0979729741811752,0,0,0
10436,378578.1219836293,2010-12-03 19:43:59,1650.8258494781244,7,34,-1.099568486213684,3.589829683303833,31.33382024291264,31.565280474186032,125.65247867682224,114.5030095646763,-9.713172767078504e-05,0.0979729741811752,0,0,0
10437,378608.1369921386,2010-12-03 19:44:29,1680.8408579873762,7,34,-1.099568486213684,3.585782527923584,31.33382024291264,31.574448620392168,125.65247867682224,114.53590251221024,-0.0001295089750783,0.0979729741811752,0,0,0
10438,378638.15202020144,2010-12-03 19:44:59,1710.855886075349,7,34,-1.099568486213684,3.581897258758545,31.33382024291264,31.58361668089293,125.65247867682224,114.56875944676992,-6.47544875391759e-05,0.0979729741811752,0,0,0
10439,378668.16702368826,2010-12-03 19:45:29,1740.8708895320278,7,34,-1.099568486213684,3.578173875808716,31.33382024291264,31.592784695506342,125.65247867682224,114.6015811884262,-0.0001295089750783,0.0979729741811752,0,0,0
10440,378698.1820419116,2010-12-03 19:45:59,1770.885907785528,7,34,-1.0997490882873535,3.5744504928588867,31.33382024291264,31.60195274691394,125.65247867682224,114.63436894826536,-9.713172767078504e-05,0.0979729741811752,0,0,0
10441,378728.1970756687,2010-12-03 19:46:29,1800.9009415275707,7,34,-1.099929690361023,3.5707271099090576,31.33382024291264,31.61112073135188,125.65247867682224,114.66712363503096,-0.0001295089750783,0.0979729741811752,0,0,0
10442,378758.214474847,2010-12-03 19:46:59,1830.9183407810976,7,34,-1.099568486213684,3.5676512718200684,31.33382024291264,31.620289560535948,125.65247867682224,114.6998492390138,-6.47544875391759e-05,0.0979729741811752,0,0,0
10443,378788.2288648421,2010-12-03 19:47:29,1860.9327307762007,7,34,-1.099568486213684,3.564251661300659,31.33382024291264,31.629457470170177,125.65247867682224,114.73254001330538,-3.237724376958795e-05,0.0979729741811752,0,0,0
10444,378818.2422384931,2010-12-03 19:47:59,1890.946104367021,7,34,-1.099568486213684,3.56085205078125,31.33382024291264,31.638625017687858,125.65247867682224,114.76519865495972,-6.47544875391759e-05,0.0979729741811752,0,0,0
10445,378848.257121485,2010-12-03 19:48:29,1920.9609873539152,7,34,-1.099568486213684,3.557452440261841,31.33382024291264,31.64779303590541,125.65247867682224,114.7978289939666,-9.713172767078504e-05,0.0979729741811752,0,0,0
10446,378878.2721574376,2010-12-03 19:48:59,1950.9760232864087,7,34,-1.0997490882873535,3.554052829742432,31.33382024291264,31.65696119644567,125.65247867682224,114.83042949636618,-9.713172767078504e-05,0.0979729741811752,0,0,0
10447,378908.2871549695,2010-12-03 19:49:29,1980.9910208434064,7,34,-1.099568486213684,3.5509769916534424,31.33382024291264,31.666129258122,125.65247867682224,114.8630000437364,-9.713172767078504e-05,0.0979729741811752,0,0,0
10448,378938.3021928569,2010-12-03 19:49:59,2011.006058705702,7,34,-1.0993878841400146,3.547901153564453,31.33382024291264,31.67529742729361,125.65247867682224,114.89554153042788,-6.47544875391759e-05,0.0979729741811752,0,0,0
10449,378968.3172082382,2010-12-03 19:50:29,2041.0210741121173,7,34,-1.099568486213684,3.544663429260254,31.33382024291264,31.684465544111777,125.65247867682224,114.92805360394593,-6.47544875391759e-05,0.0979729741811752,0,0,0
10450,378998.3322413086,2010-12-03 19:51:00,2071.0361071574266,7,34,-1.0997490882873535,3.5414257049560547,31.33382024291264,31.69363362726624,125.65247867682224,114.9605356926324,-6.47544875391759e-05,0.0979729741811752,0,0,0
10451,379028.3495501922,2010-12-03 19:51:30,2101.0534161513456,7,34,-1.099568486213684,3.538026094436645,31.33382024291264,31.70280246231123,125.65247867682224,114.99299084065753,-9.713172767078504e-05,0.0979729741811752,0,0,0
10452,379058.3622463674,2010-12-03 19:52:00,2131.0661122161687,7,34,-1.099568486213684,3.5346264839172363,31.33382024291264,31.711969880949635,125.65247867682224,115.02541089856332,-0.0001295089750783,0.0979729741811752,0,0,0
10453,379088.3772552475,2010-12-03 19:52:30,2161.081121096344,7,34,-1.0997490882873535,3.531550645828247,31.33382024291264,31.72113801765689,125.65247867682224,115.0578035174631,-9.713172767078504e-05,0.0979729741811752,0,0,0
10454,379118.3926978821,2010-12-03 19:53:00,2191.096563791049,7,34,-1.099568486213684,3.528312921524048,31.33382024291264,31.73030621762097,125.65247867682224,115.09016615235409,-6.47544875391759e-05,0.0979729741811752,0,0,0
10455,379148.4073039148,2010-12-03 19:53:30,2221.111169758592,7,34,-1.099568486213684,3.5249133110046387,31.33382024291264,31.7394742492789,125.65247867682224,115.1224977453188,-9.713172767078504e-05,0.0979729741811752,0,0,0
10456,379178.42230240407,2010-12-03 19:54:00,2251.126168277984,7,34,-1.0997490882873535,3.521513700485229,31.33382024291264,31.74864238148344,125.65247867682224,115.15479907215946,-9.713172767078504e-05,0.0979729741811752,0,0,0
10457,379208.4373096251,2010-12-03 19:54:30,2281.141175473968,7,34,-1.0997490882873535,3.5179522037506104,31.33382024291264,31.75781042526932,125.65247867682224,115.18706932466776,-0.0001295089750783,0.0979729741811752,0,0,0
10458,379238.4523507756,2010-12-03 19:55:00,2311.156216644496,7,34,-1.0997490882873535,3.514390707015991,31.33382024291264,31.766978528872613,125.65247867682224,115.2193075971676,-0.0001295089750783,0.0979729741811752,0,0,0
10459,379268.4673471948,2010-12-03 19:55:30,2341.1712130436126,7,34,-1.0997490882873535,3.510829448699951,31.33382024291264,31.776146636232397,125.65247867682224,115.2515133828908,-0.0001295089750783,0.0979729741811752,0,0,0
10460,379298.4823611576,2010-12-03 19:56:00,2371.186227011448,7,34,-1.099568486213684,3.507429838180542,31.33382024291264,31.78531474307564,125.65247867682224,115.28368596148366,-9.713172767078504e-05,0.0979729741811752,0,0,0
10461,379328.4974049396,2010-12-03 19:56:30,2401.201270788462,7,34,-1.099568486213684,3.503544569015503,31.33382024291264,31.794482923910227,125.65247867682224,115.31582450664249,-9.713172767078504e-05,0.0979729741811752,0,0,0
10462,379358.5125006909,2010-12-03 19:57:00,2431.2163666450742,7,34,-1.0997490882873535,3.499497413635254,31.33382024291264,31.80365114308962,125.65247867682224,115.34792738897958,-0.0001295089750783,0.0979729741811752,0,0,0
10463,379388.5291268757,2010-12-03 19:57:30,2461.2329928198246,7,34,-1.099568486213684,3.495288372039795,31.33382024291264,31.81281977259382,125.65247867682224,115.3799937920142,-9.713172767078504e-05,0.0979729741811752,0,0,0
10464,379418.5425545061,2010-12-03 19:58:00,2491.246420384958,7,34,-1.099568486213684,3.490917444229126,31.33382024291264,31.82198739619702,125.65247867682224,115.41201668243744,-9.713172767078504e-05,0.0979729741811752,0,0,0
10465,379448.557536765,2010-12-03 19:58:30,2521.261402633862,7,34,-1.0997490882873535,3.485898971557617,31.33382024291264,31.831155494694546,125.65247867682224,115.44399915311229,-0.0001295089750783,0.0979729741811752,0,0,0
10466,379478.5725730483,2010-12-03 19:59:00,2551.276438922241,7,34,-1.0997490882873535,3.4807186126708984,31.33382024291264,31.84032355894363,125.65247867682224,115.47593603247492,-0.0001618862152099,0.0979729741811752,0,0,0
10467,379508.58748116274,2010-12-03 19:59:30,2581.291347121876,7,34,-1.099568486213684,3.47505259513855,31.33382024291264,31.8494914974217,125.65247867682224,115.50782165902096,-0.0001618862152099,0.0979729741811752,0,0,0
10468,379538.6024719329,2010-12-03 20:00:00,2611.3063377817107,7,34,-1.0997490882873535,3.4687390327453613,31.33382024291264,31.858659463775567,125.65247867682224,115.53965246415936,-0.0001942634553415,0.0979729741811752,0,0,0
10469,379568.6175072889,2010-12-03 20:00:30,2641.32137315782,7,34,-1.099568486213684,3.461939811706543,31.33382024291264,31.86782746585348,125.65247867682224,115.57142281390234,-0.0001942634553415,0.0979729741811752,0,0,0
10470,379598.6325053522,2010-12-03 20:01:00,2671.3363711960146,7,34,-1.099568486213684,3.454007387161255,31.33382024291264,31.876995450431235,125.65247867682224,115.6031249797494,-0.0001942634553415,0.0979729741811752,0,0,0
10471,379628.6475091146,2010-12-03 20:01:30,2701.351374963467,7,34,-1.099568486213684,3.444779872894287,31.33382024291264,31.886163371256604,125.65247867682224,115.63474898411862,-0.0002913951757363,0.0979729741811752,0,0,0
10472,379658.6626503591,2010-12-03 20:02:00,2731.366516203013,7,34,-1.099568486213684,3.4340953826904297,31.33382024291264,31.89533144289353,125.65247867682224,115.66628376653438,-0.0003237724304199,0.0979729741811752,0,0,0
10473,379688.677542183,2010-12-03 20:02:30,2761.3814080319103,7,34,-1.099568486213684,3.421630382537842,31.33382024291264,31.90449945961537,125.65247867682224,115.69771202799932,-0.0003561496851034,0.0979729741811752,0,0,0
10474,379718.69288751046,2010-12-03 20:03:00,2791.396753424483,7,34,-1.099568486213684,3.406089305877685,31.33382024291264,31.913667561586045,125.65247867682224,115.72901248660678,-0.0004209041653666,0.0979729741811752,0,0,0
10475,379748.70758071006,2010-12-03 20:03:30,2821.411446558937,7,34,-1.099568486213684,3.3866629600524902,31.33382024291264,31.922835492925657,125.65247867682224,115.76015314176983,-0.0005827903514727,0.0979729741811752,0,0,0
10476,379778.72261130426,2010-12-03 20:04:00,2851.4264771531466,7,34,-1.0997490882873535,3.361732482910156,31.33382024291264,31.932003611817912,125.65247867682224,115.79109327259278,-0.0007446765666827,0.0979729741811752,0,0,0
10477,379808.7376015481,2010-12-03 20:04:30,2881.441467396946,7,34,-1.099568486213684,3.3290317058563232,31.33382024291264,31.94117167793116,125.65247867682224,115.82177083450073,-0.0010036944877356,0.0979729741811752,0,0,0
10478,379838.7526604828,2010-12-03 20:05:00,2911.456526441953,7,34,-1.0997490882873535,3.285322427749634,31.33382024291264,31.950339708398243,125.65247867682224,115.8521012995732,-0.0013274669181555,0.0979729741811752,0,0,0
10479,379868.7676436139,2010-12-03 20:05:30,2941.471509457766,7,34,-1.0993878841400146,3.2257485389709477,31.33382024291264,31.95950770864665,125.65247867682224,115.88196313306617,-0.0018131255637854,0.0979729741811752,0,0,0
10480,379898.7828125474,2010-12-03 20:06:00,2971.48667839624,7,34,-1.0993878841400146,3.1418917179107666,31.33382024291264,31.968675716554397,125.65247867682224,115.91117562141352,-0.0025901794433593,0.0979729741811752,0,0,0
10481,379928.79779351805,2010-12-03 20:06:30,3001.5016593769883,7,34,-1.099568486213684,3.0146496295928955,31.33382024291264,31.977843747226988,125.65247867682224,115.93944346367874,-0.0042413710616528,0.0979729741811752,0,0,0
10482,379955.4534257587,2010-12-03 20:06:57,3028.157291617602,7,34,-1.099568486213684,2.814396858215332,31.33382024291264,31.9859856548877,125.65247867682224,115.96325422527266,-0.0076086521148681,0.0979729741811752,0,0,0
10483,379966.37559453066,2010-12-03 20:07:08,3039.07946045467,7,34,-1.099568486213684,2.699943780899048,31.33382024291264,31.989321765338104,125.65247867682224,115.97245641494196,-0.0086770532652735,0.0979729741811752,0,0,0
10484,380026.3905543294,2010-12-03 20:08:08,60.01440960505565,8,34,0.0,3.3941097259521484,31.33382024291264,31.989321765338104,125.65247867682224,115.97245641494196,0.0012627125252038,0.0979729741811752,0,0,0
10485,380026.5787763086,2010-12-03 20:08:08,0.185904436038912,9,34,0.0001613661734154,3.3945953845977783,31.33382025124561,31.989321765338104,125.65247870510927,115.97245641494196,0.0,0.0949056595563888,0,0,0
10486,380031.4065550855,2010-12-03 20:08:13,5.013683147679032,9,34,0.0008838032954372,3.4020421504974365,31.33382113281755,31.989321765338104,125.65248170156116,115.97245641494196,0.0010684489971026,0.0949056595563888,0,0,0
