Data_Point,Test_Time(s),Date_Time,Step_Time(s),Step_Index,Cycle_Index,Current(A),Voltage(V),Charge_Capacity(Ah),Discharge_Capacity(Ah),Charge_Energy(Wh),Discharge_Energy(Wh),dV/dt(V/s),Internal_Resistance(Ohm),Is_FC_Data,AC_Impedance(Ohm),ACI_Phase_Angle(Deg)
12049,436204.80994022096,2010-12-04 11:44:33,30.01521029137893,1,40,0.0,3.398156881332397,36.01565591969847,36.6804983634262,144.4037797684976,133.0318630268421,0.0007122993702068,0.0930307656526565,0,0,0
12050,436234.8248962546,2010-12-04 11:45:03,60.0301663300598,1,40,0.0,3.422439813613892,36.01565591969847,36.6804983634262,144.4037797684976,133.0318630268421,0.0005827903514727,0.0930307656526565,0,0,0
12051,436264.8399831088,2010-12-04 11:45:33,90.04525318427008,1,40,0.0,3.440570831298828,36.01565591969847,36.6804983634262,144.4037797684976,133.0318630268421,0.0004209041653666,0.0930307656526565,0,0,0
12052,436294.8081849465,2010-12-04 11:46:03,120.013455011895,1,40,0.0,3.4553024768829346,36.01565591969847,36.6804983634262,144.4037797684976,133.0318630268421,0.0003561496851034,0.0930307656526565,0,0,0
12053,436324.8322538225,2010-12-04 11:46:33,30.01499527632223,2,40,0.550297200679779,3.613788604736328,36.02024257572899,36.6804983634262,144.42019532893937,133.0318630268421,0.0015541076427325,0.0930307656526565,0,0,0
12054,436354.84731087246,2010-12-04 11:47:03,60.030052416590514,2,40,0.5501165986061096,3.659764289855957,36.02482926066408,36.6804983634262,144.4368826150079,133.0318630268421,0.0010684489971026,0.0930307656526565,0,0,0
12055,436384.8624008946,2010-12-04 11:47:33,90.04514234845944,2,40,0.5499359965324402,3.692626953125,36.02941587903091,36.6804983634262,144.4537470959493,133.0318630268421,0.0007770538213662,0.0930307656526565,0,0,0
12056,436414.87748388416,2010-12-04 11:48:03,120.06022533304032,2,40,0.5499359965324402,3.7185287475585938,36.03400249517037,36.6804983634262,144.47074523001288,133.0318630268421,0.0006151676061563,0.0930307656526565,0,0,0
12057,436444.8925792496,2010-12-04 11:48:33,150.0753207034428,2,40,0.5501165986061096,3.7392501831054688,36.03858913173149,36.6804983634262,144.48784998531173,133.0318630268421,0.0004856586456298,0.0930307656526565,0,0,0
12058,436474.9077224038,2010-12-04 11:49:03,180.09046392291586,2,40,0.5499359965324402,3.755600452423096,36.0431752279954,36.6804983634262,144.5050380233679,133.0318630268421,0.0003561496851034,0.0930307656526565,0,0,0
12059,436504.9226826831,2010-12-04 11:49:33,210.1054241620494,2,40,0.5499359965324402,3.766932487487793,36.047761027565805,36.6804983634262,144.52228896306414,133.0318630268421,0.0001618862152099,0.0930307656526565,0,0,0
12060,436534.93779273005,2010-12-04 11:50:03,240.12053419393644,2,40,0.5499359965324402,3.774541139602661,36.05234694381971,36.6804983634262,144.5395829241612,133.0318630268421,0.0001618862152099,0.0930307656526565,0,0,0
12061,436564.9530049062,2010-12-04 11:50:33,270.1357463649929,2,40,0.5501165986061096,3.77988338470459,36.056932790565234,36.6804983634262,144.55690513392588,133.0318630268421,0.0001295089750783,0.0930307656526565,0,0,0
12062,436594.9682218139,2010-12-04 11:51:03,300.15096327784914,2,40,0.5499359965324402,3.784254312515259,36.061518653091404,36.6804983634262,144.57424995304993,133.0318630268421,6.47544875391759e-05,0.0930307656526565,0,0,0
12063,436624.9830366864,2010-12-04 11:51:33,330.1657781853304,2,40,0.5499359965324402,3.788949012756348,36.06610444256876,36.6804983634262,144.59161485160772,133.0318630268421,0.0001295089750783,0.0930307656526565,0,0,0
12064,436654.9981495603,2010-12-04 11:52:03,360.1808910141776,2,40,0.5499359965324402,3.7928342819213863,36.07069082724376,36.6804983634262,144.60900123846736,133.0318630268421,6.47544875391759e-05,0.0930307656526565,0,0,0
12065,436685.0132143496,2010-12-04 11:52:33,390.19595580348016,2,40,0.550297200679779,3.796881437301636,36.075277498528365,36.6804983634262,144.62640710174765,133.0318630268421,9.713172767078504e-05,0.0930307656526565,0,0,0
12066,436715.0301050877,2010-12-04 11:53:03,420.2128466769229,2,40,0.5501165986061096,3.800604820251465,36.07986448418998,36.6804983634262,144.6438318286933,133.0318630268421,9.713172767078504e-05,0.0930307656526565,0,0,0
12067,436745.0433836471,2010-12-04 11:53:33,450.2261251059367,2,40,0.550297200679779,3.804490089416504,36.08445095288764,36.6804983634262,144.66127169102785,133.0318630268421,0.0001618862152099,0.0930307656526565,0,0,0
12068,436775.0584672432,2010-12-04 11:54:03,480.2412086970268,2,40,0.550297200679779,3.807889699935913,36.089037709492594,36.6804983634262,144.67872930237004,133.0318630268421,0.0001295089750783,0.0930307656526565,0,0,0
12069,436805.0735608743,2010-12-04 11:54:33,510.256302338126,2,40,0.5501165986061096,3.811451196670532,36.0936244304365,36.6804983634262,144.69620300384813,133.0318630268421,6.47544875391759e-05,0.0930307656526565,0,0,0
12070,436835.0886275682,2010-12-04 11:55:03,540.2713690221435,2,40,0.5499359965324402,3.814850807189941,36.09821108247582,36.6804983634262,144.713692567388,133.0318630268421,6.47544875391759e-05,0.0930307656526565,0,0,0
12071,436865.1037323421,2010-12-04 11:55:33,570.2864738210085,2,40,0.550297200679779,3.818412303924561,36.102797780585846,36.6804983634262,144.7311982160778,133.0318630268421,6.47544875391759e-05,0.0930307656526565,0,0,0
12072,436895.1187960336,2010-12-04 11:56:03,600.301537487517,2,40,0.550297200679779,3.8218119144439697,36.107384413579794,36.6804983634262,144.74871941860408,133.0318630268421,9.713172767078504e-05,0.0930307656526565,0,0,0
12073,436925.1338888578,2010-12-04 11:56:33,630.316630311583,2,40,0.550297200679779,3.825049638748169,36.11197112697068,36.6804983634262,144.76625661153506,133.0318630268421,6.47544875391759e-05,0.0930307656526565,0,0,0
12074,436955.1489681631,2010-12-04 11:57:03,660.3317096170084,2,40,0.5501165986061096,3.828773021697998,36.11655782478903,36.6804983634262,144.78380963934748,133.0318630268421,0.0001295089750783,0.0930307656526565,0,0,0
12075,436985.164077363,2010-12-04 11:57:33,690.3468188168249,2,40,0.550297200679779,3.832334518432617,36.12114457868423,36.6804983634262,144.80137904382056,133.0318630268421,0.0001295089750783,0.0930307656526565,0,0,0
12076,437015.1791407488,2010-12-04 11:58:03,720.361882202635,2,40,0.5501165986061096,3.835895776748657,36.12573123605931,36.6804983634262,144.81896429079103,133.0318630268421,0.0001295089750783,0.0930307656526565,0,0,0
12077,437045.1943632906,2010-12-04 11:58:33,750.3771048246984,2,40,0.550297200679779,3.839457273483277,36.130317876601,36.6804983634262,144.83656602346858,133.0318630268421,9.713172767078504e-05,0.0930307656526565,0,0,0
12078,437075.2093281713,2010-12-04 11:59:03,780.3920696251827,2,40,0.5499359965324402,3.843018770217896,36.13490453473013,36.6804983634262,144.85418448268328,133.0318630268421,9.713172767078504e-05,0.0930307656526565,0,0,0
12079,437105.2243820284,2010-12-04 11:59:33,810.4071234872932,2,40,0.5501165986061096,3.846580266952514,36.13949117174169,36.6804983634262,144.8718194242109,133.0318630268421,9.713172767078504e-05,0.0930307656526565,0,0,0
12080,437135.2394828724,2010-12-04 12:00:03,840.4222244165288,2,40,0.5501165986061096,3.850303649902344,36.14407791116318,36.6804983634262,144.88947137911796,133.0318630268421,0.0001295089750783,0.0930307656526565,0,0,0
12081,437165.2569076896,2010-12-04 12:00:33,870.4396492537198,2,40,0.5499359965324402,3.853703260421753,36.14866499249784,36.6804983634262,144.90714096699867,133.0318630268421,6.47544875391759e-05,0.0930307656526565,0,0,0
12082,437195.2696399746,2010-12-04 12:01:03,900.4523814284006,2,40,0.5499359965324402,3.857264757156372,36.15325132699408,36.6804983634262,144.92482388430025,133.0318630268421,6.47544875391759e-05,0.0930307656526565,0,0,0
12083,437225.2847214103,2010-12-04 12:01:33,930.4674628641272,2,40,0.5501165986061096,3.860664367675781,36.1578380942621,36.6804983634262,144.94252432162108,133.0318630268421,9.713172767078504e-05,0.0930307656526565,0,0,0
12084,437255.2997998234,2010-12-04 12:02:03,960.482541282345,2,40,0.550297200679779,3.8640639781951904,36.16242480160847,36.6804983634262,144.9602400041948,133.0318630268421,6.47544875391759e-05,0.0930307656526565,0,0,0
12085,437285.3149306922,2010-12-04 12:02:33,990.4976721410588,2,40,0.550297200679779,3.8673017024993896,36.16701146904367,36.6804983634262,144.9779705495281,133.0318630268421,9.713172767078504e-05,0.0930307656526565,0,0,0
12086,437315.3317442834,2010-12-04 12:03:03,1020.5144857422124,2,40,0.5501165986061096,3.870377540588379,36.17159843875336,36.6804983634262,144.99571687585612,133.0318630268421,6.47544875391759e-05,0.0930307656526565,0,0,0
12087,437345.3450604112,2010-12-04 12:03:33,1050.527801870038,2,40,0.5501165986061096,3.873453378677368,36.17618491770596,36.6804983634262,145.01347537136257,133.0318630268421,9.713172767078504e-05,0.0930307656526565,0,0,0
12088,437375.3601432253,2010-12-04 12:04:03,1080.5428846841949,2,40,0.5501165986061096,3.8762054443359375,36.18077167043968,36.6804983634262,145.0312482632953,133.0318630268421,6.47544875391759e-05,0.0930307656526565,0,0,0
12089,437405.3753538926,2010-12-04 12:04:34,1110.558095421684,2,40,0.5499359965324402,3.878957509994507,36.185358393266426,36.6804983634262,145.0490338753549,133.0318630268421,6.47544875391759e-05,0.0930307656526565,0,0,0
12090,437435.3926193382,2010-12-04 12:05:04,1140.5753609173598,2,40,0.5501165986061096,3.881547689437866,36.18994546658167,36.6804983634262,145.06683296464237,133.0318630268421,6.47544875391759e-05,0.0930307656526565,0,0,0
12091,437465.4054331009,2010-12-04 12:05:34,1170.5881746750567,2,40,0.5499359965324402,3.8838140964508057,36.19453186740594,36.6804983634262,145.08464088190274,133.0318630268421,3.237724376958795e-05,0.0930307656526565,0,0,0
12092,437495.420507028,2010-12-04 12:06:04,1200.6032485018488,2,40,0.550297200679779,3.886242389678955,36.19911858072303,36.6804983634262,145.10246073174824,133.0318630268421,6.47544875391759e-05,0.0930307656526565,0,0,0
12093,437525.43573186046,2010-12-04 12:06:34,1230.6184733795253,2,40,0.550297200679779,3.8885087966918954,36.20370533292219,36.6804983634262,145.12029088399925,133.0318630268421,9.713172767078504e-05,0.0930307656526565,0,0,0
12094,437555.4506361103,2010-12-04 12:07:04,1260.6333775641692,2,40,0.5501165986061096,3.890451431274414,36.20829204327426,36.6804983634262,145.13813038525402,133.0318630268421,6.47544875391759e-05,0.0930307656526565,0,0,0
12095,437585.4657290096,2010-12-04 12:07:34,1290.6484704634224,2,40,0.550297200679779,3.892232179641724,36.21287878570004,36.6804983634262,145.1559790407633,133.0318630268421,3.237724376958795e-05,0.0930307656526565,0,0,0
12096,437615.4807981598,2010-12-04 12:08:04,1320.6635396135769,2,40,0.5501165986061096,3.894174814224243,36.217465578382,36.6804983634262,145.1738364581722,133.0318630268421,3.237724376958795e-05,0.0930307656526565,0,0,0
12097,437645.49589252257,2010-12-04 12:08:34,1350.6786339764724,2,40,0.5501165986061096,3.895793676376343,36.22205241595639,36.6804983634262,145.19170188956005,133.0318630268421,6.47544875391759e-05,0.0930307656526565,0,0,0
12098,437675.5109646853,2010-12-04 12:09:04,1380.6937061341107,2,40,0.5499359965324402,3.8974125385284415,36.2266390250088,36.6804983634262,145.20957423563416,133.0318630268421,6.47544875391759e-05,0.0930307656526565,0,0,0
12099,437705.5260683413,2010-12-04 12:09:34,1410.708809815194,2,40,0.5501165986061096,3.899031400680542,36.231225735683175,36.6804983634262,145.22745459797375,133.0318630268421,0.0,0.0930307656526565,0,0,0
12100,437735.5411618821,2010-12-04 12:10:04,1440.7239033410062,2,40,0.5501165986061096,3.9006502628326416,36.23581247008919,36.6804983634262,145.2453424354644,133.0318630268421,3.237724376958795e-05,0.0930307656526565,0,0,0
12101,437765.55623516254,2010-12-04 12:10:34,1470.7389766164265,2,40,0.5501165986061096,3.902269124984741,36.24039916954808,36.6804983634262,145.2632373801566,133.0318630268421,3.237724376958795e-05,0.0930307656526565,0,0,0
12102,437795.5713046836,2010-12-04 12:11:04,1500.7540461425162,2,40,0.5499359965324402,3.903726100921631,36.24498590601978,36.6804983634262,145.28113959626862,133.0318630268421,3.237724376958795e-05,0.0930307656526565,0,0,0
12103,437825.5863904451,2010-12-04 12:11:34,1530.7691318989948,2,40,0.5501165986061096,3.905183076858521,36.24957268625299,36.6804983634262,145.29904910774462,133.0318630268421,0.0,0.0930307656526565,0,0,0
12104,437855.6014704824,2010-12-04 12:12:04,1560.7842119362413,2,40,0.5504778623580933,3.90680193901062,36.254159351471145,36.6804983634262,145.3169650125088,133.0318630268421,3.237724376958795e-05,0.0930307656526565,0,0,0
12105,437885.61669201165,2010-12-04 12:12:34,1590.7994334655857,2,40,0.550297200679779,3.9085826873779297,36.2587460227948,36.6804983634262,145.3348879197668,133.0318630268421,9.713172767078504e-05,0.0930307656526565,0,0,0
12106,437915.63347284135,2010-12-04 12:13:04,1620.8162143804004,2,40,0.5497553944587708,3.90987777709961,36.2633329854263,36.6804983634262,145.35281891541055,133.0318630268421,3.237724376958795e-05,0.0930307656526565,0,0,0
12107,437945.6469153788,2010-12-04 12:13:34,1650.829656922804,2,40,0.550297200679779,3.911496639251709,36.267919521985846,36.6804983634262,145.3707551334519,133.0318630268421,6.47544875391759e-05,0.0930307656526565,0,0,0
12108,437975.6618232175,2010-12-04 12:14:04,1680.844564671317,2,40,0.5501165986061096,3.912953615188599,36.27250622586784,36.6804983634262,145.38869895894547,133.0318630268421,3.237724376958795e-05,0.0930307656526565,0,0,0
12109,438005.6768991295,2010-12-04 12:14:34,1710.8596405883102,2,40,0.550297200679779,3.914410352706909,36.27709299852042,36.6804983634262,145.4066499275534,133.0318630268421,3.237724376958795e-05,0.0930307656526565,0,0,0
12110,438035.6919665302,2010-12-04 12:15:04,1740.874707984099,2,40,0.5501165986061096,3.915867328643799,36.28167963636528,36.6804983634262,145.42460727777464,133.0318630268421,3.237724376958795e-05,0.0930307656526565,0,0,0
12111,438065.70705110376,2010-12-04 12:15:34,1770.8897925626463,2,40,0.550297200679779,3.9174861907958975,36.2862663340669,36.6804983634262,145.44257182620848,133.0318630268421,6.47544875391759e-05,0.0930307656526565,0,0,0
12112,438095.7221436571,2010-12-04 12:16:04,1800.904885206263,2,40,0.5501165986061096,3.918943166732788,36.29085308381626,36.6804983634262,145.46054357964155,133.0318630268421,6.47544875391759e-05,0.0930307656526565,0,0,0
12113,438125.7373962538,2010-12-04 12:16:34,1830.9201377126928,2,40,0.5499359965324402,3.920562028884888,36.29543983828324,36.6804983634262,145.47852240006716,133.0318630268421,6.47544875391759e-05,0.0930307656526565,0,0,0
12114,438155.75233230775,2010-12-04 12:17:04,1860.9350737666423,2,40,0.5501165986061096,3.922019004821777,36.30002654892801,36.6804983634262,145.49650802610827,133.0318630268421,3.237724376958795e-05,0.0930307656526565,0,0,0
12115,438185.7675128351,2010-12-04 12:17:34,1890.950254288942,2,40,0.5501165986061096,3.923637866973877,36.30461324380365,36.6804983634262,145.51450066120853,133.0318630268421,6.47544875391759e-05,0.0930307656526565,0,0,0
12116,438215.7825625519,2010-12-04 12:18:04,1920.9653040107496,2,40,0.5501165986061096,3.925256729125977,36.30920064639614,36.6804983634262,145.53250318602855,133.0318630268421,9.713172767078504e-05,0.0930307656526565,0,0,0
12117,438245.7976291858,2010-12-04 12:18:34,1950.9803707298545,2,40,0.550297200679779,3.926713705062866,36.31378807038264,36.6804983634262,145.5505128724926,133.0318630268421,0.0,0.0930307656526565,0,0,0
12118,438275.8126013847,2010-12-04 12:19:04,1980.9953428385247,2,40,0.550297200679779,3.928332567214966,36.31837536263568,36.6804983634262,145.56852921570783,133.0318630268421,6.47544875391759e-05,0.0930307656526565,0,0,0
12119,438305.8276878829,2010-12-04 12:19:34,2011.01042933685,2,40,0.550297200679779,3.929789543151856,36.322962715602685,36.6804983634262,145.5865529194174,133.0318630268421,3.237724376958795e-05,0.0930307656526565,0,0,0
12120,438335.8428040501,2010-12-04 12:20:04,2041.0255454989915,2,40,0.5504778623580933,3.931408405303955,36.32754955383455,36.6804983634262,145.6045817701039,133.0318630268421,6.47544875391759e-05,0.0930307656526565,0,0,0
12121,438365.8578909194,2010-12-04 12:20:34,2071.040632373252,2,40,0.5501165986061096,3.9328653812408447,36.332136406841,36.6804983634262,145.62261782949406,133.0318630268421,3.237724376958795e-05,0.0930307656526565,0,0,0
12122,438395.8730719479,2010-12-04 12:21:04,2101.055813401811,2,40,0.550297200679779,3.934484243392944,36.33672327274826,36.6804983634262,145.64066126477508,133.0318630268421,6.47544875391759e-05,0.0930307656526565,0,0,0
12123,438425.8880327986,2010-12-04 12:21:34,2131.0707742775294,2,40,0.5501165986061096,3.936103105545044,36.34131003692853,36.6804983634262,145.65871162498675,133.0318630268421,3.237724376958795e-05,0.0930307656526565,0,0,0
12124,438455.9031155676,2010-12-04 12:22:04,2161.085857021511,2,40,0.5501165986061096,3.937721967697144,36.34589686926846,36.6804983634262,145.676769412313,133.0318630268421,3.237724376958795e-05,0.0930307656526565,0,0,0
12125,438485.91820310353,2010-12-04 12:22:34,2191.1009445824807,2,40,0.5499359965324402,3.939178943634033,36.35048364585265,36.6804983634262,145.69483446546033,133.0318630268421,3.237724376958795e-05,0.0930307656526565,0,0,0
12126,438515.9335689269,2010-12-04 12:23:04,2221.116310476069,2,40,0.5501165986061096,3.940959692001343,36.35507049797528,36.6804983634262,145.71290723776318,133.0318630268421,6.47544875391759e-05,0.0930307656526565,0,0,0
12127,438545.9350202497,2010-12-04 12:23:34,2251.117761798784,2,40,0.5501165986061096,3.9425785541534415,36.35965517185242,36.6804983634262,145.73097878445856,133.0318630268421,3.237724376958795e-05,0.0930307656526565,0,0,0
12128,438575.94782338594,2010-12-04 12:24:04,2281.130564839813,2,40,0.5504778623580933,3.944197416305542,36.36424159363634,36.6804983634262,145.74906467436776,133.0318630268421,6.47544875391759e-05,0.0930307656526565,0,0,0
12129,438605.96303178766,2010-12-04 12:24:34,2311.145773266552,2,40,0.550297200679779,3.945978164672852,36.36882845527571,36.6804983634262,145.7671598206646,133.0318630268421,6.47544875391759e-05,0.0930307656526565,0,0,0
12130,438635.978156902,2010-12-04 12:25:04,2341.1608984361083,2,40,0.5501165986061096,3.9472732543945312,36.37341526541587,36.6804983634262,145.7852622247441,133.0318630268421,0.0,0.0930307656526565,0,0,0
12131,438665.99306635984,2010-12-04 12:25:34,2371.175807818687,2,40,0.550297200679779,3.949054002761841,36.37800199799361,36.6804983634262,145.80337190893067,133.0318630268421,6.47544875391759e-05,0.0930307656526565,0,0,0
12132,438696.0081502166,2010-12-04 12:26:04,2401.190891690476,2,40,0.5501165986061096,3.950672864913941,36.382588757859125,36.6804983634262,145.82148927268227,133.0318630268421,3.237724376958795e-05,0.0930307656526565,0,0,0
12133,438726.0233361022,2010-12-04 12:26:34,2431.2060775761224,2,40,0.5501165986061096,3.95245361328125,36.38717555342696,36.6804983634262,145.8396144279531,133.0318630268421,3.237724376958795e-05,0.0930307656526565,0,0,0
12134,438756.03835752857,2010-12-04 12:27:04,2461.22109898748,2,40,0.5499359965324402,3.9540724754333496,36.39176229908101,36.6804983634262,145.85774707495443,133.0318630268421,3.237724376958795e-05,0.0930307656526565,0,0,0
12135,438786.0534281776,2010-12-04 12:27:34,2491.236169656414,2,40,0.5501165986061096,3.955691337585449,36.39634904961324,36.6804983634262,145.87588748307107,133.0318630268421,0.0,0.0930307656526565,0,0,0
12136,438816.068581056,2010-12-04 12:28:04,2521.2513226301603,2,40,0.550297200679779,3.957472085952759,36.40093585823226,36.6804983634262,145.89403584562783,133.0318630268421,6.47544875391759e-05,0.0930307656526565,0,0,0
12137,438846.0835742271,2010-12-04 12:28:34,2551.266315685957,2,40,0.5501165986061096,3.959252834320069,36.405522633052186,36.6804983634262,145.91219191365877,133.0318630268421,6.47544875391759e-05,0.0930307656526565,0,0,0
12138,438876.09878424776,2010-12-04 12:29:04,2581.28152570165,2,40,0.5501165986061096,3.961033582687378,36.41010940213064,36.6804983634262,145.93035580827743,133.0318630268421,6.47544875391759e-05,0.0930307656526565,0,0,0
12139,438906.1138010628,2010-12-04 12:29:34,2611.296542546645,2,40,0.550297200679779,3.962814331054688,36.41469619905239,36.6804983634262,145.94852777317553,133.0318630268421,9.713172767078504e-05,0.0930307656526565,0,0,0
12140,438936.1289935849,2010-12-04 12:30:04,2641.311735063793,2,40,0.550297200679779,3.964433193206787,36.41928301891094,36.6804983634262,145.96670786265665,133.0318630268421,6.47544875391759e-05,0.0930307656526565,0,0,0
12141,438966.14397121227,2010-12-04 12:30:34,2671.326712671147,2,40,0.5501165986061096,3.966052055358887,36.423869745822,36.6804983634262,145.98489562149334,133.0318630268421,0.0,0.0930307656526565,0,0,0
12142,438996.1590359114,2010-12-04 12:31:04,2701.3417773952874,2,40,0.5499359965324402,3.9679946899414062,36.42845656137617,36.6804983634262,146.00309189734273,133.0318630268421,6.47544875391759e-05,0.0930307656526565,0,0,0
12143,439026.1742678214,2010-12-04 12:31:34,2731.3570092804016,2,40,0.5501165986061096,3.969775438308716,36.43304339066941,36.6804983634262,146.02129639789987,133.0318630268421,3.237724376958795e-05,0.0930307656526565,0,0,0
12144,439056.18920070754,2010-12-04 12:32:04,2761.371942181506,2,40,0.5499359965324402,3.971394300460816,36.43763014464176,36.6804983634262,146.03950882663244,133.0318630268421,0.0,0.0930307656526565,0,0,0
12145,439086.2043049351,2010-12-04 12:32:34,2791.387046393911,2,40,0.5501165986061096,3.973336935043335,36.442216974565405,36.6804983634262,146.05772994317695,133.0318630268421,3.237724376958795e-05,0.0930307656526565,0,0,0
12146,439116.22183610185,2010-12-04 12:33:04,2821.4045776709736,2,40,0.5501165986061096,3.9752795696258554,36.44680420336611,36.6804983634262,146.07596100310758,133.0318630268421,6.47544875391759e-05,0.0930307656526565,0,0,0
12147,439146.23618929536,2010-12-04 12:33:34,2851.418930759235,2,40,0.5501165986061096,3.977060317993164,36.45139100345482,36.6804983634262,146.09419884196214,133.0318630268421,6.47544875391759e-05,0.0930307656526565,0,0,0
12148,439176.2495430618,2010-12-04 12:34:04,2881.432284520711,2,40,0.5499359965324402,3.9788410663604736,36.45597754308831,36.6804983634262,146.1124437374462,133.0318630268421,0.0,0.0930307656526565,0,0,0
12149,439206.2647853678,2010-12-04 12:34:34,2911.447526927007,2,40,0.550297200679779,3.980945587158203,36.4605642939135,36.6804983634262,146.1306985630579,133.0318630268421,6.47544875391759e-05,0.0930307656526565,0,0,0
12150,439236.2797341486,2010-12-04 12:35:04,2941.4624756123894,2,40,0.550297200679779,3.982888221740722,36.465151001194805,36.6804983634262,146.14896204298668,133.0318630268421,6.47544875391759e-05,0.0930307656526565,0,0,0
12151,439266.29478518857,2010-12-04 12:35:34,2971.47752665749,2,40,0.550297200679779,3.984830856323242,36.46973768651412,36.6804983634262,146.16723422579716,133.0318630268421,6.47544875391759e-05,0.0930307656526565,0,0,0
12152,439296.30987386726,2010-12-04 12:36:04,3001.492615321203,2,40,0.5501165986061096,3.986611604690552,36.47432440753949,36.6804983634262,146.18551552563176,133.0318630268421,3.237724376958795e-05,0.0930307656526565,0,0,0
12153,439326.3252280468,2010-12-04 12:36:34,3031.5079695908667,2,40,0.5499359965324402,3.988716125488281,36.47891119091463,36.6804983634262,146.2038060937207,133.0318630268421,6.47544875391759e-05,0.0930307656526565,0,0,0
12154,439356.34015964967,2010-12-04 12:37:05,3061.522901198752,2,40,0.5501165986061096,3.990658760070801,36.48349783266939,36.6804983634262,146.2221052256769,133.0318630268421,6.47544875391759e-05,0.0930307656526565,0,0,0
12155,439386.3581701843,2010-12-04 12:37:35,3091.540911758492,2,40,0.5501165986061096,3.99260139465332,36.48808495245347,36.6804983634262,146.2404154754732,133.0318630268421,3.237724376958795e-05,0.0930307656526565,0,0,0
12156,439416.3702129835,2010-12-04 12:38:05,3121.5529544373885,2,40,0.5501165986061096,3.9948675632476807,36.49267114042812,36.6804983634262,146.25873132266662,133.0318630268421,6.47544875391759e-05,0.0930307656526565,0,0,0
12157,439446.38528466,2010-12-04 12:38:35,3151.568026138892,2,40,0.5499359965324402,3.9966483116149902,36.49725777866474,36.6804983634262,146.2770584995329,133.0318630268421,3.237724376958795e-05,0.0930307656526565,0,0,0
12158,439476.4003833136,2010-12-04 12:39:05,3181.5831247674023,2,40,0.550297200679779,3.9989147186279297,36.50184443237454,36.6804983634262,146.29539520126383,133.0318630268421,0.0001295089750783,0.0930307656526565,0,0,0
12159,439506.4154543633,2010-12-04 12:39:35,3211.598195817284,2,40,0.5501165986061096,4.001019477844238,36.506431063218685,36.6804983634262,146.3137415189191,133.0318630268421,3.24249267578125e-05,0.0930307656526565,0,0,0
12160,439536.43058556295,2010-12-04 12:40:05,3241.6133270268706,2,40,0.5501165986061096,4.003285884857178,36.5110177541852,36.6804983634262,146.33209792604293,133.0318630268421,9.71794142969884e-05,0.0930307656526565,0,0,0
12161,439566.4456504325,2010-12-04 12:40:35,3271.6283919164225,2,40,0.550297200679779,4.005552291870117,36.51560441456173,36.6804983634262,146.35046408224474,133.0318630268421,9.71794142969884e-05,0.0930307656526565,0,0,0
12162,439596.4608401176,2010-12-04 12:41:05,3301.6435815764617,2,40,0.550297200679779,4.007656574249268,36.52019116978133,36.6804983634262,146.36884070176131,133.0318630268421,6.47544875391759e-05,0.0930307656526565,0,0,0
12163,439626.4757899408,2010-12-04 12:41:35,3331.658531394663,2,40,0.5501165986061096,4.009761333465576,36.52477790096213,36.6804983634262,146.38722732476384,133.0318630268421,3.24249267578125e-05,0.0930307656526565,0,0,0
12164,439656.4909999465,2010-12-04 12:42:05,3361.673741410355,2,40,0.5501165986061096,4.012027740478516,36.5293646331718,36.6804983634262,146.40562420573744,133.0318630268421,9.71794142969884e-05,0.0930307656526565,0,0,0
12165,439686.5060357837,2010-12-04 12:42:35,3391.688777327812,2,40,0.5499359965324402,4.014294147491455,36.53395128878452,36.6804983634262,146.42403114872806,133.0318630268421,6.47544875391759e-05,0.0930307656526565,0,0,0
12166,439716.5211276855,2010-12-04 12:43:05,3421.703869239608,2,40,0.5501165986061096,4.0165605545043945,36.53853797221063,36.6804983634262,146.44244870904097,133.0318630268421,6.47544875391759e-05,0.0930307656526565,0,0,0
12167,439746.5379509257,2010-12-04 12:43:35,3451.7206924697225,2,40,0.5501165986061096,4.018988609313965,36.54312500275547,36.6804983634262,146.4608782703304,133.0318630268421,6.47544875391759e-05,0.0930307656526565,0,0,0
12168,439776.5512436352,2010-12-04 12:44:05,3481.733985179273,2,40,0.550297200679779,4.021417140960693,36.54771141075336,36.6804983634262,146.47931592024435,133.0318630268421,9.71794142969884e-05,0.0930307656526565,0,0,0
12169,439806.56637475954,2010-12-04 12:44:35,3511.74911630866,2,40,0.5499359965324402,4.023683547973633,36.5522980800606,36.6804983634262,146.4977655452268,133.0318630268421,9.71794142969884e-05,0.0930307656526565,0,0,0
12170,439836.58140587504,2010-12-04 12:45:05,3541.7641473539925,2,40,0.5501165986061096,4.025949954986572,36.556884737142205,36.6804983634262,146.5162260543048,133.0318630268421,3.24249267578125e-05,0.0930307656526565,0,0,0
12171,439866.5964625743,2010-12-04 12:45:35,3571.7792040581758,2,40,0.550297200679779,4.028540134429932,36.561471423565855,36.6804983634262,146.5346977113335,133.0318630268421,9.71794142969884e-05,0.0930307656526565,0,0,0
12172,439896.611551644,2010-12-04 12:46:05,3601.794293127899,2,40,0.550297200679779,4.031130313873291,36.56605821392375,36.6804983634262,146.55318084342474,133.0318630268421,9.71794142969884e-05,0.0930307656526565,0,0,0
12173,439926.6266289945,2010-12-04 12:46:35,3631.8093704634234,2,40,0.5501165986061096,4.033396720886231,36.570644871793085,36.6804983634262,146.57167454666973,133.0318630268421,6.47544875391759e-05,0.0930307656526565,0,0,0
12174,439956.6417106408,2010-12-04 12:47:05,3661.824452104661,2,40,0.5501165986061096,4.035662651062012,36.57523156510408,36.6804983634262,146.5901796370565,133.0318630268421,3.23295607813634e-05,0.0930307656526565,0,0,0
12175,439986.6567764827,2010-12-04 12:47:35,3691.8395179566073,2,40,0.5501165986061096,4.038252830505371,36.57981819449015,36.6804983634262,146.60869580676138,133.0318630268421,6.47544875391759e-05,0.0930307656526565,0,0,0
12176,440016.6718561892,2010-12-04 12:48:05,3721.8545976680434,2,40,0.5501165986061096,4.0406813621521,36.58440487618457,36.6804983634262,146.62722356006967,133.0318630268421,3.24249267578125e-05,0.0930307656526565,0,0,0
12177,440046.68707633,2010-12-04 12:48:35,3751.869817813944,2,40,0.550297200679779,4.043271541595459,36.58899155973553,36.6804983634262,146.645762837175,133.0318630268421,9.71794142969884e-05,0.0930307656526565,0,0,0
12178,440076.7023753472,2010-12-04 12:49:05,3781.885116851164,2,40,0.550297200679779,4.045861721038818,36.59357832883671,36.6804983634262,146.66431418930284,133.0318630268421,3.24249267578125e-05,0.0930307656526565,0,0,0
12179,440106.7171146716,2010-12-04 12:49:35,3811.899856130448,2,40,0.5501165986061096,4.048451900482178,36.5981649833109,36.6804983634262,146.68287695184313,133.0318630268421,6.47544875391759e-05,0.0930307656526565,0,0,0
12180,440136.7322221622,2010-12-04 12:50:05,3841.9149637312858,2,40,0.550297200679779,4.051042079925537,36.6027517334411,36.6804983634262,146.70145203975676,133.0318630268421,6.47544875391759e-05,0.0930307656526565,0,0,0
12181,440166.7473849453,2010-12-04 12:50:35,3871.9301264893793,2,40,0.5501165986061096,4.0536322593688965,36.6073384984989,36.6804983634262,146.7200392003703,133.0318630268421,6.47544875391759e-05,0.0930307656526565,0,0,0
12182,440196.7624160457,2010-12-04 12:51:05,3901.945157589849,2,40,0.5501165986061096,4.056222438812256,36.61192527566184,36.6804983634262,146.73863859162768,133.0318630268421,3.24249267578125e-05,0.0930307656526565,0,0,0
12183,440226.7774521537,2010-12-04 12:51:35,3931.9601936326167,2,40,0.5501165986061096,4.058974266052246,36.616512001402654,36.6804983634262,146.7572500418125,133.0318630268421,3.23295607813634e-05,0.0930307656526565,0,0,0
12184,440256.79265506665,2010-12-04 12:52:05,3961.9753965305977,2,40,0.5501165986061096,4.0615644454956055,36.62109873794566,36.6804983634262,146.77587370932815,133.0318630268421,6.47544875391759e-05,0.0930307656526565,0,0,0
12185,440286.8076190351,2010-12-04 12:52:35,3991.9903605190607,2,40,0.5499359965324402,4.064316749572754,36.62568538167488,36.6804983634262,146.79450936330326,133.0318630268421,6.47544875391759e-05,0.0930307656526565,0,0,0
12186,440316.82284268975,2010-12-04 12:53:05,4022.0055842238185,2,40,0.5499359965324402,4.067068576812744,36.63027211075637,36.6804983634262,146.8131579375501,133.0318630268421,9.70840483205393e-05,0.0930307656526565,0,0,0
12187,440346.839714586,2010-12-04 12:53:35,4052.0224561701616,2,40,0.550297200679779,4.069982528686523,36.634859121591234,36.6804983634262,146.83182040039847,133.0318630268421,9.70840483205393e-05,0.0930307656526565,0,0,0
12188,440376.8529256122,2010-12-04 12:54:05,4082.0356671563472,2,40,0.550297200679779,4.072896480560303,36.639445563271565,36.6804983634262,146.8504933348641,133.0318630268421,9.70840483205393e-05,0.0930307656526565,0,0,0
12189,440406.8679693943,2010-12-04 12:54:35,4112.050710853161,2,40,0.5501165986061096,4.075486660003662,36.644032255289126,36.6804983634262,146.86918024202907,133.0318630268421,6.47544875391759e-05,0.0930307656526565,0,0,0
12190,440436.8831181826,2010-12-04 12:55:05,4142.065859761792,2,40,0.5499359965324402,4.078400611877441,36.648619002657085,36.6804983634262,146.88788048781294,133.0318630268421,6.47544875391759e-05,0.0930307656526565,0,0,0
12191,440466.8985199455,2010-12-04 12:55:35,4172.081261409354,2,40,0.5501165986061096,4.081314563751221,36.65320576885304,36.6804983634262,146.9065940248844,133.0318630268421,6.47544875391759e-05,0.0930307656526565,0,0,0
12192,440496.9132105486,2010-12-04 12:56:05,4202.095952007496,2,40,0.5499359965324402,4.084066867828369,36.65779241414977,36.6804983634262,146.92532022089352,133.0318630268421,6.47544875391759e-05,0.0930307656526565,0,0,0
12193,440526.9283212221,2010-12-04 12:56:35,4232.111062675967,2,40,0.5501165986061096,4.087304592132568,36.66237916045329,36.6804983634262,146.94406030113805,133.0318630268421,0.0001295089750783,0.0930307656526565,0,0,0
12194,440556.9434566922,2010-12-04 12:57:05,4262.126198246406,2,40,0.5501165986061096,4.090056419372559,36.66696587825326,36.6804983634262,146.96281376178848,133.0318630268421,6.47544875391759e-05,0.0930307656526565,0,0,0
12195,440586.95847212366,2010-12-04 12:57:35,4292.141213607708,2,40,0.5501165986061096,4.093132495880127,36.67155255697058,36.6804983634262,146.98158058184143,133.0318630268421,9.71794142969884e-05,0.0930307656526565,0,0,0
12196,440616.9735410634,2010-12-04 12:58:05,4322.156282542326,2,40,0.5501165986061096,4.096046447753906,36.676139261560174,36.6804983634262,147.00036122531006,133.0318630268421,6.47544875391759e-05,0.0930307656526565,0,0,0
12197,440646.988749435,2010-12-04 12:58:35,4352.17149091894,2,40,0.5501165986061096,4.0992841720581055,36.6807259395194,36.6804983634262,147.0191556036117,133.0318630268421,9.71794142969884e-05,0.0930307656526565,0,0,0
12198,440677.0037239346,2010-12-04 12:59:05,4382.186465413548,2,40,0.5499359965324402,4.102035999298096,36.68531268841192,36.6804983634262,147.03796422316785,133.0318630268421,6.47544875391759e-05,0.0930307656526565,0,0,0
12199,440707.0187944181,2010-12-04 12:59:35,4412.20153589702,2,40,0.5501165986061096,4.105273723602295,36.68989944018004,36.6804983634262,147.05678681051342,133.0318630268421,9.70840483205393e-05,0.0930307656526565,0,0,0
12200,440737.033873508,2010-12-04 13:00:05,4442.21661496686,2,40,0.550297200679779,4.108349800109863,36.69448622975593,36.6804983634262,147.07562376351103,133.0318630268421,6.47544875391759e-05,0.0930307656526565,0,0,0
12201,440767.0490980348,2010-12-04 13:00:35,4472.231839498675,2,40,0.5501165986061096,4.111587524414063,36.69907302071616,36.6804983634262,147.09447500737784,133.0318630268421,9.71794142969884e-05,0.0930307656526565,0,0,0
12202,440797.0640754667,2010-12-04 13:01:05,4502.24681694563,2,40,0.5501165986061096,4.114663124084473,36.70365976320244,36.6804983634262,147.11334042943943,133.0318630268421,9.70840483205393e-05,0.0930307656526565,0,0,0
12203,440827.07912934886,2010-12-04 13:01:35,4532.2618708027285,2,40,0.5501165986061096,4.117738723754883,36.70824654964464,36.6804983634262,147.13222063815348,133.0318630268421,9.70840483205393e-05,0.0930307656526565,0,0,0
12204,440857.0943397755,2010-12-04 13:02:05,4562.277081254507,2,40,0.550297200679779,4.121138572692871,36.71283337351104,36.6804983634262,147.15111567420297,133.0318630268421,0.0001295089750783,0.0930307656526565,0,0,0
12205,440887.10936322703,2010-12-04 13:02:35,4592.292104771103,2,40,0.550297200679779,4.12437629699707,36.71742017531242,36.6804983634262,147.17002535395284,133.0318630268421,9.71794142969884e-05,0.0930307656526565,0,0,0
12206,440917.12448451685,2010-12-04 13:03:05,4622.307226050981,2,40,0.5501165986061096,4.1274518966674805,36.722006945098215,36.6804983634262,147.18894973275863,133.0318630268421,6.47544875391759e-05,0.0930307656526565,0,0,0
12207,440947.1412275324,2010-12-04 13:03:35,4652.323969001323,2,40,0.5501165986061096,4.13068962097168,36.72659396879219,36.6804983634262,147.2078900785148,133.0318630268421,9.70840483205393e-05,0.0930307656526565,0,0,0
12208,440977.1545616951,2010-12-04 13:04:05,4682.337303148989,2,40,0.5501165986061096,4.134089469909668,36.73118049842042,36.6804983634262,147.22684345898682,133.0318630268421,9.71794142969884e-05,0.0930307656526565,0,0,0
12209,441007.1697891693,2010-12-04 13:04:35,4712.352530653202,2,40,0.5501165986061096,4.137165069580078,36.7357673362854,36.6804983634262,147.24581327040033,133.0318630268421,6.47544875391759e-05,0.0930307656526565,0,0,0
12210,441037.18684142426,2010-12-04 13:05:05,4742.369582968387,2,40,0.550297200679779,4.140726566314697,36.74035443448006,36.6804983634262,147.2647993604112,133.0318630268421,0.0001295089750783,0.0930307656526565,0,0,0
12211,441067.1998278266,2010-12-04 13:05:35,4772.382569280479,2,40,0.550297200679779,4.144288063049316,36.74494090266939,36.6804983634262,147.28379815190794,133.0318630268421,0.0001618385285837,0.0930307656526565,0,0,0
12212,441097.2148923453,2010-12-04 13:06:05,4802.39763380412,2,40,0.5497553944587708,4.147525787353516,36.7495276588792,36.6804983634262,147.30281407033695,133.0318630268421,9.70840483205393e-05,0.0930307656526565,0,0,0
12213,441127.23011147865,2010-12-04 13:06:35,4832.412852997652,2,40,0.5501165986061096,4.150925636291504,36.75411440231727,36.6804983634262,147.32184557238818,133.0318630268421,9.71794142969884e-05,0.0930307656526565,0,0,0
12214,441157.2450743643,2010-12-04 13:07:05,4862.427815828234,2,40,0.5501165986061096,4.154325008392334,36.75870118454088,36.6804983634262,147.34089299735078,133.0318630268421,9.70840483205393e-05,0.0930307656526565,0,0,0
12215,441187.2601411537,2010-12-04 13:07:35,4892.442882632551,2,40,0.5501165986061096,4.157886505126953,36.76328790285089,36.6804983634262,147.3599559681694,133.0318630268421,9.70840483205393e-05,0.0930307656526565,0,0,0
12216,441217.2752727391,2010-12-04 13:08:05,4922.458014293261,2,40,0.5499359965324402,4.161286354064941,36.76787462760051,36.6804983634262,147.3790348938236,133.0318630268421,9.71794142969884e-05,0.0930307656526565,0,0,0
12217,441247.2904614568,2010-12-04 13:08:35,4952.473202970854,2,40,0.5501165986061096,4.1648478507995605,36.772461354352885,36.6804983634262,147.39812979014116,133.0318630268421,0.0001295089750783,0.0930307656526565,0,0,0
12218,441277.3055683659,2010-12-04 13:09:06,4982.488309829846,2,40,0.5501165986061096,4.16840934753418,36.77704808354659,36.6804983634262,147.41724075525107,133.0318630268421,0.0001295089750783,0.0930307656526565,0,0,0
12219,441307.3228274256,2010-12-04 13:09:36,5012.50556897973,2,40,0.550297200679779,4.171970844268799,36.78163514932396,36.6804983634262,147.4363694433222,133.0318630268421,0.0001295089750783,0.0930307656526565,0,0,0
12220,441337.3355822968,2010-12-04 13:10:06,5042.518323760666,2,40,0.5501165986061096,4.175693988800049,36.78622156892083,36.6804983634262,147.4555118749585,133.0318630268421,0.0001618385285837,0.0930307656526565,0,0,0
12221,441367.3506534369,2010-12-04 13:10:36,5072.533394890747,2,40,0.5501165986061096,4.179093837738037,36.79080830103685,36.6804983634262,147.4746720962242,133.0318630268421,9.71794142969884e-05,0.0930307656526565,0,0,0
12222,441397.36575887736,2010-12-04 13:11:06,5102.548500331209,2,40,0.5501165986061096,4.182816982269287,36.79539510552762,36.6804983634262,147.49384921564103,133.0318630268421,9.70840483205393e-05,0.0930307656526565,0,0,0
12223,441427.3808996457,2010-12-04 13:11:36,5132.56364117477,2,40,0.5499359965324402,4.186378479003906,36.79998196977102,36.6804983634262,147.5130431962184,133.0318630268421,9.70840483205393e-05,0.0930307656526565,0,0,0
12224,441457.3959108166,2010-12-04 13:12:06,5162.578652300533,2,40,0.5501165986061096,4.189939975738525,36.80456873556136,36.6804983634262,147.53225359930505,133.0318630268421,9.70840483205393e-05,0.0930307656526565,0,0,0
12225,441487.4109896107,2010-12-04 13:12:36,5192.593731064611,2,40,0.5501165986061096,4.1938252449035645,36.80915549823806,36.6804983634262,147.55148094517645,133.0318630268421,9.70840483205393e-05,0.0930307656526565,0,0,0
12226,441517.4262347037,2010-12-04 13:13:06,5222.608976252829,2,40,0.5501165986061096,4.197386741638184,36.81374244111186,36.6804983634262,147.570725962353,133.0318630268421,6.47544875391759e-05,0.0930307656526565,0,0,0
12227,441537.457093746,2010-12-04 13:13:26,5242.639835214939,2,40,0.550297200679779,4.200138568878174,36.81680391562547,36.6804983634262,147.58358022433117,133.0318630268421,0.0001295089750783,0.0930307656526565,0,0,0
12228,441567.4819041708,2010-12-04 13:13:56,30.015056714208047,3,40,0.0,4.112720489501953,36.81680391562547,36.6804983634262,147.58358022433117,133.0318630268421,-0.0004532813909463,0.0930307656526565,0,0,0
12229,441597.4970035712,2010-12-04 13:14:26,60.030156109626645,3,40,0.0,4.102035999298096,36.81680391562547,36.6804983634262,147.58358022433117,133.0318630268421,-0.0002266883820993,0.0930307656526565,0,0,0
12230,441627.5122269401,2010-12-04 13:14:56,90.04537948857349,3,40,0.0,4.095722675323486,36.81680391562547,36.6804983634262,147.58358022433117,133.0318630268421,-0.0001295089750783,0.0930307656526565,0,0,0
12231,441657.4803173454,2010-12-04 13:15:26,120.0134698839034,3,40,0.0,4.091189861297607,36.81680391562547,36.6804983634262,147.58358022433117,133.0318630268421,-0.0001295089750783,0.0930307656526565,0,0,0
12232,441657.49232889526,2010-12-04 13:15:26,2.837059914e-06,4,40,0.9962215423583984,4.199814796447754,36.81680391641056,36.6804983634262,147.58358022762843,133.0318630268421,0.0,0.0930307656526565,0,0,0
12233,441658.3985162678,2010-12-04 13:15:27,0.906190224520248,4,40,0.945831537246704,4.199653148651123,36.81704680105098,36.6804983634262,147.5846002687701,133.0318630268421,-3.23295607813634e-05,0.0930307656526565,0,0,0
12234,441660.4453540147,2010-12-04 13:15:29,2.953027971529151,4,40,0.8954415321350098,4.199653148651123,36.8175689929292,36.6804983634262,147.5867933287877,133.0318630268421,-3.23295607813634e-05,0.0930307656526565,0,0,0
12235,441663.53906966216,2010-12-04 13:15:32,6.046743709153162,4,40,0.8452321887016296,4.199653148651123,36.818315660054864,36.6804983634262,147.58992910576544,133.0318630268421,-3.23295607813634e-05,0.0930307656526565,0,0,0
12236,441667.8358557842,2010-12-04 13:15:36,10.34352973591977,4,40,0.7950227856636047,4.199653148651123,36.81929315088144,36.6804983634262,147.5940343005522,133.0318630268421,-3.23295607813634e-05,0.0930307656526565,0,0,0
12237,441673.4607669843,2010-12-04 13:15:42,15.96844100126083,4,40,0.744994044303894,4.199814796447754,36.82049459895972,36.6804983634262,147.59908006188058,133.0318630268421,0.0,0.0930307656526565,0,0,0
12238,441680.7574945252,2010-12-04 13:15:49,23.265168476940698,4,40,0.6949652433395386,4.199814796447754,36.8219520527088,36.6804983634262,147.60520101402037,133.0318630268421,0.0,0.0930307656526565,0,0,0
12239,441690.5542107968,2010-12-04 13:15:59,33.06188475861085,4,40,0.6449365019798279,4.199814796447754,36.82377267543421,36.6804983634262,147.61284718826872,133.0318630268421,0.0,0.0930307656526565,0,0,0
12240,441704.3839091944,2010-12-04 13:16:13,46.89158324137372,4,40,0.5949077010154724,4.199653148651123,36.82614883233064,36.6804983634262,147.62282646163305,133.0318630268421,-3.23295607813634e-05,0.0930307656526565,0,0,0
12241,441725.3347993638,2010-12-04 13:16:34,67.84247331551977,4,40,0.5445177555084229,4.199653148651123,36.82945489606179,36.6804983634262,147.63671112246234,133.0318630268421,-3.23295607813634e-05,0.0930307656526565,0,0,0
12242,441762.2092534846,2010-12-04 13:17:11,104.71692746642609,4,40,0.4944889545440674,4.199653148651123,36.83475392827943,36.6804983634262,147.65896572497695,133.0318630268421,0.0,0.0930307656526565,0,0,0
12243,441828.67681282456,2010-12-04 13:18:17,171.18448678133663,4,40,0.4442795813083648,4.199491024017334,36.84338360388374,36.6804983634262,147.69520808617034,133.0318630268421,-3.24249267578125e-05,0.0930307656526565,0,0,0
12244,441931.6122679306,2010-12-04 13:20:00,274.11994188229943,4,40,0.3942508101463318,4.199814796447754,36.85534027510548,36.6804983634262,147.74542235233386,133.0318630268421,0.0,0.0930307656526565,0,0,0
12245,442057.9537897132,2010-12-04 13:22:06,400.4614636649664,4,40,0.3442220389842987,4.199653148651123,36.86827881035346,36.6804983634262,147.79976105647924,133.0318630268421,-3.23295607813634e-05,0.0930307656526565,0,0,0
12246,442208.76357223664,2010-12-04 13:24:37,551.2712461883996,4,40,0.2940126657485962,4.199653148651123,36.88163345266711,36.6804983634262,147.85584728598886,133.0318630268421,0.0,0.0930307656526565,0,0,0
12247,442390.7447805693,2010-12-04 13:27:39,733.2524545210581,4,40,0.2439838945865631,4.199653148651123,36.895210853165565,36.6804983634262,147.91286905922414,133.0318630268421,0.0,0.0930307656526565,0,0,0
12248,442616.3500038804,2010-12-04 13:31:25,958.8576778572062,4,40,0.19395512342453,4.199653148651123,36.90888640168009,36.6804983634262,147.97030300245976,133.0318630268421,0.0,0.0930307656526565,0,0,0
12249,442920.8913765832,2010-12-04 13:36:29,1263.3990505399977,4,40,0.1439263522624969,4.199814796447754,36.92307547443989,36.6804983634262,148.0298936027209,133.0318630268421,3.23295607813634e-05,0.0930307656526565,0,0,0
12250,443386.6486413078,2010-12-04 13:44:15,1729.156315289586,4,40,0.0938975811004638,4.199491024017334,36.938250094182784,36.6804983634262,148.0936232082918,133.0318630268421,-9.71794142969884e-05,0.0930307656526565,0,0,0
12251,444189.071748668,2010-12-04 13:57:38,2531.579422624762,4,40,0.0498289167881011,4.199491024017334,36.9537875097652,36.6804983634262,148.15887641529028,133.0318630268421,-6.47544875391759e-05,0.0930307656526565,0,0,0
12252,444219.081877672,2010-12-04 13:58:08,30.015071225318387,5,40,0.0,4.191558837890625,36.9537875097652,36.6804983634262,148.15887641529028,133.0318630268421,-6.47544875391759e-05,0.0930307656526565,0,0,0
12253,444249.0813402108,2010-12-04 13:58:38,60.01453376402047,5,40,0.0,4.190587520599365,36.9537875097652,36.6804983634262,148.15887641529028,133.0318630268421,0.0,0.0930307656526565,0,0,0
12254,444249.2650634048,2010-12-04 13:58:38,0.187540366990164,6,40,-1.9243103452026844e-05,4.190425872802734,36.9537875097652,36.680498364428665,148.15887641529028,133.03186303104283,0.0,0.0963535830378532,0,0,0
12255,444254.0791205006,2010-12-04 13:58:43,5.001597628328957,6,40,0.0008838032954372,4.190425872802734,36.95378834965744,36.68049836451255,148.1588799348626,133.03186303139435,-3.23295607813634e-05,0.0963535830378532,0,0,0
12256,444284.10432807554,2010-12-04 13:59:13,30.015080262807835,7,40,-1.0997490882873535,4.010570526123047,36.95378834965744,36.68966739045976,148.1588799348626,133.0688383990063,-0.0009713172912597,0.0963535830378532,0,0,0
12257,444314.1194033308,2010-12-04 13:59:43,60.03015552316727,7,40,-1.099568486213684,3.9835357666015625,36.95378834965744,36.698836408292685,148.1588799348626,133.1054782968735,-0.0005504131549969,0.0963535830378532,0,0,0
12258,444344.1344879746,2010-12-04 14:00:13,90.04524016186431,7,40,-1.099568486213684,3.964595079421997,36.95378834965744,36.70800532406589,148.1588799348626,133.14191112333938,-0.0004532813909463,0.0963535830378532,0,0,0
12259,444374.1495629492,2010-12-04 14:00:43,120.0603151515502,7,40,-1.099929690361023,3.94986343383789,36.95378834965744,36.71717435272164,148.1588799348626,133.17819242372204,-0.0003885269106831,0.0963535830378532,0,0,0
12260,444404.1647948694,2010-12-04 14:01:13,150.0755470767641,7,40,-1.0997490882873535,3.937074422836304,36.95378834965744,36.72634424054536,148.1588799348626,133.21435253054435,-0.0003561496851034,0.0963535830378532,0,0,0
12261,444434.1798609719,2010-12-04 14:01:43,180.09061315928483,7,40,-1.099568486213684,3.9257423877716064,36.95378834965744,36.73551390132712,148.1588799348626,133.25040134037357,-0.0002913951757363,0.0963535830378532,0,0,0
12262,444464.1948691303,2010-12-04 14:02:13,210.1056213226761,7,40,-1.099929690361023,3.914734125137329,36.95378834965744,36.74468288884791,148.1588799348626,133.28634532502176,-0.0003237724304199,0.0963535830378532,0,0,0
12263,444494.2099288671,2010-12-04 14:02:43,240.120681064418,7,40,-1.0997490882873535,3.9045355319976807,36.95378834965744,36.75385193665191,148.1588799348626,133.32219334708816,-0.0003237724304199,0.0963535830378532,0,0,0
12264,444524.2250323476,2010-12-04 14:03:13,270.1357845951271,7,40,-1.0997490882873535,3.894822359085083,36.95378834965744,36.76302094074759,148.1588799348626,133.35794903950568,-0.0002266406954731,0.0963535830378532,0,0,0
12265,444554.2403829933,2010-12-04 14:03:43,300.1511352758596,7,40,-1.0997490882873535,3.8852710723876953,36.95378834965744,36.77219000096197,148.1588799348626,133.3936168144103,-0.0002913951757363,0.0963535830378532,0,0,0
12266,444584.25521354965,2010-12-04 14:04:13,330.1659657420581,7,40,-1.099568486213684,3.876043558120728,36.95378834965744,36.78135898483623,148.1588799348626,133.4291983436828,-0.0002266406954731,0.0963535830378532,0,0,0
12267,444614.2702799681,2010-12-04 14:04:43,360.18103216041453,7,40,-1.0997490882873535,3.86713981628418,36.95378834965744,36.790528005750325,148.1588799348626,133.46469650126534,-0.0002266406954731,0.0963535830378532,0,0,0
12268,444644.2853710127,2010-12-04 14:05:13,390.19612320004006,7,40,-1.0997490882873535,3.858236074447632,36.95378834965744,36.79969705355966,148.1588799348626,133.5001131287077,-0.0002590179501567,0.0963535830378532,0,0,0
12269,444674.30229499855,2010-12-04 14:05:43,420.2130472761063,7,40,-1.0997490882873535,3.849494218826294,36.95378834965744,36.8088666502017,148.1588799348626,133.535452139416,-0.0002590179501567,0.0963535830378532,0,0,0
12270,444704.3155336686,2010-12-04 14:06:13,450.22628586096937,7,40,-1.099929690361023,3.841238021850586,36.95378834965744,36.818035167848855,148.1588799348626,133.5707088499773,-0.0001942634553415,0.0963535830378532,0,0,0
12271,444734.3306153951,2010-12-04 14:06:43,480.24136758240695,7,40,-1.0997490882873535,3.832820177078247,36.95378834965744,36.8272043226267,148.1588799348626,133.6058915951075,-0.0002589702489785,0.0963535830378532,0,0,0
12272,444764.3457191764,2010-12-04 14:07:13,510.2564713687522,7,40,-1.099568486213684,3.824887752532959,36.95378834965744,36.83637340572477,148.1588799348626,133.64099941362275,-0.0002266406954731,0.0963535830378532,0,0,0
12273,444794.3607940257,2010-12-04 14:07:43,540.2715462130764,7,40,-1.099929690361023,3.816955327987671,36.95378834965744,36.845542466475976,148.1588799348626,133.67603383303842,-0.0001942634553415,0.0963535830378532,0,0,0
12274,444824.375870469,2010-12-04 14:08:13,570.2866226563794,7,40,-1.0997490882873535,3.809022903442383,36.95378834965744,36.854711527786726,148.1588799348626,133.71099572768745,-0.0002590179501567,0.0963535830378532,0,0,0
12275,444854.3909530927,2010-12-04 14:08:43,600.3017052850747,7,40,-1.0997490882873535,3.8015761375427246,36.95378834965744,36.8638805619501,148.1588799348626,133.74588674405442,-0.0001942634553415,0.0963535830378532,0,0,0
12276,444884.4060705381,2010-12-04 14:09:13,630.3168227504598,7,40,-1.0997490882873535,3.7941293716430655,36.95378834965744,36.873049650037295,148.1588799348626,133.78070896360933,-0.0001295089750783,0.0963535830378532,0,0,0
12277,444914.4211200844,2010-12-04 14:09:43,660.331872286806,7,40,-1.099568486213684,3.786844491958618,36.95378834965744,36.88221878953934,148.1588799348626,133.81546374067992,-0.0002266406954731,0.0963535830378532,0,0,0
12278,444944.436210688,2010-12-04 14:10:13,690.3469628753089,7,40,-1.099929690361023,3.77955961227417,36.95378834965744,36.89138782322446,148.1588799348626,133.85015206765934,-0.0001942634553415,0.0963535830378532,0,0,0
12279,444974.45129744697,2010-12-04 14:10:43,720.3620496342822,7,40,-1.0997490882873535,3.772760391235352,36.95378834965744,36.900556936053306,148.1588799348626,133.88477592530523,-0.0001618862152099,0.0963535830378532,0,0,0
12280,445004.4664420098,2010-12-04 14:11:13,750.3771942923352,7,40,-1.099568486213684,3.765961170196533,36.95378834965744,36.90972602648602,148.1588799348626,133.91933660682443,-0.0001942634553415,0.0963535830378532,0,0,0
12281,445034.4814721127,2010-12-04 14:11:43,780.3922243101102,7,40,-1.0997490882873535,3.759323835372925,36.95378834965744,36.91889513049123,148.1588799348626,133.9538357560006,-0.0001618862152099,0.0963535830378532,0,0,0
12282,445064.4965552828,2010-12-04 14:12:13,810.4073074701275,7,40,-1.0997490882873535,3.7525248527526855,36.95378834965744,36.92806428878303,148.1588799348626,133.98827464415663,-0.0002265930233988,0.0963535830378532,0,0,0
12283,445094.51165625214,2010-12-04 14:12:43,840.4224084444753,7,40,-1.099568486213684,3.746373176574707,36.95378834965744,36.9372334252155,148.1588799348626,134.0226545331537,-0.0001618862152099,0.0963535830378532,0,0,0
12284,445124.529071726,2010-12-04 14:13:13,870.4398240587153,7,40,-1.099568486213684,3.740221500396729,36.95378834965744,36.94640325928104,148.1588799348626,134.05697948324834,-0.0001295089750783,0.0963535830378532,0,0,0
12285,445154.54181525897,2010-12-04 14:13:43,900.4525674513116,7,40,-1.099568486213684,3.73406982421875,36.95378834965744,36.95557173725195,148.1588799348626,134.09124262673765,-0.0001295089750783,0.0963535830378532,0,0,0
12286,445184.5570217358,2010-12-04 14:14:13,930.4677739281982,7,40,-1.0997490882873535,3.728241920471192,36.95378834965744,36.96474092187426,148.1588799348626,134.1254531566895,-0.0001295089750783,0.0963535830378532,0,0,0
12287,445214.5719845965,2010-12-04 14:14:43,960.4827367838428,7,40,-1.099929690361023,3.722090244293213,36.95378834965744,36.97390997395739,148.1588799348626,134.1596094429642,-0.0001942634553415,0.0963535830378532,0,0,0
12288,445244.5870979216,2010-12-04 14:15:13,990.4978501089248,7,40,-1.0997490882873535,3.716424226760864,36.95378834965744,36.98307910265907,148.1588799348626,134.19371212976574,-0.0001618862152099,0.0963535830378532,0,0,0
12289,445274.6039344648,2010-12-04 14:15:43,1020.5146867423936,7,40,-1.099568486213684,3.7105963230133057,36.95378834965744,36.99224871706412,148.1588799348626,134.22776378029585,-0.0001618862152099,0.0963535830378532,0,0,0
12290,445304.6172697002,2010-12-04 14:16:13,1050.528021897568,7,40,-1.0997490882873535,3.705092191696167,36.95378834965744,37.00141731601092,148.1588799348626,134.26175947322417,-0.0001295089750783,0.0963535830378532,0,0,0
12291,445334.632327036,2010-12-04 14:16:43,1080.543079223298,7,40,-1.0997490882873535,3.6994261741638175,36.95378834965744,37.01058649624989,148.1588799348626,134.295705624655,-0.0001618862152099,0.0963535830378532,0,0,0
12292,445364.647533974,2010-12-04 14:17:14,1110.5582861613325,7,40,-1.0997490882873535,3.6937601566314697,36.95378834965744,37.01975568163953,148.1588799348626,134.32960099998675,-0.0001618862152099,0.0963535830378532,0,0,0
12293,445394.6648275746,2010-12-04 14:17:44,1140.5755798521704,7,40,-1.099568486213684,3.688579797744751,36.95378834965744,37.028925403794645,148.1588799348626,134.36344838969345,-0.0001295089750783,0.0963535830378532,0,0,0
12294,445424.6775917889,2010-12-04 14:18:14,1170.588343981369,7,40,-1.0997490882873535,3.6832375526428223,36.95378834965744,37.038093730200806,148.1588799348626,134.39724118800814,-0.0001295089750783,0.0963535830378532,0,0,0
12295,445454.6927934739,2010-12-04 14:18:44,1200.6035456613188,7,40,-1.099929690361023,3.6778953075408936,36.95378834965744,37.047262871543005,148.1588799348626,134.4309883376381,-0.0001295089750783,0.0963535830378532,0,0,0
12296,445484.7079041174,2010-12-04 14:19:14,1230.61865632979,7,40,-1.0997490882873535,3.672714948654175,36.95378834965744,37.056431921432285,148.1588799348626,134.4646875472567,-0.0001295089750783,0.0963535830378532,0,0,0
12297,445514.7228507326,2010-12-04 14:19:44,1260.6336029500333,7,40,-1.099568486213684,3.667858600616455,36.95378834965744,37.06560096479946,148.1588799348626,134.49833983184178,-9.713172767078504e-05,0.0963535830378532,0,0,0
12298,445544.737926414,2010-12-04 14:20:14,1290.648678606378,7,40,-1.0997490882873535,3.662678241729736,36.95378834965744,37.07477006468981,148.1588799348626,134.53194609691823,-0.0001295089750783,0.0963535830378532,0,0,0
12299,445574.7530077595,2010-12-04 14:20:44,1320.6637599719302,7,40,-1.0997490882873535,3.657659769058228,36.95378834965744,37.08393920801561,148.1588799348626,134.56550670507892,-0.0001295089750783,0.0963535830378532,0,0,0
12300,445604.7682374141,2010-12-04 14:21:14,1350.6789896064438,7,40,-1.099568486213684,3.6531269550323486,36.95378834965744,37.09310834576184,148.1588799348626,134.59902252790502,-9.713172767078504e-05,0.0963535830378532,0,0,0
12301,445634.78318618966,2010-12-04 14:21:44,1380.6939383770384,7,40,-1.0997490882873535,3.64810848236084,36.95378834965744,37.10227740453386,148.1588799348626,134.63249402989024,-0.0001295089750783,0.0963535830378532,0,0,0
12302,445664.7984194032,2010-12-04 14:22:14,1410.709171665645,7,40,-1.0997490882873535,3.643413782119751,36.95378834965744,37.11144649178956,148.1588799348626,134.6659218953657,-0.0001295089750783,0.0963535830378532,0,0,0
12303,445694.8134957361,2010-12-04 14:22:44,1440.7242479234867,7,40,-1.0997490882873535,3.638719081878662,36.95378834965744,37.12061557819651,148.1588799348626,134.69930712212584,-0.0001295089750783,0.0963535830378532,0,0,0
12304,445724.8284675391,2010-12-04 14:23:14,1470.739219726396,7,40,-1.0997490882873535,3.634186267852783,36.95378834965744,37.12978460907786,148.1588799348626,134.73265043724675,-0.0001295089750783,0.0963535830378532,0,0,0
12305,445754.8436436604,2010-12-04 14:23:44,1500.7543958728068,7,40,-1.0997490882873535,3.629653453826904,36.95378834965744,37.13895371271622,148.1588799348626,134.7659530776466,-0.0001618862152099,0.0963535830378532,0,0,0
12306,445784.8586140899,2010-12-04 14:24:14,1530.7693662822485,7,40,-1.0997490882873535,3.625444412231445,36.95378834965744,37.14812284770368,148.1588799348626,134.79921553623652,-9.713172767078504e-05,0.0963535830378532,0,0,0
12307,445814.8736912801,2010-12-04 14:24:44,1560.7844434774229,7,40,-1.0997490882873535,3.6212353706359854,36.95378834965744,37.15729196892551,148.1588799348626,134.83243857084128,-0.0001295089750783,0.0963535830378532,0,0,0
12308,445844.8887972518,2010-12-04 14:25:14,1590.7995494391814,7,40,-1.0997490882873535,3.6170263290405273,36.95378834965744,37.16646108426831,148.1588799348626,134.86562279744152,-9.713172767078504e-05,0.0963535830378532,0,0,0
12309,445874.90566669696,2010-12-04 14:25:44,1620.8164189795375,7,40,-1.0997490882873535,3.612817287445069,36.95378834965744,37.17563064901342,148.1588799348626,134.89877077262653,-0.0001295089750783,0.0963535830378532,0,0,0
12310,445904.9189339231,2010-12-04 14:26:14,1650.8296861204612,7,40,-1.0997490882873535,3.6090939044952393,36.95378834965744,37.18479924477423,148.1588799348626,134.931878493198,-3.237724376958795e-05,0.0963535830378532,0,0,0
12311,445934.934040346,2010-12-04 14:26:44,1680.8447925333426,7,40,-1.0993878841400146,3.6052086353302,36.95378834965744,37.19396838322106,148.1588799348626,134.96495246642493,-9.713172767078504e-05,0.0963535830378532,0,0,0
12312,445964.94912846334,2010-12-04 14:27:14,1710.859880650696,7,40,-1.0997490882873535,3.601485252380371,36.95378834965744,37.2031374387461,148.1588799348626,134.99799112795066,-3.237724376958795e-05,0.0963535830378532,0,0,0
12313,445994.964208255,2010-12-04 14:27:44,1740.8749604423317,7,40,-1.0997490882873535,3.597761869430542,36.95378834965744,37.212306469321256,148.1588799348626,135.0309956503774,-6.47544875391759e-05,0.0963535830378532,0,0,0
12314,446024.9793992384,2010-12-04 14:28:14,1770.8901514256631,7,40,-1.0997490882873535,3.594200372695923,36.95378834965744,37.22147559805732,148.1588799348626,135.0639673164477,-9.713172767078504e-05,0.0963535830378532,0,0,0
12315,446054.9943643395,2010-12-04 14:28:44,1800.9051165319083,7,40,-1.099568486213684,3.5908010005950928,36.95378834965744,37.23064465913236,148.1588799348626,135.096907024758,-6.47544875391759e-05,0.0963535830378532,0,0,0
12316,446085.0096223747,2010-12-04 14:29:14,1830.920374567096,7,40,-1.0997490882873535,3.5875632762908936,36.95378834965744,37.23981386688391,148.1588799348626,135.12981636779628,-6.47544875391759e-05,0.0963535830378532,0,0,0
12317,446115.0245315267,2010-12-04 14:29:44,1860.9352837191009,7,40,-1.0997490882873535,3.5840017795562744,36.95378834965744,37.248982915357416,148.1588799348626,135.16269470407175,-0.0001295089750783,0.0963535830378532,0,0,0
12318,446145.0396421802,2010-12-04 14:30:14,1890.950394372535,7,40,-1.099929690361023,3.580764055252075,36.95378834965744,37.258152018756775,148.1588799348626,135.1955433957751,-0.0001295089750783,0.0963535830378532,0,0,0
12319,446175.05470326025,2010-12-04 14:30:44,1920.9654554475944,7,40,-1.0997490882873535,3.577688217163086,36.95378834965744,37.267321190670216,148.1588799348626,135.228363142385,-9.713172767078504e-05,0.0963535830378532,0,0,0
12320,446205.0698172821,2010-12-04 14:31:14,1950.9805694994848,7,40,-1.0997490882873535,3.574774265289306,36.95378834965744,37.2764903420897,148.1588799348626,135.261153722902,-6.47544875391759e-05,0.0963535830378532,0,0,0
12321,446235.0848893996,2010-12-04 14:31:44,1980.9956416470989,7,40,-1.0997490882873535,3.5715365409851074,36.95378834965744,37.28565947401396,148.1588799348626,135.29391563595215,-9.713172767078504e-05,0.0963535830378532,0,0,0
12322,446265.10009308456,2010-12-04 14:32:14,2011.010845271888,7,40,-1.0997490882873535,3.568460702896118,36.95378834965744,37.29482867675497,148.1588799348626,135.32664922490528,-6.47544875391759e-05,0.0963535830378532,0,0,0
12323,446295.115064316,2010-12-04 14:32:44,2041.025816568538,7,40,-1.099568486213684,3.565384864807129,36.95378834965744,37.30399776482572,148.1588799348626,135.35935414102266,-6.47544875391759e-05,0.0963535830378532,0,0,0
12324,446325.1301525035,2010-12-04 14:33:14,2071.040904690904,7,40,-1.0997490882873535,3.56230902671814,36.95378834965744,37.31316686269147,148.1588799348626,135.39203124501307,-9.713172767078504e-05,0.0963535830378532,0,0,0
12325,446355.14537327096,2010-12-04 14:33:44,2101.0561255235143,7,40,-1.099568486213684,3.5592331886291504,36.95378834965744,37.32233598317697,148.1588799348626,135.42468094235363,-9.713172767078504e-05,0.0963535830378532,0,0,0
12326,446385.1603099365,2010-12-04 14:34:14,2131.071062128836,7,40,-1.0997490882873535,3.556319236755371,36.95378834965744,37.3315050924662,148.1588799348626,135.4573022471461,-3.237724376958795e-05,0.0963535830378532,0,0,0
12327,446415.1753859438,2010-12-04 14:34:44,2161.0861381410664,7,40,-1.0997490882873535,3.553081512451172,36.95378834965744,37.34067427358442,148.1588799348626,135.48989537984477,-6.47544875391759e-05,0.0963535830378532,0,0,0
12328,446445.1904805672,2010-12-04 14:35:14,2191.101232754585,7,40,-1.0997490882873535,3.5500056743621826,36.95378834965744,37.34984337509589,148.1588799348626,135.5224597456762,-6.47544875391759e-05,0.0963535830378532,0,0,0
12329,446475.20780329534,2010-12-04 14:35:44,2221.118555572906,7,40,-1.0997490882873535,3.5467679500579834,36.95378834965744,37.35901321851938,148.1588799348626,135.55499779822182,-9.713172767078504e-05,0.0963535830378532,0,0,0
12330,446505.220652822,2010-12-04 14:36:14,2251.131405009389,7,40,-1.0997490882873535,3.543530225753784,36.95378834965744,37.36818171314573,148.1588799348626,135.587501533737,-9.713172767078504e-05,0.0963535830378532,0,0,0
12331,446535.2357457063,2010-12-04 14:36:44,2281.1464978936046,7,40,-1.099929690361023,3.539968729019165,36.95378834965744,37.37735085333958,148.1588799348626,135.61997763772018,-0.0001295089750783,0.0963535830378532,0,0,0
12332,446565.25086010905,2010-12-04 14:37:14,2311.1616122963683,7,40,-1.1001102924346924,3.536892890930176,36.95378834965744,37.38652004916309,148.1588799348626,135.65242376715102,-9.713172767078504e-05,0.0963535830378532,0,0,0
12333,446595.26590946486,2010-12-04 14:37:44,2341.176661657278,7,40,-1.0997490882873535,3.5333313941955566,36.95378834965744,37.3956892378496,148.1588799348626,135.68483882792188,-0.0001618862152099,0.0963535830378532,0,0,0
12334,446625.2809887553,2010-12-04 14:38:14,2371.1917409426533,7,40,-1.099568486213684,3.5299317836761475,36.95378834965744,37.40485845732237,148.1588799348626,135.71722217849384,-0.0001295089750783,0.0963535830378532,0,0,0
12335,446655.2960740808,2010-12-04 14:38:44,2401.206826268059,7,40,-1.0997490882873535,3.5263702869415283,36.95378834965744,37.41402766103927,148.1588799348626,135.74957273278872,-0.0001295089750783,0.0963535830378532,0,0,0
12336,446685.3111840224,2010-12-04 14:39:14,2431.2219362999467,7,40,-1.0997490882873535,3.5224850177764893,36.95378834965744,37.42319682573174,148.1588799348626,135.78188924722537,-9.713172767078504e-05,0.0963535830378532,0,0,0
12337,446715.3262648416,2010-12-04 14:39:44,2461.2370170539766,7,40,-1.0997490882873535,3.51859974861145,36.95378834965744,37.43236596724644,148.1588799348626,135.81417024966217,-0.0001295089750783,0.0963535830378532,0,0,0
12338,446745.34134837246,2010-12-04 14:40:14,2491.2521006400543,7,40,-1.0997490882873535,3.514552593231201,36.95378834965744,37.441535160339576,148.1588799348626,135.8464149972255,-9.713172767078504e-05,0.0963535830378532,0,0,0
12339,446775.3564462391,2010-12-04 14:40:44,2521.267198451531,7,40,-1.099568486213684,3.5103437900543213,36.95378834965744,37.45070431491076,148.1588799348626,135.87862134685295,-9.713172767078504e-05,0.0963535830378532,0,0,0
12340,446805.3714672695,2010-12-04 14:41:14,2551.282219486954,7,40,-1.0997490882873535,3.5056490898132324,36.95378834965744,37.459873474864935,148.1588799348626,135.91078714794455,-0.0001295089750783,0.0963535830378532,0,0,0
12341,446835.3865844191,2010-12-04 14:41:44,2581.2973366315405,7,40,-1.0997490882873535,3.5007925033569336,36.95378834965744,37.46904255936626,148.1588799348626,135.94290926337004,-0.0001618862152099,0.0963535830378532,0,0,0
12342,446865.4016730578,2010-12-04 14:42:14,2611.3124252701914,7,40,-1.0997490882873535,3.495612144470215,36.95378834965744,37.47821142483552,148.1588799348626,135.9749843590507,-0.0001295089750783,0.0963535830378532,0,0,0
12343,446895.41688534914,2010-12-04 14:42:44,2641.3276375364853,7,40,-1.0997490882873535,3.489946126937866,36.95378834965744,37.48738037230359,148.1588799348626,136.00700939976377,-0.0001295089750783,0.0963535830378532,0,0,0
12344,446925.431809664,2010-12-04 14:43:14,2671.3425618462097,7,40,-1.0997490882873535,3.483470678329468,36.95378834965744,37.496549272858665,148.1588799348626,136.03897896837353,-0.0001618862152099,0.0963535830378532,0,0,0
12345,446955.4469666275,2010-12-04 14:43:44,2701.357718930184,7,40,-1.0997490882873535,3.476347684860229,36.95378834965744,37.5057183961305,148.1588799348626,136.07088692802202,-0.0001618862152099,0.0963535830378532,0,0,0
12346,446985.46206626855,2010-12-04 14:44:14,2731.3728184559272,7,40,-1.0997490882873535,3.4682533740997314,36.95378834965744,37.51488751144594,148.1588799348626,136.10272453813351,-0.0002266406954731,0.0963535830378532,0,0,0
12347,447015.4772557331,2010-12-04 14:44:44,2761.3880079154665,7,40,-1.099568486213684,3.458702087402344,36.95378834965744,37.5240567522694,148.1588799348626,136.13448171294442,-0.0001942634553415,0.0963535830378532,0,0,0
12348,447045.494729507,2010-12-04 14:45:14,2791.405481784672,7,40,-1.0997490882873535,3.4470462799072266,36.95378834965744,37.53322664518348,148.1588799348626,136.1661453667885,-0.0003561496851034,0.0963535830378532,0,0,0
12349,447075.50731656566,2010-12-04 14:45:44,2821.418068748,7,40,-1.099929690361023,3.43296217918396,36.95378834965744,37.54239513846418,148.1588799348626,136.19768770291762,-0.0004209041653666,0.0963535830378532,0,0,0
12350,447105.5085091394,2010-12-04 14:46:14,2851.4192614220774,7,40,-1.0997490882873535,3.415154933929444,36.95378834965744,37.55156019198096,148.1588799348626,136.22907265855324,-0.0005504131549969,0.0963535830378532,0,0,0
12351,447135.52187996847,2010-12-04 14:46:44,2881.4326321858625,7,40,-1.099929690361023,3.391843318939209,36.95378834965744,37.56072892982312,148.1588799348626,136.2602832526937,-0.0007122993702068,0.0963535830378532,0,0,0
12352,447165.53694591066,2010-12-04 14:47:14,2911.4476980929467,7,40,-1.099929690361023,3.3607611656188965,36.95378834965744,37.56989815947063,148.1588799348626,136.2912495113665,-0.0009713172912597,0.0963535830378532,0,0,0
12353,447195.5520439577,2010-12-04 14:47:44,2941.4627961450224,7,40,-1.099568486213684,3.3189947605133057,36.95378834965744,37.57906747929818,148.1588799348626,136.32188472840153,-0.0012627125252038,0.0963535830378532,0,0,0
12354,447225.5671192481,2010-12-04 14:48:14,2971.477871430444,7,40,-1.1001102924346924,3.2612016201019287,36.95378834965744,37.58823668269728,148.1588799348626,136.35206736316408,-0.0017807483673095,0.0963535830378532,0,0,0
12355,447255.582325294,2010-12-04 14:48:44,3001.4930774812706,7,40,-1.0997490882873535,3.1799349784851074,36.95378834965744,37.59740598532095,148.1588799348626,136.38162210524868,-0.0025253773201256,0.0963535830378532,0,0,0
12356,447285.5972853125,2010-12-04 14:49:14,3031.508037499855,7,40,-1.0997490882873535,3.056901693344116,36.95378834965744,37.60657518043439,148.1588799348626,136.41025887706118,-0.0039824009872972,0.0963535830378532,0,0,0
12357,447312.3799265501,2010-12-04 14:49:41,3058.290678822685,7,40,-1.0997490882873535,2.856649160385132,36.95378834965744,37.61475692292501,148.1588799348626,136.43454833350387,-0.0079647544771432,0.0963535830378532,0,0,0
12358,447326.018441495,2010-12-04 14:49:55,3071.929193857792,7,40,-1.0997490882873535,2.699620008468628,36.95378834965744,37.618923332198925,148.1588799348626,136.44613106892405,-0.0095836166292428,0.0963535830378532,0,0,0
12359,447386.02397636016,2010-12-04 14:50:55,60.01659329909428,8,40,0.0,3.354771375656128,36.95378834965744,37.618923332198925,148.1588799348626,136.44613106892405,0.0012950419913977,0.0963535830378532,0,0,0
12360,447386.2149975168,2010-12-04 14:50:55,0.187438192733456,9,40,-1.9243103452026844e-05,3.354933261871338,36.95378834965744,37.61892333320084,148.1588799348626,136.44613107228545,0.0,0.0923885703086853,0,0,0
12361,447391.042998652,2010-12-04 14:51:00,5.015439408065456,9,40,0.0007031940040178,3.363027572631836,36.953789101930816,37.618923333368926,148.15888246217,136.44613107284934,0.0011332035064697,0.0923885703086853,0,0,0
