Data_Point,Test_Time(s),Date_Time,Step_Time(s),Step_Index,Cycle_Index,Current(A),Voltage(V),Charge_Capacity(Ah),Discharge_Capacity(Ah),Charge_Energy(Wh),Discharge_Energy(Wh),dV/dt(V/s),Internal_Resistance(Ohm),Is_FC_Data,AC_Impedance(Ohm),ACI_Phase_Angle(Deg)
8001,289877.60439140885,2010-12-02 19:05:29,30.01478151438387,1,27,0.0,3.4306960105896,23.85288814467364,24.50994839210121,95.66600654632084,88.84743479176656,0.0007122993702068,0.0949056595563888,0,0,0
8002,289907.61929339304,2010-12-02 19:05:59,60.02968351860206,1,27,0.0,3.453683614730835,23.85288814467364,24.50994839210121,95.66600654632084,88.84743479176656,0.0005504131549969,0.0949056595563888,0,0,0
8003,289937.6344322516,2010-12-02 19:06:29,90.0448223621859,1,27,0.0,3.4711673259735107,23.85288814467364,24.50994839210121,95.66600654632084,88.84743479176656,0.0004532813909463,0.0949056595563888,0,0,0
8004,289967.60245436203,2010-12-02 19:06:59,120.0128444725914,1,27,0.0,3.4849276542663574,23.85288814467364,24.50994839210121,95.66600654632084,88.84743479176656,0.0003561496851034,0.0949056595563888,0,0,0
8005,289997.61132228724,2010-12-02 19:07:29,30.015040313395257,2,27,0.550297200679779,3.642928123474121,23.85747466190569,24.50994839210121,95.68256618103116,88.84743479176656,0.0014245987404137,0.0949056595563888,0,0,0
8006,290027.62633246067,2010-12-02 19:07:59,60.03005046673838,2,27,0.5501165986061096,3.685180187225342,23.86206112891553,24.50994839210121,95.69937777390808,88.84743479176656,0.0009389400365762,0.0949056595563888,0,0,0
8007,290057.6416270468,2010-12-02 19:08:29,90.04534514811859,2,27,0.550297200679779,3.7156147956848153,23.866647561764356,24.50994839210121,95.71635299301956,88.84743479176656,0.0006799221155233,0.0949056595563888,0,0,0
8008,290087.64301320235,2010-12-02 19:08:59,120.04673129865472,2,27,0.5501165986061096,3.7392501831054688,23.87123250291204,24.50994839210121,95.73344538510472,88.84743479176656,0.0005504131549969,0.0949056595563888,0,0,0
8009,290117.65580194275,2010-12-02 19:09:29,150.0595199789476,2,27,0.5501165986061096,3.757866859436035,23.87581940924482,24.50994839210121,95.7506422007197,88.84743479176656,0.0004209041653666,0.0949056595563888,0,0,0
8010,290147.6709656131,2010-12-02 19:09:59,180.07468371447408,2,27,0.550297200679779,3.772112846374512,23.880406115783007,24.50994839210121,95.76791366819296,88.84743479176656,0.0003237724304199,0.0949056595563888,0,0,0
8011,290177.68585659994,2010-12-02 19:10:29,210.08957461606383,2,27,0.5501165986061096,3.7811784744262695,23.884992525280065,24.50994839210121,95.7852368385846,88.84743479176656,0.0001295089750783,0.0949056595563888,0,0,0
8012,290207.7008617258,2010-12-02 19:10:59,240.1045797368837,2,27,0.550297200679779,3.787492036819458,23.889578824532823,24.50994839210121,95.80259422538876,88.84743479176656,0.0001295089750783,0.0949056595563888,0,0,0
8013,290237.7158844203,2010-12-02 19:11:29,270.1196024364476,2,27,0.5499359965324402,3.792510509490967,23.89416520182134,24.50994839210121,95.8199771488402,88.84743479176656,9.713172767078504e-05,0.0949056595563888,0,0,0
8014,290267.73091022763,2010-12-02 19:11:59,300.1346282337201,2,27,0.5501165986061096,3.797205209732056,23.89875162541556,24.50994839210121,95.8373821146805,88.84743479176656,0.0001295089750783,0.0949056595563888,0,0,0
8015,290297.7459422554,2010-12-02 19:12:29,330.1496602614969,2,27,0.5499359965324402,3.801414251327514,23.903338000233276,24.50994839210121,95.85480727512432,88.84743479176656,9.713172767078504e-05,0.0949056595563888,0,0,0
8016,290327.7609496218,2010-12-02 19:12:59,360.1646676279048,2,27,0.550297200679779,3.805785179138184,23.90792447425012,24.50994839210121,95.87225224453724,88.84743479176656,0.0001295089750783,0.0949056595563888,0,0,0
8017,290357.77599154424,2010-12-02 19:13:29,390.1797095753664,2,27,0.5501165986061096,3.809670448303223,23.91251088835665,24.50994839210121,95.88971568397062,88.84743479176656,9.713172767078504e-05,0.0949056595563888,0,0,0
8018,290387.7909954921,2010-12-02 19:13:59,420.1947134982052,2,27,0.5501165986061096,3.813717603683472,23.917097313528057,24.50994839210121,95.907197199154,88.84743479176656,0.0001295089750783,0.0949056595563888,0,0,0
8019,290417.80603759,2010-12-02 19:14:29,450.2097555960409,2,27,0.5501165986061096,3.817279100418091,23.92168374977429,24.50994839210121,95.9246964774306,88.84743479176656,6.47544875391759e-05,0.0949056595563888,0,0,0
8020,290447.82103704667,2010-12-02 19:14:59,480.2247550577784,2,27,0.5501165986061096,3.82100248336792,23.926270139996127,24.50994839210121,95.9422125089335,88.84743479176656,9.713172767078504e-05,0.0949056595563888,0,0,0
8021,290477.83619332867,2010-12-02 19:15:29,510.2399113347445,2,27,0.5501165986061096,3.824725866317749,23.930856567560543,24.50994839210121,95.95974528687414,88.84743479176656,0.0001295089750783,0.0949056595563888,0,0,0
8022,290507.8510854533,2010-12-02 19:15:59,540.2548034593777,2,27,0.5499359965324402,3.827963590621948,23.93544298711626,24.50994839210121,95.97729433956728,88.84743479176656,9.713172767078504e-05,0.0949056595563888,0,0,0
8023,290537.8661618264,2010-12-02 19:16:29,570.2698799227309,2,27,0.5501165986061096,3.831525087356568,23.94002938135021,24.50994839210121,95.99485943179728,88.84743479176656,6.47544875391759e-05,0.0949056595563888,0,0,0
8024,290567.8813234768,2010-12-02 19:16:59,600.2850415530185,2,27,0.5499359965324402,3.835086345672608,23.94461577987897,24.50994839210121,96.01244048194128,88.84743479176656,9.713172767078504e-05,0.0949056595563888,0,0,0
8025,290597.8962172354,2010-12-02 19:17:29,630.2999352666056,2,27,0.5499359965324402,3.8384859561920166,23.94920216019165,24.50994839210121,96.03003744639824,88.84743479176656,9.713172767078504e-05,0.0949056595563888,0,0,0
8026,290627.9111719108,2010-12-02 19:17:59,660.3148899168315,2,27,0.5499359965324402,3.842047452926636,23.95378840257244,24.50994839210121,96.0476499086234,88.84743479176656,0.0001295089750783,0.0949056595563888,0,0,0
8027,290657.928567846,2010-12-02 19:18:29,690.3322859673881,2,27,0.5501165986061096,3.845447063446045,23.95837504954512,24.50994839210121,96.0652799849702,88.84743479176656,6.47544875391759e-05,0.0949056595563888,0,0,0
8028,290687.9429537309,2010-12-02 19:18:59,720.3466718873505,2,27,0.5501165986061096,3.849170446395874,23.96296123215899,24.50994839210121,96.082924474401,88.84743479176656,0.0001295089750783,0.0949056595563888,0,0,0
8029,290717.95632328663,2010-12-02 19:19:29,750.3600413579176,2,27,0.5501165986061096,3.852570056915283,23.96754730144636,24.50994839210121,96.10058484159832,88.84743479176656,3.237724376958795e-05,0.0949056595563888,0,0,0
8030,290747.97126955603,2010-12-02 19:19:59,780.3749875671382,2,27,0.5501165986061096,3.8561315536499023,23.97213364858158,24.50994839210121,96.1182625765794,88.84743479176656,6.47544875391759e-05,0.0949056595563888,0,0,0
8031,290777.98645252944,2010-12-02 19:20:29,810.3901705655996,2,27,0.5499359965324402,3.859854936599731,23.976720006242456,24.50994839210121,96.13595667344374,88.84743479176656,0.0001295089750783,0.0949056595563888,0,0,0
8032,290808.001312464,2010-12-02 19:20:59,840.4050304750668,2,27,0.5501165986061096,3.8632545471191406,23.98130627730216,24.50994839210121,96.1536665605298,88.84743479176656,9.713172767078504e-05,0.0949056595563888,0,0,0
8033,290838.016473192,2010-12-02 19:21:29,870.4201911980967,2,27,0.5501165986061096,3.86681604385376,23.985892678038685,24.50994839210121,96.17139287340774,88.84743479176656,0.0001618862152099,0.0949056595563888,0,0,0
8034,290868.031383557,2010-12-02 19:21:59,900.435101568133,2,27,0.5499359965324402,3.870053768157959,23.99047899396617,24.50994839210121,96.18913459107256,88.84743479176656,6.47544875391759e-05,0.0949056595563888,0,0,0
8035,290898.04639557505,2010-12-02 19:22:30,930.450113581104,2,27,0.550297200679779,3.873453378677368,23.995065371892085,24.50994839210121,96.20689198966777,88.84743479176656,9.713172767078504e-05,0.0949056595563888,0,0,0
8036,290928.06372201734,2010-12-02 19:23:00,960.4674401136676,2,27,0.5497553944587708,3.876529216766357,23.99965203626043,24.50994839210121,96.2246654312687,88.84743479176656,6.47544875391759e-05,0.0949056595563888,0,0,0
8037,290958.0765675642,2010-12-02 19:23:30,990.480285635408,2,27,0.550297200679779,3.8797669410705566,24.00423804356595,24.50994839210121,96.24245095817558,88.84743479176656,6.47544875391759e-05,0.0949056595563888,0,0,0
8038,290988.0912866331,2010-12-02 19:24:00,1020.4950046392368,2,27,0.5501165986061096,3.882842779159546,24.00882206918056,24.50994839210121,96.26024287634851,88.84743479176656,6.47544875391759e-05,0.0949056595563888,0,0,0
8039,291018.1063901789,2010-12-02 19:24:30,1050.5101081849834,2,27,0.5499359965324402,3.885432958602905,24.013410722481066,24.50994839210121,96.27806625504876,88.84743479176656,3.237724376958795e-05,0.0949056595563888,0,0,0
8040,291048.1214754541,2010-12-02 19:25:00,1080.5251934652772,2,27,0.5501165986061096,3.8885087966918954,24.01799707846823,24.50994839210121,96.2958935641238,88.84743479176656,6.47544875391759e-05,0.0949056595563888,0,0,0
8041,291078.1364936175,2010-12-02 19:25:30,1110.5402116235402,2,27,0.550297200679779,3.891098976135254,24.022583478897428,24.50994839210121,96.31373331754791,88.84743479176656,0.0001295089750783,0.0949056595563888,0,0,0
8042,291108.1515205325,2010-12-02 19:26:00,1140.555238568669,2,27,0.5501165986061096,3.893365383148194,24.02716986071725,24.50994839210121,96.33158448120692,88.84743479176656,3.237724376958795e-05,0.0949056595563888,0,0,0
8043,291138.1665515177,2010-12-02 19:26:30,1170.5702695237765,2,27,0.5499359965324402,3.895631790161133,24.031756193878223,24.50994839210121,96.34944604348604,88.84743479176656,0.0001295089750783,0.0949056595563888,0,0,0
8044,291168.1815633101,2010-12-02 19:27:00,1200.5852813161985,2,27,0.5499359965324402,3.8977363109588623,24.03634257501936,24.50994839210121,96.36731786114308,88.84743479176656,6.47544875391759e-05,0.0949056595563888,0,0,0
8045,291198.19672970724,2010-12-02 19:27:30,1230.6004477133483,2,27,0.5501165986061096,3.899840831756592,24.04092892611601,24.50994839210121,96.38519914317898,88.84743479176656,6.47544875391759e-05,0.0949056595563888,0,0,0
8046,291228.211618654,2010-12-02 19:28:00,1260.6153366600734,2,27,0.5501165986061096,3.9017834663391113,24.045515266632066,24.50994839210121,96.40308928499051,88.84743479176656,6.47544875391759e-05,0.0949056595563888,0,0,0
8047,291258.22666239087,2010-12-02 19:28:30,1290.6303803969877,2,27,0.5501165986061096,3.903402328491211,24.05010164271308,24.50994839210121,96.4209880672542,88.84743479176656,3.237724376958795e-05,0.0949056595563888,0,0,0
8048,291288.24357569515,2010-12-02 19:29:00,1320.6472937914734,2,27,0.5501165986061096,3.905183076858521,24.05468827287535,24.50994839210121,96.43889590745928,88.84743479176656,3.237724376958795e-05,0.0949056595563888,0,0,0
8049,291318.25683309685,2010-12-02 19:29:30,1350.6605511680991,2,27,0.5501165986061096,3.90680193901062,24.059274433010856,24.50994839210121,96.45680943631451,88.84743479176656,3.237724376958795e-05,0.0949056595563888,0,0,0
8050,291348.2717005551,2010-12-02 19:30:00,1380.6754185662014,2,27,0.5501165986061096,3.90842080116272,24.0638607966698,24.50994839210121,96.47473115529334,88.84743479176656,6.47544875391759e-05,0.0949056595563888,0,0,0
8051,291378.28673508915,2010-12-02 19:30:30,1410.6904530952024,2,27,0.5499359965324402,3.90987777709961,24.06844722879977,24.50994839210121,96.49266030863768,88.84743479176656,3.237724376958795e-05,0.0949056595563888,0,0,0
8052,291408.3017752872,2010-12-02 19:31:00,1440.705493318373,2,27,0.5501165986061096,3.911496639251709,24.07303360031368,24.50994839210121,96.51059609897028,88.84743479176656,6.47544875391759e-05,0.0949056595563888,0,0,0
8053,291438.3168918805,2010-12-02 19:31:30,1470.7206098915378,2,27,0.5501165986061096,3.912953615188599,24.07761999854837,24.50994839210121,96.52853897124491,88.84743479176656,3.237724376958795e-05,0.0949056595563888,0,0,0
8054,291468.3318291925,2010-12-02 19:32:00,1500.7355472086308,2,27,0.5501165986061096,3.914410352706909,24.082206420517085,24.50994839210121,96.5464887559822,88.84743479176656,3.237724376958795e-05,0.0949056595563888,0,0,0
8055,291498.3468217922,2010-12-02 19:32:30,1530.7505397982673,2,27,0.5501165986061096,3.915705442428589,24.08679290424147,24.50994839210121,96.56444557830584,88.84743479176656,3.237724376958795e-05,0.0949056595563888,0,0,0
8056,291528.3618438151,2010-12-02 19:33:00,1560.7655618462095,2,27,0.5501165986061096,3.917324304580689,24.091379289120383,24.50994839210121,96.58240873446816,88.84743479176656,0.0,0.0949056595563888,0,0,0
8057,291558.3768859029,2010-12-02 19:33:30,1590.7806039089585,2,27,0.5499359965324402,3.918619394302368,24.09596565721841,24.50994839210121,96.60037865056204,88.84743479176656,0.0,0.0949056595563888,0,0,0
8058,291588.3920061903,2010-12-02 19:34:00,1620.7957241963657,2,27,0.5499359965324402,3.9204001426696777,24.10055201421493,24.50994839210121,96.61835530215274,88.84743479176656,3.237724376958795e-05,0.0949056595563888,0,0,0
8059,291618.407247589,2010-12-02 19:34:30,1650.8109656853785,2,27,0.5499359965324402,3.921695232391357,24.105138497181628,24.50994839210121,96.63633919230698,88.84743479176656,0.0,0.0949056595563888,0,0,0
8060,291648.42194520467,2010-12-02 19:35:00,1680.8256632408338,2,27,0.5501165986061096,3.923314094543457,24.109724824715485,24.50994839210121,96.65432923909638,88.84743479176656,6.47544875391759e-05,0.0949056595563888,0,0,0
8061,291678.4369498192,2010-12-02 19:35:30,1710.840667825319,2,27,0.5501165986061096,3.9247710704803462,24.11431116199913,24.50994839210121,96.67232610350692,88.84743479176656,3.237724376958795e-05,0.0949056595563888,0,0,0
8062,291708.4520189243,2010-12-02 19:36:00,1740.8557369905109,2,27,0.5501165986061096,3.9263899326324463,24.118897594720725,24.50994839210121,96.69033020328028,88.84743479176656,9.713172767078504e-05,0.0949056595563888,0,0,0
8063,291738.4670188221,2010-12-02 19:36:30,1770.870736828184,2,27,0.550297200679779,3.927846908569336,24.123483989311097,24.50994839210121,96.7083409821136,88.84743479176656,9.713172767078504e-05,0.0949056595563888,0,0,0
8064,291768.4819819133,2010-12-02 19:37:00,1800.8856999444772,2,27,0.5501165986061096,3.9293038845062256,24.128070338769213,24.50994839210121,96.72635851302552,88.84743479176656,3.237724376958795e-05,0.0949056595563888,0,0,0
8065,291798.4970035152,2010-12-02 19:37:30,1830.9007215463096,2,27,0.5499359965324402,3.9307608604431152,24.13265664247762,24.50994839210121,96.74438284666915,88.84743479176656,3.237724376958795e-05,0.0949056595563888,0,0,0
8066,291828.51204073086,2010-12-02 19:38:00,1860.915758736934,2,27,0.5499359965324402,3.932217836380005,24.13724296484084,24.50994839210121,96.76241420718752,88.84743479176656,3.237724376958795e-05,0.0949056595563888,0,0,0
8067,291858.52707706933,2010-12-02 19:38:30,1890.93079508045,2,27,0.5501165986061096,3.933836698532105,24.141829250211423,24.50994839210121,96.78045243453708,88.84743479176656,3.237724376958795e-05,0.0949056595563888,0,0,0
8068,291888.5440019424,2010-12-02 19:39:00,1920.947720038712,2,27,0.5499359965324402,3.935455560684204,24.14641591735324,24.50994839210121,96.79849925515036,88.84743479176656,6.47544875391759e-05,0.0949056595563888,0,0,0
8069,291918.55709919555,2010-12-02 19:39:30,1950.960817201652,2,27,0.5501165986061096,3.9369125366210938,24.151002133293257,24.50994839210121,96.81655126744415,88.84743479176656,3.237724376958795e-05,0.0949056595563888,0,0,0
8070,291948.5721269427,2010-12-02 19:40:00,1980.975845044013,2,27,0.5499359965324402,3.938369512557984,24.155588539308223,24.50994839210121,96.83461121167832,88.84743479176656,0.0,0.0949056595563888,0,0,0
8071,291978.5871449907,2010-12-02 19:40:30,2010.9908629967647,2,27,0.550297200679779,3.940150260925293,24.160174974626923,24.50994839210121,96.85267844981551,88.84743479176656,3.237724376958795e-05,0.0949056595563888,0,0,0
8072,292008.60242931126,2010-12-02 19:41:00,2041.0061473775124,2,27,0.5499359965324402,3.941607236862183,24.16476143914077,24.50994839210121,96.87075304815876,88.84743479176656,3.237724376958795e-05,0.0949056595563888,0,0,0
8073,292038.6172131063,2010-12-02 19:41:30,2071.020931132472,2,27,0.5501165986061096,3.943226099014282,24.16934787446449,24.50994839210121,96.88883467394824,88.84743479176656,9.713172767078504e-05,0.0949056595563888,0,0,0
8074,292068.6323464162,2010-12-02 19:42:00,2101.0360644222355,2,27,0.5501165986061096,3.944844961166382,24.17393432794412,24.50994839210121,96.90692363542291,88.84743479176656,3.237724376958795e-05,0.0949056595563888,0,0,0
8075,292098.6473287051,2010-12-02 19:42:30,2131.0510467062268,2,27,0.5501165986061096,3.946301937103272,24.17852074579297,24.50994839210121,96.92501980136882,88.84743479176656,3.237724376958795e-05,0.0949056595563888,0,0,0
8076,292128.66221996763,2010-12-02 19:43:00,2161.065937998789,2,27,0.550297200679779,3.948082685470581,24.18310711625874,24.50994839210121,96.94312295240974,88.84743479176656,6.47544875391759e-05,0.0949056595563888,0,0,0
8077,292158.6772338152,2010-12-02 19:43:30,2191.080951821263,2,27,0.5501165986061096,3.949539661407471,24.187693528840946,24.50994839210121,96.96123367448722,88.84743479176656,3.237724376958795e-05,0.0949056595563888,0,0,0
8078,292188.69225419394,2010-12-02 19:44:00,2221.095972220101,2,27,0.550297200679779,3.9511585235595694,24.19227991283564,24.50994839210121,96.97935171929257,88.84743479176656,6.47544875391759e-05,0.0949056595563888,0,0,0
8079,292218.7074212528,2010-12-02 19:44:30,2251.1111393240103,2,27,0.5501165986061096,3.95293927192688,24.19686631626128,24.50994839210121,96.9974773038273,88.84743479176656,6.47544875391759e-05,0.0949056595563888,0,0,0
8080,292248.7224435413,2010-12-02 19:45:00,2281.126161557414,2,27,0.5501165986061096,3.95455813407898,24.20145273450119,24.50994839210121,97.01561050018456,88.84743479176656,9.713172767078504e-05,0.0949056595563888,0,0,0
8081,292278.737320438,2010-12-02 19:45:30,2311.1410384441283,2,27,0.5501165986061096,3.956176996231079,24.20603923445933,24.50994839210121,97.03375157889606,88.84743479176656,3.237724376958795e-05,0.0949056595563888,0,0,0
8082,292308.75234333816,2010-12-02 19:46:00,2341.156061349204,2,27,0.5501165986061096,3.9577958583831783,24.21062572378484,24.50994839210121,97.0519000548993,88.84743479176656,9.713172767078504e-05,0.0949056595563888,0,0,0
8083,292338.76749036706,2010-12-02 19:46:30,2371.171208398206,2,27,0.5501165986061096,3.959576606750488,24.21521217277772,24.50994839210121,97.07005603644257,88.84743479176656,3.237724376958795e-05,0.0949056595563888,0,0,0
8084,292368.7823802561,2010-12-02 19:47:00,2401.1860982672265,2,27,0.5501165986061096,3.961195468902588,24.21979851216735,24.50994839210121,97.08821919115624,88.84743479176656,6.47544875391759e-05,0.0949056595563888,0,0,0
8085,292398.79741834395,2010-12-02 19:47:30,2431.201136350071,2,27,0.5501165986061096,3.962814331054688,24.2243849338264,24.50994839210121,97.10639038339488,88.84743479176656,3.237724376958795e-05,0.0949056595563888,0,0,0
8086,292428.8124937196,2010-12-02 19:48:00,2461.2162118209544,2,27,0.5499359965324402,3.964271306991577,24.22897133566053,24.50994839210121,97.12456920325543,88.84743479176656,0.0,0.0949056595563888,0,0,0
8087,292458.8274630965,2010-12-02 19:48:30,2491.231181127652,2,27,0.5501165986061096,3.966375827789306,24.233557706030183,24.50994839210121,97.14275572490864,88.84743479176656,9.713172767078504e-05,0.0949056595563888,0,0,0
8088,292488.84420830244,2010-12-02 19:49:00,2521.2479264138065,2,27,0.5501165986061096,3.9679946899414062,24.23814449638722,24.50994839210121,97.16095181716116,88.84743479176656,3.237724376958795e-05,0.0949056595563888,0,0,0
8089,292518.8574943856,2010-12-02 19:49:30,2551.261212391605,2,27,0.5499359965324402,3.969775438308716,24.24273063103982,24.50994839210121,97.17915323381968,88.84743479176656,6.47544875391759e-05,0.0949056595563888,0,0,0
8090,292548.87250445865,2010-12-02 19:50:00,2581.2762224697617,2,27,0.5501165986061096,3.9712324142456055,24.247317017598476,24.50994839210121,97.19736361710252,88.84743479176656,3.237724376958795e-05,0.0949056595563888,0,0,0
8091,292578.8898454472,2010-12-02 19:50:30,2611.2935635685726,2,27,0.5499359965324402,3.973013162612915,24.25190388570808,24.50994839210121,97.21558398008536,88.84743479176656,3.237724376958795e-05,0.0949056595563888,0,0,0
8092,292608.902556775,2010-12-02 19:51:00,2641.306274781089,2,27,0.5499359965324402,3.9747939109802246,24.256489918259103,24.50994839210121,97.2338090893535,88.84743479176656,3.237724376958795e-05,0.0949056595563888,0,0,0
8093,292638.91757541447,2010-12-02 19:51:30,2671.3212934205503,2,27,0.5497553944587708,3.976574659347534,24.26107633918815,24.50994839210121,97.25204382354303,88.84743479176656,0.0,0.0949056595563888,0,0,0
8094,292668.9326122191,2010-12-02 19:52:00,2701.336330230227,2,27,0.5501165986061096,3.978355407714844,24.265662800598903,24.50994839210121,97.27028647495337,88.84743479176656,9.713172767078504e-05,0.0949056595563888,0,0,0
8095,292698.9477463259,2010-12-02 19:52:30,2731.3514643320104,2,27,0.5499359965324402,3.980136156082153,24.27024910427339,24.50994839210121,97.28853712677667,88.84743479176656,0.0,0.0949056595563888,0,0,0
8096,292728.96274539165,2010-12-02 19:53:00,2761.366463462925,2,27,0.5501165986061096,3.982078790664673,24.27483542517624,24.50994839210121,97.30679620458156,88.84743479176656,3.237724376958795e-05,0.0949056595563888,0,0,0
8097,292758.9777705624,2010-12-02 19:53:30,2791.381488633638,2,27,0.5501165986061096,3.984021425247192,24.27942183134227,24.50994839210121,97.32506404095376,88.84743479176656,6.47544875391759e-05,0.0949056595563888,0,0,0
8098,292788.9926637196,2010-12-02 19:54:00,2821.3963817256786,2,27,0.5501165986061096,3.985802173614502,24.28400814110686,24.50994839210121,97.34334001112668,88.84743479176656,3.237724376958795e-05,0.0949056595563888,0,0,0
8099,292819.0078769633,2010-12-02 19:54:31,2851.411595014517,2,27,0.5501165986061096,3.9877448081970215,24.288594567504077,24.50994839210121,97.36162500540888,88.84743479176656,6.47544875391759e-05,0.0949056595563888,0,0,0
8100,292849.02511347184,2010-12-02 19:55:01,2881.4288315781964,2,27,0.550297200679779,3.989687442779541,24.29318122456928,24.50994839210121,97.37991946369723,88.84743479176656,6.47544875391759e-05,0.0949056595563888,0,0,0
8101,292879.03789251315,2010-12-02 19:55:31,2911.441610539304,2,27,0.5501165986061096,3.9914681911468506,24.29776721397277,24.50994839210121,97.3982200688402,88.84743479176656,3.237724376958795e-05,0.0949056595563888,0,0,0
8102,292909.0528728172,2010-12-02 19:56:01,2941.45659088848,2,27,0.5499359965324402,3.99324893951416,24.302353526762296,24.50994839210121,97.41653081936352,88.84743479176656,3.237724376958795e-05,0.0949056595563888,0,0,0
8103,292939.0677999239,2010-12-02 19:56:31,2971.471518020227,2,27,0.5499359965324402,3.995515108108521,24.30693982110117,24.50994839210121,97.43485040487418,88.84743479176656,6.47544875391759e-05,0.0949056595563888,0,0,0
8104,292969.0827851652,2010-12-02 19:57:01,3001.486503171353,2,27,0.550297200679779,3.99761962890625,24.31152609648976,24.50994839210121,97.45317896515412,88.84743479176656,9.713172767078504e-05,0.0949056595563888,0,0,0
8105,292999.0978118999,2010-12-02 19:57:31,3031.5015299059583,2,27,0.5499359965324402,3.99940037727356,24.31611247528963,24.50994839210121,97.47151699349864,88.84743479176656,9.713172767078504e-05,0.0949056595563888,0,0,0
8106,293029.1129514001,2010-12-02 19:58:01,3061.516669406176,2,27,0.5501165986061096,4.001343250274658,24.32069877450624,24.50994839210121,97.48986395753997,88.84743479176656,3.24249267578125e-05,0.0949056595563888,0,0,0
8107,293059.1279954077,2010-12-02 19:58:31,3091.5317134889515,2,27,0.5501165986061096,4.003609657287598,24.325285152122227,24.50994839210121,97.50822061169376,88.84743479176656,9.71794142969884e-05,0.0949056595563888,0,0,0
8108,293089.1447080476,2010-12-02 19:59:01,3121.548426178992,2,27,0.5501165986061096,4.005552291870117,24.329871724988152,24.50994839210121,97.526587427379,88.84743479176656,6.47544875391759e-05,0.0949056595563888,0,0,0
8109,293119.1580189374,2010-12-02 19:59:31,3151.561736948483,2,27,0.5501165986061096,4.007656574249268,24.33445782960389,24.50994839210121,97.54496194162444,88.84743479176656,6.47544875391759e-05,0.0949056595563888,0,0,0
8110,293149.172929132,2010-12-02 20:00:01,3181.576647143083,2,27,0.5499359965324402,4.009599208831787,24.339044186897965,24.50994839210121,97.5633470784684,88.84743479176656,3.23295607813634e-05,0.0949056595563888,0,0,0
8111,293179.18793819763,2010-12-02 20:00:31,3211.591656213732,2,27,0.5501165986061096,4.011703968048096,24.34363053746817,24.50994839210121,97.58174195167304,88.84743479176656,6.47544875391759e-05,0.0949056595563888,0,0,0
8112,293209.20296401496,2010-12-02 20:01:01,3241.6066820260417,2,27,0.5501165986061096,4.014132022857666,24.348216938870397,24.50994839210121,97.60014703028088,88.84743479176656,6.47544875391759e-05,0.0949056595563888,0,0,0
8113,293239.21797561686,2010-12-02 20:01:31,3271.621693622977,2,27,0.5499359965324402,4.016236782073975,24.352803350098743,24.50994839210121,97.61856212746216,88.84743479176656,3.24249267578125e-05,0.0949056595563888,0,0,0
8114,293269.2329877953,2010-12-02 20:02:01,3301.6367058013598,2,27,0.5499359965324402,4.018341064453125,24.35738967054379,24.50994839210121,97.63698702410665,88.84743479176656,3.23295607813634e-05,0.0949056595563888,0,0,0
8115,293299.2480327101,2010-12-02 20:02:31,3331.651750736255,2,27,0.5501165986061096,4.0206074714660645,24.36197600857365,24.50994839210121,97.6554221251812,88.84743479176656,3.23295607813634e-05,0.0949056595563888,0,0,0
8116,293329.2630224627,2010-12-02 20:03:01,3361.666740473794,2,27,0.5501165986061096,4.023036003112793,24.366562337053807,24.50994839210121,97.67386766504558,88.84743479176656,6.47544875391759e-05,0.0949056595563888,0,0,0
8117,293359.2781712961,2010-12-02 20:03:31,3391.681889302225,2,27,0.5501165986061096,4.025302410125732,24.371148684657296,24.50994839210121,97.6923237274408,88.84743479176656,3.24249267578125e-05,0.0949056595563888,0,0,0
8118,293389.2932348774,2010-12-02 20:04:01,3421.696952888534,2,27,0.550297200679779,4.027730464935303,24.375735048779763,24.50994839210121,97.71079041679508,88.84743479176656,6.47544875391759e-05,0.0949056595563888,0,0,0
8119,293419.3081006515,2010-12-02 20:04:31,3451.711818662595,2,27,0.5499359965324402,4.029835224151611,24.38032135169165,24.50994839210121,97.7292675193461,88.84743479176656,6.47544875391759e-05,0.0949056595563888,0,0,0
8120,293449.3231139477,2010-12-02 20:05:01,3481.7268319637715,2,27,0.550297200679779,4.032425403594971,24.38490767319761,24.50994839210121,97.74775548126932,88.84743479176656,0.0001295089750783,0.0949056595563888,0,0,0
8121,293479.3382026364,2010-12-02 20:05:31,3511.7419207327466,2,27,0.5501165986061096,4.034529685974121,24.389494012055152,24.50994839210121,97.76625442000535,88.84743479176656,3.24249267578125e-05,0.0949056595563888,0,0,0
8122,293509.35316414374,2010-12-02 20:06:01,3541.7568821748737,2,27,0.5499359965324402,4.0367960929870605,24.3940803285472,24.50994839210121,97.7847642009922,88.84743479176656,0.0,0.0949056595563888,0,0,0
8123,293539.36853739567,2010-12-02 20:06:31,3571.7722554267734,2,27,0.5499359965324402,4.039547920227051,24.398666715736443,24.50994839210121,97.80328543435348,88.84743479176656,6.47544875391759e-05,0.0949056595563888,0,0,0
8124,293569.3831999741,2010-12-02 20:07:01,3601.78691798514,2,27,0.5499359965324402,4.041976451873779,24.4032529588591,24.50994839210121,97.82181715847987,88.84743479176656,6.47544875391759e-05,0.0949056595563888,0,0,0
8125,293599.39821154595,2010-12-02 20:07:31,3631.801929552,2,27,0.5501165986061096,4.04440450668335,24.40783927650476,24.50994839210121,97.840360609444,88.84743479176656,6.47544875391759e-05,0.0949056595563888,0,0,0
8126,293629.4132336992,2010-12-02 20:08:01,3661.8169517052047,2,27,0.5501165986061096,4.046833038330078,24.412425612855635,24.50994839210121,97.8589155404223,88.84743479176656,6.47544875391759e-05,0.0949056595563888,0,0,0
8127,293659.42828312016,2010-12-02 20:08:31,3691.8320011964383,2,27,0.5501165986061096,4.0494232177734375,24.417011938817723,24.50994839210121,97.87748198489808,88.84743479176656,6.47544875391759e-05,0.0949056595563888,0,0,0
8128,293689.4452485241,2010-12-02 20:09:01,3721.8489666203977,2,27,0.5501165986061096,4.052013397216797,24.421598560279016,24.50994839210121,97.896061217753,88.84743479176656,6.47544875391759e-05,0.0949056595563888,0,0,0
8129,293719.4583157976,2010-12-02 20:09:31,3751.862033823784,2,27,0.5499359965324402,4.054765224456787,24.42618459865813,24.50994839210121,97.91464988059562,88.84743479176656,9.70840483205393e-05,0.0949056595563888,0,0,0
8130,293749.4734290977,2010-12-02 20:10:01,3781.8771471137793,2,27,0.5501165986061096,4.0573554039001465,24.43077097414705,24.50994839210121,97.93325175840673,88.84743479176656,0.0001295089750783,0.0949056595563888,0,0,0
8131,293779.4883360692,2010-12-02 20:10:31,3811.8920540853583,2,27,0.550297200679779,4.059783935546875,24.43535733909769,24.50994839210121,97.95186563424042,88.84743479176656,9.71794142969884e-05,0.0949056595563888,0,0,0
8132,293809.5034714392,2010-12-02 20:11:01,3841.9071894452736,2,27,0.5501165986061096,4.062535762786865,24.43994371228637,24.50994839210121,97.97049136997998,88.84743479176656,9.70840483205393e-05,0.0949056595563888,0,0,0
8133,293839.5183937038,2010-12-02 20:11:31,3871.9221117099087,2,27,0.5501165986061096,4.065125942230225,24.44453007436004,24.50994839210121,97.9891292924404,88.84743479176656,9.70840483205393e-05,0.0949056595563888,0,0,0
8134,293869.5333870754,2010-12-02 20:12:01,3901.937105081491,2,27,0.550297200679779,4.067878246307373,24.449116429413927,24.50994839210121,98.00777949007134,88.84743479176656,9.71794142969884e-05,0.0949056595563888,0,0,0
8135,293899.5484265567,2010-12-02 20:12:31,3931.952144572841,2,27,0.5501165986061096,4.070630073547363,24.453702776480164,24.50994839210121,98.02644222129578,88.84743479176656,6.47544875391759e-05,0.0949056595563888,0,0,0
8136,293929.5637283057,2010-12-02 20:13:01,3961.967446407021,2,27,0.5501165986061096,4.073382377624512,24.45828915587028,24.50994839210121,98.04511765622568,88.84743479176656,9.71794142969884e-05,0.0949056595563888,0,0,0
8137,293959.57841789135,2010-12-02 20:13:31,3991.9821358974064,2,27,0.5501165986061096,4.076134204864502,24.46287540302313,24.50994839210121,98.0638053036018,88.84743479176656,6.47544875391759e-05,0.0949056595563888,0,0,0
8138,293989.59356181754,2010-12-02 20:14:01,4021.9972798286494,2,27,0.5499359965324402,4.078724384307861,24.467461759219503,24.50994839210121,98.0825062955704,88.84743479176656,0.0,0.0949056595563888,0,0,0
8139,294019.60847865866,2010-12-02 20:14:31,4052.0121966647766,2,27,0.5499359965324402,4.08180046081543,24.472048151900708,24.50994839210121,98.1012204225504,88.84743479176656,0.0001295089750783,0.0949056595563888,0,0,0
8140,294049.62352698704,2010-12-02 20:15:01,4082.0272449981294,2,27,0.5501165986061096,4.08455228805542,24.47663447185528,24.50994839210121,98.11994720781207,88.84743479176656,9.70840483205393e-05,0.0949056595563888,0,0,0
8141,294079.6386646026,2010-12-02 20:15:31,4112.042382608645,2,27,0.5501165986061096,4.087466239929199,24.481220710967357,24.50994839210121,98.13868683245364,88.84743479176656,6.47544875391759e-05,0.0949056595563888,0,0,0
8142,294109.6535819299,2010-12-02 20:16:01,4142.057299951031,2,27,0.5501165986061096,4.0903801918029785,24.48580699041081,24.50994839210121,98.15743992999596,88.84743479176656,6.47544875391759e-05,0.0949056595563888,0,0,0
8143,294139.66858567233,2010-12-02 20:16:31,4172.072303703447,2,27,0.5499359965324402,4.093456268310547,24.49039329081191,24.50994839210121,98.17620647048604,88.84743479176656,0.0001295089750783,0.0949056595563888,0,0,0
8144,294169.683572653,2010-12-02 20:17:01,4202.087290689138,2,27,0.5499359965324402,4.096208095550537,24.494979550549107,24.50994839210121,98.19498631598374,88.84743479176656,6.47544875391759e-05,0.0949056595563888,0,0,0
8145,294199.6987618218,2010-12-02 20:17:31,4232.102479827879,2,27,0.5499359965324402,4.0992841720581055,24.499565855072365,24.50994839210121,98.21378000232164,88.84743479176656,6.47544875391759e-05,0.0949056595563888,0,0,0
8146,294229.7136621819,2010-12-02 20:18:01,4262.117380198031,2,27,0.5501165986061096,4.102198123931885,24.50415208221477,24.50994839210121,98.23258715725756,88.84743479176656,6.47544875391759e-05,0.0949056595563888,0,0,0
8147,294259.7286945205,2010-12-02 20:18:31,4292.132412526556,2,27,0.550297200679779,4.105273723602295,24.508738405101017,24.50994839210121,98.2514085682004,88.84743479176656,9.70840483205393e-05,0.0949056595563888,0,0,0
8148,294289.74548208684,2010-12-02 20:19:01,4322.149200107961,2,27,0.5499359965324402,4.108349800109863,24.51332497847131,24.50994839210121,98.27024504620644,88.84743479176656,9.71794142969884e-05,0.0949056595563888,0,0,0
8149,294319.7587315738,2010-12-02 20:19:31,4352.162449645079,2,27,0.5499359965324402,4.111425399780273,24.51791098616022,24.50994839210121,98.28909328239634,88.84743479176656,3.23295607813634e-05,0.0949056595563888,0,0,0
8150,294349.77388026187,2010-12-02 20:20:01,4382.177598443434,2,27,0.5501165986061096,4.114663124084473,24.522497312981567,24.50994839210121,98.30795694501565,88.84743479176656,9.70840483205393e-05,0.0949056595563888,0,0,0
8151,294379.7887766823,2010-12-02 20:20:31,4412.192494688321,2,27,0.5501165986061096,4.117738723754883,24.52708364063903,24.50994839210121,98.32683490264915,88.84743479176656,9.70840483205393e-05,0.0949056595563888,0,0,0
8152,294409.8037755776,2010-12-02 20:21:01,4442.2074935936735,2,27,0.5501165986061096,4.120814800262451,24.5316699329362,24.50994839210121,98.34572712404758,88.84743479176656,6.47544875391759e-05,0.0949056595563888,0,0,0
8153,294439.81880302896,2010-12-02 20:21:31,4472.222521035037,2,27,0.550297200679779,4.124214172363281,24.536256221890827,24.50994839210121,98.3646338738376,88.84743479176656,0.0001295089750783,0.0949056595563888,0,0,0
8154,294469.83381701686,2010-12-02 20:22:01,4502.237535022923,2,27,0.5501165986061096,4.12729024887085,24.540842502307964,24.50994839210121,98.38355536740193,88.84743479176656,6.47544875391759e-05,0.0949056595563888,0,0,0
8155,294499.85095922573,2010-12-02 20:22:31,4532.254677332053,2,27,0.550297200679779,4.130527973175049,24.545429166654312,24.50994839210121,98.40249323232808,88.84743479176656,6.47544875391759e-05,0.0949056595563888,0,0,0
8156,294529.86389261106,2010-12-02 20:23:01,4562.267610707414,2,27,0.5501165986061096,4.133927345275879,24.55001514228007,24.50994839210121,98.421443176818,88.84743479176656,0.0001295089750783,0.0949056595563888,0,0,0
8157,294559.8788945289,2010-12-02 20:23:31,4592.282612545064,2,27,0.5501165986061096,4.137003421783447,24.554601510596022,24.50994839210121,98.44040977784243,88.84743479176656,6.47544875391759e-05,0.0949056595563888,0,0,0
8158,294589.89388763986,2010-12-02 20:24:01,4622.297605645973,2,27,0.5501165986061096,4.140564918518066,24.55918786165729,24.50994839210121,98.45939149897384,88.84743479176656,0.0001619339018361,0.0949056595563888,0,0,0
8159,294619.9089340785,2010-12-02 20:24:31,4652.312652084611,2,27,0.5501165986061096,4.143640518188477,24.56377422351512,24.50994839210121,98.4783885171161,88.84743479176656,3.23295607813634e-05,0.0949056595563888,0,0,0
8160,294649.92392374587,2010-12-02 20:25:01,4682.327641751975,2,27,0.5501165986061096,4.147202014923096,24.568360518269976,24.50994839210121,98.49740088378564,88.84743479176656,9.70840483205393e-05,0.0949056595563888,0,0,0
8161,294679.9389464204,2010-12-02 20:25:31,4712.342664436502,2,27,0.5497553944587708,4.150439739227295,24.572946833173305,24.50994839210121,98.51642898605628,88.84743479176656,6.47544875391759e-05,0.0949056595563888,0,0,0
8162,294709.9539731349,2010-12-02 20:26:01,4742.3576912061935,2,27,0.5501165986061096,4.153839588165283,24.57753315269533,24.50994839210121,98.53547283170482,88.84743479176656,3.24249267578125e-05,0.0949056595563888,0,0,0
8163,294739.96898954886,2010-12-02 20:26:32,4772.372707564979,2,27,0.5501165986061096,4.157401084899902,24.582119387239462,24.50994839210121,98.55453203135558,88.84743479176656,6.47544875391759e-05,0.0949056595563888,0,0,0
8164,294769.9863172744,2010-12-02 20:27:02,4802.390035380736,2,27,0.5499359965324402,4.160800457000732,24.58670606586942,24.50994839210121,98.5736089414272,88.84743479176656,9.70840483205393e-05,0.0949056595563888,0,0,0
8165,294799.9990305921,2010-12-02 20:27:32,4832.402748598242,2,27,0.5501165986061096,4.164524078369141,24.591292038429252,24.50994839210121,98.59269889804132,88.84743479176656,9.71794142969884e-05,0.0949056595563888,0,0,0
8166,294830.01405978284,2010-12-02 20:28:02,4862.417777793972,2,27,0.5499359965324402,4.16808557510376,24.595878310880128,24.50994839210121,98.61180613232962,88.84743479176656,9.71794142969884e-05,0.0949056595563888,0,0,0
8167,294860.0291959398,2010-12-02 20:28:32,4892.432914011019,2,27,0.5501165986061096,4.171647071838379,24.60046459104853,24.50994839210121,98.63092964793564,88.84743479176656,0.0001295089750783,0.0949056595563888,0,0,0
8168,294890.0463216626,2010-12-02 20:29:02,4922.450039778989,2,27,0.5501165986061096,4.175046443939209,24.60505121817334,24.50994839210121,98.65007092535282,88.84743479176656,9.70840483205393e-05,0.0949056595563888,0,0,0
8169,294920.0591123279,2010-12-02 20:29:32,4952.462830343971,2,27,0.5501165986061096,4.178607940673828,24.609637103813856,24.50994839210121,98.66922546178608,88.84743479176656,9.70840483205393e-05,0.0949056595563888,0,0,0
8170,294950.0741146417,2010-12-02 20:30:02,4982.477832652793,2,27,0.5499359965324402,4.182331562042236,24.614223383659297,24.50994839210121,98.68839807953728,88.84743479176656,0.0001295089750783,0.0949056595563888,0,0,0
8171,294980.08916731086,2010-12-02 20:30:32,5012.492885326948,2,27,0.5501165986061096,4.185893058776856,24.618809750588163,24.50994839210121,98.70758760825908,88.84743479176656,9.71794142969884e-05,0.0949056595563888,0,0,0
8172,295010.1041499106,2010-12-02 20:31:02,5042.507867921713,2,27,0.550297200679779,4.1896162033081055,24.623396013397745,24.50994839210121,98.72679340093062,88.84743479176656,0.0001295089750783,0.0949056595563888,0,0,0
8173,295040.1192929597,2010-12-02 20:31:32,5072.52301096575,2,27,0.5501165986061096,4.193177700042725,24.627982312106543,24.50994839210121,98.74601604072016,88.84743479176656,9.70840483205393e-05,0.0949056595563888,0,0,0
8174,295070.1343198096,2010-12-02 20:32:02,5102.538037850728,2,27,0.5501165986061096,4.196900844573975,24.63256858250102,24.50994839210121,98.76525552309496,88.84743479176656,9.70840483205393e-05,0.0949056595563888,0,0,0
8175,295094.8212161867,2010-12-02 20:32:26,5127.22493421283,2,27,0.550297200679779,4.200138568878174,24.636340765626738,24.50994839210121,98.78109266854632,88.84743479176656,0.0001618385285837,0.0949056595563888,0,0,0
8176,295124.8394917631,2010-12-02 20:32:56,30.015004669697287,3,27,0.0,4.107863903045654,24.636340765626738,24.50994839210121,98.78109266854632,88.84743479176656,-0.0004209518374409,0.0949056595563888,0,0,0
8177,295154.85451534984,2010-12-02 20:33:26,60.03002824644404,3,27,0.0,4.096531867980957,24.636340765626738,24.50994839210121,98.78109266854632,88.84743479176656,-0.0001942634553415,0.0949056595563888,0,0,0
8178,295184.8696251111,2010-12-02 20:33:57,90.04513809788203,3,27,0.0,4.089408874511719,24.636340765626738,24.50994839210121,98.78109266854632,88.84743479176656,-0.0001295089750783,0.0949056595563888,0,0,0
8179,295214.83768877987,2010-12-02 20:34:26,120.01320167647954,3,27,0.0,4.08455228805542,24.636340765626738,24.50994839210121,98.78109266854632,88.84743479176656,-0.0001295089750783,0.0949056595563888,0,0,0
8180,295214.843299609,2010-12-02 20:34:27,0.015522752773247,4,27,0.9922481179237366,4.199653148651123,24.63634507912803,24.50994839210121,98.78111078410328,88.84743479176656,-3.23295607813634e-05,0.0949056595563888,0,0,0
8181,295215.827588504,2010-12-02 20:34:28,0.999811632793914,4,27,0.941316306591034,4.199653148651123,24.63660774788476,24.50994839210121,98.78221391938196,88.84743479176656,-3.23295607813634e-05,0.0949056595563888,0,0,0
8182,295218.0776047429,2010-12-02 20:34:30,3.249827766403319,4,27,0.8903844952583313,4.199653148651123,24.6371791635603,24.50994839210121,98.7846137202684,88.84743479176656,-3.23295607813634e-05,0.0949056595563888,0,0,0
8183,295221.4368593739,2010-12-02 20:34:33,6.609082397350329,4,27,0.8403556942939758,4.199814796447754,24.63798554185568,24.50994839210121,98.7880003066772,88.84743479176656,3.23295607813634e-05,0.0949056595563888,0,0,0
8184,295226.0166812244,2010-12-02 20:34:38,11.188904373190208,4,27,0.7901463508605957,4.199653148651123,24.639021116218203,24.50994839210121,98.79234947649768,88.84743479176656,-6.47544875391759e-05,0.0949056595563888,0,0,0
8185,295231.9678877579,2010-12-02 20:34:44,17.140110796482016,4,27,0.7401175498962402,4.199976921081543,24.640284309921217,24.50994839210121,98.79765461371969,88.84743479176656,3.24249267578125e-05,0.0949056595563888,0,0,0
8186,295239.82709499786,2010-12-02 20:34:52,24.99931803140893,4,27,0.6900888085365295,4.199814796447754,24.64184312796347,24.50994839210121,98.80420130867272,88.84743479176656,0.0,0.0949056595563888,0,0,0
8187,295250.2956630218,2010-12-02 20:35:02,35.46788608036152,4,27,0.6400600075721741,4.199814796447754,24.643773497875458,24.50994839210121,98.81230844921976,88.84743479176656,-3.24249267578125e-05,0.0949056595563888,0,0,0
8188,295265.279733164,2010-12-02 20:35:17,50.45195622260009,4,27,0.5900312662124634,4.199814796447754,24.646326952413716,24.50994839210121,98.82303242605715,88.84743479176656,0.0,0.0949056595563888,0,0,0
8189,295288.51555920846,2010-12-02 20:35:40,73.68778234221313,4,27,0.5400024652481079,4.199653148651123,24.64996092828216,24.50994839210121,98.83829436667097,88.84743479176656,0.0,0.0949056595563888,0,0,0
8190,295329.98182849475,2010-12-02 20:36:22,115.15405159840064,4,27,0.4899737238883972,4.199814796447754,24.655865186895696,24.50994839210121,98.86309098231264,88.84743479176656,0.0,0.0949056595563888,0,0,0
8191,295407.7301032211,2010-12-02 20:37:40,192.9023263197264,4,27,0.4399449527263641,4.199814796447754,24.66586352191645,24.50994839210121,98.90508192761868,88.84743479176656,3.23295607813634e-05,0.0949056595563888,0,0,0
8192,295522.00889640255,2010-12-02 20:39:34,307.1811194510956,4,27,0.389916181564331,4.199814796447754,24.679004795150384,24.50994839210121,98.96027254174236,88.84743479176656,0.0,0.0949056595563888,0,0,0
8193,295662.11552653287,2010-12-02 20:41:54,447.2877496215583,4,27,0.3395262062549591,4.199653148651123,24.693181256970277,24.50994839210121,99.01981012965128,88.84743479176656,0.0,0.0949056595563888,0,0,0
8194,295832.0026198555,2010-12-02 20:44:44,617.1748428790105,4,27,0.289497435092926,4.199814796447754,24.708006208358064,24.50994839210121,99.08207146171104,88.84743479176656,3.23295607813634e-05,0.0949056595563888,0,0,0
8195,296036.9516073883,2010-12-02 20:48:09,822.1238304168451,4,27,0.2394686639308929,4.199653148651123,24.72302949577307,24.50994839210121,99.14516615373778,88.84743479176656,-3.23295607813634e-05,0.0949056595563888,0,0,0
8196,296293.33716350375,2010-12-02 20:52:25,1078.509386527243,4,27,0.1894398927688598,4.199814796447754,24.738254508258024,24.50994839210121,99.20910806149314,88.84743479176656,-3.24249267578125e-05,0.0949056595563888,0,0,0
8197,296638.08004624816,2010-12-02 20:58:10,1423.2522692716104,4,27,0.1392305046319961,4.199653148651123,24.75390592217833,24.50994839210121,99.27484100306852,88.84743479176656,-3.23295607813634e-05,0.0949056595563888,0,0,0
8198,297179.61616306653,2010-12-02 21:07:11,1964.7883860849888,4,27,0.0892017409205436,4.199653148651123,24.770788425821983,24.50994839210121,99.3457438476818,88.84743479176656,0.0,0.0949056595563888,0,0,0
8199,297980.96144206735,2010-12-02 21:20:33,2766.1336651760344,4,27,0.0498289167881011,4.199653148651123,24.785864371052693,24.50994839210121,99.4090594193682,88.84743479176656,-3.23295607813634e-05,0.0949056595563888,0,0,0
8200,298010.97335036914,2010-12-02 21:21:03,30.0150205391879,5,27,0.0,4.191235065460205,24.785864371052693,24.50994839210121,99.4090594193682,88.84743479176656,-3.24249267578125e-05,0.0949056595563888,0,0,0
8201,298040.97293378366,2010-12-02 21:21:33,60.0146040388968,5,27,0.0,4.189939975738525,24.785864371052693,24.50994839210121,99.4090594193682,88.84743479176656,-6.47544875391759e-05,0.0949056595563888,0,0,0
8202,298041.17588148435,2010-12-02 21:21:33,0.187614927531203,6,27,-1.9243103452026844e-05,4.189939975738525,24.785864374756155,24.50994839210121,99.40905943488548,88.84743479176656,0.0,0.0972511246800422,0,0,0
8203,298046.00379364804,2010-12-02 21:21:38,5.015527076224296,6,27,0.0007031940040178,4.189778327941895,24.785865310627276,24.509948392267564,99.40906335623002,88.84743479246355,-6.47544875391759e-05,0.0972511246800422,0,0,0
8204,298076.03455188056,2010-12-02 21:22:08,30.01516635705004,7,27,-1.099568486213684,4.001181125640869,24.785865310627276,24.51911670542298,99.40906335623002,88.88432936844528,-0.0010037422180175,0.0972511246800422,0,0,0
8205,298106.0494585413,2010-12-02 21:22:38,60.0300730128435,7,27,-1.0997490882873535,3.972203731536865,24.785865310627276,24.52828488733088,99.40906335623002,88.92087117613347,-0.0006475448608398,0.0972511246800422,0,0,0
8206,298136.06391887646,2010-12-02 21:23:08,90.04453340312239,7,27,-1.099568486213684,3.95212984085083,24.785865310627276,24.53744836367661,99.40906335623002,88.9571740261851,-0.0004532813909463,0.0972511246800422,0,0,0
8207,298166.063924231,2010-12-02 21:23:38,120.04453870246344,7,27,-1.099568486213684,3.936426877975464,24.785865310627276,24.546616556567223,99.40906335623002,88.99333386649072,-0.0003885269106831,0.0972511246800422,0,0,0
8208,298196.0789523891,2010-12-02 21:24:08,150.05956685559835,7,27,-1.0997490882873535,3.923314094543457,24.785865310627276,24.55578475119047,99.40906335623002,89.02936300642116,-0.0003561496851034,0.0972511246800422,0,0,0
8209,298226.0939924519,2010-12-02 21:24:38,180.07460691836994,7,27,-1.0997490882873535,3.911820411682129,24.785865310627276,24.56495296797804,99.40906335623002,89.06527908334068,-0.0002590179501567,0.0972511246800422,0,0,0
8210,298256.10906585265,2010-12-02 21:25:08,210.08968032411423,7,27,-1.099568486213684,3.9006502628326416,24.785865310627276,24.574121142368565,99.40906335623002,89.10109157244985,-0.0002913951757363,0.0972511246800422,0,0,0
8211,298286.1240844018,2010-12-02 21:25:38,240.10469886833772,7,27,-1.099568486213684,3.890613317489624,24.785865310627276,24.583289291709843,99.40906335623002,89.13680715231598,-0.0002266406954731,0.0972511246800422,0,0,0
8212,298316.1391337126,2010-12-02 21:26:08,270.11974819917253,7,27,-1.0997490882873535,3.880738258361816,24.785865310627276,24.592457480855003,99.40906335623002,89.17243175123103,-0.0002913951757363,0.0972511246800422,0,0,0
8213,298346.15427157376,2010-12-02 21:26:38,300.13488606532405,7,27,-1.0997490882873535,3.8715107440948486,24.785865310627276,24.60162573798831,99.40906335623002,89.20796918099417,-0.0002266406954731,0.0972511246800422,0,0,0
8214,298376.169184425,2010-12-02 21:27:08,330.14979889147224,7,27,-1.099929690361023,3.862445116043091,24.785865310627276,24.610794009185938,99.40906335623002,89.24342355677557,-0.0002590179501567,0.0972511246800422,0,0,0
8215,298406.186580671,2010-12-02 21:27:38,360.1671952578147,7,27,-1.0997490882873535,3.853865146636963,24.785865310627276,24.619962993748185,99.40906335623002,89.27879936950093,-0.0002266406954731,0.0972511246800422,0,0,0
8216,298436.19928324706,2010-12-02 21:28:08,390.1798977185536,7,27,-1.099568486213684,3.845447063446045,24.785865310627276,24.629130525064248,99.40906335623002,89.3140904327528,-0.0002266406954731,0.0972511246800422,0,0,0
8217,298466.21431488387,2010-12-02 21:28:38,420.19492935034486,7,27,-1.099568486213684,3.837028980255127,24.785865310627276,24.638298803137644,99.40906335623002,89.3493069678455,-0.0001942634553415,0.0972511246800422,0,0,0
8218,298496.2293556734,2010-12-02 21:29:08,450.2099701349126,7,27,-1.0997490882873535,3.828773021697998,24.785865310627276,24.647467055489205,99.40906335623002,89.3844472968203,-0.0002266406954731,0.0972511246800422,0,0,0
8219,298526.2444718356,2010-12-02 21:29:38,480.2250863772542,7,27,-1.099568486213684,3.82084059715271,24.785865310627276,24.656635352453165,99.40906335623002,89.4195139560838,-0.0001942634553415,0.0972511246800422,0,0,0
8220,298556.2611676035,2010-12-02 21:30:08,510.2417821652342,7,27,-1.0993878841400146,3.813070058822632,24.785865310627276,24.66580406042463,99.40906335623002,89.45451027209339,-0.0001942634553415,0.0972511246800422,0,0,0
8221,298586.2744849193,2010-12-02 21:30:38,540.2550993857792,7,27,-1.0993878841400146,3.8052995204925537,24.785865310627276,24.67497177972418,99.40906335623002,89.48943102832516,-0.0001942634553415,0.0972511246800422,0,0,0
8222,298616.28951158375,2010-12-02 21:31:08,570.270126055222,7,27,-1.099568486213684,3.7976908683776855,24.785865310627276,24.68414001091877,99.40906335623002,89.52428428025016,-0.0002266406954731,0.0972511246800422,0,0,0
8223,298646.3046526228,2010-12-02 21:31:39,600.2852670892568,7,27,-1.099568486213684,3.790405988693237,24.785865310627276,24.693308327199432,99.40906335623002,89.55907040769303,-0.0001942634553415,0.0972511246800422,0,0,0
8224,298676.32202690415,2010-12-02 21:32:09,630.3026415009658,7,27,-1.099568486213684,3.783282995223999,24.785865310627276,24.702477375500337,99.40906335623002,89.5937927846744,-0.0001942634553415,0.0972511246800422,0,0,0
8225,298706.33467002725,2010-12-02 21:32:39,660.3152844987334,7,27,-1.099568486213684,3.7761600017547607,24.785865310627276,24.71164495128703,99.40906335623002,89.6284438262807,-0.0001942634553415,0.0972511246800422,0,0,0
8226,298736.3497071126,2010-12-02 21:33:09,690.3303216041456,7,27,-1.0997490882873535,3.769522666931152,24.785865310627276,24.720813247647364,99.40906335623002,89.66303359027037,-0.0001295089750783,0.0972511246800422,0,0,0
8227,298766.36473892984,2010-12-02 21:33:39,720.3453533963363,7,27,-1.099568486213684,3.762723445892334,24.785865310627276,24.72998154234277,99.40906335623002,89.69756163299124,-0.0001618862152099,0.0972511246800422,0,0,0
8228,298796.3797673737,2010-12-02 21:34:09,750.3603818401947,7,27,-1.0997490882873535,3.7560861110687256,24.785865310627276,24.739149844206164,99.40906335623002,89.73202882241284,-0.0001618862152099,0.0972511246800422,0,0,0
8229,298826.3948065693,2010-12-02 21:34:39,780.3754210358084,7,27,-1.0993878841400146,3.749610900878906,24.785865310627276,24.748318104260093,99.40906335623002,89.76643515297839,-0.0001618862152099,0.0972511246800422,0,0,0
8230,298856.4098545919,2010-12-02 21:35:09,810.3904690634,7,27,-1.099568486213684,3.7432973384857178,24.785865310627276,24.75748645152701,99.40906335623002,89.80078301503777,-0.0001295089750783,0.0972511246800422,0,0,0
8231,298886.4248990957,2010-12-02 21:35:39,840.4055135622106,7,27,-1.099568486213684,3.736983776092529,24.785865310627276,24.76665473873852,99.40906335623002,89.83507305786652,-0.0001618862152099,0.0972511246800422,0,0,0
8232,298916.4399273592,2010-12-02 21:36:09,870.4205418256198,7,27,-1.0997490882873535,3.730832099914551,24.785865310627276,24.775823031857467,99.40906335623002,89.86930669481136,-0.0001618862152099,0.0972511246800422,0,0,0
8233,298946.45498817856,2010-12-02 21:36:39,900.4356026701059,7,27,-1.099568486213684,3.725166082382202,24.785865310627276,24.7849912761294,99.40906335623002,89.90348544116641,-9.713172767078504e-05,0.0972511246800422,0,0,0
8234,298976.4701536233,2010-12-02 21:37:09,930.4507680998483,7,27,-1.0997490882873535,3.719014406204224,24.785865310627276,24.794159593545903,99.40906335623002,89.9376105041927,-0.0001618862152099,0.0972511246800422,0,0,0
8235,299006.4851482781,2010-12-02 21:37:39,960.4657628398362,7,27,-1.0997490882873535,3.713348388671875,24.785865310627276,24.803327914826145,99.40906335623002,89.97168230372074,-0.0001618862152099,0.0972511246800422,0,0,0
8236,299036.5002198643,2010-12-02 21:38:09,990.4808343308156,7,27,-1.0997490882873535,3.7076823711395264,24.785865310627276,24.81249624119856,99.40906335623002,90.00570146000763,-0.0001295089750783,0.0972511246800422,0,0,0
8237,299066.5151443696,2010-12-02 21:38:39,1020.4957588310142,7,27,-1.099568486213684,3.7020163536071777,24.785865310627276,24.821664495489145,99.40906335623002,90.03966876881871,-0.0001942634553415,0.0972511246800422,0,0,0
8238,299096.5301885576,2010-12-02 21:39:09,1050.5108030240638,7,27,-1.099568486213684,3.696512222290039,24.785865310627276,24.83083280467118,99.40906335623002,90.07358527964792,-0.0001618862152099,0.0972511246800422,0,0,0
8239,299126.5452319687,2010-12-02 21:39:39,1080.5258464301553,7,27,-1.099929690361023,3.691008090972901,24.785865310627276,24.84000108684437,99.40906335623002,90.10745155324916,-0.0001618862152099,0.0972511246800422,0,0,0
8240,299156.562104722,2010-12-02 21:40:09,1110.5427192787438,7,27,-1.099568486213684,3.6858277320861816,24.785865310627276,24.849169957369316,99.40906335623002,90.14127040367892,-0.0001295089750783,0.0972511246800422,0,0,0
8241,299186.57531763305,2010-12-02 21:40:39,1140.5559321045064,7,27,-1.0997490882873535,3.680323600769043,24.785865310627276,24.85833769179251,99.40906335623002,90.175036102793,-0.0001618862152099,0.0972511246800422,0,0,0
8242,299216.5904731581,2010-12-02 21:41:09,1170.5710876296014,7,27,-1.0997490882873535,3.674981355667114,24.785865310627276,24.86750602477933,99.40906335623002,90.20875596036602,-0.0001618862152099,0.0972511246800422,0,0,0
8243,299246.6055711801,2010-12-02 21:41:39,1200.5861857217767,7,27,-1.099568486213684,3.6701250076293945,24.785865310627276,24.876674319756724,99.40906335623002,90.24242827840683,-0.0001295089750783,0.0972511246800422,0,0,0
8244,299276.6204422122,2010-12-02 21:42:09,1230.6010566787352,7,27,-1.0993878841400146,3.6651065349578857,24.785865310627276,24.88584262919536,99.40906335623002,90.27605377859112,-0.0001295089750783,0.0972511246800422,0,0,0
8245,299306.6354876885,2010-12-02 21:42:39,1260.6161021399405,7,27,-1.0997490882873535,3.660088062286377,24.785865310627276,24.89501095106917,99.40906335623002,90.3096336001858,-0.0001295089750783,0.0972511246800422,0,0,0
8246,299336.6505409491,2010-12-02 21:43:09,1290.6311554155918,7,27,-1.0997490882873535,3.655069589614868,24.785865310627276,24.90417929590064,99.40906335623002,90.34316786964378,-0.0001618862152099,0.0972511246800422,0,0,0
8247,299366.66573685966,2010-12-02 21:43:39,1320.6463513412225,7,27,-1.0993878841400146,3.650536775588989,24.785865310627276,24.913347738704395,99.40906335623002,90.37665782852712,-9.713172767078504e-05,0.0972511246800422,0,0,0
8248,299396.68061226275,2010-12-02 21:44:09,1350.6612267241944,7,27,-1.0997490882873535,3.6453564167022714,24.785865310627276,24.92251605164181,99.40906335623002,90.4101027878135,-0.0001618862152099,0.0972511246800422,0,0,0
8249,299426.69565479166,2010-12-02 21:44:39,1380.6762692581156,7,27,-1.099568486213684,3.6406617164611816,24.785865310627276,24.93168430505456,99.40906335623002,90.44350395153523,-0.0001618862152099,0.0972511246800422,0,0,0
8250,299456.7106972454,2010-12-02 21:45:09,1410.6913117168492,7,27,-1.0997490882873535,3.636128902435303,24.785865310627276,24.94085270067321,99.40906335623002,90.47686313065792,-0.0001618862152099,0.0972511246800422,0,0,0
8251,299486.725897211,2010-12-02 21:45:39,1440.7065116875456,7,27,-1.0997490882873535,3.631596088409424,24.785865310627276,24.95002106785827,99.40906335623002,90.51018017962116,-0.0001618862152099,0.0972511246800422,0,0,0
8252,299516.7407772556,2010-12-02 21:46:09,1470.7213917220931,7,27,-1.099568486213684,3.627225160598755,24.785865310627276,24.95918934130709,99.40906335623002,90.54345544501574,-0.0001295089750783,0.0972511246800422,0,0,0
8253,299546.7558291228,2010-12-02 21:46:39,1500.7364435942518,7,27,-1.099568486213684,3.622692346572876,24.785865310627276,24.9683575998538,99.40906335623002,90.57668974607154,-0.0001295089750783,0.0972511246800422,0,0,0
8254,299576.77088712016,2010-12-02 21:47:09,1530.7515017670896,7,27,-1.099568486213684,3.618321418762207,24.785865310627276,24.9775259151248,99.40906335623002,90.60988438337124,-0.0001295089750783,0.0972511246800422,0,0,0
8255,299606.7859177795,2010-12-02 21:47:39,1560.7665322510247,7,27,-1.099568486213684,3.614274263381958,24.785865310627276,24.98669422579915,99.40906335623002,90.6430400040478,-0.0001295089750783,0.0972511246800422,0,0,0
8256,299636.8010878107,2010-12-02 21:48:09,1590.7817023523924,7,27,-1.099568486213684,3.610227108001709,24.785865310627276,24.99586261180375,99.40906335623002,90.67615773186937,-9.713172767078504e-05,0.0972511246800422,0,0,0
8257,299666.8159979502,2010-12-02 21:48:39,1620.7966124166676,7,27,-1.099568486213684,3.60617995262146,24.785865310627276,25.00503092891466,99.40906335623002,90.7092379659273,-0.0001295089750783,0.0972511246800422,0,0,0
8258,299696.8310777869,2010-12-02 21:49:09,1650.8116922584277,7,27,-1.0997490882873535,3.602132797241211,24.785865310627276,25.01419927165349,99.40906335623002,90.7422815617306,-0.0001295089750783,0.0972511246800422,0,0,0
8259,299726.84609418083,2010-12-02 21:49:39,1680.8267086472877,7,27,-1.099568486213684,3.598409414291382,24.785865310627276,25.023367663655915,99.40906335623002,90.77529000143518,-6.47544875391759e-05,0.0972511246800422,0,0,0
8260,299756.8632360037,2010-12-02 21:50:09,1710.8438505955205,7,27,-1.099929690361023,3.594362258911133,24.785865310627276,25.032536708599498,99.40906335623002,90.80826605608944,-0.0001618862152099,0.0972511246800422,0,0,0
8261,299786.8762055541,2010-12-02 21:50:39,1740.8568200406394,7,27,-1.099568486213684,3.5911247730255127,24.785865310627276,25.04170443313569,99.40906335623002,90.84120392715896,-6.47544875391759e-05,0.0972511246800422,0,0,0
8262,299816.8911881489,2010-12-02 21:51:09,1770.8718026303916,7,27,-1.099568486213684,3.587401390075684,24.785865310627276,25.050872804249853,99.40906335623002,90.87411137872373,-9.713172767078504e-05,0.0972511246800422,0,0,0
8263,299846.906252858,2010-12-02 21:51:39,1800.8868673244574,7,27,-1.099568486213684,3.5840017795562744,24.785865310627276,25.06004121787917,99.40906335623002,90.90698690794672,-9.713172767078504e-05,0.0972511246800422,0,0,0
8264,299876.9213881427,2010-12-02 21:52:09,1830.90200267936,7,27,-1.099568486213684,3.580764055252075,24.785865310627276,25.06920968458663,99.40906335623002,90.93983164303032,-3.237724376958795e-05,0.0972511246800422,0,0,0
8265,299906.9364998738,2010-12-02 21:52:39,1860.9171143703752,7,27,-1.099929690361023,3.577364444732666,24.785865310627276,25.078378106926653,99.40906335623002,90.97264594319446,-0.0001295089750783,0.0972511246800422,0,0,0
8266,299936.9515303778,2010-12-02 21:53:09,1890.9321448442856,7,27,-1.0997490882873535,3.573964834213257,24.785865310627276,25.08754650533063,99.40906335623002,91.00543053678278,-0.0001295089750783,0.0972511246800422,0,0,0
8267,299966.966461324,2010-12-02 21:53:39,1920.9470757905249,7,27,-1.0997490882873535,3.571050882339477,24.785865310627276,25.096714825616832,99.40906335623002,91.03818560046048,-9.713172767078504e-05,0.0972511246800422,0,0,0
8268,299996.9816498964,2010-12-02 21:54:09,1950.9622643678697,7,27,-1.099568486213684,3.5678131580352783,24.785865310627276,25.1058832640493,99.40906335623002,91.07091185494436,-9.713172767078504e-05,0.0972511246800422,0,0,0
8269,300026.99670262064,2010-12-02 21:54:39,1980.9773171472857,7,27,-1.099568486213684,3.564737319946289,24.785865310627276,25.11505162156504,99.40906335623002,91.10360901323013,-9.713172767078504e-05,0.0972511246800422,0,0,0
8270,300057.0115862341,2010-12-02 21:55:09,2010.992200695577,7,27,-1.0997490882873535,3.56149959564209,24.785865310627276,25.12421998742103,99.40906335623002,91.1362777824618,-0.0001295089750783,0.0972511246800422,0,0,0
8271,300087.02664196584,2010-12-02 21:55:39,2041.0072564373647,7,27,-1.0993878841400146,3.5587475299835205,24.785865310627276,25.133388361692507,99.40906335623002,91.16891913695152,-6.47544875391759e-05,0.0972511246800422,0,0,0
8272,300117.04167906125,2010-12-02 21:56:09,2071.02229352774,7,27,-1.099568486213684,3.5555098056793213,24.785865310627276,25.1425567339041,99.40906335623002,91.20153237975276,-9.713172767078504e-05,0.0972511246800422,0,0,0
8273,300147.0567244523,2010-12-02 21:56:39,2101.0373389237834,7,27,-1.0997490882873535,3.552595853805542,24.785865310627276,25.151725033112942,99.40906335623002,91.23411734214294,-6.47544875391759e-05,0.0972511246800422,0,0,0
8274,300177.071760886,2010-12-02 21:57:09,2131.052375352512,7,27,-1.0997490882873535,3.5495200157165527,24.785865310627276,25.160893443190847,99.40906335623002,91.26667482214522,-6.47544875391759e-05,0.0972511246800422,0,0,0
8275,300207.0868332141,2010-12-02 21:57:39,2161.0674476855866,7,27,-1.099929690361023,3.5464441776275635,24.785865310627276,25.17006185595208,99.40906335623002,91.2992044669316,-9.713172767078504e-05,0.0972511246800422,0,0,0
8276,300237.1018743094,2010-12-02 21:58:09,2191.0824888711527,7,27,-1.0997490882873535,3.543368339538574,24.785865310627276,25.17923020957138,99.40906335623002,91.33170558876034,-9.713172767078504e-05,0.0972511246800422,0,0,0
8277,300267.1170243559,2010-12-02 21:58:39,2221.097638832402,7,27,-1.0993878841400146,3.540292501449585,24.785865310627276,25.188398596754105,99.40906335623002,91.36417817254916,-3.237724376958795e-05,0.0972511246800422,0,0,0
8278,300297.1319392823,2010-12-02 21:59:09,2251.1125537537646,7,27,-1.0997490882873535,3.5370547771453857,24.785865310627276,25.19756694270106,99.40906335623002,91.39662194047634,-6.47544875391759e-05,0.0972511246800422,0,0,0
8279,300327.149487697,2010-12-02 21:59:39,2281.1301022737352,7,27,-1.099568486213684,3.5339789390563965,24.785865310627276,25.20673619273387,99.40906335623002,91.42903983760488,-9.713172767078504e-05,0.0972511246800422,0,0,0
8280,300357.1637770516,2010-12-02 22:00:09,2311.144391513112,7,27,-1.0997490882873535,3.5305793285369877,24.785865310627276,25.215904379619197,99.40906335623002,91.46142427531176,-9.713172767078504e-05,0.0972511246800422,0,0,0
8281,300387.1772068473,2010-12-02 22:00:39,2341.157821313808,7,27,-1.099568486213684,3.527179718017578,24.785865310627276,25.225072276898857,99.40906335623002,91.49377717813653,-9.713172767078504e-05,0.0972511246800422,0,0,0
8282,300417.1921233777,2010-12-02 22:01:09,2371.1727378742485,7,27,-1.0993878841400146,3.523941993713379,24.785865310627276,25.23424055542335,99.40906335623002,91.5261002293654,-3.237724376958795e-05,0.0972511246800422,0,0,0
8283,300447.20716230763,2010-12-02 22:01:39,2401.187776774126,7,27,-1.099568486213684,3.52038049697876,24.785865310627276,25.243408974844467,99.40906335623002,91.55839164013844,-6.47544875391759e-05,0.0972511246800422,0,0,0
8284,300477.222208616,2010-12-02 22:02:09,2431.2028230874525,7,27,-1.0997490882873535,3.5164952278137207,24.785865310627276,25.25257738136379,99.40906335623002,91.59065020945032,-0.0001295089750783,0.0972511246800422,0,0,0
8285,300507.2373946169,2010-12-02 22:02:39,2461.218009083373,7,27,-1.099568486213684,3.512771844863892,24.785865310627276,25.26174585829505,99.40906335623002,91.6228744887053,-9.713172767078504e-05,0.0972511246800422,0,0,0
8286,300537.25231589406,2010-12-02 22:03:09,2491.232930370576,7,27,-1.0993878841400146,3.508886814117432,24.785865310627276,25.27091426459988,99.40906335623002,91.65506258002804,-6.47544875391759e-05,0.0972511246800422,0,0,0
8287,300567.2673771847,2010-12-02 22:03:40,2521.247991651147,7,27,-1.099568486213684,3.5045158863067627,24.785865310627276,25.280082676528465,99.40906335623002,91.687212824578,-9.713172767078504e-05,0.0972511246800422,0,0,0
8288,300597.2847568144,2010-12-02 22:04:10,2551.2653713810905,7,27,-1.0997490882873535,3.499821186065674,24.785865310627276,25.289251766875875,99.40906335623002,91.71932509658028,-0.0001942634553415,0.0972511246800422,0,0,0
8289,300627.297594236,2010-12-02 22:04:40,2581.278208797662,7,27,-1.099568486213684,3.495126485824585,24.785865310627276,25.298419502197248,99.40906335623002,91.75138976854802,-0.0001295089750783,0.0972511246800422,0,0,0
8290,300657.3124503059,2010-12-02 22:05:10,2611.293064797399,7,27,-1.0997490882873535,3.489784240722656,24.785865310627276,25.307587749849706,99.40906335623002,91.78340973871693,-0.0001295089750783,0.0972511246800422,0,0,0
8291,300687.32755443803,2010-12-02 22:05:40,2641.3081689797305,7,27,-1.099568486213684,3.484118223190308,24.785865310627276,25.316756180040727,99.40906335623002,91.8153794610768,-0.0001618862152099,0.0972511246800422,0,0,0
8292,300717.3425792429,2010-12-02 22:06:10,2671.3231937344085,7,27,-1.0997490882873535,3.4773190021514893,24.785865310627276,25.325924595201062,99.40906335623002,91.8472930790098,-0.0002266406954731,0.0972511246800422,0,0,0
8293,300747.35769538,2010-12-02 22:06:40,2701.338309966725,7,27,-1.0997490882873535,3.470357894897461,24.785865310627276,25.33509297992484,99.40906335623002,91.87914438523784,-0.0001942634553415,0.0972511246800422,0,0,0
8294,300777.3726677593,2010-12-02 22:07:10,2731.353282230782,7,27,-1.0997490882873535,3.462263584136963,24.785865310627276,25.344261407780508,99.40906335623002,91.91092582566502,-0.0002266406954731,0.0972511246800422,0,0,0
8295,300807.3878545923,2010-12-02 22:07:40,2761.368469058773,7,27,-1.099568486213684,3.452550411224365,24.785865310627276,25.353429850673265,99.40906335623002,91.9426268058828,-0.0003237724304199,0.0972511246800422,0,0,0
8296,300837.4027819797,2010-12-02 22:08:10,2791.3833964712185,7,27,-1.099568486213684,3.441380262374878,24.785865310627276,25.36259821741152,99.40906335623002,91.97423261637825,-0.0003237724304199,0.0972511246800422,0,0,0
8297,300867.41792892345,2010-12-02 22:08:40,2821.3985434149595,7,27,-1.099568486213684,3.4276201725006104,24.785865310627276,25.37176690623338,99.40906335623002,92.00572471599573,-0.0003885269106831,0.0972511246800422,0,0,0
8298,300897.4328828619,2010-12-02 22:09:10,2851.4134973383766,7,27,-1.0997490882873535,3.4101364612579346,24.785865310627276,25.380936160834256,99.40906335623002,92.03707601130492,-0.0005180359003134,0.0972511246800422,0,0,0
8299,300927.4479252053,2010-12-02 22:09:40,2881.428539676811,7,27,-1.0997490882873535,3.38747239112854,24.785865310627276,25.39010536391988,99.40906335623002,92.06824494078477,-0.0006799221155233,0.0972511246800422,0,0,0
8300,300957.4647270572,2010-12-02 22:10:10,2911.4453416239644,7,27,-1.099568486213684,3.3575234413146973,24.785865310627276,25.399275176397907,99.40906335623002,92.09917611325274,-0.0008741855854168,0.0972511246800422,0,0,0
8301,300987.47799293,2010-12-02 22:10:40,2941.458607406508,7,27,-1.0997490882873535,3.316566467285156,24.785865310627276,25.408443605851847,99.40906335623002,92.12978010298478,-0.0011979580158367,0.0972511246800422,0,0,0
8302,301017.49302797526,2010-12-02 22:11:10,2971.473642441769,7,27,-1.099568486213684,3.260392189025879,24.785865310627276,25.417612016610693,99.40906335623002,92.15994373544804,-0.0016836166614666,0.0972511246800422,0,0,0
8303,301047.5080983234,2010-12-02 22:11:40,3001.488712819979,7,27,-1.0997490882873535,3.181391954421997,24.785865310627276,25.42678052964528,99.40906335623002,92.18949723869392,-0.0024930001236498,0.0972511246800422,0,0,0
8304,301077.5232473673,2010-12-02 22:12:10,3031.5038618338717,7,27,-1.099929690361023,3.0630533695220947,24.785865310627276,25.435949088481447,99.40906335623002,92.21816491727697,-0.0038205147720873,0.0972511246800422,0,0,0
8305,301105.64757989213,2010-12-02 22:12:38,3059.628194363667,7,27,-1.0997490882873535,2.8629627227783203,24.785865310627276,25.444540019154125,99.40906335623002,92.24372452935852,-0.0076086046174168,0.0972511246800422,0,0,0
8306,301120.0691788565,2010-12-02 22:12:52,3074.049793323,7,27,-1.0997490882873535,2.699943780899048,24.785865310627276,25.448945309486973,99.40906335623002,92.25598864951066,-0.0095188617706298,0.0972511246800422,0,0,0
8307,301180.0964595513,2010-12-02 22:13:52,60.01458680100095,8,27,0.0,3.361732482910156,24.785865310627276,25.448945309486973,99.40906335623002,92.25598864951066,0.0013274669181555,0.0972511246800422,0,0,0
8308,301180.2819863407,2010-12-02 22:13:53,0.187436448392731,9,27,-1.9243103452026844e-05,3.361894369125366,24.785865314327207,25.448945309486973,99.4090633686688,92.25598864951066,0.0,0.0925559401512146,0,0,0
8309,301185.10999102466,2010-12-02 22:13:58,5.015441102281447,9,27,0.0007031940040178,3.3698267936706543,24.785866145124984,25.44894530973738,99.40906616557388,92.2559886503527,0.0011332035064697,0.0925559401512146,0,0,0
