Data_Point,Test_Time(s),Date_Time,Step_Time(s),Step_Index,Cycle_Index,Current(A),Voltage(V),Charge_Capacity(Ah),Discharge_Capacity(Ah),Charge_Energy(Wh),Discharge_Energy(Wh),dV/dt(V/s),Internal_Resistance(Ohm),Is_FC_Data,AC_Impedance(Ohm),ACI_Phase_Angle(Deg)
7070,256000.1562982004,2010-12-02 09:40:48,30.013437369531104,1,24,0.0,3.43328595161438,21.04919891896029,21.70648795690598,84.41973613421787,78.69532120452986,0.0007122516399249,0.0963535830378532,0,0,0
7071,256030.1710532539,2010-12-02 09:41:18,60.028192332843645,1,24,0.0,3.4564356803894043,21.04919891896029,21.70648795690598,84.41973613421787,78.69532120452986,0.0005827903514727,0.0963535830378532,0,0,0
7072,256060.1860594073,2010-12-02 09:41:48,90.043198496258,1,24,0.0,3.47343373298645,21.04919891896029,21.70648795690598,84.41973613421787,78.69532120452986,0.0003885269106831,0.0963535830378532,0,0,0
7073,256090.15443400983,2010-12-02 09:42:18,120.01157308880174,1,24,0.0,3.487032175064087,21.04919891896029,21.70648795690598,84.41973613421787,78.69532120452986,0.0003237724304199,0.0963535830378532,0,0,0
7074,256120.1704326309,2010-12-02 09:42:48,30.01498290052553,2,24,0.5501165986061096,3.6445469856262207,21.05378567004717,21.70648795690598,84.43630622905363,78.69532120452986,0.0013922214275225,0.0963535830378532,0,0,0
7075,256150.18544796217,2010-12-02 09:43:18,60.02999823175364,2,24,0.5497553944587708,3.6867990493774414,21.0583721630764,21.70648795690598,84.45312534584612,78.69532120452986,0.0009713172912597,0.0963535830378532,0,0,0
7076,256180.20046666177,2010-12-02 09:43:48,90.04501690630144,2,24,0.5501165986061096,3.716909885406494,21.06295861053092,21.70648795690598,84.47010688894014,78.69532120452986,0.0006799221155233,0.0963535830378532,0,0,0
7077,256210.2154962585,2010-12-02 09:44:18,120.06004652809106,2,24,0.5501165986061096,3.7403833866119385,21.0675451625488,21.70648795690598,84.48721072666612,78.69532120452986,0.0005504131549969,0.0963535830378532,0,0,0
7078,256240.2305030384,2010-12-02 09:44:48,150.0750533080396,2,24,0.5501165986061096,3.759161949157715,21.072131639993263,21.70648795690598,84.50441067897845,78.69532120452986,0.0004856586456298,0.0963535830378532,0,0,0
7079,256270.24551426945,2010-12-02 09:45:18,180.09006451400217,2,24,0.5501165986061096,3.772760391235352,21.076718149092923,21.70648795690598,84.52168543057813,78.69532120452986,0.0002913951757363,0.0963535830378532,0,0,0
7080,256300.26054832223,2010-12-02 09:45:48,210.10509859188056,2,24,0.5499359965324402,3.7819879055023193,21.081304599522177,21.70648795690598,84.5390119451655,78.69532120452986,0.0002266406954731,0.0963535830378532,0,0,0
7081,256330.27555287667,2010-12-02 09:46:18,240.1201031212286,2,24,0.5501165986061096,3.787977695465088,21.08589099907263,21.70648795690598,84.55637229596458,78.69532120452986,0.0001295089750783,0.0963535830378532,0,0,0
7082,256360.29056341096,2010-12-02 09:46:48,270.1351136805821,2,24,0.5501165986061096,3.793158054351807,21.09047747213341,21.70648795690598,84.57375793380952,78.69532120452986,0.0001295089750783,0.0963535830378532,0,0,0
7083,256390.30561947852,2010-12-02 09:47:18,300.1501697932933,2,24,0.5501165986061096,3.7976908683776855,21.095063893019567,21.70648795690598,84.59116511683298,78.69532120452986,0.0001295089750783,0.0963535830378532,0,0,0
7084,256420.32248658285,2010-12-02 09:47:48,330.16703694269967,2,24,0.5501165986061096,3.801899909973145,21.099650659041384,21.70648795690598,84.60859393833395,78.69532120452986,9.713172767078504e-05,0.0963535830378532,0,0,0
7085,256450.33565718352,2010-12-02 09:48:18,360.18020752333695,2,24,0.5501165986061096,3.8062708377838135,21.10423680417127,21.70648795690598,84.62603989679525,78.69532120452986,0.0001295089750783,0.0963535830378532,0,0,0
7086,256480.3506366305,2010-12-02 09:48:48,390.1951869401934,2,24,0.550297200679779,3.810156106948853,21.108823274314485,21.70648795690598,84.64350596034161,78.69532120452986,9.713172767078504e-05,0.0963535830378532,0,0,0
7087,256510.36566594147,2010-12-02 09:49:18,420.2102162060975,2,24,0.5501165986061096,3.8142032623291016,21.113409773541036,21.70648795690598,84.6609905054671,78.69532120452986,9.713172767078504e-05,0.0963535830378532,0,0,0
7088,256540.3806657892,2010-12-02 09:49:48,450.2252160337454,2,24,0.5501165986061096,3.8180885314941406,21.11799625427737,21.70648795690598,84.67849298017603,78.69532120452986,0.0001295089750783,0.0963535830378532,0,0,0
7089,256570.39569626813,2010-12-02 09:50:18,480.24024653773046,2,24,0.550297200679779,3.8218119144439697,21.122582724225783,21.70648795690598,84.6960126322856,78.69532120452986,0.0001295089750783,0.0963535830378532,0,0,0
7090,256600.41070055688,2010-12-02 09:50:48,510.2552508014173,2,24,0.5501165986061096,3.825373411178589,21.12716914461212,21.70648795690598,84.71354885620852,78.69532120452986,0.0001295089750783,0.0963535830378532,0,0,0
7091,256630.4257146901,2010-12-02 09:51:18,540.2702649346644,2,24,0.5501165986061096,3.828773021697998,21.13175560620929,21.70648795690598,84.73110166743285,78.69532120452986,6.47544875391759e-05,0.0963535830378532,0,0,0
7092,256660.4407440312,2010-12-02 09:51:48,570.2852943760049,2,24,0.5501165986061096,3.832496404647827,21.13634206227995,21.70648795690598,84.74867070783466,78.69532120452986,9.713172767078504e-05,0.0963535830378532,0,0,0
7093,256690.4558854061,2010-12-02 09:52:18,600.3004357458753,2,24,0.5501165986061096,3.835895776748657,21.140928459999355,21.70648795690598,84.7662555430871,78.69532120452986,0.0001295089750783,0.0963535830378532,0,0,0
7094,256720.4707809442,2010-12-02 09:52:48,630.3153312138282,2,24,0.5501165986061096,3.8392953872680655,21.14551484061136,21.70648795690598,84.78385646550804,78.69532120452986,9.713172767078504e-05,0.0963535830378532,0,0,0
7095,256750.4859030361,2010-12-02 09:53:18,660.3304533057262,2,24,0.5501165986061096,3.843018770217896,21.15010128642809,21.70648795690598,84.80147387697158,78.69532120452986,9.713172767078504e-05,0.0963535830378532,0,0,0
7096,256780.5007897172,2010-12-02 09:53:48,690.3453399868133,2,24,0.5501165986061096,3.846580266952514,21.15468773650612,21.70648795690598,84.81910759750201,78.69532120452986,9.713172767078504e-05,0.0963535830378532,0,0,0
7097,256810.51629998005,2010-12-02 09:54:18,720.3608502847471,2,24,0.550297200679779,3.850303649902344,21.159274212548056,21.70648795690598,84.83675787736799,78.69532120452986,0.0001618862152099,0.0963535830378532,0,0,0
7098,256840.53085312116,2010-12-02 09:54:48,750.3754034659324,2,24,0.5501165986061096,3.853703260421753,21.163860569965784,21.70648795690598,84.85442417042087,78.69532120452986,9.713172767078504e-05,0.0963535830378532,0,0,0
7099,256870.5458362673,2010-12-02 09:55:18,780.390386536882,2,24,0.5501165986061096,3.857426643371582,21.16844700171514,21.70648795690598,84.87210727509586,78.69532120452986,0.0001295089750783,0.0963535830378532,0,0,0
7100,256900.56085219,2010-12-02 09:55:48,810.4054024345197,2,24,0.5501165986061096,3.860826253890991,21.17303342696848,21.70648795690598,84.88980685673683,78.69532120452986,9.713172767078504e-05,0.0963535830378532,0,0,0
7101,256930.5759058616,2010-12-02 09:56:18,840.4204561061565,2,24,0.5499359965324402,3.8643877506256095,21.177619834608876,21.70648795690598,84.90752265267756,78.69532120452986,9.713172767078504e-05,0.0963535830378532,0,0,0
7102,256960.59089740363,2010-12-02 09:56:48,870.4354476732485,2,24,0.550297200679779,3.86811113357544,21.182206258359585,21.70648795690598,84.92525459851602,78.69532120452986,0.0001295089750783,0.0963535830378532,0,0,0
7103,256990.60590602816,2010-12-02 09:57:18,900.4504562977872,2,24,0.550297200679779,3.871348857879639,21.186792742532383,21.70648795690598,84.94300259252896,78.69532120452986,6.47544875391759e-05,0.0963535830378532,0,0,0
7104,257020.6227417544,2010-12-02 09:57:48,930.4672920891604,2,24,0.5501165986061096,3.874748468399048,21.19137940095905,21.70648795690598,84.96076680003088,78.69532120452986,9.713172767078504e-05,0.0963535830378532,0,0,0
7105,257050.6359592618,2010-12-02 09:58:18,960.4805095063484,2,24,0.5501165986061096,3.877824306488037,21.19596556510613,21.70648795690598,84.97854429881541,78.69532120452986,6.47544875391759e-05,0.0963535830378532,0,0,0
7106,257080.65307849352,2010-12-02 09:58:48,990.4976288282764,2,24,0.5501165986061096,3.8812239170074463,21.200552346856103,21.70648795690598,84.99633895964995,78.69532120452986,9.713172767078504e-05,0.0963535830378532,0,0,0
7107,257110.6659771875,2010-12-02 09:59:18,1020.51052743211,2,24,0.5501165986061096,3.8841378688812256,21.20513849287381,21.70648795690598,85.01414542104959,78.69532120452986,6.47544875391759e-05,0.0963535830378532,0,0,0
7108,257140.68100977672,2010-12-02 09:59:48,1050.5255600413336,2,24,0.5501165986061096,3.887051820755005,21.2097249306668,21.70648795690598,85.0319666584359,78.69532120452986,6.47544875391759e-05,0.0963535830378532,0,0,0
7109,257170.6977304667,2010-12-02 10:00:18,1080.542280831531,2,24,0.5501165986061096,3.889803886413574,21.214311642419613,21.70648795690598,85.04980200629262,78.69532120452986,3.237724376958795e-05,0.0963535830378532,0,0,0
7110,257200.7110360332,2010-12-02 10:00:48,1110.555586272763,2,24,0.5501165986061096,3.8923940658569336,21.218897832367613,21.70648795690598,85.06764770689398,78.69532120452986,6.47544875391759e-05,0.0963535830378532,0,0,0
7111,257230.7281367188,2010-12-02 10:01:18,1140.572687078615,2,24,0.5501165986061096,3.894822359085083,21.22348461971604,21.70648795690598,85.08550747959453,78.69532120452986,3.237724376958795e-05,0.0963535830378532,0,0,0
7112,257260.74110578297,2010-12-02 10:01:48,1170.5856560776238,2,24,0.5501165986061096,3.8970887660980233,21.22807072513137,21.70648795690598,85.10337509978086,78.69532120452986,3.237724376958795e-05,0.0963535830378532,0,0,0
7113,257290.75611002155,2010-12-02 10:02:18,1200.6006603362985,2,24,0.550297200679779,3.899355173110962,21.232657160239047,21.70648795690598,85.12125437094362,78.69532120452986,6.47544875391759e-05,0.0963535830378532,0,0,0
7114,257320.77109629547,2010-12-02 10:02:48,1230.6156465400438,2,24,0.5501165986061096,3.9014596939086914,21.23724355566465,21.70648795690598,85.13914305677633,78.69532120452986,6.47544875391759e-05,0.0963535830378532,0,0,0
7115,257350.7861216968,2010-12-02 10:03:18,1260.6306719463437,2,24,0.550297200679779,3.903240442276001,21.24182996775277,21.70648795690598,85.1570408518582,78.69532120452986,3.237724376958795e-05,0.0963535830378532,0,0,0
7116,257380.8013589903,2010-12-02 10:03:48,1290.6459093251283,2,24,0.5501165986061096,3.905021190643311,21.24641650823708,21.70648795690598,85.1749476675513,78.69532120452986,6.47544875391759e-05,0.0963535830378532,0,0,0
7117,257410.81616863472,2010-12-02 10:04:18,1320.6607188843004,2,24,0.5501165986061096,3.90680193901062,21.25100289804593,21.70648795690598,85.1928617332194,78.69532120452986,3.237724376958795e-05,0.0963535830378532,0,0,0
7118,257440.8311595753,2010-12-02 10:04:48,1350.675709819821,2,24,0.550297200679779,3.90842080116272,21.25558933693661,21.70648795690598,85.21078363782065,78.69532120452986,3.237724376958795e-05,0.0963535830378532,0,0,0
7119,257470.84617247543,2010-12-02 10:05:18,1380.6907227199997,2,24,0.5501165986061096,3.9100396633148193,21.260175787577083,21.70648795690598,85.22871293424463,78.69532120452986,3.237724376958795e-05,0.0963535830378532,0,0,0
7120,257500.86120923,2010-12-02 10:05:48,1410.7057595397007,2,24,0.5501165986061096,3.911496639251709,21.26476219748125,21.70648795690598,85.24664907380354,78.69532120452986,3.237724376958795e-05,0.0963535830378532,0,0,0
7121,257530.87624422013,2010-12-02 10:06:18,1440.7207944897496,2,24,0.5499359965324402,3.912953615188599,21.26934861164397,21.70648795690598,85.26459218308669,78.69532120452986,3.237724376958795e-05,0.0963535830378532,0,0,0
7122,257560.89125236348,2010-12-02 10:06:48,1470.7358026280783,2,24,0.5501165986061096,3.914410352706909,21.273935060202707,21.70648795690598,85.28254225639336,78.69532120452986,3.237724376958795e-05,0.0963535830378532,0,0,0
7123,257590.9062189384,2010-12-02 10:07:18,1500.7507692681404,2,24,0.5499359965324402,3.915867328643799,21.278521476452983,21.70648795690598,85.30049884607952,78.69532120452986,3.237724376958795e-05,0.0963535830378532,0,0,0
7124,257620.9230223542,2010-12-02 10:07:49,1530.76757274911,2,24,0.550297200679779,3.917324304580689,21.283108162868164,21.70648795690598,85.31846310177876,78.69532120452986,9.713172767078504e-05,0.0963535830378532,0,0,0
7125,257650.936405188,2010-12-02 10:08:19,1560.780955497719,2,24,0.550297200679779,3.918943166732788,21.2876943664632,21.70648795690598,85.33643216045492,78.69532120452986,6.47544875391759e-05,0.0963535830378532,0,0,0
7126,257680.9512663506,2010-12-02 10:08:49,1590.7958166051674,2,24,0.5501165986061096,3.9204001426696777,21.29228078424133,21.70648795690598,85.35440875307638,78.69532120452986,3.237724376958795e-05,0.0963535830378532,0,0,0
7127,257710.96631094965,2010-12-02 10:09:19,1620.8108612042274,2,24,0.5499359965324402,3.921695232391357,21.296867216196578,21.70648795690598,85.37239196573428,78.69532120452986,3.237724376958795e-05,0.0963535830378532,0,0,0
7128,257740.9813059904,2010-12-02 10:09:49,1650.825856229926,2,24,0.5501165986061096,3.923152208328247,21.30145363766703,21.70648795690598,85.39038184869224,78.69532120452986,3.237724376958795e-05,0.0963535830378532,0,0,0
7129,257770.9965638752,2010-12-02 10:10:19,1680.8411142099762,2,24,0.5499359965324402,3.9246091842651367,21.306040110132923,21.70648795690598,85.40837857877217,78.69532120452986,3.237724376958795e-05,0.0963535830378532,0,0,0
7130,257801.01134776548,2010-12-02 10:10:49,1710.8558980050357,2,24,0.5499359965324402,3.925904273986816,21.31062655505972,21.70648795690598,85.42638186272676,78.69532120452986,3.237724376958795e-05,0.0963535830378532,0,0,0
7131,257831.0264761932,2010-12-02 10:11:19,1740.8710264627748,2,24,0.5501165986061096,3.927685022354126,21.31521305655593,21.70648795690598,85.44439200402164,78.69532120452986,9.713172767078504e-05,0.0963535830378532,0,0,0
7132,257861.0413747989,2010-12-02 10:11:49,1770.8859250434734,2,24,0.550297200679779,3.929141998291016,21.319799522782937,21.70648795690598,85.46240874952629,78.69532120452986,6.47544875391759e-05,0.0963535830378532,0,0,0
7133,257891.0564078893,2010-12-02 10:12:19,1800.9009581338946,2,24,0.550297200679779,3.9307608604431152,21.324385982881683,21.70648795690598,85.48043227737304,78.69532120452986,0.0001295089750783,0.0963535830378532,0,0,0
7134,257921.07140845383,2010-12-02 10:12:49,1830.915958698376,2,24,0.5499359965324402,3.931732177734375,21.328972530497992,21.70648795690598,85.49846289276122,78.69532120452986,-3.237724376958795e-05,0.0963535830378532,0,0,0
7135,257951.0864469878,2010-12-02 10:13:19,1860.9309973476304,2,24,0.5501165986061096,3.933512926101685,21.333559021686344,21.70648795690598,85.51650011717712,78.69532120452986,3.237724376958795e-05,0.0963535830378532,0,0,0
7136,257981.1014791008,2010-12-02 10:13:49,1890.9460293703949,2,24,0.5501165986061096,3.934808015823364,21.338145501121517,21.70648795690598,85.53454411981366,78.69532120452986,6.47544875391759e-05,0.0963535830378532,0,0,0
7137,258011.11649067767,2010-12-02 10:14:19,1920.961040922218,2,24,0.5501165986061096,3.936426877975464,21.342732055171435,21.70648795690598,85.55259533426886,78.69532120452986,3.237724376958795e-05,0.0963535830378532,0,0,0
7138,258041.1314739491,2010-12-02 10:14:49,1950.9760241936667,2,24,0.5501165986061096,3.938045740127564,21.347318526510858,21.70648795690598,85.57065305653504,78.69532120452986,6.47544875391759e-05,0.0963535830378532,0,0,0
7139,258071.1464901876,2010-12-02 10:15:19,1980.9910404572147,2,24,0.5501165986061096,3.939502716064453,21.35190499565505,21.70648795690598,85.58871785779193,78.69532120452986,3.237724376958795e-05,0.0963535830378532,0,0,0
7140,258101.1616336577,2010-12-02 10:15:49,2011.006183912274,2,24,0.5501165986061096,3.9411215782165527,21.356491498607312,21.70648795690598,85.60678983108222,78.69532120452986,6.47544875391759e-05,0.0963535830378532,0,0,0
7141,258131.1766008792,2010-12-02 10:16:19,2041.0211512440576,2,24,0.5501165986061096,3.9425785541534415,21.361078052615728,21.70648795690598,85.62486901184121,78.69532120452986,6.47544875391759e-05,0.0963535830378532,0,0,0
7142,258161.19154927888,2010-12-02 10:16:49,2071.036099548492,2,24,0.5499359965324402,3.944035530090332,21.36566452838296,21.70648795690598,85.64295492483654,78.69532120452986,0.0,0.0963535830378532,0,0,0
7143,258191.20657915127,2010-12-02 10:17:19,2101.0511293958425,2,24,0.5501165986061096,3.945654392242432,21.370251012040217,21.70648795690598,85.66104795975981,78.69532120452986,0.0,0.0963535830378532,0,0,0
7144,258221.2233571388,2010-12-02 10:17:49,2131.0679075337475,2,24,0.5499359965324402,3.947111368179321,21.374837805556545,21.70648795690598,85.6791492783116,78.69532120452986,6.47544875391759e-05,0.0963535830378532,0,0,0
7145,258251.23659105707,2010-12-02 10:18:19,2161.0811413216734,2,24,0.550297200679779,3.948892116546631,21.37942391695632,21.70648795690598,85.69725507094566,78.69532120452986,6.47544875391759e-05,0.0963535830378532,0,0,0
7146,258281.25164953063,2010-12-02 10:18:49,2191.0961997752097,2,24,0.5501165986061096,3.950349092483521,21.384010324538785,21.70648795690598,85.71536923414142,78.69532120452986,6.47544875391759e-05,0.0963535830378532,0,0,0
7147,258311.26665431564,2010-12-02 10:19:19,2221.111204575231,2,24,0.5499359965324402,3.95180606842041,21.38859626989047,21.70648795690598,85.73348879418263,78.69532120452986,3.237724376958795e-05,0.0963535830378532,0,0,0
7148,258341.2818026679,2010-12-02 10:19:49,2251.126352917453,2,24,0.5499359965324402,3.9534249305725098,21.39318185210186,21.70648795690598,85.75161411615682,78.69532120452986,0.0,0.0963535830378532,0,0,0
7149,258371.29677879155,2010-12-02 10:20:19,2281.141329126326,2,24,0.5499359965324402,3.95504379272461,21.39776747333276,21.70648795690598,85.76974696408665,78.69532120452986,6.47544875391759e-05,0.0963535830378532,0,0,0
7150,258401.31177353152,2010-12-02 10:20:49,2311.1563238011518,2,24,0.5499359965324402,3.956662654876709,21.402353095102857,21.70648795690598,85.78788723714949,78.69532120452986,3.237724376958795e-05,0.0963535830378532,0,0,0
7151,258431.32685146356,2010-12-02 10:21:19,2341.171401733159,2,24,0.5501165986061096,3.9582815170288086,21.406939184183425,21.70648795690598,85.8060366704473,78.69532120452986,3.237724376958795e-05,0.0963535830378532,0,0,0
7152,258461.34170988933,2010-12-02 10:21:49,2371.186260133872,2,24,0.5501165986061096,3.960062265396118,21.411525593500897,21.70648795690598,85.82419489252234,78.69532120452986,9.713172767078504e-05,0.0963535830378532,0,0,0
7153,258491.35675873392,2010-12-02 10:22:19,2401.201308983509,2,24,0.5501165986061096,3.9616811275482178,21.41611205828353,21.70648795690598,85.84236091981515,78.69532120452986,6.47544875391759e-05,0.0963535830378532,0,0,0
7154,258521.371750281,2010-12-02 10:22:49,2431.2163005455886,2,24,0.5501165986061096,3.963299989700317,21.420698521403523,21.70648795690598,85.86053439003125,78.69532120452986,3.237724376958795e-05,0.0963535830378532,0,0,0
7155,258551.38682950623,2010-12-02 10:23:19,2461.2313797557767,2,24,0.5501165986061096,3.964756965637207,21.42528497561164,21.70648795690598,85.87871536033127,78.69532120452986,3.237724376958795e-05,0.0963535830378532,0,0,0
7156,258581.40183998537,2010-12-02 10:23:49,2491.2463902549807,2,24,0.5501165986061096,3.966699600219727,21.42987134629976,21.70648795690598,85.89690358756286,78.69532120452986,3.237724376958795e-05,0.0963535830378532,0,0,0
7157,258611.4174050395,2010-12-02 10:24:19,2521.261955379348,2,24,0.5501165986061096,3.968156576156616,21.43445789059535,21.70648795690598,85.91510007248152,78.69532120452986,3.237724376958795e-05,0.0963535830378532,0,0,0
7158,258641.43201619,2010-12-02 10:24:49,2551.276566429538,2,24,0.5499359965324402,3.969775438308716,21.43904421987496,21.70648795690598,85.93330344061263,78.69532120452986,3.237724376958795e-05,0.0963535830378532,0,0,0
7159,258671.4468971418,2010-12-02 10:25:19,2581.2914473964056,2,24,0.5499359965324402,3.971394300460816,21.44363059326415,21.70648795690598,85.95151471966051,78.69532120452986,0.0,0.0963535830378532,0,0,0
7160,258701.46194859297,2010-12-02 10:25:49,2611.3064988425044,2,24,0.550297200679779,3.973498821258545,21.448217050081688,21.70648795690598,85.96973423606669,78.69532120452986,6.47544875391759e-05,0.0963535830378532,0,0,0
7161,258731.47743074584,2010-12-02 10:26:19,2641.32198109565,2,24,0.5499359965324402,3.9749557971954346,21.45280347126041,21.70648795690598,85.98796153951413,78.69532120452986,3.237724376958795e-05,0.0963535830378532,0,0,0
7162,258761.4919653508,2010-12-02 10:26:49,2671.33651560036,2,24,0.5501165986061096,3.976898431777954,21.45738984312121,21.70648795690598,86.006196638975,78.69532120452986,6.47544875391759e-05,0.0963535830378532,0,0,0
7163,258791.506979048,2010-12-02 10:27:19,2701.351529317571,2,24,0.5501165986061096,3.978679180145264,21.46197635209157,21.70648795690598,86.02443993510809,78.69532120452986,0.0001295089750783,0.0963535830378532,0,0,0
7164,258821.52384456832,2010-12-02 10:27:49,2731.3683949431856,2,24,0.5499359965324402,3.9802980422973633,21.466562922334123,21.70648795690598,86.04269201689982,78.69532120452986,6.47544875391759e-05,0.0963535830378532,0,0,0
7165,258851.53702774027,2010-12-02 10:28:19,2761.381577989844,2,24,0.5501165986061096,3.982078790664673,21.471148987819312,21.70648795690598,86.06095022326733,78.69532120452986,3.237724376958795e-05,0.0963535830378532,0,0,0
7166,258881.55203172824,2010-12-02 10:28:49,2791.396581997895,2,24,0.5501165986061096,3.984021425247192,21.47573533241424,21.70648795690598,86.07921776375636,78.69532120452986,3.237724376958795e-05,0.0963535830378532,0,0,0
7167,258911.56705282384,2010-12-02 10:29:19,2821.411603093467,2,24,0.5501165986061096,3.985802173614502,21.48032165773641,21.70648795690598,86.09749355383315,78.69532120452986,6.47544875391759e-05,0.0963535830378532,0,0,0
7168,258941.58205997973,2010-12-02 10:29:49,2851.4266102293013,2,24,0.5499359965324402,3.987582921981812,21.484908009525785,21.70648795690598,86.11577787858937,78.69532120452986,6.47544875391759e-05,0.0963535830378532,0,0,0
7169,258971.5970944987,2010-12-02 10:30:19,2881.441644758302,2,24,0.5499359965324402,3.989363670349121,21.489494335520856,21.70648795690598,86.13407047944493,78.69532120452986,6.47544875391759e-05,0.0963535830378532,0,0,0
7170,259001.6143961594,2010-12-02 10:30:49,2911.458946544285,2,24,0.5499359965324402,3.9913063049316406,21.494081046816024,21.70648795690598,86.15237321572435,78.69532120452986,0.0,0.0963535830378532,0,0,0
7171,259031.62727236748,2010-12-02 10:31:19,2941.471822642113,2,24,0.550297200679779,3.99324893951416,21.498667052052447,21.70648795690598,86.17068188243549,78.69532120452986,3.237724376958795e-05,0.0963535830378532,0,0,0
7172,259061.6421316504,2010-12-02 10:31:49,2971.486681904971,2,24,0.550297200679779,3.995353221893311,21.50325335540671,21.70648795690598,86.1890004252257,78.69532120452986,6.47544875391759e-05,0.0963535830378532,0,0,0
7173,259091.6590541776,2010-12-02 10:32:19,3001.5036045224074,2,24,0.550297200679779,3.99697208404541,21.507839996908512,21.70648795690598,86.2073291851887,78.69532120452986,6.47544875391759e-05,0.0963535830378532,0,0,0
7174,259121.6721798816,2010-12-02 10:32:49,3031.516730131134,2,24,0.5501165986061096,3.99907660484314,21.51242608674109,21.70648795690598,86.22566459954153,78.69532120452986,6.47544875391759e-05,0.0963535830378532,0,0,0
7175,259151.6892466878,2010-12-02 10:33:19,3061.533797047653,2,24,0.5501165986061096,4.001019477844238,21.51701277243009,21.70648795690598,86.24401140888578,78.69532120452986,6.47544875391759e-05,0.0963535830378532,0,0,0
7176,259181.70221232343,2010-12-02 10:33:49,3091.5467625680058,2,24,0.5501165986061096,4.002962112426758,21.521598791494075,21.70648795690598,86.26236465007788,78.69532120452986,3.24249267578125e-05,0.0963535830378532,0,0,0
7177,259211.7172403964,2010-12-02 10:34:19,3121.5617906409407,2,24,0.5501165986061096,4.005066394805908,21.52618516150477,21.70648795690598,86.2807285143063,78.69532120452986,3.23295607813634e-05,0.0963535830378532,0,0,0
7178,259241.73233146107,2010-12-02 10:34:49,3151.576881735704,2,24,0.550297200679779,4.007171154022217,21.530771515450223,21.70648795690598,86.2991016686739,78.69532120452986,6.47544875391759e-05,0.0963535830378532,0,0,0
7179,259271.74726771552,2010-12-02 10:35:19,3181.5918179701025,2,24,0.5501165986061096,4.009113788604736,21.53535788622841,21.70648795690598,86.31748436023415,78.69532120452986,6.47544875391759e-05,0.0963535830378532,0,0,0
7180,259301.76231293613,2010-12-02 10:35:49,3211.6068631806843,2,24,0.5501165986061096,4.011218070983887,21.53994421424508,21.70648795690598,86.33587639406474,78.69532120452986,6.47544875391759e-05,0.0963535830378532,0,0,0
7181,259331.7773275957,2010-12-02 10:36:19,3241.6218778653038,2,24,0.5497553944587708,4.013322830200195,21.54453053163939,21.70648795690598,86.35427813611004,78.69532120452986,3.24249267578125e-05,0.0963535830378532,0,0,0
7182,259361.7923214284,2010-12-02 10:36:49,3271.636871698033,2,24,0.550297200679779,4.015589237213135,21.54911687943651,21.70648795690598,86.37268987077096,78.69532120452986,6.47544875391759e-05,0.0963535830378532,0,0,0
7183,259391.8073479024,2010-12-02 10:37:19,3301.651898146928,2,24,0.5499359965324402,4.017693519592285,21.55370322772299,21.70648795690598,86.39111161435135,78.69532120452986,3.23295607813634e-05,0.0963535830378532,0,0,0
7184,259421.82435518547,2010-12-02 10:37:49,3331.6689055303004,2,24,0.5501165986061096,4.019959926605225,21.55828990023334,21.70648795690598,86.40954473056689,78.69532120452986,9.70840483205393e-05,0.0963535830378532,0,0,0
7185,259451.837417196,2010-12-02 10:38:19,3361.681967445528,2,24,0.5499359965324402,4.022064685821533,21.562875918565545,21.70648795690598,86.42798542864885,78.69532120452986,6.47544875391759e-05,0.0963535830378532,0,0,0
7186,259481.85254612987,2010-12-02 10:38:49,3391.697096434589,2,24,0.5497553944587708,4.024492740631104,21.567462271441578,21.70648795690598,86.44643787170118,78.69532120452986,6.47544875391759e-05,0.0963535830378532,0,0,0
7187,259511.8675378423,2010-12-02 10:39:19,3421.712088111956,2,24,0.550297200679779,4.026759147644043,21.57204855206371,21.70648795690598,86.46490047549,78.69532120452986,6.47544875391759e-05,0.0963535830378532,0,0,0
7188,259541.8824521021,2010-12-02 10:39:50,3451.7270024518707,2,24,0.5501165986061096,4.029025554656982,21.576634852969423,21.70648795690598,86.48337368274817,78.69532120452986,6.47544875391759e-05,0.0963535830378532,0,0,0
7189,259571.897595106,2010-12-02 10:40:20,3481.7421454157075,2,24,0.5501165986061096,4.031291961669922,21.58122115517676,21.70648795690598,86.5018574393342,78.69532120452986,3.23295607813634e-05,0.0963535830378532,0,0,0
7190,259601.91247555657,2010-12-02 10:40:50,3511.757025831203,2,24,0.550297200679779,4.03372049331665,21.58580739241619,21.70648795690598,86.52035170306428,78.69532120452986,6.47544875391759e-05,0.0963535830378532,0,0,0
7191,259631.9274863064,2010-12-02 10:41:20,3541.772036550956,2,24,0.5501165986061096,4.036148548126221,21.590393923647024,21.70648795690598,86.53885793498111,78.69532120452986,6.47544875391759e-05,0.0963535830378532,0,0,0
7192,259661.942554419,2010-12-02 10:41:50,3571.787104753753,2,24,0.5501165986061096,4.03841495513916,21.59498108267137,21.70648795690598,86.55737773288202,78.69532120452986,3.24249267578125e-05,0.0963535830378532,0,0,0
7193,259691.95776132692,2010-12-02 10:42:20,3601.80231159655,2,24,0.5499359965324402,4.0408430099487305,21.599567931828705,21.70648795690598,86.57590723097358,78.69532120452986,3.23295607813634e-05,0.0963535830378532,0,0,0
7194,259721.9725757432,2010-12-02 10:42:50,3631.8171259877454,2,24,0.5501165986061096,4.04343318939209,21.604154161807983,21.70648795690598,86.59444536583175,78.69532120452986,6.47544875391759e-05,0.0963535830378532,0,0,0
7195,259751.9875885531,2010-12-02 10:43:20,3661.8321387977,2,24,0.5501165986061096,4.045861721038818,21.608740476580184,21.70648795690598,86.61299520263609,78.69532120452986,6.47544875391759e-05,0.0963535830378532,0,0,0
7196,259782.0026127815,2010-12-02 10:43:50,3691.8471630260688,2,24,0.5501165986061096,4.048289775848389,21.61332681146101,21.70648795690598,86.63155660994899,78.69532120452986,3.23295607813634e-05,0.0963535830378532,0,0,0
7197,259812.01764608247,2010-12-02 10:44:20,3721.862196327013,2,24,0.5501165986061096,4.050879955291748,21.61791316334963,21.70648795690598,86.65012961602521,78.69532120452986,6.47544875391759e-05,0.0963535830378532,0,0,0
7198,259842.03264689253,2010-12-02 10:44:50,3751.8771971371066,2,24,0.5501165986061096,4.053308486938477,21.62249952345356,21.70648795690598,86.66871424420728,78.69532120452986,3.24249267578125e-05,0.0963535830378532,0,0,0
7199,259872.047749932,2010-12-02 10:45:20,3781.8923002367424,2,24,0.5499359965324402,4.056060314178467,21.62708589231453,21.70648795690598,86.68731067125884,78.69532120452986,9.70840483205393e-05,0.0963535830378532,0,0,0
7200,259902.0626848381,2010-12-02 10:45:50,3811.9072350826864,2,24,0.5499359965324402,4.058488845825195,21.63167220045159,21.70648795690598,86.7059187793,78.69532120452986,6.47544875391759e-05,0.0963535830378532,0,0,0
7201,259932.07771832452,2010-12-02 10:46:20,3841.922268569093,2,24,0.5501165986061096,4.061079025268555,21.636258572530966,21.70648795690598,86.72453905029653,78.69532120452986,6.47544875391759e-05,0.0963535830378532,0,0,0
7202,259962.09274585109,2010-12-02 10:46:50,3871.9372961006807,2,24,0.5501165986061096,4.063830852508545,21.640844871539983,21.70648795690598,86.74317093330748,78.69532120452986,6.47544875391759e-05,0.0963535830378532,0,0,0
7203,259992.10776499184,2010-12-02 10:47:20,3901.9523152363768,2,24,0.5501165986061096,4.066583156585693,21.64543123909528,21.70648795690598,86.76181528565215,78.69532120452986,9.71794142969884e-05,0.0963535830378532,0,0,0
7204,260022.12473996452,2010-12-02 10:47:50,3931.969290304334,2,24,0.5501165986061096,4.069173336029053,21.650017788452715,21.70648795690598,86.78047273371382,78.69532120452986,6.47544875391759e-05,0.0963535830378532,0,0,0
7205,260052.1378036642,2010-12-02 10:48:20,3961.9823539087647,2,24,0.5501165986061096,4.071925163269043,21.65460386733147,21.70648795690598,86.79914070851372,78.69532120452986,9.70840483205393e-05,0.0963535830378532,0,0,0
7206,260082.15295170067,2010-12-02 10:48:50,3991.9975019552494,2,24,0.5501165986061096,4.074677467346191,21.659190210575744,21.70648795690598,86.81782231183263,78.69532120452986,6.47544875391759e-05,0.0963535830378532,0,0,0
7207,260112.1678180662,2010-12-02 10:49:20,4022.012368310759,2,24,0.5501165986061096,4.077429294586182,21.66377653464264,21.70648795690598,86.83651657967238,78.69532120452986,6.47544875391759e-05,0.0963535830378532,0,0,0
7208,260142.18296566152,2010-12-02 10:49:50,4052.0275159161456,2,24,0.550297200679779,4.080343246459961,21.66836284807568,21.70648795690598,86.85522363159872,78.69532120452986,6.47544875391759e-05,0.0963535830378532,0,0,0
7209,260172.1978686232,2010-12-02 10:50:20,4082.0424188777465,2,24,0.5501165986061096,4.083095550537109,21.67294919164275,21.70648795690598,86.87394365356471,78.69532120452986,6.47544875391759e-05,0.0963535830378532,0,0,0
7210,260202.21288024017,2010-12-02 10:50:50,4112.057430484706,2,24,0.550297200679779,4.08617115020752,21.6775355360844,21.70648795690598,86.89267674631576,78.69532120452986,0.0001295089750783,0.0963535830378532,0,0,0
7211,260232.22789452376,2010-12-02 10:51:20,4142.072444778352,2,24,0.550297200679779,4.088923454284668,21.68212180320757,21.70648795690598,86.91142261967019,78.69532120452986,9.71794142969884e-05,0.0963535830378532,0,0,0
7212,260262.2430484198,2010-12-02 10:51:50,4172.087598724518,2,24,0.5499359965324402,4.091675281524658,21.68670821439006,21.70648795690598,86.93018248234044,78.69532120452986,3.23295607813634e-05,0.0963535830378532,0,0,0
7213,260292.25812765004,2010-12-02 10:52:20,4202.102678024931,2,24,0.5501165986061096,4.0945892333984375,21.69129457903144,21.70648795690598,86.9489554479076,78.69532120452986,6.47544875391759e-05,0.0963535830378532,0,0,0
7214,260322.2729554997,2010-12-02 10:52:50,4232.117505744294,2,24,0.5499359965324402,4.097665309906006,21.69588092039304,21.70648795690598,86.96774177977744,78.69532120452986,6.47544875391759e-05,0.0963535830378532,0,0,0
7215,260352.28798095617,2010-12-02 10:53:20,4262.132531200719,2,24,0.550297200679779,4.100740909576416,21.700467239252177,21.70648795690598,86.98654156605033,78.69532120452986,0.0001295089750783,0.0963535830378532,0,0,0
7216,260382.3030088336,2010-12-02 10:53:50,4292.147559078167,2,24,0.5501165986061096,4.103654861450195,21.7050536418258,21.70648795690598,87.00535538424428,78.69532120452986,9.70840483205393e-05,0.0963535830378532,0,0,0
7217,260412.31814965716,2010-12-02 10:54:20,4322.162699901679,2,24,0.5501165986061096,4.106730937957764,21.70964002540108,21.70648795690598,87.02418302755527,78.69532120452986,9.71794142969884e-05,0.0963535830378532,0,0,0
7218,260442.33303668405,2010-12-02 10:54:50,4352.177586933639,2,24,0.5499359965324402,4.109644889831543,21.714226410821105,21.70648795690598,87.04302462694385,78.69532120452986,6.47544875391759e-05,0.0963535830378532,0,0,0
7219,260472.34805370952,2010-12-02 10:55:20,4382.192603979133,2,24,0.5501165986061096,4.112720489501953,21.718812739929756,21.70648795690598,87.06188008714075,78.69532120452986,6.47544875391759e-05,0.0963535830378532,0,0,0
7220,260502.36308693528,2010-12-02 10:55:50,4412.207637199877,2,24,0.550297200679779,4.116119861602783,21.72339907316184,21.70648795690598,87.0807498055636,78.69532120452986,0.0001618385285837,0.0963535830378532,0,0,0
7221,260532.37823975863,2010-12-02 10:56:20,4442.222790068363,2,24,0.5501165986061096,4.1190338134765625,21.727985395984785,21.70648795690598,87.09963373570451,78.69532120452986,6.47544875391759e-05,0.0963535830378532,0,0,0
7222,260562.3931122945,2010-12-02 10:56:50,4472.2376625441,2,24,0.5501165986061096,4.122271537780762,21.732571686402483,21.70648795690598,87.1185319486347,78.69532120452986,0.0001295089750783,0.0963535830378532,0,0,0
7223,260592.4081461318,2010-12-02 10:57:20,4502.25269638138,2,24,0.5499359965324402,4.12534761428833,21.737157983935656,21.70648795690598,87.13744464843356,78.69532120452986,9.71794142969884e-05,0.0963535830378532,0,0,0
7224,260622.42495796355,2010-12-02 10:57:50,4532.269508333429,2,24,0.5501165986061096,4.128585338592529,21.741744660767523,21.70648795690598,87.15637359599721,78.69532120452986,0.0001295089750783,0.0963535830378532,0,0,0
7225,260652.4386849989,2010-12-02 10:58:20,4562.283235323671,2,24,0.5501165986061096,4.13166093826294,21.746330828785887,21.70648795690598,87.17531527484267,78.69532120452986,3.23295607813634e-05,0.0963535830378532,0,0,0
7226,260682.45320275196,2010-12-02 10:58:50,4592.297752996495,2,24,0.5499359965324402,4.135060787200928,21.75091715666943,21.70648795690598,87.1942725563309,78.69532120452986,9.71794142969884e-05,0.0963535830378532,0,0,0
7227,260712.46826049368,2010-12-02 10:59:20,4622.312810823472,2,24,0.5501165986061096,4.138460159301758,21.7555035135653,21.70648795690598,87.21324494877948,78.69532120452986,9.70840483205393e-05,0.0963535830378532,0,0,0
7228,260742.48329669188,2010-12-02 10:59:50,4652.327847021627,2,24,0.5501165986061096,4.141697883605957,21.76008993290287,21.70648795690598,87.23223268241364,78.69532120452986,6.47544875391759e-05,0.0963535830378532,0,0,0
7229,260772.49840299948,2010-12-02 11:00:20,4682.342953249046,2,24,0.5499359965324402,4.144935607910156,21.76467631541133,21.70648795690598,87.25123546128202,78.69532120452986,6.47544875391759e-05,0.0963535830378532,0,0,0
7230,260802.5132757108,2010-12-02 11:00:50,4712.357825955359,2,24,0.5501165986061096,4.148497104644775,21.76926263819474,21.70648795690598,87.27025364387532,78.69532120452986,9.70840483205393e-05,0.0963535830378532,0,0,0
7231,260832.52830079128,2010-12-02 11:01:20,4742.372851065921,2,24,0.5501165986061096,4.151734828948975,21.773848982970488,21.70648795690598,87.28928738015682,78.69532120452986,6.47544875391759e-05,0.0963535830378532,0,0,0
7232,260862.54331477417,2010-12-02 11:01:50,4772.387865023732,2,24,0.5501165986061096,4.155134677886963,21.77843532832398,21.70648795690598,87.30833675280637,78.69532120452986,6.47544875391759e-05,0.0963535830378532,0,0,0
7233,260892.5583415138,2010-12-02 11:02:20,4802.402891758336,2,24,0.5501165986061096,4.158696174621582,21.78302166390953,21.70648795690598,87.3274018282996,78.69532120452986,0.0001295089750783,0.0963535830378532,0,0,0
7234,260922.5755262986,2010-12-02 11:02:50,4832.420076633392,2,24,0.5501165986061096,4.162095546722412,21.787608315664745,21.70648795690598,87.34648411635968,78.69532120452986,6.47544875391759e-05,0.0963535830378532,0,0,0
7235,260952.5883807676,2010-12-02 11:03:20,4862.432931012172,2,24,0.5499359965324402,4.1654953956604,21.79219437353576,21.70648795690598,87.36557993636035,78.69532120452986,6.47544875391759e-05,0.0963535830378532,0,0,0
7236,260982.60341609863,2010-12-02 11:03:50,4892.447966348182,2,24,0.5501165986061096,4.16938066482544,21.796780651516563,21.70648795690598,87.38469268025813,78.69532120452986,0.0001295089750783,0.0963535830378532,0,0,0
7237,261012.6202876339,2010-12-02 11:04:20,4922.46483797874,2,24,0.5499359965324402,4.172618389129639,21.80136719803169,21.70648795690598,87.4038225844994,78.69532120452986,0.0001295089750783,0.0963535830378532,0,0,0
7238,261042.6334450869,2010-12-02 11:04:50,4952.4779953414845,2,24,0.5501165986061096,4.176179885864258,21.805953244161635,21.70648795690598,87.42296667129924,78.69532120452986,9.71794142969884e-05,0.0963535830378532,0,0,0
7239,261072.6505160635,2010-12-02 11:05:20,4982.495066438407,2,24,0.5501165986061096,4.179741382598877,21.810539829409485,21.70648795690598,87.44212930705316,78.69532120452986,9.71794142969884e-05,0.0963535830378532,0,0,0
7240,261102.663482436,2010-12-02 11:05:50,5012.508032680556,2,24,0.5499359965324402,4.183302879333496,21.815125863935364,21.70648795690598,87.46130615239876,78.69532120452986,6.47544875391759e-05,0.0963535830378532,0,0,0
7241,261132.6785501376,2010-12-02 11:06:20,5042.523100397143,2,24,0.5497553944587708,4.186864376068115,21.819711560563004,21.70648795690598,87.48049802644806,78.69532120452986,6.47544875391759e-05,0.0963535830378532,0,0,0
7242,261162.6935230933,2010-12-02 11:06:50,5072.538073362945,2,24,0.5501165986061096,4.190587520599365,21.824297026289685,21.70648795690598,87.49970561574426,78.69532120452986,9.70840483205393e-05,0.0963535830378532,0,0,0
7243,261192.70867919485,2010-12-02 11:07:20,5102.5532294394125,2,24,0.5501165986061096,4.194311141967773,21.828883040291085,21.70648795690598,87.51893237092897,78.69532120452986,9.71794142969884e-05,0.0963535830378532,0,0,0
7244,261222.7236912379,2010-12-02 11:07:50,5132.568241512533,2,24,0.5499359965324402,4.197872161865234,21.833469348346245,21.70648795690598,87.53817731615284,78.69532120452986,6.47544875391759e-05,0.0963535830378532,0,0,0
7245,261237.9266012397,2010-12-02 11:08:06,5147.771151509332,2,24,0.5501165986061096,4.200138568878174,21.835792325233943,21.70648795690598,87.54793139078491,78.69532120452986,0.0001295089750783,0.0963535830378532,0,0,0
7246,261267.93549298524,2010-12-02 11:08:36,30.01320075071428,3,24,0.0,4.108349800109863,21.835792325233943,21.70648795690598,87.54793139078491,78.69532120452986,-0.0004208564641885,0.0963535830378532,0,0,0
7247,261297.9505143966,2010-12-02 11:09:06,60.02822214703512,3,24,0.0,4.096855640411377,21.835792325233943,21.70648795690598,87.54793139078491,78.69532120452986,-0.0002266883820993,0.0963535830378532,0,0,0
7248,261327.96550691608,2010-12-02 11:09:36,90.04321468654692,3,24,0.0,4.090056419372559,21.835792325233943,21.70648795690598,87.54793139078491,78.69532120452986,-0.0001619339018361,0.0963535830378532,0,0,0
7249,261357.93367244332,2010-12-02 11:10:06,120.01138020381488,3,24,0.0,4.085361957550049,21.835792325233943,21.70648795690598,87.54793139078491,78.69532120452986,-9.70840483205393e-05,0.0963535830378532,0,0,0
7250,261357.9477207157,2010-12-02 11:10:06,0.01573182804903,4,24,0.9918869137763976,4.199814796447754,21.835796697228343,21.70648795690598,87.54794975270612,78.69532120452986,-3.24249267578125e-05,0.0963535830378532,0,0,0
7251,261358.9006944793,2010-12-02 11:10:07,0.968705596619279,4,24,0.9418581128120422,4.199814796447754,21.83605105725377,21.70648795690598,87.54901800017399,78.69532120452986,-3.24249267578125e-05,0.0963535830378532,0,0,0
7252,261361.1199098614,2010-12-02 11:10:09,3.187921068967778,4,24,0.8914681673049927,4.199653148651123,21.836615060652797,21.70648795690598,87.55138666587816,78.69532120452986,-6.47544875391759e-05,0.0963535830378532,0,0,0
7253,261364.4475881859,2010-12-02 11:10:12,6.515599308278678,4,24,0.8412587642669678,4.199814796447754,21.83741470983521,21.70648795690598,87.55474499113159,78.69532120452986,3.23295607813634e-05,0.0963535830378532,0,0,0
7254,261368.9807356089,2010-12-02 11:10:17,11.048746806476116,4,24,0.7910493612289429,4.199814796447754,21.838441047568164,21.70648795690598,87.55905536324401,78.69532120452986,0.0,0.0963535830378532,0,0,0
7255,261374.9316410833,2010-12-02 11:10:23,16.999652205681063,4,24,0.7410206198692322,4.199814796447754,21.83970583558864,21.70648795690598,87.56436719809612,78.69532120452986,0.0,0.0963535830378532,0,0,0
7256,261382.74398349697,2010-12-02 11:10:31,24.81199461930265,4,24,0.6909918785095215,4.199814796447754,21.841257388202173,21.70648795690598,87.5708833942304,78.69532120452986,-3.24249267578125e-05,0.0963535830378532,0,0,0
7257,261393.181297752,2010-12-02 11:10:41,35.24930889945364,4,24,0.640963077545166,4.199814796447754,21.84318445532562,21.70648795690598,87.57897667152623,78.69532120452986,3.23295607813634e-05,0.0963535830378532,0,0,0
7258,261407.96224709097,2010-12-02 11:10:56,50.0302582985352,4,24,0.5909343361854553,4.199653148651123,21.845707074372967,21.70648795690598,87.58957112374804,78.69532120452986,0.0,0.0963535830378532,0,0,0
7259,261431.10237841777,2010-12-02 11:11:19,73.17038954012484,4,24,0.5409055352210999,4.199653148651123,21.849331878172627,21.70648795690598,87.60479450437556,78.69532120452986,-3.23295607813634e-05,0.0963535830378532,0,0,0
7260,261472.75780626785,2010-12-02 11:12:01,114.8258173751605,4,24,0.4908767640590668,4.199814796447754,21.855271923899224,21.70648795690598,87.62974136619707,78.69532120452986,0.0,0.0963535830378532,0,0,0
7261,261549.02184985703,2010-12-02 11:13:17,191.0898609694123,4,24,0.4408479928970337,4.199653148651123,21.86509864595393,21.70648795690598,87.67101150722793,78.69532120452986,-3.23295607813634e-05,0.0963535830378532,0,0,0
7262,261662.42584700728,2010-12-02 11:15:10,304.4938581246409,4,24,0.3908192217350006,4.199814796447754,21.87816811378993,21.70648795690598,87.72590055736886,78.69532120452986,3.23295607813634e-05,0.0963535830378532,0,0,0
7263,261801.11083603845,2010-12-02 11:17:29,443.1788472109442,4,24,0.3407904505729675,4.199653148651123,21.892241618613927,21.70648795690598,87.78500637448667,78.69532120452986,-3.23295607813634e-05,0.0963535830378532,0,0,0
7264,261967.90430624396,2010-12-02 11:20:16,609.9723173612798,4,24,0.2907616794109344,4.199814796447754,21.906856366902648,21.70648795690598,87.84638533670595,78.69532120452986,-3.24249267578125e-05,0.0963535830378532,0,0,0
7265,262171.2593389565,2010-12-02 11:23:39,813.3273500738376,4,24,0.2407329231500625,4.199814796447754,21.921840151862483,21.70648795690598,87.90931415110043,78.69532120452986,0.0,0.0963535830378532,0,0,0
7266,262423.5823785408,2010-12-02 11:27:52,1065.6503896480858,4,24,0.1907041519880294,4.199653148651123,21.93691215152133,21.70648795690598,87.97261338943238,78.69532120452986,-3.23295607813634e-05,0.0963535830378532,0,0,0
7267,262760.0917298839,2010-12-02 11:33:28,1402.159741091485,4,24,0.1406753808259964,4.199814796447754,21.952305390662268,21.70648795690598,88.03726176873903,78.69532120452986,0.0,0.0963535830378532,0,0,0
7268,263279.408945406,2010-12-02 11:42:07,1921.4769565233487,4,24,0.0904660075902938,4.199814796447754,21.968717213428057,21.70648795690598,88.10618790872256,78.69532120452986,-3.24249267578125e-05,0.0963535830378532,0,0,0
7269,264069.81496094546,2010-12-02 11:55:18,2711.8829720577746,4,24,0.0498289167881011,4.199814796447754,21.98368973826802,21.70648795690598,88.16906934567284,78.69532120452986,0.0,0.0963535830378532,0,0,0
7270,264099.83593683183,2010-12-02 11:55:48,30.01500675989867,5,24,0.0,4.191397190093994,21.98368973826802,21.70648795690598,88.16906934567284,78.69532120452986,-3.23295607813634e-05,0.0963535830378532,0,0,0
7271,264129.8353343086,2010-12-02 11:56:18,60.01440423669671,5,24,0.0,4.189939975738525,21.98368973826802,21.70648795690598,88.16906934567284,78.69532120452986,-3.24249267578125e-05,0.0963535830378532,0,0,0
7272,264130.02966377104,2010-12-02 11:56:18,0.187147734940409,6,24,-1.9243103452026844e-05,4.1901021003723145,21.98368973826802,21.706487957906344,88.16906934567284,78.6953212087215,0.0,0.0987826660275459,0,0,0
7273,264134.85766113683,2010-12-02 11:56:23,5.015145110717825,6,24,0.0010644125286489,4.189939975738525,21.98369060191972,21.706487957906344,88.16907296445933,78.6953212087215,-3.24249267578125e-05,0.0987826660275459,0,0,0
7274,264164.8660048844,2010-12-02 11:56:53,30.01680576164533,7,24,-1.0993878841400146,4.000857353210449,21.98369060191972,21.71565636594861,88.16907296445933,78.7322117197967,-0.0009389877086505,0.0987826660275459,0,0,0
7275,264194.87924652686,2010-12-02 11:57:23,60.030047313892645,7,24,-1.0993878841400146,3.9715561866760254,21.98369060191972,21.72482373177161,88.16907296445933,78.7687444946242,-0.0006475448608398,0.0987826660275459,0,0,0
7276,264224.8963500645,2010-12-02 11:57:53,90.04715094176662,7,24,-1.0997490882873535,3.9511585235595694,21.98369060191972,21.733992217778653,88.16907296445933,78.80505995908304,-0.0004856586456298,0.0987826660275459,0,0,0
7277,264254.9092842168,2010-12-02 11:58:23,120.06008500884894,7,24,-1.0993878841400146,3.935617446899414,21.98369060191972,21.74315946817377,88.16907296445933,78.84120700002369,-0.0003561496851034,0.0987826660275459,0,0,0
7278,264284.92429833004,2010-12-02 11:58:53,150.07509911703357,7,24,-1.0993878841400146,3.9221808910369873,21.98369060191972,21.752327378215348,88.16907296445933,78.87722487082492,-0.0003237724304199,0.0987826660275459,0,0,0
7279,264314.94104545075,2010-12-02 11:59:23,180.0918463279777,7,24,-1.0993878841400146,3.9103634357452393,21.98369060191972,21.76149575207257,88.16907296445933,78.91313044491251,-0.0003237724304199,0.0987826660275459,0,0,0
7280,264344.9543492829,2010-12-02 11:59:53,210.1051500749943,7,24,-1.099568486213684,3.899355173110962,21.98369060191972,21.770663121618167,88.16907296445933,78.94892781333553,-0.0002913951757363,0.0987826660275459,0,0,0
7281,264374.9714206004,2010-12-02 12:00:23,240.12222147767716,7,24,-1.099568486213684,3.8891563415527344,21.98369060191972,21.77983161632636,88.16907296445933,78.98463149546065,-0.0002590179501567,0.0987826660275459,0,0,0
7282,264404.9845021445,2010-12-02 12:00:53,270.1353029415507,7,24,-1.099568486213684,3.879119396209717,21.98369060191972,21.78899897795804,88.16907296445933,79.0202379790796,-0.0002590179501567,0.0987826660275459,0,0,0
7283,264434.99953472865,2010-12-02 12:01:23,300.1503355156871,7,24,-1.0997490882873535,3.869568109512329,21.98369060191972,21.79816687577769,88.16907296445933,79.055757797696,-0.0002590179501567,0.0987826660275459,0,0,0
7284,264465.0144183772,2010-12-02 12:01:53,330.1652191642279,7,24,-1.099568486213684,3.8605024814605713,21.98369060191972,21.807334796171684,88.16907296445933,79.09119190252012,-0.0002266406954731,0.0987826660275459,0,0,0
7285,264495.0294369264,2010-12-02 12:02:23,360.1802377134639,7,24,-1.099568486213684,3.851598739624024,21.98369060191972,21.816502765444117,88.16907296445933,79.12654297680135,-0.0002590179501567,0.0987826660275459,0,0,0
7286,264525.04449098906,2010-12-02 12:02:53,390.195291781086,7,24,-1.099568486213684,3.842694997787476,21.98369060191972,21.8256707398908,88.16907296445933,79.16181350482285,-0.0002266406954731,0.0987826660275459,0,0,0
7287,264555.05962760706,2010-12-02 12:03:23,420.2104283991317,7,24,-1.099568486213684,3.8342769145965576,21.98369060191972,21.834838766339686,88.16907296445933,79.19700523249003,-0.0002266406954731,0.0987826660275459,0,0,0
7288,264585.0745264284,2010-12-02 12:03:53,450.2253272404792,7,24,-1.099568486213684,3.8258590698242183,21.98369060191972,21.84400667398414,88.16907296445933,79.23211912867578,-0.0002590179501567,0.0987826660275459,0,0,0
7289,264615.0895269979,2010-12-02 12:04:23,480.2403277899234,7,24,-1.0997490882873535,3.81792664527893,21.98369060191972,21.853174642584623,88.16907296445933,79.26715776755705,-0.0001942634553415,0.0987826660275459,0,0,0
7290,264645.1045611309,2010-12-02 12:04:53,510.2553619179265,7,24,-1.0993878841400146,3.809670448303223,21.98369060191972,21.86234254754948,88.16907296445933,79.3021223446453,-0.0002266406954731,0.0987826660275459,0,0,0
7291,264675.11958856223,2010-12-02 12:05:23,540.2703893542778,7,24,-1.099568486213684,3.8015761375427246,21.98369060191972,21.87151046126437,88.16907296445933,79.3370123152081,-0.0001942634553415,0.0987826660275459,0,0,0
7292,264705.13460085087,2010-12-02 12:05:53,570.2854016379221,7,24,-1.099568486213684,3.793967485427856,21.98369060191972,21.880678309802,88.16907296445933,79.3718301336133,-0.0002590179501567,0.0987826660275459,0,0,0
7293,264735.1496442319,2010-12-02 12:06:23,600.3004450490258,7,24,-1.099568486213684,3.786682605743408,21.98369060191972,21.889846158797155,88.16907296445933,79.40657911252885,-0.0001942634553415,0.0987826660275459,0,0,0
7294,264765.1646483803,2010-12-02 12:06:54,630.3154492325132,7,24,-1.099568486213684,3.77939772605896,21.98369060191972,21.89901403548317,88.16907296445933,79.44126108917057,-0.0001942634553415,0.0987826660275459,0,0,0
7295,264795.1659253893,2010-12-02 12:07:24,660.3167262815545,7,24,-1.099568486213684,3.772112846374512,21.98369060191972,21.908177727607608,88.16907296445933,79.47586076315037,-0.0001942634553415,0.0987826660275459,0,0,0
7296,264825.1792055125,2010-12-02 12:07:54,690.3300063095472,7,24,-1.099568486213684,3.7651517391204834,21.98369060191972,21.91734507224397,88.16907296445933,79.51040930821527,-0.0001618862152099,0.0987826660275459,0,0,0
7297,264855.1942282622,2010-12-02 12:08:24,720.3450290592358,7,24,-1.099568486213684,3.758352518081665,21.98369060191972,21.926512955506308,88.16907296445933,79.54489629522958,-0.0001942634553415,0.0987826660275459,0,0,0
7298,264885.2091014497,2010-12-02 12:08:54,750.3599022417324,7,24,-1.0997490882873535,3.751553535461426,21.98369060191972,21.9356808804684,88.16907296445933,79.57932136036277,-0.0001618862152099,0.0987826660275459,0,0,0
7299,264915.22426426795,2010-12-02 12:09:24,780.3750650549637,7,24,-1.099568486213684,3.7450780868530273,21.98369060191972,21.944848841382488,88.16907296445933,79.61368521347349,-0.0001618862152099,0.0987826660275459,0,0,0
7300,264945.2395065188,2010-12-02 12:09:54,810.3903073960972,7,24,-1.099568486213684,3.738602638244629,21.98369060191972,21.954016854583063,88.16907296445933,79.64798942137824,-0.0001295089750783,0.0987826660275459,0,0,0
7301,264975.2542167258,2010-12-02 12:10:24,840.4050175328606,7,24,-1.0997490882873535,3.7321271896362314,21.98369060191972,21.96318473399596,88.16907296445933,79.68223416898486,-0.0001618862152099,0.0987826660275459,0,0,0
7302,265005.2691946339,2010-12-02 12:10:54,870.4199954209128,7,24,-1.099568486213684,3.725975513458252,21.98369060191972,21.97235255192872,88.16907296445933,79.71642104311351,-0.0001618862152099,0.0987826660275459,0,0,0
7303,265035.28421311296,2010-12-02 12:11:24,900.4350139049867,7,24,-1.099568486213684,3.719661951065064,21.98369060191972,21.98152045010179,88.16907296445933,79.75055136068211,-0.0001618862152099,0.0987826660275459,0,0,0
7304,265065.2992475467,2010-12-02 12:11:54,930.4500483387508,7,24,-1.0993878841400146,3.713672161102295,21.98369060191972,21.99068828811524,88.16907296445933,79.78462507374803,-0.0001618862152099,0.0987826660275459,0,0,0
7305,265095.3142666072,2010-12-02 12:12:24,960.4650673942466,7,24,-1.0993878841400146,3.7076823711395264,21.98369060191972,21.999856237537195,88.16907296445933,79.81864390619695,-0.0001295089750783,0.0987826660275459,0,0,0
7306,265125.3293221535,2010-12-02 12:12:54,990.4801230057102,7,24,-1.0993878841400146,3.701854467391968,21.98369060191972,22.00902417586964,88.16907296445933,79.85260810259425,-0.0001618862152099,0.0987826660275459,0,0,0
7307,265155.34435199085,2010-12-02 12:13:24,1020.4951528430364,7,24,-1.099568486213684,3.696026563644409,21.98369060191972,22.01819213298313,88.16907296445933,79.88651929997403,-0.0001295089750783,0.0987826660275459,0,0,0
7308,265185.3593417434,2010-12-02 12:13:54,1050.5101425304508,7,24,-1.099568486213684,3.690360546112061,21.98369060191972,22.02736009773248,88.16907296445933,79.92037792017342,-0.0001295089750783,0.0987826660275459,0,0,0
7309,265215.3743589844,2010-12-02 12:14:24,1080.5251597714312,7,24,-1.0997490882873535,3.684694528579712,21.98369060191972,22.03652799212785,88.16907296445933,79.95418435587281,-0.0001618862152099,0.0987826660275459,0,0,0
7310,265245.38936696737,2010-12-02 12:14:54,1110.5401677543732,7,24,-1.0997490882873535,3.679190397262573,21.98369060191972,22.045695965138837,88.16907296445933,79.98794006030353,-0.0001295089750783,0.0987826660275459,0,0,0
7311,265275.4043910403,2010-12-02 12:15:24,1140.5551918323677,7,24,-1.0997490882873535,3.673848152160645,21.98369060191972,22.05486387327461,88.16907296445933,80.02164586783826,-0.0001618862152099,0.0987826660275459,0,0,0
7312,265305.4194425465,2010-12-02 12:15:54,1170.5702433386157,7,24,-1.0997490882873535,3.668182373046875,21.98369060191972,22.064031802991035,88.16907296445933,80.05530169092545,-0.0001618862152099,0.0987826660275459,0,0,0
7313,265335.43443004857,2010-12-02 12:16:24,1200.5852308355793,7,24,-1.099568486213684,3.663002014160156,21.98369060191972,22.07319968980515,88.16907296445933,80.088908319306,-0.0001295089750783,0.0987826660275459,0,0,0
7314,265365.4494751739,2010-12-02 12:16:54,1230.6002759609487,7,24,-1.0997490882873535,3.657659769058228,21.98369060191972,22.08236769542968,88.16907296445933,80.12246665032933,-0.0001618862152099,0.0987826660275459,0,0,0
7315,265395.4662917124,2010-12-02 12:17:24,1260.6170925896365,7,24,-1.0997490882873535,3.652479410171509,21.98369060191972,22.09153621223738,88.16907296445933,80.15597951727575,-0.0001618862152099,0.0987826660275459,0,0,0
7316,265425.4795099717,2010-12-02 12:17:54,1290.6303107637082,7,24,-1.0997490882873535,3.6474609375,21.98369060191972,22.10070353858553,88.16907296445933,80.1894411248543,-0.0001295089750783,0.0987826660275459,0,0,0
7317,265455.4945161401,2010-12-02 12:18:24,1320.6453169321353,7,24,-1.0993878841400146,3.642604351043701,21.98369060191972,22.109871365311005,88.16907296445933,80.22285786154336,-0.0001295089750783,0.0987826660275459,0,0,0
7318,265485.50954166165,2010-12-02 12:18:54,1350.660342448709,7,24,-1.099568486213684,3.637585878372192,21.98369060191972,22.11903928037015,88.16907296445933,80.25622929805066,-0.0001295089750783,0.0987826660275459,0,0,0
7319,265515.5247514518,2010-12-02 12:19:24,1380.6755522989902,7,24,-1.099568486213684,3.6327292919158936,21.98369060191972,22.12820727350701,88.16907296445933,80.2895557950904,-0.0001295089750783,0.0987826660275459,0,0,0
7320,265545.5395918828,2010-12-02 12:19:54,1410.690392669836,7,24,-1.0997490882873535,3.6278727054595943,21.98369060191972,22.13737517501167,88.16907296445933,80.32283782638739,-0.0001295089750783,0.0987826660275459,0,0,0
7321,265575.5546203317,2010-12-02 12:20:24,1440.7054211237194,7,24,-1.099568486213684,3.623178005218506,21.98369060191972,22.14654300767821,88.16907296445933,80.3560759282716,-0.0001295089750783,0.0987826660275459,0,0,0
7322,265605.56962190865,2010-12-02 12:20:54,1470.7204226957083,7,24,-1.099568486213684,3.618645191192627,21.98369060191972,22.155710898936125,88.16907296445933,80.38927176932425,-0.0001295089750783,0.0987826660275459,0,0,0
7323,265635.5846478313,2010-12-02 12:21:24,1500.7354486182924,7,24,-1.0997490882873535,3.614112377166748,21.98369060191972,22.164878773768645,88.16907296445933,80.42242615118839,-0.0001295089750783,0.0987826660275459,0,0,0
7324,265665.5996728215,2010-12-02 12:21:54,1530.7504736085566,7,24,-1.099568486213684,3.609903335571289,21.98369060191972,22.1740466974378,88.16907296445933,80.45554086202546,-0.0001295089750783,0.0987826660275459,0,0,0
7325,265695.6146889698,2010-12-02 12:22:24,1560.765489756818,7,24,-1.099568486213684,3.60553240776062,21.98369060191972,22.183214591633064,88.16907296445933,80.4886160926444,-9.713172767078504e-05,0.0987826660275459,0,0,0
7326,265725.6297025065,2010-12-02 12:22:54,1590.780503318643,7,24,-1.0997490882873535,3.601323366165161,21.98369060191972,22.19238247341421,88.16907296445933,80.5216518344573,-0.0001295089750783,0.0987826660275459,0,0,0
7327,265755.6447218327,2010-12-02 12:23:24,1620.7955226247625,7,24,-1.099568486213684,3.597114324569702,21.98369060191972,22.20155041118179,88.16907296445933,80.554649607393,-0.0001295089750783,0.0987826660275459,0,0,0
7328,265785.6598969566,2010-12-02 12:23:54,1650.8106978037656,7,24,-1.099568486213684,3.593229055404663,21.98369060191972,22.21071837133177,88.16907296445933,80.58761035381734,-9.713172767078504e-05,0.0987826660275459,0,0,0
7329,265815.6747690915,2010-12-02 12:24:24,1680.825569883518,7,24,-1.099568486213684,3.589344024658203,21.98369060191972,22.21988627777194,88.16907296445933,80.6205346778279,-9.713172767078504e-05,0.0987826660275459,0,0,0
7330,265845.6898061618,2010-12-02 12:24:54,1710.8406069488303,7,24,-1.099568486213684,3.585458755493164,21.98369060191972,22.229054229311824,88.16907296445933,80.65342394927706,-0.0001295089750783,0.0987826660275459,0,0,0
7331,265875.7048120997,2010-12-02 12:25:24,1740.855612891696,7,24,-1.0997490882873535,3.581735372543335,21.98369060191972,22.23822220503616,88.16907296445933,80.6862791132032,-0.0001295089750783,0.0987826660275459,0,0,0
7332,265905.7203695449,2010-12-02 12:25:54,1770.8711704472282,7,24,-1.0997490882873535,3.578173875808716,21.98369060191972,22.247390348143373,88.16907296445933,80.71910125118309,-9.713172767078504e-05,0.0987826660275459,0,0,0
7333,265935.73486360896,2010-12-02 12:26:24,1800.8856644010289,7,24,-1.0997490882873535,3.5746123790740967,21.98369060191972,22.256558140989497,88.16907296445933,80.751889577333,-9.713172767078504e-05,0.0987826660275459,0,0,0
7334,265965.74987757683,2010-12-02 12:26:54,1830.9006783638515,7,24,-1.099568486213684,3.5712127685546875,21.98369060191972,22.26572602264512,88.16907296445933,80.78464620410426,-0.0001295089750783,0.0987826660275459,0,0,0
7335,265995.76668477705,2010-12-02 12:27:24,1860.9174856643265,7,24,-1.0997490882873535,3.5678131580352783,21.98369060191972,22.27489450522632,88.16907296445933,80.81737357693544,-9.713172767078504e-05,0.0987826660275459,0,0,0
7336,266025.7799411311,2010-12-02 12:27:54,1890.9307419181573,7,24,-1.099568486213684,3.564575433731079,21.98369060191972,22.28406194654372,88.16907296445933,80.8500661313995,-6.47544875391759e-05,0.0987826660275459,0,0,0
7337,266055.79489916976,2010-12-02 12:28:24,1920.945699956816,7,24,-1.0993878841400146,3.56149959564209,21.98369060191972,22.293229228717745,88.16907296445933,80.88272841876888,-6.47544875391759e-05,0.0987826660275459,0,0,0
7338,266085.80993214995,2010-12-02 12:28:54,1950.9607329419748,7,24,-1.099568486213684,3.55826187133789,21.98369060191972,22.30239648301872,88.16907296445933,80.91536221331897,-9.713172767078504e-05,0.0987826660275459,0,0,0
7339,266115.82493417803,2010-12-02 12:29:24,1980.9757349700983,7,24,-1.099568486213684,3.5550241470336914,21.98369060191972,22.311563761337865,88.16907296445933,80.94796693615149,-9.713172767078504e-05,0.0987826660275459,0,0,0
7340,266145.8399905815,2010-12-02 12:29:54,2010.9907913835584,7,24,-1.099568486213684,3.551948308944702,21.98369060191972,22.32073100798813,88.16907296445933,80.9805421828663,-6.47544875391759e-05,0.0987826660275459,0,0,0
7341,266175.8571840429,2010-12-02 12:30:24,2041.0079849201663,7,24,-1.099568486213684,3.548710584640503,21.98369060191972,22.329898956462017,88.16907296445933,81.01309062946545,-6.47544875391759e-05,0.0987826660275459,0,0,0
7342,266205.8701824551,2010-12-02 12:30:54,2071.0209832421447,7,24,-1.0993878841400146,3.5453109741210938,21.98369060191972,22.3390655683325,88.16907296445933,81.04560469875723,-9.713172767078504e-05,0.0987826660275459,0,0,0
7343,266235.8850696525,2010-12-02 12:31:24,2101.0358704395167,7,24,-1.099568486213684,3.5420732498168945,21.98369060191972,22.34823328329347,88.16907296445933,81.07809283474595,-9.713172767078504e-05,0.0987826660275459,0,0,0
7344,266265.9002166363,2010-12-02 12:31:54,2131.051017433382,7,24,-1.099568486213684,3.5389974117279053,21.98369060191972,22.357401145245664,88.16907296445933,81.11055181792011,-9.713172767078504e-05,0.0987826660275459,0,0,0
7345,266295.91516047466,2010-12-02 12:32:24,2161.0659612616782,7,24,-1.099568486213684,3.535597801208496,21.98369060191972,22.36656897546485,88.16907296445933,81.14298084951874,-6.47544875391759e-05,0.0987826660275459,0,0,0
7346,266325.91627884883,2010-12-02 12:32:54,2191.0670797561625,7,24,-1.099568486213684,3.532360076904297,21.98369060191972,22.37573258454563,88.16907296445933,81.1753645096745,-6.47544875391759e-05,0.0987826660275459,0,0,0
7347,266355.9296925194,2010-12-02 12:33:24,2221.0804934066696,7,24,-1.0997490882873535,3.5287985801696777,21.98369060191972,22.384899910651875,88.16907296445933,81.20773076553398,-0.0001295089750783,0.0987826660275459,0,0,0
7348,266385.9445942229,2010-12-02 12:33:54,2251.0953951001143,7,24,-1.0993878841400146,3.5255608558654785,21.98369060191972,22.394067771914912,88.16907296445933,81.24006815137984,-9.713172767078504e-05,0.0987826660275459,0,0,0
7349,266415.9596277093,2010-12-02 12:34:24,2281.1104286015584,7,24,-1.099568486213684,3.52199935913086,21.98369060191972,22.403235688301976,88.16907296445933,81.2723740575711,-9.713172767078504e-05,0.0987826660275459,0,0,0
7350,266445.9746461833,2010-12-02 12:34:54,2311.125446975358,7,24,-1.0993878841400146,3.51859974861145,21.98369060191972,22.41240351387979,88.16907296445933,81.30464744279334,-9.713172767078504e-05,0.0987826660275459,0,0,0
7351,266475.98973494227,2010-12-02 12:35:24,2341.1405358245324,7,24,-1.099568486213684,3.515038251876831,21.98369060191972,22.421571453945305,88.16907296445933,81.33688825395785,-6.47544875391759e-05,0.0987826660275459,0,0,0
7352,266506.0051358229,2010-12-02 12:35:54,2371.155936690148,7,24,-1.0997490882873535,3.511153221130371,21.98369060191972,22.430739536207,88.16907296445933,81.36909625924645,-9.713172767078504e-05,0.0987826660275459,0,0,0
7353,266536.0067805469,2010-12-02 12:36:24,2401.1575814442094,7,24,-1.099568486213684,3.507267951965332,21.98369060191972,22.439903432319845,88.16907296445933,81.4012545654112,-9.713172767078504e-05,0.0987826660275459,0,0,0
7354,266566.0191591718,2010-12-02 12:36:54,2431.1699599888952,7,24,-1.099568486213684,3.503382682800293,21.98369060191972,22.44907053799829,88.16907296445933,81.4333882334848,-9.713172767078504e-05,0.0987826660275459,0,0,0
7355,266596.034100554,2010-12-02 12:37:24,2461.184901366092,7,24,-1.0997490882873535,3.499173641204834,21.98369060191972,22.45823842623702,88.16907296445933,81.46548694754934,-9.713172767078504e-05,0.0987826660275459,0,0,0
7356,266626.04914225085,2010-12-02 12:37:54,2491.1999431481418,7,24,-1.099568486213684,3.494640827178955,21.98369060191972,22.46740628191938,88.16907296445933,81.49754587599499,-0.0001295089750783,0.0987826660275459,0,0,0
7357,266656.0641866845,2010-12-02 12:38:24,2521.21498756174,7,24,-1.0993878841400146,3.489946126937866,21.98369060191972,22.476574182583136,88.16907296445933,81.529562878491,-0.0001295089750783,0.0987826660275459,0,0,0
7358,266686.079176417,2010-12-02 12:38:54,2551.229977229105,7,24,-1.0997490882873535,3.4849276542663574,21.98369060191972,22.4857420381697,88.16907296445933,81.56153480311836,-0.0001295089750783,0.0987826660275459,0,0,0
7359,266716.09416326234,2010-12-02 12:39:24,2581.2449640493846,7,24,-1.0993878841400146,3.4795854091644287,21.98369060191972,22.4949099054639,88.16907296445933,81.59345908852453,-9.713172767078504e-05,0.0987826660275459,0,0,0
7360,266746.10918325017,2010-12-02 12:39:54,2611.259984067275,7,24,-1.0997490882873535,3.47359561920166,21.98369060191972,22.504077731631373,88.16907296445933,81.6253321027528,-0.0001618862152099,0.0987826660275459,0,0,0
7361,266776.12422107736,2010-12-02 12:40:25,2641.2750218644087,7,24,-1.099568486213684,3.467282056808472,21.98369060191972,22.51324564494219,88.16907296445933,81.65714904434343,-0.0001618862152099,0.0987826660275459,0,0,0
7362,266806.1398661657,2010-12-02 12:40:55,2671.290667042988,7,24,-1.0993878841400146,3.4601590633392334,21.98369060191972,22.52241379678524,88.16907296445933,81.68890459522633,-0.0001618862152099,0.0987826660275459,0,0,0
7363,266836.1417376791,2010-12-02 12:41:25,2701.2925385563303,7,24,-1.099568486213684,3.4522266387939453,21.98369060191972,22.53157771219175,88.16907296445933,81.72057680178182,-0.0002266406954731,0.0987826660275459,0,0,0
7364,266866.15369675495,2010-12-02 12:41:55,2731.3044976321844,7,24,-1.099568486213684,3.442999124526977,21.98369060191972,22.5407446706628,88.16907296445933,81.75218242262457,-0.0002590179501567,0.0987826660275459,0,0,0
7365,266896.1686763272,2010-12-02 12:42:25,2761.319477119216,7,24,-1.099568486213684,3.43231463432312,21.98369060191972,22.54991257092781,88.16907296445933,81.7837000406571,-0.0003237724304199,0.0987826660275459,0,0,0
7366,266926.1838761024,2010-12-02 12:42:55,2791.3346769345253,7,24,-1.099568486213684,3.4195258617401123,21.98369060191972,22.55908054798446,88.16907296445933,81.81510992024197,-0.0003561496851034,0.0987826660275459,0,0,0
7367,266956.19872227265,2010-12-02 12:43:25,2821.349523064703,7,24,-1.099568486213684,3.403499126434326,21.98369060191972,22.56824838535956,88.16907296445933,81.84638885708354,-0.0005180359003134,0.0987826660275459,0,0,0
7368,266986.21373630065,2010-12-02 12:43:55,2851.364537097701,7,24,-1.099568486213684,3.383425235748291,21.98369060191972,22.57741625062397,88.16907296445933,81.87750393532144,-0.0006151676061563,0.0987826660275459,0,0,0
7369,267016.2288010749,2010-12-02 12:44:25,2881.379601967203,7,24,-1.0997490882873535,3.3573615550994877,21.98369060191972,22.58658418651501,88.16907296445933,81.90840902411212,-0.0007446765666827,0.0987826660275459,0,0,0
7370,267046.2438200903,2010-12-02 12:44:55,2911.3946209023998,7,24,-1.099568486213684,3.3230419158935547,21.98369060191972,22.595752109359697,88.16907296445933,81.93903892588328,-0.0010360718006268,0.0987826660275459,0,0,0
7371,267076.2589292049,2010-12-02 12:45:25,2941.4097299919417,7,24,-1.0997490882873535,3.276580572128296,21.98369060191972,22.604920003011905,88.16907296445933,81.96930225191855,-0.0013922214275225,0.0987826660275459,0,0,0
7372,267106.2738299209,2010-12-02 12:45:55,2971.4246307079534,7,24,-1.0997490882873535,3.2127976417541504,21.98369060191972,22.614087874771187,88.16907296445933,81.99906626905249,-0.0019426345825195,0.0987826660275459,0,0,0
7373,267136.2888727506,2010-12-02 12:46:25,3001.439673537611,7,24,-1.0993878841400146,3.1218178272247314,21.98369060191972,22.623255786042197,88.16907296445933,82.02813136357436,-0.0028491974808275,0.0987826660275459,0,0,0
7374,267166.3039875794,2010-12-02 12:46:55,3031.454788366435,7,24,-1.099568486213684,2.978872776031494,21.98369060191972,22.63242374102837,88.16907296445933,82.0561566776201,-0.0048242090269923,0.0987826660275459,0,0,0
7375,267189.8346272212,2010-12-02 12:47:18,3054.9854280081586,7,24,-1.0993878841400146,2.77878212928772,21.98369060191972,22.639611064112888,88.16907296445933,82.07691205052913,-0.0083532808348536,0.0987826660275459,0,0,0
7376,267196.9456541782,2010-12-02 12:47:25,3062.096455060477,7,24,-1.099568486213684,2.699943780899048,21.98369060191972,22.64178308931749,88.16907296445933,82.08286293486698,-0.0089684482663869,0.0987826660275459,0,0,0
7377,267256.96469755186,2010-12-02 12:48:25,60.01447505793262,8,24,0.0,3.3863391876220703,21.98369060191972,22.64178308931749,88.16907296445933,82.08286293486698,0.0012950897216796,0.0987826660275459,0,0,0
7378,267257.1439795294,2010-12-02 12:48:26,0.18741657393591,9,24,-1.9243103452026844e-05,3.3865010738372803,21.98369060191972,22.641783090319286,88.16907296445933,82.08286293825958,0.0,0.0963535830378532,0,0,0
7379,267261.9719794114,2010-12-02 12:48:31,5.015416455949999,9,24,0.0008838032954372,3.3944334983825684,21.983691244873476,22.64178309048648,88.16907514479023,82.08286293882577,0.0011332035064697,0.0963535830378532,0,0,0
