Data_Point,Test_Time(s),Date_Time,Step_Time(s),Step_Index,Cycle_Index,Current(A),Voltage(V),Charge_Capacity(Ah),Discharge_Capacity(Ah),Charge_Energy(Wh),Discharge_Energy(Wh),dV/dt(V/s),Internal_Resistance(Ohm),Is_FC_Data,AC_Impedance(Ohm),ACI_Phase_Angle(Deg)
5819,210834.57118354068,2010-12-01 21:07:57,30.015029701989185,1,20,0.0,3.431181669235229,17.287714876155306,17.945659273323447,69.34479981991399,65.05829820925547,0.0007446765666827,0.0971632748842239,0,0,0
5820,210864.5863084696,2010-12-01 21:08:27,60.03015463595949,1,20,0.0,3.454007387161255,17.287714876155306,17.945659273323447,69.34479981991399,65.05829820925547,0.0004856586456298,0.0971632748842239,0,0,0
5821,210894.6012186542,2010-12-01 21:08:57,90.04506482053417,1,20,0.0,3.4714910984039307,17.287714876155306,17.945659273323447,69.34479981991399,65.05829820925547,0.0003885269106831,0.0971632748842239,0,0,0
5822,210924.56935131468,2010-12-01 21:09:27,120.01319748103936,1,20,0.0,3.4852514266967773,17.287714876155306,17.945659273323447,69.34479981991399,65.05829820925547,0.0003561496851034,0.0971632748842239,0,0,0
5823,210954.58739588165,2010-12-01 21:09:57,30.01677334096772,2,20,0.5499359965324402,3.6416330337524414,17.29230161384443,17.945659273323447,69.3613551675567,65.05829820925547,0.0014245987404137,0.0971632748842239,0,0,0
5824,210984.60066690724,2010-12-01 21:10:27,60.03004434149595,2,20,0.5501165986061096,3.683399438858032,17.296887775313596,17.945659273323447,69.37815823306147,65.05829820925547,0.0009389400365762,0.0971632748842239,0,0,0
5825,211014.6156850254,2010-12-01 21:10:57,90.04506237945967,2,20,0.5501165986061096,3.713672161102295,17.3014742150031,17.945659273323447,69.39512487922912,65.05829820925547,0.0007122993702068,0.0971632748842239,0,0,0
5826,211044.63069820628,2010-12-01 21:11:27,120.0600755553242,2,20,0.5501165986061096,3.7371456623077393,17.306060536190564,17.945659273323447,69.41221302469324,65.05829820925547,0.0005504131549969,0.0971632748842239,0,0,0
5827,211074.6457220337,2010-12-01 21:11:57,150.07509937768214,2,20,0.5501165986061096,3.755924224853516,17.31064688331898,17.945659273323447,69.42939775880473,65.05829820925547,0.0004209041653666,0.0971632748842239,0,0,0
5828,211104.6612429881,2010-12-01 21:12:27,180.09062034215916,2,20,0.5499359965324402,3.769846439361572,17.315233315441457,17.945659273323447,69.44665788113844,65.05829820925547,0.0002913951757363,0.0971632748842239,0,0,0
5829,211134.67576576365,2010-12-01 21:12:57,210.10514311266883,2,20,0.5501165986061096,3.77907395362854,17.3198196209712,17.945659273323447,69.4639700062261,65.05829820925547,0.0002266406954731,0.0971632748842239,0,0,0
5830,211164.69075919536,2010-12-01 21:13:27,240.12013654941336,2,20,0.5501165986061096,3.784901857376098,17.324405984099137,17.945659273323447,69.48131639393897,65.05829820925547,9.713172767078504e-05,0.0971632748842239,0,0,0
5831,211194.7059051316,2010-12-01 21:13:57,270.13528247562203,2,20,0.5499359965324402,3.7897584438323975,17.328992329708225,17.945659273323447,69.49868734447634,65.05829820925547,9.713172767078504e-05,0.0971632748842239,0,0,0
5832,211224.7212984284,2010-12-01 21:14:27,300.1506758526025,2,20,0.5501165986061096,3.7944531440734863,17.333578830331184,17.945659273323447,69.51608020078656,65.05829820925547,0.0001295089750783,0.0971632748842239,0,0,0
5833,211254.73597208937,2010-12-01 21:14:57,330.1653494333977,2,20,0.550297200679779,3.798662185668945,17.338165183165543,17.945659273323447,69.53349234973362,65.05829820925547,9.713172767078504e-05,0.0971632748842239,0,0,0
5834,211284.750877868,2010-12-01 21:15:27,360.18025604407893,2,20,0.550297200679779,3.8027093410491934,17.342751578017094,17.945659273323447,69.5509236525235,65.05829820925547,0.0001295089750783,0.0971632748842239,0,0,0
5835,211314.76600516785,2010-12-01 21:15:57,390.19538251687857,2,20,0.5497553944587708,3.8065946102142334,17.347337982131958,17.945659273323447,69.56837324568495,65.05829820925547,9.713172767078504e-05,0.0971632748842239,0,0,0
5836,211344.78094690596,2010-12-01 21:16:27,420.21032427502286,2,20,0.5501165986061096,3.810479879379273,17.35192436884519,17.945659273323447,69.58584055108008,65.05829820925547,0.0001295089750783,0.0971632748842239,0,0,0
5837,211374.796013204,2010-12-01 21:16:57,450.2253906131797,2,20,0.5501165986061096,3.8142032623291016,17.35651083874511,17.945659273323447,69.60332552274379,65.05829820925547,9.713172767078504e-05,0.0971632748842239,0,0,0
5838,211404.8109486013,2010-12-01 21:17:27,480.24032595034566,2,20,0.5499359965324402,3.8177647590637207,17.361097331144745,17.945659273323447,69.62082759288862,65.05829820925547,6.47544875391759e-05,0.0971632748842239,0,0,0
5839,211434.8259704588,2010-12-01 21:17:57,510.2553478028016,2,20,0.5501165986061096,3.82148814201355,17.365683743593806,17.945659273323447,69.63834578841232,65.05829820925547,0.0001295089750783,0.0971632748842239,0,0,0
5840,211464.84113924188,2010-12-01 21:18:27,540.2705165858887,2,20,0.550297200679779,3.824887752532959,17.370270122381417,17.945659273323447,69.65587992051202,65.05829820925547,6.47544875391759e-05,0.0971632748842239,0,0,0
5841,211494.85811431985,2010-12-01 21:18:57,570.2874917691331,2,20,0.5501165986061096,3.828287363052368,17.374856821212564,17.945659273323447,69.67343126464979,65.05829820925547,6.47544875391759e-05,0.0971632748842239,0,0,0
5842,211524.87115191453,2010-12-01 21:19:27,600.3005292686031,2,20,0.5499359965324402,3.831686973571777,17.37944287862221,17.945659273323447,69.69099605846115,65.05829820925547,9.713172767078504e-05,0.0971632748842239,0,0,0
5843,211554.88778457043,2010-12-01 21:19:57,630.3171620347557,2,20,0.5501165986061096,3.835086345672608,17.384029520313046,17.945659273323447,69.70857895413731,65.05829820925547,6.47544875391759e-05,0.0971632748842239,0,0,0
5844,211584.9029353788,2010-12-01 21:20:27,660.3323128080261,2,20,0.5499359965324402,3.8386478424072266,17.38861592356465,17.945659273323447,69.72617694456999,65.05829820925547,9.713172767078504e-05,0.0971632748842239,0,0,0
5845,211614.91610646067,2010-12-01 21:20:57,690.3454839099606,2,20,0.550297200679779,3.842371225357056,17.39320205398631,17.945659273323447,69.74379010885175,65.05829820925547,0.0001295089750783,0.0971632748842239,0,0,0
5846,211644.93336558552,2010-12-01 21:21:27,720.3627430448076,2,20,0.5499359965324402,3.845770835876465,17.397788828207467,17.945659273323447,69.76142206478757,65.05829820925547,6.47544875391759e-05,0.0971632748842239,0,0,0
5847,211674.94615657156,2010-12-01 21:21:57,750.3755339205638,2,20,0.5501165986061096,3.849494218826294,17.402374850639433,17.945659273323447,69.77906768853586,65.05829820925547,9.713172767078504e-05,0.0971632748842239,0,0,0
5848,211704.961235897,2010-12-01 21:22:27,780.3906132460392,2,20,0.5501165986061096,3.853217601776123,17.406961295687715,17.945659273323447,69.79673154929564,65.05829820925547,9.713172767078504e-05,0.0971632748842239,0,0,0
5849,211734.9762114593,2010-12-01 21:22:57,810.4055888032912,2,20,0.5499359965324402,3.856617212295532,17.411547726763278,17.945659273323447,69.81441176193832,65.05829820925547,9.713172767078504e-05,0.0971632748842239,0,0,0
5850,211764.9913834503,2010-12-01 21:23:27,840.4207608895985,2,20,0.5501165986061096,3.860178709030152,17.416134177115435,17.945659273323447,69.83210847723485,65.05829820925547,6.47544875391759e-05,0.0971632748842239,0,0,0
5851,211795.0062735349,2010-12-01 21:23:57,870.4356508839304,2,20,0.550297200679779,3.8637402057647705,17.42072061025103,17.945659273323447,69.84982137504544,65.05829820925547,9.713172767078504e-05,0.0971632748842239,0,0,0
5852,211825.02130902128,2010-12-01 21:24:27,900.4506863653014,2,20,0.5501165986061096,3.8673017024993896,17.425307072515682,17.945659273323447,69.86755026650653,65.05829820925547,9.713172767078504e-05,0.0971632748842239,0,0,0
5853,211855.03634367057,2010-12-01 21:24:57,930.4657210296392,2,20,0.5501165986061096,3.870701313018799,17.429893508892803,17.945659273323447,69.88529479416277,65.05829820925547,0.0001295089750783,0.0971632748842239,0,0,0
5854,211885.0513520094,2010-12-01 21:25:27,960.4807293534294,2,20,0.5501165986061096,3.873939037322998,17.434480005887632,17.945659273323447,69.9030549895128,65.05829820925547,9.713172767078504e-05,0.0971632748842239,0,0,0
5855,211915.066399641,2010-12-01 21:25:57,990.4957769850358,2,20,0.550297200679779,3.877176761627197,17.439066449438585,17.945659273323447,69.92082981944856,65.05829820925547,9.713172767078504e-05,0.0971632748842239,0,0,0
5856,211945.0814327966,2010-12-01 21:26:27,1020.5108101406192,2,20,0.5501165986061096,3.8802525997161865,17.443652993074195,17.945659273323447,69.93861963081187,65.05829820925547,6.47544875391759e-05,0.0971632748842239,0,0,0
5857,211975.09646866392,2010-12-01 21:26:57,1050.5258460831376,2,20,0.5501165986061096,3.883166551589966,17.44823951327934,17.945659273323447,69.9564232643534,65.05829820925547,6.47544875391759e-05,0.0971632748842239,0,0,0
5858,212005.11148177463,2010-12-01 21:27:27,1080.540859123665,2,20,0.5501165986061096,3.886080503463745,17.45282603100249,17.945659273323447,69.97424021234072,65.05829820925547,6.47544875391759e-05,0.0971632748842239,0,0,0
5859,212035.12646958235,2010-12-01 21:27:58,1110.555846936415,2,20,0.5501165986061096,3.8888325691223145,17.457412516735058,17.945659273323447,69.99206975563871,65.05829820925547,9.713172767078504e-05,0.0971632748842239,0,0,0
5860,212065.14164936784,2010-12-01 21:28:28,1140.5710267268937,2,20,0.5501165986061096,3.891422748565674,17.461999038799366,17.945659273323447,70.0099114857276,65.05829820925547,9.713172767078504e-05,0.0971632748842239,0,0,0
5861,212095.15658859967,2010-12-01 21:28:58,1170.5859659487262,2,20,0.5499359965324402,3.8935272693634033,17.466585534514724,17.945659273323447,70.02776438467096,65.05829820925547,6.47544875391759e-05,0.0971632748842239,0,0,0
5862,212125.17160186576,2010-12-01 21:29:28,1200.600979219828,2,20,0.5501165986061096,3.895793676376343,17.471172049659305,17.945659273323447,70.04562764019006,65.05829820925547,6.47544875391759e-05,0.0971632748842239,0,0,0
5863,212155.1885878108,2010-12-01 21:29:58,1230.617965285152,2,20,0.5501165986061096,3.897898197174072,17.475758802681646,17.945659273323447,70.06350163439262,65.05829820925547,3.237724376958795e-05,0.0971632748842239,0,0,0
5864,212185.20192792336,2010-12-01 21:30:28,1260.6313052873882,2,20,0.550297200679779,3.899840831756592,17.48034501424965,17.945659273323447,70.08138284696011,65.05829820925547,6.47544875391759e-05,0.0971632748842239,0,0,0
5865,212215.21682802783,2010-12-01 21:30:58,1290.6462053718292,2,20,0.5499359965324402,3.901621580123901,17.484931459063084,17.945659273323447,70.09927360332496,65.05829820925547,3.237724376958795e-05,0.0971632748842239,0,0,0
5866,212245.23173759083,2010-12-01 21:31:28,1320.661114934857,2,20,0.5499359965324402,3.903402328491211,17.48951796192753,17.945659273323447,70.11717289681394,65.05829820925547,0.0,0.0971632748842239,0,0,0
5867,212275.2467762551,2010-12-01 21:31:58,1350.6761536041613,2,20,0.5501165986061096,3.905183076858521,17.494104434712856,17.945659273323447,70.13507990716379,65.05829820925547,6.47544875391759e-05,0.0971632748842239,0,0,0
5868,212305.26181256355,2010-12-01 21:32:28,1380.6911899075776,2,20,0.5501165986061096,3.90664005279541,17.49869091985072,17.945659273323447,70.15299438694771,65.05829820925547,3.237724376958795e-05,0.0971632748842239,0,0,0
5869,212335.2769522392,2010-12-01 21:32:58,1410.706329583232,2,20,0.5501165986061096,3.90842080116272,17.503277464648892,17.945659273323447,70.17091645299178,65.05829820925547,6.47544875391759e-05,0.0971632748842239,0,0,0
5870,212365.29186866933,2010-12-01 21:33:28,1440.7212460233734,2,20,0.5499359965324402,3.90987777709961,17.50786394553937,17.945659273323447,70.18884540251022,65.05829820925547,3.237724376958795e-05,0.0971632748842239,0,0,0
5871,212395.30689888253,2010-12-01 21:33:58,1470.7362762366347,2,20,0.550297200679779,3.911496639251709,17.512450478752783,17.945659273323447,70.20678148774144,65.05829820925547,9.713172767078504e-05,0.0971632748842239,0,0,0
5872,212425.32192091047,2010-12-01 21:34:28,1500.7512982545024,2,20,0.550297200679779,3.912953615188599,17.517036978879187,17.945659273323447,70.2247243695142,65.05829820925547,6.47544875391759e-05,0.0971632748842239,0,0,0
5873,212455.3369341565,2010-12-01 21:34:58,1530.7663115105663,2,20,0.5501165986061096,3.914410352706909,17.521623542234703,17.945659273323447,70.24267434980833,65.05829820925547,3.237724376958795e-05,0.0971632748842239,0,0,0
5874,212485.35212405212,2010-12-01 21:35:28,1560.7815014713535,2,20,0.5499359965324402,3.915705442428589,17.526210151546614,17.945659273323447,70.26063126835874,65.05829820925547,3.237724376958795e-05,0.0971632748842239,0,0,0
5875,212515.36705675276,2010-12-01 21:35:58,1590.7964341920083,2,20,0.5499359965324402,3.917324304580689,17.530796736404433,17.945659273323447,70.27859479628152,65.05829820925547,3.237724376958795e-05,0.0971632748842239,0,0,0
5876,212545.38217281963,2010-12-01 21:36:28,1620.8115501987638,2,20,0.5499359965324402,3.918781280517578,17.53538325528073,17.945659273323447,70.29656485289563,65.05829820925547,3.237724376958795e-05,0.0971632748842239,0,0,0
5877,212575.39706141048,2010-12-01 21:36:58,1650.826438754516,2,20,0.5501165986061096,3.920238256454468,17.539969696645,17.945659273323447,70.3145414689739,65.05829820925547,3.237724376958795e-05,0.0971632748842239,0,0,0
5878,212605.4121088817,2010-12-01 21:37:28,1680.8414862257232,2,20,0.5499359965324402,3.921695232391357,17.544556234088574,17.945659273323447,70.33252525555974,65.05829820925547,3.237724376958795e-05,0.0971632748842239,0,0,0
5879,212635.42712554624,2010-12-01 21:37:58,1710.8565028902692,2,20,0.5501165986061096,3.923152208328247,17.54914267070652,17.945659273323447,70.35051548771266,65.05829820925547,0.0,0.0971632748842239,0,0,0
5880,212665.4421728721,2010-12-01 21:38:28,1740.8715502161149,2,20,0.5501165986061096,3.9247710704803462,17.55372911708129,17.945659273323447,70.36851267523268,65.05829820925547,3.237724376958795e-05,0.0971632748842239,0,0,0
5881,212695.4572163183,2010-12-01 21:38:58,1770.8865936673185,2,20,0.550297200679779,3.926228046417236,17.558315668455762,17.945659273323447,70.38651717870408,65.05829820925547,3.237724376958795e-05,0.0971632748842239,0,0,0
5882,212725.4722212687,2010-12-01 21:39:28,1800.9015986127015,2,20,0.5501165986061096,3.927846908569336,17.562902139970745,17.945659273323447,70.40452827716294,65.05829820925547,6.47544875391759e-05,0.0971632748842239,0,0,0
5883,212755.4891710136,2010-12-01 21:39:58,1830.9185484578936,2,20,0.550297200679779,3.9293038845062256,17.567488880580925,17.945659273323447,70.42254730582013,65.05829820925547,3.237724376958795e-05,0.0971632748842239,0,0,0
5884,212785.502310141,2010-12-01 21:40:28,1860.9316874850108,2,20,0.550297200679779,3.930922746658325,17.572075085257858,17.945659273323447,70.44057122437269,65.05829820925547,6.47544875391759e-05,0.0971632748842239,0,0,0
5885,212815.51734199337,2010-12-01 21:40:58,1890.946719347376,2,20,0.5499359965324402,3.932217836380005,17.57666156766822,17.945659273323447,70.45860312750787,65.05829820925547,0.0,0.0971632748842239,0,0,0
5886,212845.5324785512,2010-12-01 21:41:28,1920.961855905272,2,20,0.550297200679779,3.9339985847473145,17.581248078853847,17.945659273323447,70.47664217514915,65.05829820925547,6.47544875391759e-05,0.0971632748842239,0,0,0
5887,212875.5474139786,2010-12-01 21:41:58,1950.976791412862,2,20,0.5501165986061096,3.935455560684204,17.58583462093485,17.945659273323447,70.49468839052543,65.05829820925547,6.47544875391759e-05,0.0971632748842239,0,0,0
5888,212905.5623565137,2010-12-01 21:42:28,1980.99173388779,2,20,0.5501165986061096,3.9369125366210938,17.590421143304688,17.945659273323447,70.51274143461434,65.05829820925547,6.47544875391759e-05,0.0971632748842239,0,0,0
5889,212935.57744785407,2010-12-01 21:42:58,2011.0068252231515,2,20,0.550297200679779,3.938531398773194,17.59500761693211,17.945659273323447,70.53080142031061,65.05829820925547,9.713172767078504e-05,0.0971632748842239,0,0,0
5890,212965.59248072896,2010-12-01 21:43:28,2041.0218580829987,2,20,0.5499359965324402,3.939826488494873,17.59959411737399,17.945659273323447,70.54886864321772,65.05829820925547,3.237724376958795e-05,0.0971632748842239,0,0,0
5891,212995.6075163757,2010-12-01 21:43:58,2071.0368937197563,2,20,0.5499359965324402,3.9414453506469727,17.604180610436682,17.945659273323447,70.56694299739034,65.05829820925547,3.237724376958795e-05,0.0971632748842239,0,0,0
5892,213025.6226223425,2010-12-01 21:44:28,2101.05199977174,2,20,0.5499359965324402,3.943064212799072,17.608767157209353,17.945659273323447,70.58502466099041,65.05829820925547,6.47544875391759e-05,0.0971632748842239,0,0,0
5893,213055.6375865816,2010-12-01 21:44:58,2131.066963925615,2,20,0.5501165986061096,3.944683074951172,17.613353672078844,17.945659273323447,70.60311346929639,65.05829820925547,3.237724376958795e-05,0.0971632748842239,0,0,0
5894,213085.65262692503,2010-12-01 21:45:28,2161.082004269085,2,20,0.5501165986061096,3.9464638233184814,17.61794026643305,17.945659273323447,70.62120986300236,65.05829820925547,9.713172767078504e-05,0.0971632748842239,0,0,0
5895,213115.6676557248,2010-12-01 21:45:58,2191.0970330688288,2,20,0.5501165986061096,3.947920799255371,17.62252681252395,17.945659273323447,70.63931322566405,65.05829820925547,3.237724376958795e-05,0.0971632748842239,0,0,0
5896,213145.68317686472,2010-12-01 21:46:28,2221.1125542739046,2,20,0.5501165986061096,3.9493777751922607,17.62711341454475,17.945659273323447,70.65742413617028,65.05829820925547,0.0,0.0971632748842239,0,0,0
5897,213175.6977327376,2010-12-01 21:46:58,2251.1271101467883,2,20,0.5501165986061096,3.95099663734436,17.631699907687192,17.945659273323447,70.6755419551109,65.05829820925547,0.0,0.0971632748842239,0,0,0
5898,213205.7127586602,2010-12-01 21:47:28,2281.1421360042104,2,20,0.5499359965324402,3.95261549949646,17.63628650562567,17.945659273323447,70.6936675397811,65.05829820925547,3.237724376958795e-05,0.0971632748842239,0,0,0
5899,213235.7278483164,2010-12-01 21:47:58,2311.157225670418,2,20,0.5501165986061096,3.95423436164856,17.640873019871666,17.945659273323447,70.71180014973866,65.05829820925547,3.237724376958795e-05,0.0971632748842239,0,0,0
5900,213265.7428385401,2010-12-01 21:48:28,2341.1722158841426,2,20,0.5501165986061096,3.955853223800659,17.64545953944119,17.945659273323447,70.72994017207509,65.05829820925547,3.237724376958795e-05,0.0971632748842239,0,0,0
5901,213295.75788077328,2010-12-01 21:48:58,2371.1872581173147,2,20,0.5501165986061096,3.9576339721679688,17.650046201916457,17.945659273323447,70.74808815092157,65.05829820925547,9.713172767078504e-05,0.0971632748842239,0,0,0
5902,213325.77289237024,2010-12-01 21:49:28,2401.20226971425,2,20,0.5501165986061096,3.9590909481048575,17.654632682543667,17.945659273323447,70.76624286790788,65.05829820925547,3.237724376958795e-05,0.0971632748842239,0,0,0
5903,213355.78805513337,2010-12-01 21:49:58,2431.2174324773573,2,20,0.5499359965324402,3.960709810256958,17.65921918556862,17.945659273323447,70.7844051523981,65.05829820925547,3.237724376958795e-05,0.0971632748842239,0,0,0
5904,213385.78924324104,2010-12-01 21:50:28,2461.2186206953456,2,20,0.5499359965324402,3.962166786193848,17.663803664030866,17.945659273323447,70.8025670341062,65.05829820925547,0.0,0.0971632748842239,0,0,0
5905,213415.8023945136,2010-12-01 21:50:58,2491.231771857661,2,20,0.5499359965324402,3.964109420776367,17.668389933040853,17.945659273323447,70.82074354631156,65.05829820925547,6.47544875391759e-05,0.0971632748842239,0,0,0
5906,213445.8196900741,2010-12-01 21:51:28,2521.2490675184013,2,20,0.5501165986061096,3.965728282928467,17.67297688388894,17.945659273323447,70.83893039493789,65.05829820925547,6.47544875391759e-05,0.0971632748842239,0,0,0
5907,213475.83244648916,2010-12-01 21:51:58,2551.2618238381665,2,20,0.5501165986061096,3.9673471450805664,17.67756307418087,17.945659273323447,70.8571218571294,65.05829820925547,0.0,0.0971632748842239,0,0,0
5908,213505.84760909184,2010-12-01 21:52:28,2581.2769864458865,2,20,0.5499359965324402,3.969127893447876,17.682149647403428,17.945659273323447,70.87532239633565,65.05829820925547,3.237724376958795e-05,0.0971632748842239,0,0,0
5909,213535.86423114137,2010-12-01 21:52:58,2611.2936085855954,2,20,0.5501165986061096,3.970746755599976,17.686736496203675,17.945659273323447,70.8935317950397,65.05829820925547,3.237724376958795e-05,0.0971632748842239,0,0,0
5910,213565.8775485022,2010-12-01 21:53:28,2641.306925851253,2,20,0.5501165986061096,3.972365617752075,17.691322748137512,17.945659273323447,70.91174665481876,65.05829820925547,3.237724376958795e-05,0.0971632748842239,0,0,0
5911,213595.8946601801,2010-12-01 21:53:58,2671.324037624396,2,20,0.5499359965324402,3.9743082523345943,17.695909666548104,17.945659273323447,70.92997196547637,65.05829820925547,6.47544875391759e-05,0.0971632748842239,0,0,0
5912,213625.9076193547,2010-12-01 21:54:28,2701.336996698708,2,20,0.5501165986061096,3.9759271144866943,17.70049594169635,17.945659273323447,70.94820270513006,65.05829820925547,3.237724376958795e-05,0.0971632748842239,0,0,0
5913,213655.92267952248,2010-12-01 21:54:58,2731.3520568715226,2,20,0.5499359965324402,3.977545976638794,17.70508249746618,17.945659273323447,70.96644257141979,65.05829820925547,3.237724376958795e-05,0.0971632748842239,0,0,0
5914,213685.9376904728,2010-12-01 21:55:28,2761.367067831874,2,20,0.550297200679779,3.9794886112213135,17.709668975826176,17.945659273323447,70.9846896838244,65.05829820925547,6.47544875391759e-05,0.0971632748842239,0,0,0
5915,213715.95272195424,2010-12-01 21:55:58,2791.3820992982537,2,20,0.5499359965324402,3.981107473373413,17.714255429877376,17.945659273323447,71.00294534241246,65.05829820925547,3.237724376958795e-05,0.0971632748842239,0,0,0
5916,213745.96778480872,2010-12-01 21:56:28,2821.397162157754,2,20,0.550297200679779,3.9830501079559326,17.718841893423296,17.945659273323447,71.02120917767246,65.05829820925547,6.47544875391759e-05,0.0971632748842239,0,0,0
5917,213775.9828100145,2010-12-01 21:56:58,2851.412187363555,2,20,0.5501165986061096,3.984992742538452,17.723428415962303,17.945659273323447,71.03948150012778,65.05829820925547,9.713172767078504e-05,0.0971632748842239,0,0,0
5918,213805.9979071944,2010-12-01 21:57:28,2881.427284653734,2,20,0.550297200679779,3.9867734909057617,17.728014896156353,17.945659273323447,71.05776200426524,65.05829820925547,6.47544875391759e-05,0.0971632748842239,0,0,0
5919,213836.0128602657,2010-12-01 21:57:58,2911.442237609744,2,20,0.550297200679779,3.9885542392730713,17.7326014167437,17.945659273323447,71.07605107224707,65.05829820925547,6.47544875391759e-05,0.0971632748842239,0,0,0
5920,213866.0279138421,2010-12-01 21:58:28,2941.457291186144,2,20,0.5497553944587708,3.990334987640381,17.737187845587034,17.945659273323447,71.09434822443684,65.05829820925547,3.237724376958795e-05,0.0971632748842239,0,0,0
5921,213896.04298157373,2010-12-01 21:58:58,2971.472358922781,2,20,0.5501165986061096,3.992277622222901,17.741774292816718,17.945659273323447,71.11265400331861,65.05829820925547,9.713172767078504e-05,0.0971632748842239,0,0,0
5922,213926.05798023348,2010-12-01 21:59:28,3001.48735757751,2,20,0.5499359965324402,3.994058132171631,17.746360838645156,17.945659273323447,71.1309689034317,65.05829820925547,3.23295607813634e-05,0.0971632748842239,0,0,0
5923,213956.0730236045,2010-12-01 21:59:58,3031.502401053776,2,20,0.5501165986061096,3.9960007667541504,17.750947385189942,17.945659273323447,71.14929257309028,65.05829820925547,6.47544875391759e-05,0.0971632748842239,0,0,0
5924,213986.08984794733,2010-12-01 22:00:29,3061.519225351548,2,20,0.5501165986061096,3.99810528755188,17.755534184137712,17.945659273323447,71.16762612714992,65.05829820925547,3.237724376958795e-05,0.0971632748842239,0,0,0
5925,214016.10321896177,2010-12-01 22:00:59,3091.532596315832,2,20,0.5501165986061096,4.0000481605529785,17.76012044104989,17.945659273323447,71.18596640891153,65.05829820925547,6.480216688942164e-05,0.0971632748842239,0,0,0
5926,214046.1181051316,2010-12-01 22:01:29,3121.5474824806342,2,20,0.5501165986061096,4.001990795135498,17.76470694757737,17.945659273323447,71.20431683560037,65.05829820925547,6.47544875391759e-05,0.0971632748842239,0,0,0
5927,214076.1331284126,2010-12-01 22:01:59,3151.5625057616453,2,20,0.5501165986061096,4.003933429718018,17.769293464915513,17.945659273323447,71.2226765030901,65.05829820925547,6.47544875391759e-05,0.0971632748842239,0,0,0
5928,214106.148169528,2010-12-01 22:02:29,3181.577546872024,2,20,0.5501165986061096,4.006199836730957,17.773880006512073,17.945659273323447,71.24104558805963,65.05829820925547,6.47544875391759e-05,0.0971632748842239,0,0,0
5929,214136.16342477125,2010-12-01 22:02:59,3211.592802140326,2,20,0.550297200679779,4.008142471313477,17.77846659408913,17.945659273323447,71.25942429360161,65.05829820925547,6.47544875391759e-05,0.0971632748842239,0,0,0
5930,214166.1782671571,2010-12-01 22:03:29,3241.607644511149,2,20,0.5501165986061096,4.010085105895996,17.783053151473208,17.945659273323447,71.27781239218885,65.05829820925547,3.24249267578125e-05,0.0971632748842239,0,0,0
5931,214196.1932873304,2010-12-01 22:03:59,3271.622664684426,2,20,0.5501165986061096,4.012351512908936,17.787639778054622,17.945659273323447,71.29621048185392,65.05829820925547,6.47544875391759e-05,0.0971632748842239,0,0,0
5932,214226.2083659692,2010-12-01 22:04:29,3301.637743373318,2,20,0.5501165986061096,4.014455795288086,17.792226356213813,17.945659273323447,71.314618083013,65.05829820925547,6.47544875391759e-05,0.0971632748842239,0,0,0
5933,214256.22349263745,2010-12-01 22:04:59,3331.6528700716785,2,20,0.5501165986061096,4.0165605545043945,17.796812866094736,17.945659273323447,71.33303529896409,65.05829820925547,3.24249267578125e-05,0.0971632748842239,0,0,0
5934,214286.23838571945,2010-12-01 22:05:29,3361.667763063469,2,20,0.5501165986061096,4.018826961517334,17.801399474140197,17.945659273323447,71.351462936445,65.05829820925547,6.47544875391759e-05,0.0971632748842239,0,0,0
5935,214316.2534965684,2010-12-01 22:05:59,3391.682874037702,2,20,0.5501165986061096,4.021093368530273,17.805986091423016,17.945659273323447,71.36990060503551,65.05829820925547,9.71794142969884e-05,0.0971632748842239,0,0,0
5936,214346.2684604365,2010-12-01 22:06:29,3421.697837780554,2,20,0.550297200679779,4.023359775543213,17.810572638333653,17.945659273323447,71.38834838188001,65.05829820925547,6.47544875391759e-05,0.0971632748842239,0,0,0
5937,214376.2835160831,2010-12-01 22:06:59,3451.7128934321177,2,20,0.5501165986061096,4.025626182556152,17.815159223753092,17.945659273323447,71.40680675599647,65.05829820925547,9.71794142969884e-05,0.0971632748842239,0,0,0
5938,214406.29853137923,2010-12-01 22:07:29,3481.7279087282586,2,20,0.550297200679779,4.028054237365723,17.81974582897994,17.945659273323447,71.42527572671169,65.05829820925547,0.0001295089750783,0.0971632748842239,0,0,0
5939,214436.31371095416,2010-12-01 22:07:59,3511.7430883082134,2,20,0.5497553944587708,4.029996871948242,17.82433241361091,17.945659273323447,71.44375516041777,65.05829820925547,3.23295607813634e-05,0.0971632748842239,0,0,0
5940,214466.3286082116,2010-12-01 22:08:29,3541.757985555594,2,20,0.5499359965324402,4.032425403594971,17.82891896377,17.945659273323447,71.46224519564109,65.05829820925547,3.24249267578125e-05,0.0971632748842239,0,0,0
5941,214496.3436608907,2010-12-01 22:08:59,3571.773038234761,2,20,0.550297200679779,4.035015106201172,17.83350553066187,17.945659273323447,71.48074610313664,65.05829820925547,9.70840483205393e-05,0.0971632748842239,0,0,0
5942,214526.3586864474,2010-12-01 22:09:29,3601.7880637914345,2,20,0.5501165986061096,4.037281513214111,17.838092117564056,17.945659273323447,71.49925807340159,65.05829820925547,6.47544875391759e-05,0.0971632748842239,0,0,0
5943,214556.37372381848,2010-12-01 22:09:59,3631.803101227671,2,20,0.5501165986061096,4.03971004486084,17.84267880358202,17.945659273323447,71.51778157404559,65.05829820925547,6.47544875391759e-05,0.0971632748842239,0,0,0
5944,214586.3905507729,2010-12-01 22:10:29,3661.819928217141,2,20,0.5499359965324402,4.042300224304199,17.847265634241747,17.945659273323447,71.53631672921172,65.05829820925547,9.71794142969884e-05,0.0971632748842239,0,0,0
5945,214616.40382364808,2010-12-01 22:10:59,3691.833200997096,2,20,0.5501165986061096,4.044566631317139,17.85185192123671,17.945659273323447,71.55486103611236,65.05829820925547,6.47544875391759e-05,0.0971632748842239,0,0,0
5946,214646.41886041264,2010-12-01 22:11:29,3721.8482377666737,2,20,0.5501165986061096,4.047318458557129,17.856438544355594,17.945659273323447,71.57341806949047,65.05829820925547,9.70840483205393e-05,0.0971632748842239,0,0,0
5947,214676.4339938377,2010-12-01 22:11:59,3751.8633711917737,2,20,0.5499359965324402,4.049746990203857,17.861025135185823,17.945659273323447,71.59198649785917,65.05829820925547,6.47544875391759e-05,0.0971632748842239,0,0,0
5948,214706.44903389548,2010-12-01 22:12:29,3781.87841124452,2,20,0.5501165986061096,4.052337169647217,17.865611736065105,17.945659273323447,71.61056651228688,65.05829820925547,6.47544875391759e-05,0.0971632748842239,0,0,0
5949,214736.46396593444,2010-12-01 22:12:59,3811.8933432784665,2,20,0.5501165986061096,4.054765224456787,17.870198324713204,17.945659273323447,71.62915824028504,65.05829820925547,6.47544875391759e-05,0.0971632748842239,0,0,0
5950,214766.47898793223,2010-12-01 22:13:29,3841.9083653013454,2,20,0.5497553944587708,4.057193756103516,17.87478496271745,17.945659273323447,71.64776195655436,65.05829820925547,3.24249267578125e-05,0.0971632748842239,0,0,0
5951,214796.4940330877,2010-12-01 22:13:59,3871.923410431728,2,20,0.5501165986061096,4.059945583343506,17.879371624780667,17.945659273323447,71.66637771140614,65.05829820925547,3.23295607813634e-05,0.0971632748842239,0,0,0
5952,214826.50907085976,2010-12-01 22:14:29,3901.938448203799,2,20,0.550297200679779,4.062535762786865,17.883958274614386,17.945659273323447,71.68500515243765,65.05829820925547,9.70840483205393e-05,0.0971632748842239,0,0,0
5953,214856.5241272582,2010-12-01 22:14:59,3931.953504607234,2,20,0.550297200679779,4.0654497146606445,17.88854485751495,17.945659273323447,71.70364449771034,65.05829820925547,9.70840483205393e-05,0.0971632748842239,0,0,0
5954,214886.5391369153,2010-12-01 22:15:29,3961.96851425933,2,20,0.550297200679779,4.067878246307373,17.89313141738107,17.945659273323447,71.72229597314886,65.05829820925547,6.47544875391759e-05,0.0971632748842239,0,0,0
5955,214916.55419518336,2010-12-01 22:15:59,3991.9835725324174,2,20,0.5501165986061096,4.070630073547363,17.897718011435387,17.945659273323447,71.74096000255891,65.05829820925547,9.70840483205393e-05,0.0971632748842239,0,0,0
5956,214946.56921946688,2010-12-01 22:16:29,4021.9985968109104,2,20,0.5501165986061096,4.073220252990723,17.90230462676894,17.945659273323447,71.75963655750995,65.05829820925547,6.47544875391759e-05,0.0971632748842239,0,0,0
5957,214976.58439845536,2010-12-01 22:16:59,4052.013775864555,2,20,0.5499359965324402,4.075972557067871,17.90689122761784,17.945659273323447,71.77832571249678,65.05829820925547,6.47544875391759e-05,0.0971632748842239,0,0,0
5958,215006.5992820638,2010-12-01 22:17:29,4082.0286594078334,2,20,0.550297200679779,4.07888650894165,17.911478044138665,17.945659273323447,71.79702845847977,65.05829820925547,6.47544875391759e-05,0.0971632748842239,0,0,0
5959,215036.61433095852,2010-12-01 22:17:59,4112.043708302584,2,20,0.5501165986061096,4.081638336181641,17.916065372890984,17.945659273323447,71.81574616477292,65.05829820925547,6.47544875391759e-05,0.0971632748842239,0,0,0
5960,215066.6293562997,2010-12-01 22:18:29,4142.0587336788085,2,20,0.5501165986061096,4.084390640258789,17.920652592711328,17.945659273323447,71.83447633176453,65.05829820925547,0.0,0.0971632748842239,0,0,0
5961,215096.6448657505,2010-12-01 22:18:59,4172.074243159709,2,20,0.5501165986061096,4.087466239929199,17.925239895424802,17.945659273323447,71.85321991460634,65.05829820925547,9.70840483205393e-05,0.0971632748842239,0,0,0
5962,215126.6594613974,2010-12-01 22:19:29,4202.088838801556,2,20,0.5499359965324402,4.090218544006348,17.929826802556452,17.945659273323447,71.871975047207,65.05829820925547,3.24249267578125e-05,0.0971632748842239,0,0,0
5963,215156.67445840803,2010-12-01 22:19:59,4232.103835772095,2,20,0.5501165986061096,4.093132495880127,17.934413294259382,17.945659273323447,71.89074175126484,65.05829820925547,6.47544875391759e-05,0.0971632748842239,0,0,0
5964,215186.6912883448,2010-12-01 22:20:29,4262.120665769048,2,20,0.5501165986061096,4.096208095550537,17.93900010513074,17.945659273323447,71.90952323081136,65.05829820925547,9.70840483205393e-05,0.0971632748842239,0,0,0
5965,215216.70460218692,2010-12-01 22:20:59,4292.133979631236,2,20,0.5501165986061096,4.0989603996276855,17.943586432159627,17.945659273323447,71.9283163108994,65.05829820925547,6.47544875391759e-05,0.0971632748842239,0,0,0
5966,215246.71960215492,2010-12-01 22:21:29,4322.148979498984,2,20,0.5499359965324402,4.102035999298096,17.948173076917815,17.945659273323447,71.94712445583329,65.05829820925547,6.47544875391759e-05,0.0971632748842239,0,0,0
5967,215276.73462722043,2010-12-01 22:21:59,4352.164004589498,2,20,0.5499359965324402,4.105112075805664,17.9527597021666,17.945659273323447,71.9659462659322,65.05829820925547,6.47544875391759e-05,0.0971632748842239,0,0,0
5968,215306.7496482308,2010-12-01 22:22:29,4382.179025574796,2,20,0.5501165986061096,4.108187675476074,17.957346238835584,17.945659273323447,71.98478165721232,65.05829820925547,6.47544875391759e-05,0.0971632748842239,0,0,0
5969,215336.764699732,2010-12-01 22:22:59,4412.194077076032,2,20,0.550297200679779,4.111425399780273,17.96193279404315,17.945659273323447,72.00363118364659,65.05829820925547,0.0001295089750783,0.0971632748842239,0,0,0
5970,215366.78184605617,2010-12-01 22:23:29,4442.211223490378,2,20,0.550297200679779,4.114501476287842,17.966519675980248,17.945659273323447,72.02249616256746,65.05829820925547,9.71794142969884e-05,0.0971632748842239,0,0,0
5971,215396.794891355,2010-12-01 22:23:59,4472.224268699032,2,20,0.5501165986061096,4.117414951324463,17.971105931350255,17.945659273323447,72.04137276649881,65.05829820925547,3.23295607813634e-05,0.0971632748842239,0,0,0
5972,215426.8097973592,2010-12-01 22:24:29,4502.2391747082165,2,20,0.5499359965324402,4.120491027832031,17.97569245605971,17.945659273323447,72.06026481555953,65.05829820925547,6.47544875391759e-05,0.0971632748842239,0,0,0
5973,215456.8270172313,2010-12-01 22:24:59,4532.256394685622,2,20,0.5501165986061096,4.123728752136231,17.980279395089486,17.945659273323447,72.07917307644122,65.05829820925547,6.47544875391759e-05,0.0971632748842239,0,0,0
5974,215486.83990891796,2010-12-01 22:25:29,4562.269286271992,2,20,0.5501165986061096,4.12696647644043,17.984865609757215,17.945659273323447,72.09809294239645,65.05829820925547,9.71794142969884e-05,0.0971632748842239,0,0,0
5975,215516.8571472009,2010-12-01 22:25:59,4592.286524675249,2,20,0.5501165986061096,4.130204200744629,17.989452449564595,17.945659273323447,72.1170300643793,65.05829820925547,9.71794142969884e-05,0.0971632748842239,0,0,0
5976,215546.8699884019,2010-12-01 22:26:29,4622.299365801051,2,20,0.5501165986061096,4.133441925048828,17.99403872913708,17.945659273323447,72.13597968748641,65.05829820925547,6.47544875391759e-05,0.0971632748842239,0,0,0
5977,215576.8851448743,2010-12-01 22:26:59,4652.314522283529,2,20,0.5501165986061096,4.136517524719238,17.998625405832904,17.945659273323447,72.15494577951962,65.05829820925547,3.23295607813634e-05,0.0971632748842239,0,0,0
5978,215606.9000289389,2010-12-01 22:27:29,4682.329406287955,2,20,0.5501165986061096,4.140079021453857,18.003211937704833,17.945659273323447,72.17392625269757,65.05829820925547,0.0001295089750783,0.0971632748842239,0,0,0
5979,215636.91519315063,2010-12-01 22:27:59,4712.34457050468,2,20,0.5501165986061096,4.143316745758057,18.007798512620575,17.945659273323447,72.19292205785476,65.05829820925547,9.70840483205393e-05,0.0971632748842239,0,0,0
5980,215666.93020397064,2010-12-01 22:28:29,4742.359581389844,2,20,0.5499359965324402,4.146716594696045,18.012384656224167,17.945659273323447,72.21193143849013,65.05829820925547,9.71794142969884e-05,0.0971632748842239,0,0,0
5981,215696.94530497,2010-12-01 22:28:59,4772.374682339128,2,20,0.5499359965324402,4.150115966796875,18.016970208090765,17.945659273323447,72.23095384164243,65.05829820925547,9.70840483205393e-05,0.0971632748842239,0,0,0
5982,215726.9601768593,2010-12-01 22:29:29,4802.3895542083565,2,20,0.5499359965324402,4.153515815734863,18.02155578247053,17.945659273323447,72.24999186980614,65.05829820925547,0.0001295089750783,0.0971632748842239,0,0,0
5983,215756.97533864,2010-12-01 22:29:59,4832.404716009069,2,20,0.5499359965324402,4.156753540039063,18.02614136759428,17.945659273323447,72.26904545938552,65.05829820925547,9.71794142969884e-05,0.0971632748842239,0,0,0
5984,215786.99204529,2010-12-01 22:30:29,4862.421422734265,2,20,0.5501165986061096,4.160315036773682,18.03072761659416,17.945659273323447,72.28811766629296,65.05829820925547,0.0001295089750783,0.0971632748842239,0,0,0
5985,215817.0053159597,2010-12-01 22:30:59,4892.434693328783,2,20,0.5501165986061096,4.163714408874512,18.03531392680532,17.945659273323447,72.30720615833641,65.05829820925547,6.47544875391759e-05,0.0971632748842239,0,0,0
5986,215847.02033913543,2010-12-01 22:31:29,4922.449716484482,2,20,0.5501165986061096,4.167275905609131,18.039900469910577,17.945659273323447,72.32631149042349,65.05829820925547,9.70840483205393e-05,0.0971632748842239,0,0,0
5987,215877.03537231107,2010-12-01 22:31:59,4952.464749680165,2,20,0.5501165986061096,4.170675754547119,18.04448694396473,17.945659273323447,72.34543262615244,65.05829820925547,6.47544875391759e-05,0.0971632748842239,0,0,0
5988,215907.050477922,2010-12-01 22:32:30,4982.479855381275,2,20,0.5501165986061096,4.174398899078369,18.04907344971458,17.945659273323447,72.3645701252069,65.05829820925547,9.70840483205393e-05,0.0971632748842239,0,0,0
5989,215937.06560346743,2010-12-01 22:33:00,5012.494980811481,2,20,0.5499359965324402,4.177798748016357,18.05365997024151,17.945659273323447,72.38372385076379,65.05829820925547,9.71794142969884e-05,0.0971632748842239,0,0,0
5990,215967.08049790785,2010-12-01 22:33:30,5042.509875276939,2,20,0.5501165986061096,4.181521892547607,18.058246500108712,17.945659273323447,72.40289400385964,65.05829820925547,6.47544875391759e-05,0.0971632748842239,0,0,0
5991,215997.0955818047,2010-12-01 22:34:00,5072.52495917379,2,20,0.550297200679779,4.185083389282227,18.06283306124364,17.945659273323447,72.42208078261082,65.05829820925547,6.47544875391759e-05,0.0971632748842239,0,0,0
5992,216027.1105728555,2010-12-01 22:34:30,5102.539950199535,2,20,0.5501165986061096,4.188483238220215,18.06741958285172,17.945659273323447,72.44128385904753,65.05829820925547,6.47544875391759e-05,0.0971632748842239,0,0,0
5993,216057.12580435968,2010-12-01 22:35:00,5132.555181733776,2,20,0.5499359965324402,4.192368507385254,18.07200616976435,17.945659273323447,72.46050393901317,65.05829820925547,9.71794142969884e-05,0.0971632748842239,0,0,0
5994,216087.14076787696,2010-12-01 22:35:30,5162.570145231017,2,20,0.5501165986061096,4.195929527282715,18.076592697639327,17.945659273323447,72.4797406963523,65.05829820925547,9.70840483205393e-05,0.0971632748842239,0,0,0
5995,216117.1556959661,2010-12-01 22:36:00,5192.585073335184,2,20,0.5501165986061096,4.199653148651123,18.08117911637828,17.945659273323447,72.49899389824753,65.05829820925547,6.47544875391759e-05,0.0971632748842239,0,0,0
5996,216119.14004877675,2010-12-01 22:36:02,5194.56942612077,2,20,0.550297200679779,4.200138568878174,18.081482326925155,17.945659273323447,72.50026733511133,65.05829820925547,0.0001295089750783,0.0971632748842239,0,0,0
5997,216149.14940676244,2010-12-01 22:36:32,30.015027762162,3,20,0.0,4.109806537628174,18.081482326925155,17.945659273323447,72.50026733511133,65.05829820925547,-0.0004209518374409,0.0971632748842239,0,0,0
5998,216179.16446357188,2010-12-01 22:37:02,60.03008457160704,3,20,0.0,4.0987982749938965,18.081482326925155,17.945659273323447,72.50026733511133,65.05829820925547,-0.0002266883820993,0.0971632748842239,0,0,0
5999,216209.17960784904,2010-12-01 22:37:32,90.04522883367457,3,20,0.0,4.091999053955078,18.081482326925155,17.945659273323447,72.50026733511133,65.05829820925547,-0.0001295089750783,0.0971632748842239,0,0,0
6000,216239.1477695969,2010-12-01 22:38:02,120.01339057153764,3,20,0.0,4.087628364562988,18.081482326925155,17.945659273323447,72.50026733511133,65.05829820925547,-9.70840483205393e-05,0.0971632748842239,0,0,0
6001,216239.1600816788,2010-12-01 22:38:02,0.015726790513316,4,20,0.9870104789733888,4.199814796447754,18.08148666043346,17.945659273323447,72.50028553469228,65.05829820925547,3.23295607813634e-05,0.0971632748842239,0,0,0
6002,216240.2225515041,2010-12-01 22:38:03,1.078196600771921,4,20,0.9362592697143556,4.199653148651123,18.081768964918705,17.945659273323447,72.50147114427526,65.05829820925547,0.0,0.0971632748842239,0,0,0
6003,216242.488055624,2010-12-01 22:38:05,3.343700755726751,4,20,0.88623046875,4.199814796447754,18.082341284340597,17.945659273323447,72.50387472787224,65.05829820925547,3.23295607813634e-05,0.0971632748842239,0,0,0
6004,216245.84732940252,2010-12-01 22:38:09,6.70297443407248,4,20,0.8360211253166199,4.199653148651123,18.08314368314091,17.945659273323447,72.50724458651617,65.05829820925547,0.0,0.0971632748842239,0,0,0
6005,216250.45662905747,2010-12-01 22:38:13,11.312274114045335,4,20,0.7859923243522644,4.199814796447754,18.08418081119085,17.945659273323447,72.51160024184392,65.05829820925547,3.23295607813634e-05,0.0971632748842239,0,0,0
6006,216256.5033724208,2010-12-01 22:38:19,17.359017457287944,4,20,0.7357829213142395,4.199653148651123,18.08545739552109,17.945659273323447,72.51696158906084,65.05829820925547,0.0,0.0971632748842239,0,0,0
6007,216264.4741472022,2010-12-01 22:38:27,25.329792334000377,4,20,0.6857541799545288,4.199814796447754,18.08702891603927,17.945659273323447,72.5235615806267,65.05829820925547,3.23295607813634e-05,0.0971632748842239,0,0,0
6008,216275.15925412983,2010-12-01 22:38:38,36.014899191449494,4,20,0.6357254385948181,4.199653148651123,18.08898619194951,17.945659273323447,72.53178166318756,65.05829820925547,0.0,0.0971632748842239,0,0,0
6009,216290.33132540568,2010-12-01 22:38:53,51.18697046727819,4,20,0.5856966376304626,4.199814796447754,18.09155344267597,17.945659273323447,72.54256349469058,65.05829820925547,0.0,0.0971632748842239,0,0,0
6010,216314.23660532536,2010-12-01 22:39:17,75.09225035684955,4,20,0.535667896270752,4.199653148651123,18.09526299445697,17.945659273323447,72.55814268504841,65.05829820925547,-3.23295607813634e-05,0.0971632748842239,0,0,0
6011,216356.82975102012,2010-12-01 22:40:00,117.68539604670084,4,20,0.4856390953063965,4.199814796447754,18.101276620297124,17.945659273323447,72.58339843484093,65.05829820925547,0.0,0.0971632748842239,0,0,0
6012,216435.7342314199,2010-12-01 22:41:18,196.5898764714501,4,20,0.4356103241443634,4.199814796447754,18.111330031673585,17.945659273323447,72.62562031289687,65.05829820925547,0.0,0.0971632748842239,0,0,0
6013,216548.4822034368,2010-12-01 22:43:11,309.3378485635408,4,20,0.3855815529823303,4.199653148651123,18.12416401600433,17.945659273323447,72.67951991830208,65.05829820925547,-3.23295607813634e-05,0.0971632748842239,0,0,0
6014,216686.91690986435,2010-12-01 22:45:30,447.7725549259118,4,20,0.3355527818202972,4.199814796447754,18.138013435517937,17.945659273323447,72.73768420517301,65.05829820925547,3.23295607813634e-05,0.0971632748842239,0,0,0
6015,216853.0542561807,2010-12-01 22:48:16,613.9099012373098,4,20,0.2855240106582641,4.199653148651123,18.1523212259973,17.945659273323447,72.79777347333625,65.05829820925547,-3.23295607813634e-05,0.0971632748842239,0,0,0
6016,217054.39406810387,2010-12-01 22:51:37,815.2497131403915,4,20,0.2354952543973922,4.199653148651123,18.16686003094304,17.945659273323447,72.85883292345349,65.05829820925547,0.0,0.0971632748842239,0,0,0
6017,217305.81126038692,2010-12-01 22:55:49,1066.6669054936708,4,20,0.1854664832353592,4.199814796447754,18.1815067866162,17.945659273323447,72.9203457098072,65.05829820925547,-3.24249267578125e-05,0.0971632748842239,0,0,0
6018,217645.0544449339,2010-12-01 23:01:28,1405.910089965414,4,20,0.1352571099996566,4.199653148651123,18.19652918001218,17.945659273323447,72.98343607583662,65.05829820925547,-3.23295607813634e-05,0.0971632748842239,0,0,0
6019,218180.07527897667,2010-12-01 23:10:23,1940.9309241585795,4,20,0.0852283388376236,4.199814796447754,18.21265420583494,17.945659273323447,73.05115722257834,65.05829820925547,3.23295607813634e-05,0.0971632748842239,0,0,0
6020,218874.8274051665,2010-12-01 23:21:58,2635.68305029323,4,20,0.0496483072638511,4.199653148651123,18.225398411266955,17.945659273323447,73.10467972284006,65.05829820925547,-3.23295607813634e-05,0.0971632748842239,0,0,0
6021,218904.84363044924,2010-12-01 23:22:28,30.015096874144508,5,20,0.0,4.191397190093994,18.225398411266955,17.945659273323447,73.10467972284006,65.05829820925547,-3.23295607813634e-05,0.0971632748842239,0,0,0
6022,218934.8430854191,2010-12-01 23:22:58,60.01455176882472,5,20,0.0,4.1901021003723145,18.225398411266955,17.945659273323447,73.10467972284006,65.05829820925547,-3.23295607813634e-05,0.0971632748842239,0,0,0
6023,218935.03074793564,2010-12-01 23:22:58,0.185473202931911,6,20,-1.9243103452026844e-05,4.189939975738525,18.225398411266955,17.945659274314856,73.10467972284006,65.05829821340942,0.0,0.0963535830378532,0,0,0
6024,218939.8587864588,2010-12-01 23:23:03,5.01351172109056,6,20,0.0005225847125984,4.1901021003723145,18.225399284226224,17.945659274481947,73.10468338072255,65.05829821410951,-3.23295607813634e-05,0.0963535830378532,0,0,0
6025,218969.87626601665,2010-12-01 23:23:33,30.01511929995026,7,20,-1.099568486213684,4.0042572021484375,18.225399284226224,17.95482770689753,73.10468338072255,65.09521777983394,-0.0009388923645019,0.0963535830378532,0,0,0
6026,218999.89116023143,2010-12-01 23:24:03,60.03001349974745,7,20,-1.0997490882873535,3.9756033420562735,18.225399284226224,17.963996038193525,73.10468338072255,65.13179082094452,-0.0006799221155233,0.0963535830378532,0,0,0
6027,219029.90635715457,2010-12-01 23:24:33,90.04521040782254,7,20,-1.099568486213684,3.956176996231079,18.225399284226224,17.97316442286701,73.10468338072255,65.16814825494967,-0.0004532813909463,0.0963535830378532,0,0,0
6028,219059.9212416101,2010-12-01 23:25:03,120.06009479319692,7,20,-1.099568486213684,3.940959692001343,18.225399284226224,17.982332678807946,73.10468338072255,65.20434671050243,-0.0003561496851034,0.0963535830378532,0,0,0
6029,219089.93629263013,2010-12-01 23:25:33,150.07514582827264,7,20,-1.0993878841400146,3.928008794784546,18.225399284226224,17.991501048721798,73.10468338072255,65.24041804919806,-0.0002913951757363,0.0963535830378532,0,0,0
6030,219119.9513224825,2010-12-01 23:26:03,180.09017568063604,7,20,-1.099568486213684,3.9166767597198486,18.225399284226224,18.000669430353597,73.10468338072255,65.27637787174271,-0.0002590179501567,0.0963535830378532,0,0,0
6031,219149.96678633988,2010-12-01 23:26:33,210.10563952797924,7,20,-1.0993878841400146,3.9056687355041504,18.225399284226224,18.00983789500003,73.10468338072255,65.31223604352928,-0.0002590179501567,0.0963535830378532,0,0,0
6032,219179.98145091327,2010-12-01 23:27:03,240.12030409634744,7,20,-1.0997490882873535,3.895469903945923,18.225399284226224,18.01900605751672,73.10468338072255,65.34799674600812,-0.0002913951757363,0.0963535830378532,0,0,0
6033,219209.9965752758,2010-12-01 23:27:33,270.1354284839582,7,20,-1.0997490882873535,3.885756731033325,18.225399284226224,18.02817436593348,73.10468338072255,65.3836675463778,-0.0002590179501567,0.0963535830378532,0,0,0
6034,219240.011488092,2010-12-01 23:28:03,300.1503412950689,7,20,-1.099568486213684,3.876691102981568,18.225399284226224,18.03734268241863,73.10468338072255,65.41925096534274,-0.0001942634553415,0.0963535830378532,0,0,0
6035,219270.02655057047,2010-12-01 23:28:33,330.1654037535714,7,20,-1.099568486213684,3.8674635887146,18.225399284226224,18.046511055864627,73.10468338072255,65.45475030911179,-0.0001942634553415,0.0963535830378532,0,0,0
6036,219300.04157900432,2010-12-01 23:29:03,360.18043218239234,7,20,-1.099568486213684,3.858559846878052,18.225399284226224,18.05567940909011,73.10468338072255,65.49016759312961,-0.0002590179501567,0.0963535830378532,0,0,0
6037,219330.05662357836,2010-12-01 23:29:33,390.1954767563899,7,20,-1.099568486213684,3.850141763687134,18.225399284226224,18.064847757591107,73.10468338072255,65.5255046897011,-0.0001295089750783,0.0963535830378532,0,0,0
6038,219360.0734104379,2010-12-01 23:30:03,420.2122637062228,7,20,-1.0997490882873535,3.841561794281006,18.225399284226224,18.074016747707404,73.10468338072255,65.56076660875237,-0.0002266406954731,0.0963535830378532,0,0,0
6039,219390.08673440528,2010-12-01 23:30:33,450.2255875833323,7,20,-1.099568486213684,3.833305597305298,18.225399284226224,18.08318460583398,73.10468338072255,65.59594820579078,-0.0002266406954731,0.0963535830378532,0,0,0
6040,219420.1038576319,2010-12-01 23:31:03,480.2427109002016,7,20,-1.099568486213684,3.825535297393799,18.225399284226224,18.09235361853535,73.10468338072255,65.63106013980232,-0.0001618862152099,0.0963535830378532,0,0,0
6041,219450.11691043945,2010-12-01 23:31:33,510.2557636275655,7,20,-1.099568486213684,3.8177647590637207,18.225399284226224,18.10152144445092,73.10468338072255,65.66609482277417,-0.0001618862152099,0.0963535830378532,0,0,0
6042,219480.1318264285,2010-12-01 23:32:03,540.2706796065595,7,20,-1.099568486213684,3.8098323345184326,18.225399284226224,18.110689751253844,73.10468338072255,65.70105978247321,-0.0001942634553415,0.0963535830378532,0,0,0
6043,219510.1485863912,2010-12-01 23:32:33,570.2874396594602,7,20,-1.0997490882873535,3.802223682403565,18.225399284226224,18.11985864258743,73.10468338072255,65.7359560489636,-0.0001618862152099,0.0963535830378532,0,0,0
6044,219540.1619293909,2010-12-01 23:33:03,600.3007825739436,7,20,-1.0997490882873535,3.794776916503906,18.225399284226224,18.12902646487577,73.10468338072255,65.77077970855849,-0.0002266406954731,0.0963535830378532,0,0,0
6045,219570.17916888685,2010-12-01 23:33:33,630.3180221651571,7,20,-1.099568486213684,3.787492036819458,18.225399284226224,18.13819552621162,73.10468338072255,65.80554055164714,-0.0001618862152099,0.0963535830378532,0,0,0
6046,219600.19201728576,2010-12-01 23:34:03,660.3308705289702,7,20,-1.099929690361023,3.78036904335022,18.225399284226224,18.14736329604604,73.10468338072255,65.84023053279586,-0.0001942634553415,0.0963535830378532,0,0,0
6047,219630.20705077212,2010-12-01 23:34:33,690.345903955227,7,20,-1.099568486213684,3.773569822311402,18.225399284226224,18.156531697455293,73.10468338072255,65.87485899038202,-0.0001942634553415,0.0963535830378532,0,0,0
6048,219660.22207024368,2010-12-01 23:35:03,720.3609234267582,7,20,-1.0997490882873535,3.766770601272583,18.225399284226224,18.16570010860875,73.10468338072255,65.90942502094398,-0.0001618862152099,0.0963535830378532,0,0,0
6049,219690.23711694297,2010-12-01 23:35:33,750.375970121032,7,20,-1.0997490882873535,3.760133266448975,18.225399284226224,18.174868536491164,73.10468338072255,65.94393004560581,-0.0001942634553415,0.0963535830378532,0,0,0
6050,219720.2523287281,2010-12-01 23:36:03,780.3911820915895,7,20,-1.099568486213684,3.753657817840576,18.225399284226224,18.184037092113464,73.10468338072255,65.97837543276745,-0.0001618862152099,0.0963535830378532,0,0,0
6051,219750.26722299305,2010-12-01 23:36:33,810.406076231237,7,20,-1.0997490882873535,3.747182607650757,18.225399284226224,18.19320550993175,73.10468338072255,66.01276124703917,-0.0001942634553415,0.0963535830378532,0,0,0
6052,219780.2822377227,2010-12-01 23:37:03,840.4210909058311,7,20,-1.099929690361023,3.740869045257568,18.225399284226224,18.202373972638277,73.10468338072255,66.04708912003952,-0.0001942634553415,0.0963535830378532,0,0,0
6053,219810.2973618096,2010-12-01 23:37:33,870.4362151029678,7,20,-1.099568486213684,3.7348792552948,18.225399284226224,18.211542506197347,73.10468338072255,66.08136067663348,-0.0001942634553415,0.0963535830378532,0,0,0
6054,219840.3124310049,2010-12-01 23:38:03,900.4512842130224,7,20,-1.099568486213684,3.729051351547241,18.225399284226224,18.22071094128854,73.10468338072255,66.1155761009748,-0.0001295089750783,0.0963535830378532,0,0,0
6055,219870.3273587181,2010-12-01 23:38:33,930.4662118961415,7,20,-1.099568486213684,3.722899675369263,18.225399284226224,18.2298793127084,73.10468338072255,66.14973663041131,-0.0001618862152099,0.0963535830378532,0,0,0
6056,219900.34243678543,2010-12-01 23:39:03,960.4812899684986,7,20,-1.099568486213684,3.717071771621704,18.225399284226224,18.239047756132724,73.10468338072255,66.18384325986659,-0.0001618862152099,0.0963535830378532,0,0,0
6057,219930.35747943464,2010-12-01 23:39:33,990.4963326177063,7,20,-1.0997490882873535,3.711081981658936,18.225399284226224,18.248216200257676,73.10468338072255,66.21789663700358,-0.0002266406954731,0.0963535830378532,0,0,0
6058,219960.37441681372,2010-12-01 23:40:04,1020.513270092114,7,20,-1.099568486213684,3.705739736557007,18.225399284226224,18.257385226131746,73.10468338072255,66.2518997353825,-0.0001295089750783,0.0963535830378532,0,0,0
6059,219990.38772286652,2010-12-01 23:40:34,1050.5265761398557,7,20,-1.099929690361023,3.699911832809448,18.225399284226224,18.266553154007983,73.10468338072255,66.28584706651594,-0.0001942634553415,0.0963535830378532,0,0,0
6060,220020.40275067385,2010-12-01 23:41:04,1080.5416038819678,7,20,-1.099568486213684,3.69456958770752,18.225399284226224,18.275721611909525,73.10468338072255,66.31974567717387,-0.0001618862152099,0.0963535830378532,0,0,0
6061,220050.41761294412,2010-12-01 23:41:34,1110.5564661272474,7,20,-1.0997490882873535,3.689227342605591,18.225399284226224,18.28489000515557,73.10468338072255,66.35359412347343,-9.713172767078504e-05,0.0963535830378532,0,0,0
6062,220080.43280688988,2010-12-01 23:42:04,1140.5716600729509,7,20,-1.0997490882873535,3.683885097503662,18.225399284226224,18.294058564843542,73.10468338072255,66.38739368069206,-0.0001295089750783,0.0963535830378532,0,0,0
6063,220110.44797007905,2010-12-01 23:42:34,1170.5868233523422,7,20,-1.0997490882873535,3.678380966186523,18.225399284226224,18.30322701305031,73.10468338072255,66.42114395198365,-0.0001618862152099,0.0963535830378532,0,0,0
6064,220140.4628059236,2010-12-01 23:43:04,1200.6016590966751,7,20,-1.0997490882873535,3.673362493515015,18.225399284226224,18.31239535810217,73.10468338072255,66.45484580260774,-0.0001295089750783,0.0963535830378532,0,0,0
6065,220170.47787073292,2010-12-01 23:43:34,1230.6167239160527,7,20,-1.099568486213684,3.668182373046875,18.225399284226224,18.321563872963456,73.10468338072255,66.4885005290059,-0.0001295089750783,0.0963535830378532,0,0,0
6066,220200.4928976881,2010-12-01 23:44:04,1260.6317509363685,7,20,-1.0997490882873535,3.663163900375366,18.225399284226224,18.330732281311462,73.10468338072255,66.5221081164079,-0.0001295089750783,0.0963535830378532,0,0,0
6067,220230.50796035217,2010-12-01 23:44:34,1290.6468135502578,7,20,-1.099568486213684,3.6583073139190674,18.225399284226224,18.339900741468785,73.10468338072255,66.55566985153962,-6.47544875391759e-05,0.0963535830378532,0,0,0
6068,220260.5229632875,2010-12-01 23:45:04,1320.6618164655897,7,20,-1.099568486213684,3.6531269550323486,18.225399284226224,18.349069189895665,73.10468338072255,66.5891860370514,-0.0001618862152099,0.0963535830378532,0,0,0
6069,220290.5380475553,2010-12-01 23:45:34,1350.6769007433884,7,20,-1.099568486213684,3.64843225479126,18.225399284226224,18.35823774627822,73.10468338072255,66.62265777616103,-9.713172767078504e-05,0.0963535830378532,0,0,0
6070,220320.5530564856,2010-12-01 23:46:04,1380.691909693738,7,20,-1.0997490882873535,3.643413782119751,18.225399284226224,18.367406200523757,73.10468338072255,66.65608444102293,-0.0001618862152099,0.0963535830378532,0,0,0
6071,220350.56810507452,2010-12-01 23:46:34,1410.706958252652,7,20,-1.099568486213684,3.638719081878662,18.225399284226224,18.37657466747759,73.10468338072255,66.68946761873569,-0.0001295089750783,0.0963535830378532,0,0,0
6072,220380.5831323756,2010-12-01 23:47:04,1440.721985578729,7,20,-1.0997490882873535,3.634186267852783,18.225399284226224,18.38574308574045,73.10468338072255,66.72280814120731,-9.713172767078504e-05,0.0963535830378532,0,0,0
6073,220410.5981712905,2010-12-01 23:47:34,1470.7370244685817,7,20,-1.0997490882873535,3.6294915676116943,18.225399284226224,18.39491156368974,73.10468338072255,66.75610715640738,-0.0001618862152099,0.0963535830378532,0,0,0
6074,220440.61335380777,2010-12-01 23:48:04,1500.7522069858455,7,20,-1.0997490882873535,3.6252825260162354,18.225399284226224,18.40408005415187,73.10468338072255,66.78936521998676,-9.713172767078504e-05,0.0963535830378532,0,0,0
6075,220470.62826692464,2010-12-01 23:48:34,1530.7671201077296,7,20,-1.0997490882873535,3.6209115982055664,18.225399284226224,18.413248472702225,73.10468338072255,66.82258288050028,-9.713172767078504e-05,0.0963535830378532,0,0,0
6076,220500.6434234673,2010-12-01 23:49:04,1560.7822766453444,7,20,-1.0997490882873535,3.6167025566101074,18.225399284226224,18.422416953562227,73.10468338072255,66.85576130417853,-9.713172767078504e-05,0.0963535830378532,0,0,0
6077,220530.6583705888,2010-12-01 23:49:34,1590.7972237718477,7,20,-1.0997490882873535,3.612493515014648,18.225399284226224,18.431585395164216,73.10468338072255,66.88890097751528,-9.713172767078504e-05,0.0963535830378532,0,0,0
6078,220560.6735152268,2010-12-01 23:50:04,1620.8123684048385,7,20,-1.099568486213684,3.60860824584961,18.225399284226224,18.44075392636216,73.10468338072255,66.92200342814624,-6.47544875391759e-05,0.0963535830378532,0,0,0
6079,220590.67465297412,2010-12-01 23:50:34,1650.8135062424572,7,20,-1.0997490882873535,3.6043992042541504,18.225399284226224,18.44991813003921,73.10468338072255,66.95505343268674,-9.713172767078504e-05,0.0963535830378532,0,0,0
6080,220620.68787274224,2010-12-01 23:51:04,1680.8267259152583,7,20,-1.099568486213684,3.6005139350891118,18.225399284226224,18.4590860528418,73.10468338072255,66.98808099765232,-0.0001295089750783,0.0963535830378532,0,0,0
6081,220650.70290046427,2010-12-01 23:51:34,1710.8417536423333,7,20,-1.099568486213684,3.596952438354492,18.225399284226224,18.46825452228483,73.10468338072255,67.02107556467473,-9.713172767078504e-05,0.0963535830378532,0,0,0
6082,220680.71800725808,2010-12-01 23:52:04,1740.8568605564617,7,20,-1.099568486213684,3.593229055404663,18.225399284226224,18.477423024719464,73.10468338072255,67.05403615480522,-9.713172767078504e-05,0.0963535830378532,0,0,0
6083,220710.73310285408,2010-12-01 23:52:34,1770.8719560321265,7,20,-1.0997490882873535,3.589344024658203,18.225399284226224,18.486591529516883,73.10468338072255,67.08696343347503,-9.713172767078504e-05,0.0963535830378532,0,0,0
6084,220740.74802723897,2010-12-01 23:53:04,1800.8868804220504,7,20,-1.099568486213684,3.586106300354004,18.225399284226224,18.49576003212845,73.10468338072255,67.11985810142593,-6.47544875391759e-05,0.0963535830378532,0,0,0
6085,220770.76305497103,2010-12-01 23:53:34,1830.9019081792,7,20,-1.0997490882873535,3.5827066898345947,18.225399284226224,18.504928585185983,73.10468338072255,67.15272117509797,-9.713172767078504e-05,0.0963535830378532,0,0,0
6086,220800.77812281292,2010-12-01 23:54:04,1860.9169760110733,7,20,-1.099568486213684,3.579307079315185,18.225399284226224,18.51409710055346,73.10468338072255,67.18555323498677,-0.0001295089750783,0.0963535830378532,0,0,0
6087,220830.7931500288,2010-12-01 23:54:34,1890.9320032068265,7,20,-1.099568486213684,3.5759074687957764,18.225399284226224,18.52326555682732,73.10468338072255,67.21835468991452,-9.713172767078504e-05,0.0963535830378532,0,0,0
6088,220860.80832215017,2010-12-01 23:55:04,1920.9471753282207,7,20,-1.099568486213684,3.572831630706787,18.225399284226224,18.53243407277697,73.10468338072255,67.25112666776839,-6.47544875391759e-05,0.0963535830378532,0,0,0
6089,220890.8232380289,2010-12-01 23:55:34,1950.9620912019527,7,20,-1.0997490882873535,3.569755792617798,18.225399284226224,18.54160251792885,73.10468338072255,67.28386934834974,-6.47544875391759e-05,0.0963535830378532,0,0,0
6090,220920.83827815184,2010-12-01 23:56:04,1980.9771313549488,7,20,-1.0997490882873535,3.566518068313598,18.225399284226224,18.55077109851318,73.10468338072255,67.31658411151606,-9.713172767078504e-05,0.0963535830378532,0,0,0
6091,220950.85331254048,2010-12-01 23:56:34,2010.992165718538,7,20,-1.099568486213684,3.5634422302246094,18.225399284226224,18.55993953841629,73.10468338072255,67.34926965956802,-9.713172767078504e-05,0.0963535830378532,0,0,0
6092,220980.8686107356,2010-12-01 23:57:04,2041.0074639788245,7,20,-1.0997490882873535,3.56052827835083,18.225399284226224,18.56910804301912,73.10468338072255,67.38192781038548,-6.47544875391759e-05,0.0963535830378532,0,0,0
6093,221010.88340988383,2010-12-01 23:57:34,2071.022263081977,7,20,-1.099568486213684,3.557452440261841,18.225399284226224,18.57827650039147,73.10468338072255,67.41455799172016,-9.713172767078504e-05,0.0963535830378532,0,0,0
6094,221040.89856865205,2010-12-01 23:58:04,2101.037421835105,7,20,-1.099568486213684,3.554376602172852,18.225399284226224,18.58744505212917,73.10468338072255,67.44716060911102,-9.713172767078504e-05,0.0963535830378532,0,0,0
6095,221070.91348612972,2010-12-01 23:58:34,2131.0523393128287,7,20,-1.099568486213684,3.5514626502990723,18.225399284226224,18.596613468649977,73.10468338072255,67.47973499246355,-6.47544875391759e-05,0.0963535830378532,0,0,0
6096,221100.9290325576,2010-12-01 23:59:04,2161.067885815857,7,20,-1.0997490882873535,3.548224925994873,18.225399284226224,18.605782116892136,73.10468338072255,67.51228221168888,-6.47544875391759e-05,0.0963535830378532,0,0,0
6097,221130.94357760856,2010-12-01 23:59:34,2191.0824308367364,7,20,-1.0997490882873535,3.5453109741210938,18.225399284226224,18.61495043024196,73.10468338072255,67.54480019648555,-6.47544875391759e-05,0.0963535830378532,0,0,0
6098,221160.9586158869,2010-12-02 00:00:04,2221.0974690649427,7,20,-1.0997490882873535,3.5420732498168945,18.225399284226224,18.624118970428636,73.10468338072255,67.5772908566704,-9.713172767078504e-05,0.0963535830378532,0,0,0
6099,221190.97547507143,2010-12-02 00:00:34,2251.114328339753,7,20,-1.099568486213684,3.5391592979431152,18.225399284226224,18.633288045174407,73.10468338072255,67.60975530576324,-9.713172767078504e-05,0.0963535830378532,0,0,0
6100,221220.98886897284,2010-12-02 00:01:04,2281.127722180966,7,20,-1.099929690361023,3.535759687423706,18.225399284226224,18.6424561108698,73.10468338072255,67.64218697560264,-0.0001295089750783,0.0963535830378532,0,0,0
6101,221251.0037602504,2010-12-02 00:01:34,2311.142613433429,7,20,-1.099568486213684,3.532683849334717,18.225399284226224,18.65162462433329,73.10468338072255,67.6745906419885,-6.47544875391759e-05,0.0963535830378532,0,0,0
6102,221281.0187894561,2010-12-02 00:02:04,2341.1576426341708,7,20,-1.099929690361023,3.5291223526000977,18.225399284226224,18.66079311041856,73.10468338072255,67.70696420313476,-0.0001295089750783,0.0963535830378532,0,0,0
6103,221311.0338553532,2010-12-02 00:02:34,2371.172708626467,7,20,-1.0997490882873535,3.5258846282958984,18.225399284226224,18.66996168356456,73.10468338072255,67.7393068065748,-6.47544875391759e-05,0.0963535830378532,0,0,0
6104,221341.04888830325,2010-12-02 00:03:04,2401.1877415013514,7,20,-1.099568486213684,3.5221612453460693,18.225399284226224,18.67913020754479,73.10468338072255,67.77161728622231,-0.0001295089750783,0.0963535830378532,0,0,0
6105,221371.06607050664,2010-12-02 00:03:34,2431.204923774932,7,20,-1.0997490882873535,3.51859974861145,18.225399284226224,18.688299365561537,73.10468338072255,67.8038973525004,-0.0001295089750783,0.0963535830378532,0,0,0
6106,221401.078969717,2010-12-02 00:04:04,2461.217822890037,7,20,-1.099568486213684,3.514876365661621,18.225399284226224,18.69746726515537,73.10468338072255,67.83613910346746,-0.0001295089750783,0.0963535830378532,0,0,0
6107,221431.09402960408,2010-12-02 00:04:34,2491.2328827871665,7,20,-1.099568486213684,3.510991334915161,18.225399284226224,18.70663580200516,73.10468338072255,67.86834763639091,-9.713172767078504e-05,0.0963535830378532,0,0,0
6108,221461.10928747887,2010-12-02 00:05:04,2521.248140436394,7,20,-1.0997490882873535,3.506782293319702,18.225399284226224,18.715804384573065,73.10468338072255,67.90051975488542,-0.0001295089750783,0.0963535830378532,0,0,0
6109,221491.1102084819,2010-12-02 00:05:34,2551.2490617502017,7,20,-1.0993878841400146,3.502573251724243,18.225399284226224,18.724968623115764,73.10468338072255,67.93263782119395,-0.0001295089750783,0.0963535830378532,0,0,0
6110,221521.1235469854,2010-12-02 00:06:04,2581.2624002988205,7,20,-1.099568486213684,3.4978785514831543,18.225399284226224,18.73413661313298,73.10468338072255,67.96472786835378,-0.0001295089750783,0.0963535830378532,0,0,0
6111,221551.1407976943,2010-12-02 00:06:34,2611.2796509625878,7,20,-1.0997490882873535,3.492860078811645,18.225399284226224,18.743305820741508,73.10468338072255,67.9967781216141,-0.0001295089750783,0.0963535830378532,0,0,0
6112,221581.15365245403,2010-12-02 00:07:04,2641.292505722317,7,20,-1.0997490882873535,3.487517833709717,18.225399284226224,18.752473688204542,73.10468338072255,68.02877621027439,-0.0001618862152099,0.0963535830378532,0,0,0
6113,221611.16878323257,2010-12-02 00:07:34,2671.3076364106064,7,20,-1.099929690361023,3.481528043746948,18.225399284226224,18.76164225606863,73.10468338072255,68.06072469957539,-0.0001618862152099,0.0963535830378532,0,0,0
6114,221641.18368954747,2010-12-02 00:08:04,2701.322542730564,7,20,-1.099568486213684,3.47505259513855,18.225399284226224,18.77081063157194,73.10468338072255,68.09261398774836,-0.0001295089750783,0.0963535830378532,0,0,0
6115,221671.1987492792,2010-12-02 00:08:34,2731.3376024522563,7,20,-1.0997490882873535,3.467282056808472,18.225399284226224,18.779979115916472,73.10468338072255,68.12443868058467,-0.0001942634553415,0.0963535830378532,0,0,0
6116,221701.21387862417,2010-12-02 00:09:04,2761.352731802215,7,20,-1.0997490882873535,3.4588639736175537,18.225399284226224,18.7891476607137,73.10468338072255,68.15619011518666,-0.0001942634553415,0.0963535830378532,0,0,0
6117,221731.2288308684,2010-12-02 00:09:34,2791.3676840715166,7,20,-1.099568486213684,3.448665142059326,18.225399284226224,18.798316135252943,73.10468338072255,68.1878564688047,-0.0002590179501567,0.0963535830378532,0,0,0
6118,221761.24397951635,2010-12-02 00:10:04,2821.382832694436,7,20,-1.0997490882873535,3.436523675918579,18.225399284226224,18.80748469827913,73.10468338072255,68.21942259611126,-0.0003561496851034,0.0963535830378532,0,0,0
6119,221791.2589111794,2010-12-02 00:10:34,2851.397764362471,7,20,-1.099568486213684,3.421792268753052,18.225399284226224,18.81665322957075,73.10468338072255,68.25086590530475,-0.0004209041653666,0.0963535830378532,0,0,0
6120,221821.2758544131,2010-12-02 00:11:04,2881.414707691448,7,20,-1.0997490882873535,3.4025278091430664,18.225399284226224,18.82582234575061,73.10468338072255,68.28215675275553,-0.0006151676061563,0.0963535830378532,0,0,0
6121,221851.28901073328,2010-12-02 00:11:34,2911.4278639113486,7,20,-1.0993878841400146,3.3775973320007324,18.225399284226224,18.83499026233543,73.10468338072255,68.31324307571957,-0.0007446765666827,0.0963535830378532,0,0,0
6122,221881.3040297487,2010-12-02 00:12:04,2941.4428829267445,7,20,-1.0997490882873535,3.34392523765564,18.225399284226224,18.844158784362985,73.10468338072255,68.34406342035193,-0.0010036944877356,0.0963535830378532,0,0,0
6123,221911.31906547063,2010-12-02 00:12:34,2971.4579186437018,7,20,-1.099568486213684,3.297787666320801,18.225399284226224,18.85332724061401,73.10468338072255,68.37452054218127,-0.0013598442310467,0.0963535830378532,0,0,0
6124,221941.3342344442,2010-12-02 00:13:05,3001.4730876323,7,20,-1.0997490882873535,3.2340047359466557,18.225399284226224,18.86249578902627,73.10468338072255,68.40447923521576,-0.0019426345825195,0.0963535830378532,0,0,0
6125,221971.3492991182,2010-12-02 00:13:35,3031.4881522912788,7,20,-1.0997490882873535,3.1427011489868164,18.225399284226224,18.871664385239168,73.10468338072255,68.43373905100691,-0.0029139518737792,0.0963535830378532,0,0,0
6126,222001.36430162253,2010-12-02 00:14:05,3061.503154915887,7,20,-1.099568486213684,2.99878478050232,18.225399284226224,18.880832946749077,73.10468338072255,68.4619536717936,-0.0048889638856053,0.0963535830378532,0,0,0
6127,222023.7856878899,2010-12-02 00:14:27,3083.9245410880158,7,20,-1.0997490882873535,2.798693895339966,18.225399284226224,18.88768192027183,73.10468338072255,68.48187539963016,-0.0089037418365478,0.0963535830378532,0,0,0
6128,222032.01985870727,2010-12-02 00:14:35,3092.1587118853454,7,20,-1.099929690361023,2.699943780899048,18.225399284226224,18.89019717455735,73.10468338072255,68.48879211914402,-0.0097131254151463,0.0963535830378532,0,0,0
6129,222092.0321346168,2010-12-02 00:15:35,60.01238939784772,8,20,0.0,3.3568758964538574,18.225399284226224,18.89019717455735,73.10468338072255,68.48879211914402,0.0013274193042889,0.0963535830378532,0,0,0
6130,222092.2207976694,2010-12-02 00:15:36,0.187646586312863,9,20,-1.9243103452026844e-05,3.3568758964538574,18.225399284226224,18.89019717556038,73.10468338072255,68.48879212251106,0.0,0.0940094217658042,0,0,0
6131,222097.04863930764,2010-12-02 00:15:40,5.01548823456833,9,20,0.0007031940040178,3.364808320999145,18.22540007800182,18.89019717564317,73.1046860491718,68.48879212278896,0.0011008263099938,0.0940094217658042,0,0,0
