Data_Point,Test_Time(s),Date_Time,Step_Time(s),Step_Index,Cycle_Index,Current(A),Voltage(V),Charge_Capacity(Ah),Discharge_Capacity(Ah),Charge_Energy(Wh),Discharge_Energy(Wh),dV/dt(V/s),Internal_Resistance(Ohm),Is_FC_Data,AC_Impedance(Ohm),ACI_Phase_Angle(Deg)
6761,244674.84760778205,2010-12-02 06:32:01,30.015012830003897,1,23,0.0,3.42988657951355,20.11418507985998,20.772636077452617,80.66684896119283,75.31680754992438,0.0007122993702068,0.0955438911914825,0,0,0
6762,244704.8626042313,2010-12-02 06:32:31,60.030009279244894,1,23,0.0,3.453036069869995,20.11418507985998,20.772636077452617,80.66684896119283,75.31680754992438,0.0005180359003134,0.0955438911914825,0,0,0
6763,244734.87773671903,2010-12-02 06:33:01,90.04514177703747,1,23,0.0,3.470357894897461,20.11418507985998,20.772636077452617,80.66684896119283,75.31680754992438,0.0004209041653666,0.0955438911914825,0,0,0
6764,244764.84589607603,2010-12-02 06:33:31,120.01330112395075,1,23,0.0,3.4842801094055176,20.11418507985998,20.772636077452617,80.66684896119283,75.31680754992438,0.0003885269106831,0.0955438911914825,0,0,0
6765,244794.86586228808,2010-12-02 06:34:01,30.015002915331618,2,23,0.5501165986061096,3.6417949199676514,20.118771494765845,20.772636077452617,80.68340344962995,75.31680754992438,0.0014245987404137,0.0955438911914825,0,0,0
6766,244824.88087654163,2010-12-02 06:34:31,60.03001716887794,2,23,0.5499359965324402,3.684370756149292,20.12335791219708,20.772636077452617,80.70021012863737,75.31680754992438,0.0010036944877356,0.0955438911914825,0,0,0
6767,244854.896026152,2010-12-02 06:35:01,90.04516677925453,2,23,0.5497553944587708,3.7146434783935542,20.127944331222857,20.772636077452617,80.71718088772992,75.31680754992438,0.0006799221155233,0.0955438911914825,0,0,0
6768,244884.9109136351,2010-12-02 06:35:31,120.06005426233745,2,23,0.5501165986061096,3.738440752029419,20.132530681048543,20.772636077452617,80.73427472657342,75.31680754992438,0.0005504131549969,0.0955438911914825,0,0,0
6769,244914.92591213944,2010-12-02 06:36:01,150.0750527666925,2,23,0.5501165986061096,3.7575430870056152,20.13711705459048,20.772636077452617,80.7514663666475,75.31680754992438,0.0004532813909463,0.0955438911914825,0,0,0
6770,244944.94095832243,2010-12-02 06:36:31,180.0900990198687,2,23,0.5499359965324402,3.771789073944092,20.14170347673645,20.772636077452617,80.76873433257224,75.31680754992438,0.0003561496851034,0.0955438911914825,0,0,0
6771,244974.9559454936,2010-12-02 06:37:01,210.1050861208469,2,23,0.550297200679779,3.78101658821106,20.146289896840862,20.772636077452617,80.78605578592105,75.31680754992438,0.0001942634553415,0.0955438911914825,0,0,0
6772,245004.97326064785,2010-12-02 06:37:31,240.12240136030812,2,23,0.5499359965324402,3.787330150604248,20.150876610605344,20.772636077452617,80.80341314342283,75.31680754992438,0.0001942634553415,0.0955438911914825,0,0,0
6773,245034.98596579029,2010-12-02 06:38:01,270.13510642252066,2,23,0.5499359965324402,3.792186737060547,20.155462665266302,20.772636077452617,80.8207933044886,75.31680754992438,9.713172767078504e-05,0.0955438911914825,0,0,0
6774,245065.001158132,2010-12-02 06:38:31,300.15029882939467,2,23,0.5501165986061096,3.796719551086426,20.16004903889376,20.772636077452617,80.83819652508897,75.31680754992438,9.713172767078504e-05,0.0955438911914825,0,0,0
6775,245095.01773612684,2010-12-02 06:39:01,330.166876844301,2,23,0.5499359965324402,3.801090478897095,20.164635652368084,20.772636077452617,80.85562115184705,75.31680754992438,9.713172767078504e-05,0.0955438911914825,0,0,0
6776,245125.0311322938,2010-12-02 06:39:31,360.1802729260892,2,23,0.5499359965324402,3.8052995204925537,20.16922176697988,20.772636077452617,80.8730633857318,75.31680754992438,9.713172767078504e-05,0.0955438911914825,0,0,0
6777,245155.0481469453,2010-12-02 06:40:01,390.19728767278576,2,23,0.5501165986061096,3.8095085620880127,20.173808440291232,20.772636077452617,80.89052666153657,75.31680754992438,0.0001295089750783,0.0955438911914825,0,0,0
6778,245185.06274586028,2010-12-02 06:40:31,420.21188653765336,2,23,0.5501165986061096,3.8135557174682617,20.17839474287441,20.772636077452617,80.90800684413823,75.31680754992438,0.0001295089750783,0.0955438911914825,0,0,0
6779,245215.07605261976,2010-12-02 06:41:01,450.22519325205417,2,23,0.5501165986061096,3.817279100418091,20.18298087754784,20.772636077452617,80.92550447641484,75.31680754992438,9.713172767078504e-05,0.0955438911914825,0,0,0
6780,245245.09106005137,2010-12-02 06:41:31,480.24020068362427,2,23,0.550297200679779,3.82100248336792,20.18756726833814,20.772636077452617,80.94302047437172,75.31680754992438,9.713172767078504e-05,0.0955438911914825,0,0,0
6781,245275.1060567462,2010-12-02 06:42:01,510.255197373464,2,23,0.5501165986061096,3.824563980102539,20.19215364499037,20.772636077452617,80.9605534272675,75.31680754992438,6.47544875391759e-05,0.0955438911914825,0,0,0
6782,245305.1212432033,2010-12-02 06:42:31,540.2703838756444,2,23,0.5501165986061096,3.828287363052368,20.19674001930267,20.772636077452617,80.97810307366987,75.31680754992438,0.0001295089750783,0.0955438911914825,0,0,0
6783,245335.13609625568,2010-12-02 06:43:01,570.2852369781725,2,23,0.550297200679779,3.832010746002197,20.201326367920185,20.772636077452617,80.99566909533861,75.31680754992438,0.0001295089750783,0.0955438911914825,0,0,0
6784,245365.1511159177,2010-12-02 06:43:31,600.3002565649906,2,23,0.5499359965324402,3.8354101181030273,20.205912708672827,20.772636077452617,81.01325132561757,75.31680754992438,9.713172767078504e-05,0.0955438911914825,0,0,0
6785,245395.1660998959,2010-12-02 06:44:01,630.315240523148,2,23,0.5499359965324402,3.8389716148376474,20.210499045586165,20.772636077452617,81.03084986394134,75.31680754992438,6.47544875391759e-05,0.0955438911914825,0,0,0
6786,245425.18124227328,2010-12-02 06:44:31,660.3303829005256,2,23,0.5499359965324402,3.8425331115722656,20.21508537966928,20.772636077452617,81.04846481730941,75.31680754992438,9.713172767078504e-05,0.0955438911914825,0,0,0
6787,245455.19614470852,2010-12-02 06:45:01,690.3452853408289,2,23,0.5501165986061096,3.8460946083068848,20.219671920170644,20.772636077452617,81.06609708884761,75.31680754992438,9.713172767078504e-05,0.0955438911914825,0,0,0
6788,245485.21113953376,2010-12-02 06:45:31,720.3602801660286,2,23,0.5501165986061096,3.849817991256714,20.224259015065545,20.772636077452617,81.08374825441878,75.31680754992438,9.713172767078504e-05,0.0955438911914825,0,0,0
6789,245515.22626367572,2010-12-02 06:46:01,750.3754043932402,2,23,0.5501165986061096,3.853541374206543,20.22884613132966,20.772636077452617,81.10141625107353,75.31680754992438,9.713172767078504e-05,0.0955438911914825,0,0,0
6790,245545.24115104857,2010-12-02 06:46:32,780.390291771061,2,23,0.550297200679779,3.857102870941162,20.233433125002826,20.772636077452617,81.11910042736332,75.31680754992438,9.713172767078504e-05,0.0955438911914825,0,0,0
6791,245575.2564293843,2010-12-02 06:47:02,810.4055700817033,2,23,0.5501165986061096,3.860826253890991,20.23802017636301,20.772636077452617,81.13680161925195,75.31680754992438,0.0001295089750783,0.0955438911914825,0,0,0
6792,245605.27117967096,2010-12-02 06:47:32,840.4203202982035,2,23,0.5501165986061096,3.8643877506256095,20.242607251699532,20.772636077452617,81.1545195017173,75.31680754992438,0.0001295089750783,0.0955438911914825,0,0,0
6793,245635.2862232224,2010-12-02 06:48:02,870.4353638496566,2,23,0.5501165986061096,3.86778736114502,20.247194008075727,20.772636077452617,81.17225254387361,75.31680754992438,6.47544875391759e-05,0.0955438911914825,0,0,0
6794,245665.30122566156,2010-12-02 06:48:32,900.4503662888033,2,23,0.5499359965324402,3.8711869716644287,20.251780198695432,20.772636077452617,81.1899995220804,75.31680754992438,3.237724376958795e-05,0.0955438911914825,0,0,0
6795,245695.31658897377,2010-12-02 06:49:02,930.4657296009684,2,23,0.5501165986061096,3.874748468399048,20.25636652391169,20.772636077452617,81.20776289983604,75.31680754992438,9.713172767078504e-05,0.0955438911914825,0,0,0
6796,245725.33125192305,2010-12-02 06:49:32,960.4803925553203,2,23,0.550297200679779,3.878148078918457,20.260952715304185,20.772636077452617,81.22554130185044,75.31680754992438,6.47544875391759e-05,0.0955438911914825,0,0,0
6797,245755.34633521843,2010-12-02 06:50:02,990.4954759408992,2,23,0.5501165986061096,3.881385803222656,20.26553896859813,20.772636077452617,81.24333505526991,75.31680754992438,6.47544875391759e-05,0.0955438911914825,0,0,0
6798,245785.36304621925,2010-12-02 06:50:32,1020.5121869417358,2,23,0.5499359965324402,3.8844616413116455,20.270125438905545,20.772636077452617,81.26114428374045,75.31680754992438,6.47544875391759e-05,0.0955438911914825,0,0,0
6799,245815.37646155892,2010-12-02 06:51:02,1050.5256022563842,2,23,0.5499359965324402,3.8875374794006343,20.274711516626866,20.772636077452617,81.27896601260473,75.31680754992438,9.713172767078504e-05,0.0955438911914825,0,0,0
6800,245845.3912956241,2010-12-02 06:51:32,1080.540436251364,2,23,0.5499359965324402,3.890451431274414,20.279297733969063,20.772636077452617,81.29680175211506,75.31680754992438,9.713172767078504e-05,0.0955438911914825,0,0,0
6801,245875.40647516897,2010-12-02 06:52:02,1110.5556158463562,2,23,0.5499359965324402,3.893041610717773,20.28388404076041,20.772636077452617,81.31465058811078,75.31680754992438,3.237724376958795e-05,0.0955438911914825,0,0,0
6802,245905.42144087676,2010-12-02 06:52:32,1140.5705815039732,2,23,0.5497553944587708,3.895308017730713,20.28847029769656,20.772636077452617,81.33251104440104,75.31680754992438,0.0,0.0955438911914825,0,0,0
6803,245935.4363399637,2010-12-02 06:53:02,1170.585480590932,2,23,0.550297200679779,3.898060083389282,20.293056531481472,20.772636077452617,81.35038257729232,75.31680754992438,9.713172767078504e-05,0.0955438911914825,0,0,0
6804,245965.45133225256,2010-12-02 06:53:32,1200.6004728798202,2,23,0.5499359965324402,3.900164604187012,20.29764280215875,20.772636077452617,81.36826485398164,75.31680754992438,3.237724376958795e-05,0.0955438911914825,0,0,0
6805,245995.46636744324,2010-12-02 06:54:02,1230.6155080905176,2,23,0.5501165986061096,3.902269124984741,20.30222897156445,20.772636077452617,81.38615665373307,75.31680754992438,3.237724376958795e-05,0.0955438911914825,0,0,0
6806,246025.48135673968,2010-12-02 06:54:32,1260.6304973618967,2,23,0.5501165986061096,3.9042117595672607,20.306815189274985,20.772636077452617,81.40405793676196,75.31680754992438,3.237724376958795e-05,0.0955438911914825,0,0,0
6807,246055.4963764518,2010-12-02 06:55:02,1290.645517079039,2,23,0.5499359965324402,3.90615439414978,20.31140148991844,20.772636077452617,81.42196824022406,75.31680754992438,3.237724376958795e-05,0.0955438911914825,0,0,0
6808,246085.5113767807,2010-12-02 06:55:32,1320.6605174179597,2,23,0.5501165986061096,3.90793514251709,20.3159877321628,20.772636077452617,81.43988658776208,75.31680754992438,6.47544875391759e-05,0.0955438911914825,0,0,0
6809,246115.52636589165,2010-12-02 06:56:02,1350.6755065389643,2,23,0.5501165986061096,3.9095540046691895,20.32057399780633,20.772636077452617,81.45781292734598,75.31680754992438,3.237724376958795e-05,0.0955438911914825,0,0,0
6810,246145.54139747832,2010-12-02 06:56:32,1380.6905381306558,2,23,0.550297200679779,3.911172866821289,20.32516024945044,20.772636077452617,81.47574677985482,75.31680754992438,3.237724376958795e-05,0.0955438911914825,0,0,0
6811,246175.5564076367,2010-12-02 06:57:02,1410.7055482589367,2,23,0.5501165986061096,3.9127917289733887,20.32974647134036,20.772636077452617,81.49368791304144,75.31680754992438,6.47544875391759e-05,0.0955438911914825,0,0,0
6812,246205.5714218552,2010-12-02 06:57:32,1440.7205624874207,2,23,0.5501165986061096,3.914248466491699,20.3343327674486,20.772636077452617,81.5116365966348,75.31680754992438,0.0,0.0955438911914825,0,0,0
6813,246235.5864242542,2010-12-02 06:58:02,1470.7355648814548,2,23,0.5501165986061096,3.915705442428589,20.338919072934157,20.772636077452617,81.52959235811491,75.31680754992438,3.237724376958795e-05,0.0955438911914825,0,0,0
6814,246265.6015444063,2010-12-02 06:58:32,1500.7506850385382,2,23,0.550297200679779,3.9174861907958975,20.343505356584128,20.772636077452617,81.54755495082826,75.31680754992438,6.47544875391759e-05,0.0955438911914825,0,0,0
6815,246295.6165757173,2010-12-02 06:59:02,1530.7657163445188,2,23,0.550297200679779,3.918943166732788,20.34809164197668,20.772636077452617,81.56552446167711,75.31680754992438,6.47544875391759e-05,0.0955438911914825,0,0,0
6816,246325.63145037845,2010-12-02 06:59:32,1560.7805910107074,2,23,0.5501165986061096,3.9204001426696777,20.352677902550745,20.772636077452617,81.58350075519556,75.31680754992438,3.237724376958795e-05,0.0955438911914825,0,0,0
6817,246355.6464648676,2010-12-02 07:00:02,1590.7956054948274,2,23,0.5501165986061096,3.921695232391357,20.35726419629843,20.772636077452617,81.60148396935992,75.31680754992438,3.237724376958795e-05,0.0955438911914825,0,0,0
6818,246385.6633073356,2010-12-02 07:00:32,1620.8124480680772,2,23,0.5499359965324402,3.923314094543457,20.36185069869252,20.772636077452617,81.61947486996823,75.31680754992438,6.47544875391759e-05,0.0955438911914825,0,0,0
6819,246415.6766489719,2010-12-02 07:01:02,1650.8257896291925,2,23,0.5501165986061096,3.9249329566955566,20.36643671187983,20.772636077452617,81.63747074032817,75.31680754992438,6.47544875391759e-05,0.0955438911914825,0,0,0
6820,246445.6914954279,2010-12-02 07:01:32,1680.8406360551062,2,23,0.5501165986061096,3.926228046417236,20.3710229987613,20.772636077452617,81.65547452699644,75.31680754992438,3.237724376958795e-05,0.0955438911914825,0,0,0
6821,246475.7066507525,2010-12-02 07:02:02,1710.8557913897275,2,23,0.5501165986061096,3.927846908569336,20.375609293271257,20.772636077452617,81.67348524232092,75.31680754992438,6.47544875391759e-05,0.0955438911914825,0,0,0
6822,246505.7215251931,2010-12-02 07:02:32,1740.8706658203298,2,23,0.5501165986061096,3.929141998291016,20.380195570238097,20.772636077452617,81.69150284523998,75.31680754992438,0.0,0.0955438911914825,0,0,0
6823,246535.7367900252,2010-12-02 07:03:02,1770.8859307175933,2,23,0.5501165986061096,3.930922746658325,20.384781878802457,20.772636077452617,81.70952759166613,75.31680754992438,3.237724376958795e-05,0.0955438911914825,0,0,0
6824,246565.75154825664,2010-12-02 07:03:32,1800.9006888838765,2,23,0.5501165986061096,3.932379722595215,20.38936816425827,20.772636077452617,81.72755915722668,75.31680754992438,0.0,0.0955438911914825,0,0,0
6825,246595.76655698143,2010-12-02 07:04:02,1830.915697613677,2,23,0.5501165986061096,3.9339985847473145,20.393954488547923,20.772636077452617,81.74559794249603,75.31680754992438,6.47544875391759e-05,0.0955438911914825,0,0,0
6826,246625.7815722926,2010-12-02 07:04:32,1860.930712919843,2,23,0.550297200679779,3.935617446899414,20.39854088565178,20.772636077452617,81.76364414529232,75.31680754992438,6.47544875391759e-05,0.0955438911914825,0,0,0
6827,246655.79704110228,2010-12-02 07:05:02,1890.946181824772,2,23,0.5501165986061096,3.937074422836304,20.40312729273347,20.772636077452617,81.7816973332595,75.31680754992438,6.47544875391759e-05,0.0955438911914825,0,0,0
6828,246685.8116034914,2010-12-02 07:05:32,1920.9607441687583,2,23,0.5501165986061096,3.938531398773194,20.40771341668533,20.772636077452617,81.79975660999719,75.31680754992438,3.237724376958795e-05,0.0955438911914825,0,0,0
6829,246715.8266030534,2010-12-02 07:06:02,1950.9757436806208,2,23,0.5501165986061096,3.940312147140503,20.41229949548976,20.772636077452617,81.81782279008755,75.31680754992438,6.47544875391759e-05,0.0955438911914825,0,0,0
6830,246745.841576355,2010-12-02 07:06:32,1980.9907170123347,2,23,0.5501165986061096,3.9417691230773926,20.416885701895243,20.772636077452617,81.83589670090068,75.31680754992438,3.237724376958795e-05,0.0955438911914825,0,0,0
6831,246775.856786496,2010-12-02 07:07:02,2011.0059271232644,2,23,0.5499359965324402,3.943226099014282,20.421472003875635,20.772636077452617,81.85397815343764,75.31680754992438,0.0,0.0955438911914825,0,0,0
6832,246805.8716893975,2010-12-02 07:07:32,2041.0208300247152,2,23,0.5501165986061096,3.945006847381592,20.42605823273239,20.772636077452617,81.87206659298647,75.31680754992438,6.47544875391759e-05,0.0955438911914825,0,0,0
6833,246835.8867097512,2010-12-02 07:08:02,2071.035850383454,2,23,0.5499359965324402,3.946301937103272,20.430644459156067,20.772636077452617,81.89016237109783,75.31680754992438,0.0,0.0955438911914825,0,0,0
6834,246865.90172159372,2010-12-02 07:08:32,2101.0508622861503,2,23,0.550297200679779,3.948082685470581,20.435230776771235,20.772636077452617,81.9082656837366,75.31680754992438,6.47544875391759e-05,0.0955438911914825,0,0,0
6835,246895.91672667448,2010-12-02 07:09:02,2131.065867306721,2,23,0.5499359965324402,3.949539661407471,20.4398170066275,20.772636077452617,81.92637601790936,75.31680754992438,3.237724376958795e-05,0.0955438911914825,0,0,0
6836,246925.9339234341,2010-12-02 07:09:32,2161.0830641615867,2,23,0.5501165986061096,3.95132040977478,20.44440304234246,20.772636077452617,81.94449294042904,75.31680754992438,6.47544875391759e-05,0.0955438911914825,0,0,0
6837,246955.94673991852,2010-12-02 07:10:02,2191.095880555845,2,23,0.5499359965324402,3.95293927192688,20.44898808557231,20.772636077452617,81.96261327805075,75.31680754992438,6.47544875391759e-05,0.0955438911914825,0,0,0
6838,246985.9634908588,2010-12-02 07:10:32,2221.112631621381,2,23,0.5499359965324402,3.95455813407898,20.453574230725565,20.772636077452617,81.98074555838348,75.31680754992438,6.47544875391759e-05,0.0955438911914825,0,0,0
6839,247015.9768017135,2010-12-02 07:11:02,2251.125942340748,2,23,0.5501165986061096,3.956015110015869,20.45816023622688,20.772636077452617,81.998884802046,75.31680754992438,0.0,0.0955438911914825,0,0,0
6840,247045.97787987764,2010-12-02 07:11:32,2281.127020640208,2,23,0.550297200679779,3.9579577445983887,20.462744410399303,20.772636077452617,82.01702423164306,75.31680754992438,9.713172767078504e-05,0.0955438911914825,0,0,0
6841,247075.99121453156,2010-12-02 07:12:02,2311.1403552640613,2,23,0.5499359965324402,3.9594147205352783,20.46733036299528,20.772636077452617,82.03517828516507,75.31680754992438,3.237724376958795e-05,0.0955438911914825,0,0,0
6842,247106.00825042083,2010-12-02 07:12:32,2341.157391148358,2,23,0.5501165986061096,3.961195468902588,20.471916911074302,20.772636077452617,82.05334227286026,75.31680754992438,6.47544875391759e-05,0.0955438911914825,0,0,0
6843,247136.0212412492,2010-12-02 07:13:02,2371.170381966663,2,23,0.5501165986061096,3.9626524448394775,20.476502907420333,20.772636077452617,82.07151166431947,75.31680754992438,3.237724376958795e-05,0.0955438911914825,0,0,0
6844,247166.0363530705,2010-12-02 07:13:32,2401.185493697779,2,23,0.5501165986061096,3.964433193206787,20.48108920430217,20.772636077452617,82.0896899487686,75.31680754992438,3.237724376958795e-05,0.0955438911914825,0,0,0
6845,247196.05128637765,2010-12-02 07:14:02,2431.2004270199304,2,23,0.5501165986061096,3.9662139415740967,20.48567542309075,20.772636077452617,82.10787554215437,75.31680754992438,6.47544875391759e-05,0.0955438911914825,0,0,0
6846,247226.06636301143,2010-12-02 07:14:32,2461.21550363867,2,23,0.5499359965324402,3.9676709175109854,20.49026171488652,20.772636077452617,82.12606908169036,75.31680754992438,3.237724376958795e-05,0.0955438911914825,0,0,0
6847,247256.0814706724,2010-12-02 07:15:02,2491.230611369832,2,23,0.5501165986061096,3.969289779663086,20.494848011776806,20.772636077452617,82.14427035467693,75.31680754992438,3.237724376958795e-05,0.0955438911914825,0,0,0
6848,247286.09628228671,2010-12-02 07:15:32,2521.245422928981,2,23,0.5501165986061096,3.9712324142456055,20.49943424226547,20.772636077452617,82.16247909891196,75.31680754992438,6.47544875391759e-05,0.0955438911914825,0,0,0
6849,247316.11126979368,2010-12-02 07:16:02,2551.260410425945,2,23,0.550297200679779,3.973013162612915,20.504020508494595,20.772636077452617,82.18069577475494,75.31680754992438,6.47544875391759e-05,0.0955438911914825,0,0,0
6850,247346.126291591,2010-12-02 07:16:32,2581.2754323084755,2,23,0.5499359965324402,3.9744701385498047,20.50860685161133,20.772636077452617,82.19892057812514,75.31680754992438,0.0,0.0955438911914825,0,0,0
6851,247376.14129238605,2010-12-02 07:17:02,2611.2904330183187,2,23,0.5501165986061096,3.976412773132324,20.513193136168983,20.772636077452617,82.21715302716734,75.31680754992438,9.713172767078504e-05,0.0955438911914825,0,0,0
6852,247406.15634065925,2010-12-02 07:17:32,2641.305481291522,2,23,0.5501165986061096,3.977869749069214,20.51777945852872,20.772636077452617,82.23539346240823,75.31680754992438,3.237724376958795e-05,0.0955438911914825,0,0,0
6853,247436.1713208681,2010-12-02 07:18:02,2671.3204614953365,2,23,0.5499359965324402,3.979650497436523,20.52236568283412,20.772636077452617,82.2536412467282,75.31680754992438,3.237724376958795e-05,0.0955438911914825,0,0,0
6854,247466.18647807732,2010-12-02 07:18:32,2701.33561879986,2,23,0.5501165986061096,3.981755018234253,20.526951875446173,20.772636077452617,82.27189731715441,75.31680754992438,0.0001295089750783,0.0955438911914825,0,0,0
6855,247496.20133095435,2010-12-02 07:19:03,2731.3504715815893,2,23,0.5499359965324402,3.983211994171143,20.5315380693566,20.772636077452617,82.290161504912,75.31680754992438,3.237724376958795e-05,0.0955438911914825,0,0,0
6856,247526.2164899681,2010-12-02 07:19:33,2761.365630595366,2,23,0.5501165986061096,3.985154628753662,20.53612427273195,20.772636077452617,82.30843390029274,75.31680754992438,9.713172767078504e-05,0.0955438911914825,0,0,0
6857,247556.23135765697,2010-12-02 07:20:03,2791.380498284192,2,23,0.5499359965324402,3.986935377120972,20.54071047599683,20.772636077452617,82.32671455737045,75.31680754992438,3.237724376958795e-05,0.0955438911914825,0,0,0
6858,247586.24636529904,2010-12-02 07:20:33,2821.3955059312984,2,23,0.5501165986061096,3.988716125488281,20.54529675449672,20.772636077452617,82.34500380551361,75.31680754992438,3.237724376958795e-05,0.0955438911914825,0,0,0
6859,247616.26316711085,2010-12-02 07:21:03,2851.412307838352,2,23,0.550297200679779,3.990658760070801,20.54988310680861,20.772636077452617,82.36330171521351,75.31680754992438,9.713172767078504e-05,0.0955438911914825,0,0,0
6860,247646.27678047336,2010-12-02 07:21:33,2881.425921220884,2,23,0.5501165986061096,3.9924395084381104,20.55446903414741,20.772636077452617,82.38160628775658,75.31680754992438,6.47544875391759e-05,0.0955438911914825,0,0,0
6861,247676.2913843256,2010-12-02 07:22:03,2911.440524952863,2,23,0.5499359965324402,3.994220018386841,20.55905515304684,20.772636077452617,82.39992007534968,75.31680754992438,3.237724376958795e-05,0.0955438911914825,0,0,0
6862,247706.30644564127,2010-12-02 07:22:33,2941.455586278547,2,23,0.5501165986061096,3.9960007667541504,20.563641352461048,20.772636077452617,82.41824279690269,75.31680754992438,3.237724376958795e-05,0.0955438911914825,0,0,0
6863,247736.3214514839,2010-12-02 07:23:03,2971.470592111138,2,23,0.550297200679779,3.99826717376709,20.568227557659043,20.772636077452617,82.43657427298777,75.31680754992438,9.713172767078504e-05,0.0955438911914825,0,0,0
6864,247766.33647293533,2010-12-02 07:23:33,3001.485613562596,2,23,0.5501165986061096,3.9998860359191895,20.572813777492208,20.772636077452617,82.45491441639115,75.31680754992438,3.237724376958795e-05,0.0955438911914825,0,0,0
6865,247796.3514771038,2010-12-02 07:24:03,3031.5006177360588,2,23,0.5501165986061096,4.001828670501709,20.577399938695407,20.772636077452617,82.47326326452252,75.31680754992438,3.23295607813634e-05,0.0955438911914825,0,0,0
6866,247826.36653134183,2010-12-02 07:24:33,3061.5156720342543,2,23,0.5501165986061096,4.0037713050842285,20.581986085658148,20.772636077452617,82.49162109396359,75.31680754992438,3.23295607813634e-05,0.0955438911914825,0,0,0
6867,247856.38149977635,2010-12-02 07:25:03,3091.53064040362,2,23,0.5499359965324402,4.005876064300537,20.58657219423588,20.772636077452617,82.50998788657989,75.31680754992438,3.24249267578125e-05,0.0955438911914825,0,0,0
6868,247886.39652046093,2010-12-02 07:25:33,3121.5456610881697,2,23,0.5499359965324402,4.007818698883057,20.591158345933597,20.772636077452617,82.52836411175278,75.31680754992438,0.0,0.0955438911914825,0,0,0
6869,247916.411528504,2010-12-02 07:26:03,3151.5606691362736,2,23,0.5501165986061096,4.010085105895996,20.59574455417478,20.772636077452617,82.54674990742728,75.31680754992438,6.47544875391759e-05,0.0955438911914825,0,0,0
6870,247946.42653327892,2010-12-02 07:26:33,3181.575673906221,2,23,0.5501165986061096,4.012027740478516,20.60033070903979,20.772636077452617,82.56514497958287,75.31680754992438,3.24249267578125e-05,0.0955438911914825,0,0,0
6871,247976.4415445501,2010-12-02 07:27:03,3211.590685182357,2,23,0.5501165986061096,4.014132022857666,20.60491681223065,20.772636077452617,82.58354951309191,75.31680754992438,3.23295607813634e-05,0.0955438911914825,0,0,0
6872,248006.4566929174,2010-12-02 07:27:33,3241.605833544628,2,23,0.5501165986061096,4.016236782073975,20.609502991434173,20.772636077452617,82.60196402047909,75.31680754992438,3.24249267578125e-05,0.0955438911914825,0,0,0
6873,248036.47159172365,2010-12-02 07:28:03,3271.6207323809635,2,23,0.550297200679779,4.018503189086914,20.61408908930599,20.772636077452617,82.62038800367627,75.31680754992438,6.47544875391759e-05,0.0955438911914825,0,0,0
6874,248066.4865923683,2010-12-02 07:28:33,3301.635733020632,2,23,0.550297200679779,4.0207695960998535,20.618675250213258,20.772636077452617,82.63882205589064,75.31680754992438,9.71794142969884e-05,0.0955438911914825,0,0,0
6875,248096.50159712823,2010-12-02 07:29:03,3331.6507377554917,2,23,0.5499359965324402,4.022550106048584,20.62326137906712,20.772636077452617,82.65726605577858,75.31680754992438,0.0,0.0955438911914825,0,0,0
6876,248126.51662375257,2010-12-02 07:29:33,3361.665764379822,2,23,0.5497553944587708,4.0249786376953125,20.62784752814929,20.772636077452617,82.67572022166193,75.31680754992438,6.47544875391759e-05,0.0955438911914825,0,0,0
6877,248156.53164432687,2010-12-02 07:30:03,3391.680785049334,2,23,0.5499359965324402,4.027245044708252,20.632433652104844,20.772636077452617,82.6941845259269,75.31680754992438,6.47544875391759e-05,0.0955438911914825,0,0,0
6878,248186.5467849148,2010-12-02 07:30:33,3421.6959255470347,2,23,0.550297200679779,4.029673099517822,20.637019873244515,20.772636077452617,82.71265966693186,75.31680754992438,6.47544875391759e-05,0.0955438911914825,0,0,0
6879,248216.56362114724,2010-12-02 07:31:03,3451.7127617845176,2,23,0.5501165986061096,4.031939506530762,20.64160632584601,20.772636077452617,82.73114607943718,75.31680754992438,6.47544875391759e-05,0.0955438911914825,0,0,0
6880,248246.57671041053,2010-12-02 07:31:33,3481.7258510478,2,23,0.550297200679779,4.034205913543701,20.64619220406948,20.772636077452617,82.74964082925753,75.31680754992438,6.47544875391759e-05,0.0955438911914825,0,0,0
6881,248276.5916718577,2010-12-02 07:32:03,3511.7408124899266,2,23,0.5501165986061096,4.036633968353272,20.650778315245283,20.772636077452617,82.76814715677278,75.31680754992438,9.70840483205393e-05,0.0955438911914825,0,0,0
6882,248306.60668364007,2010-12-02 07:32:33,3541.755824277336,2,23,0.5501165986061096,4.038900375366211,20.65536448049892,20.772636077452617,82.78666456022202,75.31680754992438,6.47544875391759e-05,0.0955438911914825,0,0,0
6883,248336.6217057983,2010-12-02 07:33:03,3571.7708464255284,2,23,0.5499359965324402,4.04116678237915,20.65995063829085,20.772636077452617,82.80519279704276,75.31680754992438,6.47544875391759e-05,0.0955438911914825,0,0,0
6884,248366.63671897416,2010-12-02 07:33:33,3601.785859601393,2,23,0.5501165986061096,4.04375696182251,20.664536810572702,20.772636077452617,82.8237321880038,75.31680754992438,9.70840483205393e-05,0.0955438911914825,0,0,0
6885,248396.65171988448,2010-12-02 07:34:03,3631.80086052176,2,23,0.5501165986061096,4.046185493469238,20.669122999443005,20.772636077452617,82.84228285746869,75.31680754992438,6.47544875391759e-05,0.0955438911914825,0,0,0
6886,248426.6667425389,2010-12-02 07:34:33,3661.815883166186,2,23,0.5501165986061096,4.048451900482178,20.67370918512005,20.772636077452617,82.8608447716822,75.31680754992438,3.24249267578125e-05,0.0955438911914825,0,0,0
6887,248456.68190593363,2010-12-02 07:35:03,3691.8310466510898,2,23,0.5501165986061096,4.051042079925537,20.678295424394687,20.772636077452617,82.87941821723554,75.31680754992438,9.71794142969884e-05,0.0955438911914825,0,0,0
6888,248486.69689137043,2010-12-02 07:35:33,3721.8460320027134,2,23,0.5499359965324402,4.0536322593688965,20.68288155354207,20.772636077452617,82.89800267360305,75.31680754992438,6.47544875391759e-05,0.0955438911914825,0,0,0
6889,248516.71176324468,2010-12-02 07:36:03,3751.8609038970058,2,23,0.550297200679779,4.056222438812256,20.687467724635813,20.772636077452617,82.91659884113372,75.31680754992438,9.71794142969884e-05,0.0955438911914825,0,0,0
6890,248546.72677999947,2010-12-02 07:36:33,3781.8759206267137,2,23,0.5501165986061096,4.058650493621826,20.692053835562344,20.772636077452617,82.9352063699134,75.31680754992438,9.70840483205393e-05,0.0955438911914825,0,0,0
6891,248576.7417899072,2010-12-02 07:37:03,3811.8909305394577,2,23,0.5501165986061096,4.0612406730651855,20.696640065508145,20.772636077452617,82.95382609570449,75.31680754992438,9.70840483205393e-05,0.0955438911914825,0,0,0
6892,248606.7570931048,2010-12-02 07:37:33,3841.9062338272543,2,23,0.5497553944587708,4.063669204711914,20.701226261962397,20.772636077452617,82.97245745470093,75.31680754992438,6.47544875391759e-05,0.0955438911914825,0,0,0
6893,248636.7718400682,2010-12-02 07:38:03,3871.9209806954223,2,23,0.550297200679779,4.066583156585693,20.70581230740154,20.772636077452617,82.99110024749284,75.31680754992438,0.0001295089750783,0.0955438911914825,0,0,0
6894,248666.78685083808,2010-12-02 07:38:33,3901.935991475325,2,23,0.5501165986061096,4.069173336029053,20.710398443401097,20.772636077452617,83.00975549472932,75.31680754992438,0.0001295089750783,0.0955438911914825,0,0,0
6895,248696.8018453274,2010-12-02 07:39:03,3931.950985959677,2,23,0.5501165986061096,4.071601390838623,20.714984623734136,20.772636077452617,83.02842326684012,75.31680754992438,6.47544875391759e-05,0.0955438911914825,0,0,0
6896,248726.816864002,2010-12-02 07:39:33,3961.966004629212,2,23,0.5501165986061096,4.074515342712402,20.71957077567577,20.772636077452617,83.04710332716462,75.31680754992438,6.47544875391759e-05,0.0955438911914825,0,0,0
6897,248756.83187924296,2010-12-02 07:40:03,3991.981019870216,2,23,0.5499359965324402,4.077267646789551,20.724156858389197,20.772636077452617,83.06579554749028,75.31680754992438,9.71794142969884e-05,0.0955438911914825,0,0,0
6898,248786.8468787147,2010-12-02 07:40:33,4021.996019346991,2,23,0.5501165986061096,4.080019474029541,20.728743032115343,20.772636077452617,83.08450078624227,75.31680754992438,6.47544875391759e-05,0.0955438911914825,0,0,0
6899,248816.86375053576,2010-12-02 07:41:03,4052.012891268272,2,23,0.5501165986061096,4.0827717781066895,20.73332945110212,20.772636077452617,83.10321972548167,75.31680754992438,6.47544875391759e-05,0.0955438911914825,0,0,0
6900,248846.87693938188,2010-12-02 07:41:33,4082.0260800742617,2,23,0.5501165986061096,4.085685729980469,20.73791532075848,20.772636077452617,83.12194930743466,75.31680754992438,9.71794142969884e-05,0.0955438911914825,0,0,0
6901,248876.894064428,2010-12-02 07:42:03,4112.043205155522,2,23,0.5499359965324402,4.088437557220459,20.742501815268888,20.772636077452617,83.14069441709482,75.31680754992438,6.47544875391759e-05,0.0955438911914825,0,0,0
6902,248906.9069408266,2010-12-02 07:42:33,4142.056081458861,2,23,0.5501165986061096,4.091351509094238,20.747087646471368,20.772636077452617,83.15944993501576,75.31680754992438,9.70840483205393e-05,0.0955438911914825,0,0,0
6903,248936.92194644868,2010-12-02 07:43:03,4172.071087075916,2,23,0.5501165986061096,4.094265460968018,20.751673810892363,20.772636077452617,83.17821998557056,75.31680754992438,9.70840483205393e-05,0.0955438911914825,0,0,0
6904,248966.93869210573,2010-12-02 07:43:33,4202.087832838255,2,23,0.5501165986061096,4.097017765045166,20.756260252894293,20.772636077452617,83.19700450685855,75.31680754992438,6.47544875391759e-05,0.0955438911914825,0,0,0
6905,248996.9519857827,2010-12-02 07:44:03,4232.101126409951,2,23,0.5501165986061096,4.100093364715576,20.760846182909862,20.772636077452617,83.21580037507857,75.31680754992438,9.70840483205393e-05,0.0955438911914825,0,0,0
6906,249026.9690487093,2010-12-02 07:44:33,4262.118189466866,2,23,0.5501165986061096,4.103007316589356,20.7654326743676,20.772636077452617,83.23461200084536,75.31680754992438,9.70840483205393e-05,0.0955438911914825,0,0,0
6907,249056.9820066508,2010-12-02 07:45:03,4292.131147283047,2,23,0.5499359965324402,4.105921268463135,20.77001858467452,20.772636077452617,83.25343491304619,75.31680754992438,6.47544875391759e-05,0.0955438911914825,0,0,0
6908,249086.997054513,2010-12-02 07:45:33,4322.14619515024,2,23,0.5499359965324402,4.108997344970703,20.774604771410573,20.772636077452617,83.27227273996115,75.31680754992438,9.71794142969884e-05,0.0955438911914825,0,0,0
6909,249117.01203018552,2010-12-02 07:46:03,4352.161170812753,2,23,0.5501165986061096,4.112072944641113,20.77919091295164,20.772636077452617,83.29112430360009,75.31680754992438,9.70840483205393e-05,0.0955438911914825,0,0,0
6910,249147.02716594143,2010-12-02 07:46:33,4382.1763065636405,2,23,0.5501165986061096,4.114986896514893,20.783777140316243,20.772636077452617,83.3099901220036,75.31680754992438,6.47544875391759e-05,0.0955438911914825,0,0,0
6911,249177.04210142395,2010-12-02 07:47:03,4412.191242066218,2,23,0.5499359965324402,4.118224620819092,20.78836326333445,20.772636077452617,83.32886968016959,75.31680754992438,9.71794142969884e-05,0.0955438911914825,0,0,0
6912,249207.05722162616,2010-12-02 07:47:33,4442.206362263402,2,23,0.5501165986061096,4.121300220489502,20.792949470783853,20.772636077452617,83.34776386048316,75.31680754992438,9.70840483205393e-05,0.0955438911914825,0,0,0
6913,249237.0720887686,2010-12-02 07:48:03,4472.221229400856,2,23,0.5501165986061096,4.124537944793701,20.79753555169059,20.772636077452617,83.36667187765212,75.31680754992438,9.70840483205393e-05,0.0955438911914825,0,0,0
6914,249267.08722273505,2010-12-02 07:48:33,4502.23636336229,2,23,0.5501165986061096,4.1276140213012695,20.802121773488697,20.772636077452617,83.38559501766865,75.31680754992438,6.47544875391759e-05,0.0955438911914825,0,0,0
6915,249297.10213232812,2010-12-02 07:49:03,4532.251272980456,2,23,0.5499359965324402,4.1310133934021,20.80670800679881,20.772636077452617,83.4045328680484,75.31680754992438,0.0001295089750783,0.0955438911914825,0,0,0
6916,249327.11729596843,2010-12-02 07:49:33,4562.266436605708,2,23,0.5501165986061096,4.134089469909668,20.811294248091738,20.772636077452617,83.42348553940872,75.31680754992438,6.47544875391759e-05,0.0955438911914825,0,0,0
6917,249357.1321335523,2010-12-02 07:50:03,4592.281274179592,2,23,0.5501165986061096,4.137327194213867,20.815880419130263,20.772636077452617,83.44245282184792,75.31680754992438,6.47544875391759e-05,0.0955438911914825,0,0,0
6918,249387.1472758495,2010-12-02 07:50:33,4622.296416476771,2,23,0.5499359965324402,4.140564918518066,20.820466676795533,20.772636077452617,83.46143558925074,75.31680754992438,3.24249267578125e-05,0.0955438911914825,0,0,0
6919,249417.16402744132,2010-12-02 07:51:04,4652.3131681688665,2,23,0.5501165986061096,4.1439642906188965,20.825053208395573,20.772636077452617,83.48043471034704,75.31680754992438,9.70840483205393e-05,0.0955438911914825,0,0,0
6920,249447.1774457685,2010-12-02 07:51:34,4682.3265864258365,2,23,0.5499359965324402,4.147364139556885,20.829639095630057,20.772636077452617,83.49944681490014,75.31680754992438,6.47544875391759e-05,0.0955438911914825,0,0,0
6921,249477.192191138,2010-12-02 07:52:04,4712.3413317652,2,23,0.5499359965324402,4.150763511657715,20.83422523994233,20.772636077452617,83.51847537391286,75.31680754992438,6.47544875391759e-05,0.0955438911914825,0,0,0
6922,249507.2073505628,2010-12-02 07:52:34,4742.356491225087,2,23,0.5501165986061096,4.154163360595703,20.83881140141783,20.772636077452617,83.53751937075076,75.31680754992438,9.71794142969884e-05,0.0955438911914825,0,0,0
6923,249537.2222128632,2010-12-02 07:53:04,4772.371353490417,2,23,0.5501165986061096,4.157562732696533,20.84339758173871,20.772636077452617,83.55657890801768,75.31680754992438,9.70840483205393e-05,0.0955438911914825,0,0,0
6924,249567.23771876012,2010-12-02 07:53:34,4802.386859462586,2,23,0.5497553944587708,4.1609625816345215,20.84798384783281,20.772636077452617,83.5756545025562,75.31680754992438,6.47544875391759e-05,0.0955438911914825,0,0,0
6925,249597.25224778624,2010-12-02 07:54:04,4832.401388418487,2,23,0.5501165986061096,4.164524078369141,20.85256994475457,20.772636077452617,83.5947452199104,75.31680754992438,9.71794142969884e-05,0.0955438911914825,0,0,0
6926,249627.267189399,2010-12-02 07:54:34,4862.41633005132,2,23,0.5499359965324402,4.167923450469971,20.85715605344303,20.772636077452617,83.6138517582967,75.31680754992438,9.70840483205393e-05,0.0955438911914825,0,0,0
6927,249657.28224589268,2010-12-02 07:55:04,4892.431386519917,2,23,0.5499359965324402,4.171323299407959,20.86174228909225,20.772636077452617,83.6329748086623,75.31680754992438,6.47544875391759e-05,0.0955438911914825,0,0,0
6928,249687.2971896107,2010-12-02 07:55:34,4922.446330257989,2,23,0.5499359965324402,4.174722671508789,20.866328552970163,20.772636077452617,83.65211412884743,75.31680754992438,6.47544875391759e-05,0.0955438911914825,0,0,0
6929,249717.31226453523,2010-12-02 07:56:04,4952.461405192537,2,23,0.5499359965324402,4.178446292877197,20.870914779823156,20.772636077452617,83.671269566372,75.31680754992438,6.47544875391759e-05,0.0955438911914825,0,0,0
6930,249747.32725139052,2010-12-02 07:56:34,4982.476392103041,2,23,0.5499359965324402,4.182007789611816,20.87550099659372,20.772636077452617,83.69044124611553,75.31680754992438,9.71794142969884e-05,0.0955438911914825,0,0,0
6931,249777.3422816389,2010-12-02 07:57:04,5012.491422266178,2,23,0.5501165986061096,4.185569286346436,20.880087314679,20.772636077452617,83.70962967436243,75.31680754992438,9.71794142969884e-05,0.0955438911914825,0,0,0
6932,249807.35730477457,2010-12-02 07:57:34,5042.506445401827,2,23,0.550297200679779,4.189454555511475,20.884673493129625,20.772636077452617,83.72883399916137,75.31680754992438,0.0001295089750783,0.0955438911914825,0,0,0
6933,249837.37231195555,2010-12-02 07:58:04,5072.521452587786,2,23,0.5501165986061096,4.192853927612305,20.889259788838643,20.772636077452617,83.74805531950133,75.31680754992438,9.70840483205393e-05,0.0955438911914825,0,0,0
6934,249867.38732544216,2010-12-02 07:58:34,5102.536466094473,2,23,0.5501165986061096,4.196577072143555,20.893846183120377,20.772636077452617,83.76729373400092,75.31680754992438,6.47544875391759e-05,0.0955438911914825,0,0,0
6935,249895.3398816833,2010-12-02 07:59:02,5130.489022310519,2,23,0.5501165986061096,4.200138568878174,20.89811737327415,20.772636077452617,83.7852250778636,75.31680754992438,0.0001618385285837,0.0955438911914825,0,0,0
6936,249925.35536410924,2010-12-02 07:59:32,30.015030082937155,3,23,0.0,4.107216358184815,20.89811737327415,20.772636077452617,83.7852250778636,75.31680754992438,-0.0003885269106831,0.0955438911914825,0,0,0
6937,249955.37036006228,2010-12-02 08:00:02,60.03002612115534,3,23,0.0,4.095560550689697,20.89811737327415,20.772636077452617,83.7852250778636,75.31680754992438,-0.0002590179501567,0.0955438911914825,0,0,0
6938,249985.38538017537,2010-12-02 08:00:32,90.04504611398364,3,23,0.0,4.088437557220459,20.89811737327415,20.772636077452617,83.7852250778636,75.31680754992438,-0.0001619339018361,0.0955438911914825,0,0,0
6939,250015.35351313665,2010-12-02 08:01:02,120.0131790802497,3,23,0.0,4.083743095397949,20.89811737327415,20.772636077452617,83.7852250778636,75.31680754992438,-9.70840483205393e-05,0.0955438911914825,0,0,0
6940,250015.35641159632,2010-12-02 08:01:02,2.646585927e-06,4,23,0.9962215423583984,4.199814796447754,20.89811737400654,20.772636077452617,83.78522508093948,75.31680754992438,0.0,0.0955438911914825,0,0,0
6941,250016.26463170213,2010-12-02 08:01:03,0.908222867674559,4,23,0.945831537246704,4.199814796447754,20.89836061129297,20.772636077452617,83.78624661951194,75.31680754992438,0.0,0.0955438911914825,0,0,0
6942,250018.43446881836,2010-12-02 08:01:05,3.078059883633503,4,23,0.8954415321350098,4.199814796447754,20.89891415417857,20.772636077452617,83.78857136624895,75.31680754992438,0.0,0.0955438911914825,0,0,0
6943,250021.70007748992,2010-12-02 08:01:08,6.343668565237341,4,23,0.8452321887016296,4.199814796447754,20.89970229754981,20.772636077452617,83.79188137405413,75.31680754992438,3.23295607813634e-05,0.0955438911914825,0,0,0
6944,250026.1843107168,2010-12-02 08:01:13,10.827901782127062,4,23,0.7948421835899353,4.199653148651123,20.90072230409108,20.772636077452617,83.79616515605355,75.31680754992438,-3.23295607813634e-05,0.0955438911914825,0,0,0
6945,250032.0592230552,2010-12-02 08:01:19,16.70281420573504,4,23,0.7446327805519104,4.199653148651123,20.901977149927635,20.772636077452617,83.80143522254725,75.31680754992438,-6.47544875391759e-05,0.0955438911914825,0,0,0
6946,250039.74652935125,2010-12-02 08:01:26,24.390120421587564,4,23,0.6946040391921997,4.199491024017334,20.903512227643503,20.772636077452617,83.80788221422794,75.31680754992438,-6.47544875391759e-05,0.0955438911914825,0,0,0
6947,250050.1213203747,2010-12-02 08:01:37,34.76491144000648,4,23,0.6445752382278442,4.199653148651123,20.90543877535797,20.772636077452617,83.81597331159385,75.31680754992438,-3.23295607813634e-05,0.0955438911914825,0,0,0
6948,250064.6679205247,2010-12-02 08:01:51,49.31151159500758,4,23,0.5945464968681335,4.199814796447754,20.907936307876376,20.772636077452617,83.82646245088269,75.31680754992438,0.0,0.0955438911914825,0,0,0
6949,250086.979952854,2010-12-02 08:02:14,71.62354394936631,4,23,0.5445177555084229,4.199653148651123,20.91145494338233,20.772636077452617,83.84123999462496,75.31680754992438,-3.23295607813634e-05,0.0955438911914825,0,0,0
6950,250127.0416416056,2010-12-02 08:02:54,111.68523267592818,4,23,0.4944889545440674,4.199653148651123,20.91720945822696,20.772636077452617,83.8654077632576,75.31680754992438,-6.47544875391759e-05,0.0955438911914825,0,0,0
6951,250202.4308694495,2010-12-02 08:04:09,187.07446051983203,4,23,0.4444601833820343,4.199653148651123,20.92699787415589,20.772636077452617,83.90651710094012,75.31680754992438,0.0,0.0955438911914825,0,0,0
6952,250316.1315426216,2010-12-02 08:06:03,300.77513371196784,4,23,0.3944314122200012,4.199653148651123,20.940217593578083,20.772636077452617,83.9620371991056,75.31680754992438,0.0,0.0955438911914825,0,0,0
6953,250456.9256775512,2010-12-02 08:08:24,441.56926862654376,4,23,0.3444026410579681,4.199814796447754,20.95464615692129,20.772636077452617,84.02263416726909,75.31680754992438,0.0,0.0955438911914825,0,0,0
6954,250625.7346267085,2010-12-02 08:11:12,610.3782177788573,4,23,0.294373869895935,4.199653148651123,20.96959439861751,20.772636077452617,84.08541368350126,75.31680754992438,-3.23295607813634e-05,0.0955438911914825,0,0,0
6955,250831.24802053472,2010-12-02 08:14:38,815.891611715307,4,23,0.2443451136350631,4.199814796447754,20.98493643701344,20.772636077452617,84.14984740319419,75.31680754992438,0.0,0.0955438911914825,0,0,0
6956,251085.131756542,2010-12-02 08:18:52,1069.775347682502,4,23,0.1941357254981994,4.199653148651123,21.00034995141722,20.772636077452617,84.21458110632395,75.31680754992438,0.0,0.0955438911914825,0,0,0
6957,251423.8433983202,2010-12-02 08:24:30,1408.4869894105718,4,23,0.1441069543361663,4.199653148651123,21.016182682759464,20.772636077452617,84.28107538866084,75.31680754992438,-3.23295607813634e-05,0.0955438911914825,0,0,0
6958,251929.80203035107,2010-12-02 08:32:56,1914.4456214163708,4,23,0.0940781906247139,4.199653148651123,21.032696035942127,20.772636077452617,84.35042815262098,75.31680754992438,0.0,0.0955438911914825,0,0,0
6959,252782.63037625377,2010-12-02 08:47:09,2767.273967439359,4,23,0.0498289167881011,4.199653148651123,21.04919706657994,20.772636077452617,84.41972911705636,75.31680754992438,0.0,0.0955438911914825,0,0,0
6960,252812.63993515488,2010-12-02 08:47:39,30.01500874985059,5,23,0.0,4.190911293029785,21.04919706657994,20.772636077452617,84.41972911705636,75.31680754992438,-6.47544875391759e-05,0.0955438911914825,0,0,0
6961,252842.63932555408,2010-12-02 08:48:09,60.01439914402378,5,23,0.0,4.189939975738525,21.04919706657994,20.772636077452617,84.41972911705636,75.31680754992438,-3.24249267578125e-05,0.0955438911914825,0,0,0
6962,252842.8247789312,2010-12-02 08:48:10,0.187628862207108,6,23,-1.9243103452026844e-05,4.189778327941895,21.04919706657994,20.77263607845555,84.41972911705636,75.31680755412644,0.0,0.0987826660275459,0,0,0
6963,252847.65269093952,2010-12-02 08:48:15,5.015540805388794,6,23,0.0008838032954372,4.1896162033081055,21.04919798062242,20.77263607862201,84.41973294679326,75.31680755482387,-6.47544875391759e-05,0.0987826660275459,0,0,0
6964,252877.66564635152,2010-12-02 08:48:45,30.015049350884706,7,23,-1.0993878841400146,3.99729585647583,21.04919798062242,20.7818037731962,84.41973294679326,75.35366706821,-0.0010037422180175,0.0987826660275459,0,0,0
6965,252907.68066211385,2010-12-02 08:49:15,60.03006500792356,7,23,-1.0993878841400146,3.9673471450805664,21.04919798062242,20.790971311466336,84.41973294679326,75.39016527990496,-0.0006799221155233,0.0987826660275459,0,0,0
6966,252937.6956488188,2010-12-02 08:49:45,90.04505171291639,7,23,-1.0997490882873535,3.9464638233184814,21.04919798062242,20.80013884488132,84.41973294679326,75.42643592411928,-0.0005180359003134,0.0987826660275459,0,0,0
6967,252967.71065547343,2010-12-02 08:50:15,120.06005836755313,7,23,-1.099568486213684,3.9304370880126953,21.04919798062242,20.809306406639475,84.41973294679326,75.4625395590269,-0.0003885269106831,0.0987826660275459,0,0,0
6968,252997.72567032848,2010-12-02 08:50:45,150.07507322259622,7,23,-1.0997490882873535,3.9168386459350586,21.04919798062242,20.81847403707654,84.41973294679326,75.49850956395356,-0.0003561496851034,0.0987826660275459,0,0,0
6969,253027.7406759305,2010-12-02 08:51:15,180.09007882461356,7,23,-1.099568486213684,3.905021190643311,21.04919798062242,20.827641650367138,84.41973294679326,75.53436253827735,-0.0002913951757363,0.0987826660275459,0,0,0
6970,253057.7574098233,2010-12-02 08:51:45,210.106812727441,7,23,-1.0997490882873535,3.8938510417938232,21.04919798062242,20.83681029051232,84.41973294679326,75.57011380315562,-0.0002590179501567,0.0987826660275459,0,0,0
6971,253087.77068071856,2010-12-02 08:52:15,240.1200836176948,7,23,-1.0997490882873535,3.8834903240203857,21.04919798062242,20.845978053362916,84.41973294679326,75.60576421463952,-0.0002913951757363,0.0987826660275459,0,0,0
6972,253117.7857355932,2010-12-02 08:52:45,270.13513848731264,7,23,-1.0997490882873535,3.873777151107788,21.04919798062242,20.855146253513585,84.41973294679326,75.64132357516522,-0.0002590179501567,0.0987826660275459,0,0,0
6973,253147.800715,2010-12-02 08:53:15,300.1501179141942,7,23,-1.099568486213684,3.8642258644104,21.04919798062242,20.864314562621992,84.41973294679326,75.67679492937626,-0.0002266406954731,0.0987826660275459,0,0,0
6974,253177.81572968463,2010-12-02 08:53:45,330.1651325787633,7,23,-1.0997490882873535,3.8549983501434326,21.04919798062242,20.87348285411953,84.41973294679326,75.71218080021877,-0.0002590179501567,0.0987826660275459,0,0,0
6975,253207.83076037912,2010-12-02 08:54:15,360.1801632932721,7,23,-1.0997490882873535,3.846256494522095,21.04919798062242,20.88265118206811,84.41973294679326,75.74748441838145,-0.0002590179501567,0.0987826660275459,0,0,0
6976,253237.84576715904,2010-12-02 08:54:45,390.1951700581832,7,23,-1.099568486213684,3.837514638900757,21.04919798062242,20.89181904571848,84.41973294679326,75.78270572739858,-0.0002590179501567,0.0987826660275459,0,0,0
6977,253267.860920208,2010-12-02 08:55:15,420.2103231021041,7,23,-1.0993878841400146,3.828934907913208,21.04919798062242,20.90098666133892,84.41973294679326,75.81784731349978,-0.0002266406954731,0.0987826660275459,0,0,0
6978,253297.87592519345,2010-12-02 08:55:45,450.2253280925996,7,23,-1.099568486213684,3.8206787109375,21.04919798062242,20.910154203363195,84.41973294679326,75.85291131241398,-0.0002266406954731,0.0987826660275459,0,0,0
6979,253327.89084370376,2010-12-02 08:56:15,480.24024660790514,7,23,-1.099568486213684,3.812422513961792,21.04919798062242,20.91932165716041,84.41973294679326,75.88789996253011,-0.0002266406954731,0.0987826660275459,0,0,0
6980,253357.90583225337,2010-12-02 08:56:45,510.2552351524756,7,23,-1.0993878841400146,3.804651975631714,21.04919798062242,20.928489077240325,84.41973294679326,75.92281427719529,-0.0001942634553415,0.0987826660275459,0,0,0
6981,253387.9209686809,2010-12-02 08:57:15,540.2703715750348,7,23,-1.099568486213684,3.796881437301636,21.04919798062242,20.93765667085715,84.41973294679326,75.95765758601432,-0.0001942634553415,0.0987826660275459,0,0,0
6982,253417.93587435427,2010-12-02 08:57:45,570.2852772483835,7,23,-1.099568486213684,3.7891108989715576,21.04919798062242,20.94682423867461,84.41973294679326,75.99243019196277,-0.0001942634553415,0.0987826660275459,0,0,0
6983,253447.95106820972,2010-12-02 08:58:15,600.3004711038623,7,23,-1.099568486213684,3.7816641330718994,21.04919798062242,20.955991799455365,84.41973294679326,76.02713317508561,-0.0001942634553415,0.0987826660275459,0,0,0
6984,253477.96591919693,2010-12-02 08:58:45,630.3153221863638,7,23,-1.099568486213684,3.774379253387451,21.04919798062242,20.96515933327607,84.41973294679326,76.06176839598828,-0.0002266406954731,0.0987826660275459,0,0,0
6985,253507.9809258316,2010-12-02 08:59:15,660.3303287257137,7,23,-1.099568486213684,3.767256259918213,21.04919798062242,20.974326831874453,84.41973294679326,76.09633735712643,-0.0001942634553415,0.0987826660275459,0,0,0
6986,253537.99595615512,2010-12-02 08:59:45,690.3453590692994,7,23,-1.099568486213684,3.760133266448975,21.04919798062242,20.983494371879107,84.41973294679326,76.13084154294802,-0.0002266406954731,0.0987826660275459,0,0,0
6987,253568.01119720304,2010-12-02 09:00:15,720.3606001773644,7,23,-1.099568486213684,3.753495931625366,21.04919798062242,20.992661989271564,84.41973294679326,76.1652830937526,-0.0001942634553415,0.0987826660275459,0,0,0
6988,253598.02595997576,2010-12-02 09:00:45,750.3753628749236,7,23,-1.0993878841400146,3.746858835220337,21.04919798062242,21.00182951673493,84.41973294679326,76.19966214688495,-0.0001618862152099,0.0987826660275459,0,0,0
6989,253628.0409839034,2010-12-02 09:01:15,780.3903867975309,7,23,-1.0997490882873535,3.740221500396729,21.04919798062242,21.010997088071488,84.41973294679326,76.2339812062049,-0.0001618862152099,0.0987826660275459,0,0,0
6990,253658.05777696343,2010-12-02 09:01:45,810.407179977868,7,23,-1.0993878841400146,3.73374605178833,21.04919798062242,21.020165202599564,84.41973294679326,76.2682426730319,-0.0001942634553415,0.0987826660275459,0,0,0
6991,253688.07150981328,2010-12-02 09:02:15,840.4209127976156,7,23,-1.0992072820663452,3.727594375610352,21.04919798062242,21.029332315270647,84.41973294679326,76.302441373457,-0.0001295089750783,0.0987826660275459,0,0,0
6992,253718.08606074887,2010-12-02 09:02:45,870.4354637031382,7,23,-1.099568486213684,3.721280813217163,21.04919798062242,21.038499696604624,84.41973294679326,76.33658407128027,-0.0001618862152099,0.0987826660275459,0,0,0
6993,253748.1010665965,2010-12-02 09:03:15,900.4504694956296,7,23,-1.099568486213684,3.7152910232543945,21.04919798062242,21.047667215400818,84.41973294679326,76.37067070632352,-0.0001295089750783,0.0987826660275459,0,0,0
6994,253778.11605654456,2010-12-02 09:03:45,930.4654594537176,7,23,-1.099568486213684,3.709139347076416,21.04919798062242,21.05683478036321,84.41973294679326,76.40470227596195,-0.0001942634553415,0.0987826660275459,0,0,0
6995,253808.1310879508,2010-12-02 09:04:15,960.4804908499226,7,23,-1.099568486213684,3.7033114433288574,21.04919798062242,21.066002313625543,84.41973294679326,76.43867952844491,-0.0001618862152099,0.0987826660275459,0,0,0
6996,253838.1461435823,2010-12-02 09:04:45,990.4955465666484,7,23,-1.099568486213684,3.697483539581299,21.04919798062242,21.07516991149099,84.41973294679326,76.47260307236137,-0.0001295089750783,0.0987826660275459,0,0,0
6997,253868.161228627,2010-12-02 09:05:15,1020.5106315211314,7,23,-1.099568486213684,3.69165563583374,21.04919798062242,21.08433754662597,84.41973294679326,76.50647393991126,-0.0001618862152099,0.0987826660275459,0,0,0
6998,253898.1761189121,2010-12-02 09:05:45,1050.525521816212,7,23,-1.0993878841400146,3.685989618301392,21.04919798062242,21.09350512502168,84.41973294679326,76.54029210124177,-0.0001618862152099,0.0987826660275459,0,0,0
6999,253928.19114796745,2010-12-02 09:06:15,1080.540550861567,7,23,-1.099568486213684,3.680485486984253,21.04919798062242,21.10267265008567,84.41973294679326,76.57405892666993,-0.0001295089750783,0.0987826660275459,0,0,0
7000,253958.20831485276,2010-12-02 09:06:45,1110.5577178370793,7,23,-1.099568486213684,3.675143241882324,21.04919798062242,21.111840865417182,84.41973294679326,76.6077779680884,-0.0001295089750783,0.0987826660275459,0,0,0
7001,253988.22117949705,2010-12-02 09:07:15,1140.5705823961937,7,23,-1.0993878841400146,3.669801235198975,21.04919798062242,21.12100779146605,84.41973294679326,76.64144236847307,-0.0001295089750783,0.0987826660275459,0,0,0
7002,254018.236184262,2010-12-02 09:07:45,1170.585587161128,7,23,-1.0993878841400146,3.664297103881836,21.04919798062242,21.13017539412461,84.41973294679326,76.6750602674082,-0.0001618862152099,0.0987826660275459,0,0,0
7003,254048.253465542,2010-12-02 09:08:15,1200.6028685262943,7,23,-1.099568486213684,3.6589548587799072,21.04919798062242,21.139343694369835,84.41973294679326,76.70863210902041,-0.0001618862152099,0.0987826660275459,0,0,0
7004,254078.2662518664,2010-12-02 09:08:45,1230.6156548507247,7,23,-1.099568486213684,3.653774499893189,21.04919798062242,21.148510610809463,84.41973294679326,76.74215079404678,-0.0001618862152099,0.0987826660275459,0,0,0
7005,254108.2832926128,2010-12-02 09:09:15,1260.6326956071457,7,23,-1.099568486213684,3.64875602722168,21.04919798062242,21.157678900132392,84.41973294679326,76.7756268493869,-9.713172767078504e-05,0.0987826660275459,0,0,0
7006,254138.29623343167,2010-12-02 09:09:45,1290.64563634583,7,23,-1.0993878841400146,3.643575668334961,21.04919798062242,21.16684583273111,84.41973294679326,76.80905068787484,-0.0001295089750783,0.0987826660275459,0,0,0
7007,254168.3114113926,2010-12-02 09:10:15,1320.6608143167805,7,23,-1.0993878841400146,3.638719081878662,21.04919798062242,21.176013432448656,84.41973294679326,76.84243080353065,-9.713172767078504e-05,0.0987826660275459,0,0,0
7008,254198.32625578344,2010-12-02 09:10:45,1350.6756587076302,7,23,-1.099929690361023,3.633700609207153,21.04919798062242,21.185180952924743,84.41973294679326,76.87576547660063,-0.0001618862152099,0.0987826660275459,0,0,0
7009,254228.3412891445,2010-12-02 09:11:15,1380.6906920637125,7,23,-1.0993878841400146,3.629005908966065,21.04919798062242,21.19434854340495,84.41973294679326,76.90905571687024,-0.0001295089750783,0.0987826660275459,0,0,0
7010,254258.3582320775,2010-12-02 09:11:45,1410.707635086928,7,23,-1.0997490882873535,3.6241493225097656,21.04919798062242,21.20351660728889,84.41973294679326,76.94230344781289,-0.0001295089750783,0.0987826660275459,0,0,0
7011,254288.371348348,2010-12-02 09:12:15,1440.7207512521543,7,23,-1.0997490882873535,3.619292736053467,21.04919798062242,21.21268362541113,84.41973294679326,76.97550379160634,-0.0001295089750783,0.0987826660275459,0,0,0
7012,254318.38633889752,2010-12-02 09:12:45,1470.7357417967016,7,23,-1.099568486213684,3.614759922027588,21.04919798062242,21.22185120032599,84.41973294679326,77.0086631909061,-0.0001295089750783,0.0987826660275459,0,0,0
7013,254348.40157888283,2010-12-02 09:13:15,1500.7509818421224,7,23,-1.099568486213684,3.610227108001709,21.04919798062242,21.23101882300785,84.41973294679326,77.04178068959007,-9.713172767078504e-05,0.0987826660275459,0,0,0
7014,254378.41641123872,2010-12-02 09:13:45,1530.7658142280984,7,23,-1.099568486213684,3.60585618019104,21.04919798062242,21.240186311630577,84.41973294679326,77.07485677227521,-9.713172767078504e-05,0.0987826660275459,0,0,0
7015,254408.43140991856,2010-12-02 09:14:15,1560.780812812653,7,23,-1.099568486213684,3.601485252380371,21.04919798062242,21.24935375597044,84.41973294679326,77.1078924347369,-9.713172767078504e-05,0.0987826660275459,0,0,0
7016,254438.44640151068,2010-12-02 09:14:45,1590.7958044148322,7,23,-1.0993878841400146,3.597276210784912,21.04919798062242,21.2585212767088,84.41973294679326,77.1408888341703,-6.47544875391759e-05,0.0987826660275459,0,0,0
7017,254468.46141151365,2010-12-02 09:15:15,1620.8108144077764,7,23,-1.099568486213684,3.593067169189453,21.04919798062242,21.26768884967769,84.41973294679326,77.17384705846156,-9.713172767078504e-05,0.0987826660275459,0,0,0
7018,254498.4765818356,2010-12-02 09:15:46,1650.8259847397178,7,23,-1.0997490882873535,3.588858366012573,21.04919798062242,21.276856460124275,84.41973294679326,77.20676789334307,-0.0001618862152099,0.0987826660275459,0,0,0
7019,254528.4915825755,2010-12-02 09:16:16,1680.840985479636,7,23,-1.0993878841400146,3.584973096847534,21.04919798062242,21.286024076487458,84.41973294679326,77.23965202388416,-0.0001295089750783,0.0987826660275459,0,0,0
7020,254558.50646352733,2010-12-02 09:16:46,1710.855866431466,7,23,-1.099568486213684,3.581249713897705,21.04919798062242,21.295191578498628,84.41973294679326,77.27250014486893,-6.47544875391759e-05,0.0987826660275459,0,0,0
7021,254588.52148693363,2010-12-02 09:17:16,1740.8708898578386,7,23,-1.0997490882873535,3.577364444732666,21.04919798062242,21.30435919194392,84.41973294679326,77.30531398498331,-0.0001295089750783,0.0987826660275459,0,0,0
7022,254618.53661577235,2010-12-02 09:17:46,1770.8860187616876,7,23,-1.099568486213684,3.573641061782837,21.04919798062242,21.313526808733275,84.41973294679326,77.33809384756535,-0.0001295089750783,0.0987826660275459,0,0,0
7023,254648.5516834839,2010-12-02 09:18:16,1800.9010863830376,7,23,-1.099568486213684,3.570241451263428,21.04919798062242,21.32269443440557,84.41973294679326,77.37084056276424,-9.713172767078504e-05,0.0987826660275459,0,0,0
7024,254678.56654693212,2010-12-02 09:18:46,1830.9159498313109,7,23,-1.0993878841400146,3.5668418407440186,21.04919798062242,21.33186198767963,84.41973294679326,77.40355437754593,-6.47544875391759e-05,0.0987826660275459,0,0,0
7025,254708.5815890701,2010-12-02 09:19:16,1860.9309919692464,7,23,-1.0993878841400146,3.5632803440093994,21.04919798062242,21.34102959138129,84.41973294679326,77.4362361802903,-6.47544875391759e-05,0.0987826660275459,0,0,0
7026,254738.5965737651,2010-12-02 09:19:46,1890.9459766592247,7,23,-1.099568486213684,3.5598807334899902,21.04919798062242,21.35019713519923,84.41973294679326,77.46888733492163,-0.0001295089750783,0.0987826660275459,0,0,0
7027,254768.6116208704,2010-12-02 09:20:16,1920.961023764521,7,23,-1.099568486213684,3.556481122970581,21.04919798062242,21.359364687595765,84.41973294679326,77.50150784636631,-9.713172767078504e-05,0.0987826660275459,0,0,0
7028,254798.62663074807,2010-12-02 09:20:46,1950.9760336622287,7,23,-1.099568486213684,3.553081512451172,21.04919798062242,21.3685323217076,84.41973294679326,77.53409783205112,-0.0001295089750783,0.0987826660275459,0,0,0
7029,254828.6416702144,2010-12-02 09:21:16,1980.991073173628,7,23,-1.0997490882873535,3.5498437881469727,21.04919798062242,21.3776999801258,84.41973294679326,77.56665779553563,-9.713172767078504e-05,0.0987826660275459,0,0,0
7030,254858.65666162103,2010-12-02 09:21:46,2011.0060645101464,7,23,-1.0993878841400146,3.5469298362731934,21.04919798062242,21.38686757060008,84.41973294679326,77.59918769063113,-6.47544875391759e-05,0.0987826660275459,0,0,0
7031,254888.6579691209,2010-12-02 09:22:16,2041.0073721052004,7,23,-1.0993878841400146,3.543530225753784,21.04919798062242,21.396031022303053,84.41973294679326,77.63167363141893,-6.47544875391759e-05,0.0987826660275459,0,0,0
7032,254918.67107658443,2010-12-02 09:22:46,2071.0204794785486,7,23,-1.099568486213684,3.540454387664795,21.04919798062242,21.40519800839952,84.41973294679326,77.66414299116214,-6.47544875391759e-05,0.0987826660275459,0,0,0
7033,254948.6860935698,2010-12-02 09:23:16,2101.0354964689054,7,23,-1.0993878841400146,3.537216663360596,21.04919798062242,21.41436562054201,84.41973294679326,77.69658551310876,-9.713172767078504e-05,0.0987826660275459,0,0,0
7034,254978.70108998395,2010-12-02 09:23:46,2131.0504928780465,7,23,-1.0997490882873535,3.5338170528411865,21.04919798062242,21.423533221836816,84.41973294679326,77.72899858125548,-0.0001295089750783,0.0987826660275459,0,0,0
7035,255008.71613408675,2010-12-02 09:24:16,2161.0655369808715,7,23,-1.0993878841400146,3.5309031009674072,21.04919798062242,21.43270086873111,84.41973294679326,77.76138240656175,-6.47544875391759e-05,0.0987826660275459,0,0,0
7036,255038.7311295736,2010-12-02 09:24:46,2191.0805324727303,7,23,-1.0997490882873535,3.527665376663208,21.04919798062242,21.44186848462508,84.41973294679326,77.79373696559344,-6.47544875391759e-05,0.0987826660275459,0,0,0
7037,255068.74627120912,2010-12-02 09:25:16,2221.095674103249,7,23,-1.099568486213684,3.524427652359009,21.04919798062242,21.45103618390989,84.41973294679326,77.8260620989098,-3.237724376958795e-05,0.0987826660275459,0,0,0
7038,255098.76114850183,2010-12-02 09:25:46,2251.110551426049,7,23,-1.0997490882873535,3.5210280418396,21.04919798062242,21.46020369991241,84.41973294679326,77.85835638659924,-9.713172767078504e-05,0.0987826660275459,0,0,0
7039,255128.77629192185,2010-12-02 09:26:16,2281.12569482597,7,23,-1.099568486213684,3.5176284313201904,21.04919798062242,21.469371388603776,84.41973294679326,77.89062142745402,-0.0001295089750783,0.0987826660275459,0,0,0
7040,255158.79123858217,2010-12-02 09:26:46,2311.140641586564,7,23,-1.0993878841400146,3.514228820800781,21.04919798062242,21.478538947087944,84.41973294679326,77.92285526847456,-0.0001295089750783,0.0987826660275459,0,0,0
7041,255188.8062932914,2010-12-02 09:27:16,2341.1556961955325,7,23,-1.0997490882873535,3.510829448699951,21.04919798062242,21.48770660150845,84.41973294679326,77.95505687381363,-6.47544875391759e-05,0.0987826660275459,0,0,0
7042,255218.82118622304,2010-12-02 09:27:46,2371.1705891472243,7,23,-1.099568486213684,3.507106065750122,21.04919798062242,21.49687421035474,84.41973294679326,77.98722549705337,-9.713172767078504e-05,0.0987826660275459,0,0,0
7043,255248.83634600876,2010-12-02 09:28:16,2401.1857489028466,7,23,-1.099568486213684,3.503382682800293,21.04919798062242,21.50604187679995,84.41973294679326,78.01936046409587,-6.47544875391759e-05,0.0987826660275459,0,0,0
7044,255278.8512758021,2010-12-02 09:28:46,2431.2006787062423,7,23,-1.099568486213684,3.499497413635254,21.04919798062242,21.51520950636258,84.41973294679326,78.05146029399606,-0.0001295089750783,0.0987826660275459,0,0,0
7045,255308.86624473787,2010-12-02 09:29:16,2461.2156476570544,7,23,-1.099568486213684,3.495288372039795,21.04919798062242,21.5243770564388,84.41973294679326,78.08352278238327,-0.0001295089750783,0.0987826660275459,0,0,0
7046,255338.88126093624,2010-12-02 09:29:46,2491.230663830378,7,23,-1.099568486213684,3.490917444229126,21.04919798062242,21.53354461189643,84.41973294679326,78.11554672298526,-0.0001295089750783,0.0987826660275459,0,0,0
7047,255368.8963329084,2010-12-02 09:30:16,2521.2457358376423,7,23,-1.099568486213684,3.486546516418457,21.04919798062242,21.542712194594056,84.41973294679326,78.1475301265828,-0.0001295089750783,0.0987826660275459,0,0,0
7048,255398.91130404468,2010-12-02 09:30:46,2551.260706938805,7,23,-1.099568486213684,3.481528043746948,21.04919798062242,21.551879816048025,84.41973294679326,78.17946966127008,-0.0001295089750783,0.0987826660275459,0,0,0
7049,255428.92631054396,2010-12-02 09:31:16,2581.2757134380554,7,23,-1.099568486213684,3.4761857986450195,21.04919798062242,21.56104730530477,84.41973294679326,78.2113614971364,-0.0001295089750783,0.0987826660275459,0,0,0
7050,255458.9413319954,2010-12-02 09:31:46,2611.2907348945264,7,23,-1.099568486213684,3.470196008682251,21.04919798062242,21.570214861738783,84.41973294679326,78.24320260340603,-0.0001618862152099,0.0987826660275459,0,0,0
7051,255488.95834222084,2010-12-02 09:32:16,2641.307745250296,7,23,-1.0993878841400146,3.4638824462890625,21.04919798062242,21.579383080641964,84.41973294679326,78.2749893133472,-0.0001618862152099,0.0987826660275459,0,0,0
7052,255518.97162857457,2010-12-02 09:32:46,2671.321031533856,7,23,-1.0997490882873535,3.4564356803894043,21.04919798062242,21.58855017098657,84.41973294679326,78.30670867792567,-0.0001942634553415,0.0987826660275459,0,0,0
7053,255548.98637669583,2010-12-02 09:33:16,2701.335779584967,7,23,-1.099568486213684,3.4480175971984863,21.04919798062242,21.5977176535878,84.41973294679326,78.33835776401017,-0.0002266406954731,0.0987826660275459,0,0,0
7054,255579.00141375617,2010-12-02 09:33:46,2731.3508166452675,7,23,-1.0993878841400146,3.4386281967163086,21.04919798062242,21.606885272127432,84.41973294679326,78.36992494929143,-0.0002590179501567,0.0987826660275459,0,0,0
7055,255609.01641828552,2010-12-02 09:34:16,2761.365821179628,7,23,-1.099568486213684,3.4272964000701904,21.04919798062242,21.616052876367032,84.41973294679326,78.40139657684476,-0.0002590179501567,0.0987826660275459,0,0,0
7056,255639.0320739201,2010-12-02 09:34:46,2791.3814768192387,7,23,-1.099568486213684,3.413536071777344,21.04919798062242,21.62522067735356,84.41973294679326,78.43275598560719,-0.0004209041653666,0.0987826660275459,0,0,0
7057,255669.04645596043,2010-12-02 09:35:16,2821.3958588495216,7,23,-1.099568486213684,3.3971855640411377,21.04919798062242,21.634388131498817,84.41973294679326,78.46397775799775,-0.0005180359003134,0.0987826660275459,0,0,0
7058,255699.0614571916,2010-12-02 09:35:46,2851.410860080662,7,23,-1.099568486213684,3.3761403560638428,21.04919798062242,21.643555694277197,84.41973294679326,78.49502991973623,-0.0006799221155233,0.0987826660275459,0,0,0
7059,255729.076508382,2010-12-02 09:36:16,2881.4259113412995,7,23,-1.0993878841400146,3.3489437103271484,21.04919798062242,21.652723318854708,84.41973294679326,78.52586210248175,-0.000841760658659,0.0987826660275459,0,0,0
7060,255759.09162192265,2010-12-02 09:36:46,2911.4410248167555,7,23,-1.099568486213684,3.312843084335327,21.04919798062242,21.66189100752508,84.41973294679326,78.55640693344691,-0.0011008263099938,0.0987826660275459,0,0,0
7061,255789.106529205,2010-12-02 09:37:16,2941.455932119158,7,23,-1.0997490882873535,3.264277458190918,21.04919798062242,21.671058519863752,84.41973294679326,78.58656591742908,-0.0014569282066076,0.0987826660275459,0,0,0
7062,255819.12153232083,2010-12-02 09:37:46,2971.4709352149384,7,23,-1.0993878841400146,3.197580337524414,21.04919798062242,21.680226023823337,84.41973294679326,78.61620164989604,-0.0020397664047777,0.0987826660275459,0,0,0
7063,255849.1365314317,2010-12-02 09:38:16,3001.485934325803,7,23,-1.099568486213684,3.1002871990203857,21.04919798062242,21.68939361937228,84.41973294679326,78.6450977989237,-0.0030757903587073,0.0987826660275459,0,0,0
7064,255879.15169141287,2010-12-02 09:38:46,3031.501094306987,7,23,-1.099568486213684,2.944067478179932,21.04919798062242,21.69856121226468,84.41973294679326,78.67287572260824,-0.0054393289610743,0.0987826660275459,0,0,0
7065,255901.1372720848,2010-12-02 09:39:08,3053.486675099189,7,23,-1.099568486213684,2.743814706802368,21.04919798062242,21.7052763305642,84.41973294679326,78.69202317456576,-0.0085475919768214,0.0987826660275459,0,0,0
7066,255905.10416277967,2010-12-02 09:39:12,3057.453565673811,7,23,-1.099568486213684,2.699943780899048,21.04919798062242,21.706487955737288,84.41973294679326,78.69532120056525,-0.0088389394804835,0.0987826660275459,0,0,0
7067,255965.11601163764,2010-12-02 09:40:12,60.01437290873828,8,23,0.0,3.392328977584839,21.04919798062242,21.706487955737288,84.41973294679326,78.69532120056525,0.0012950897216796,0.0987826660275459,0,0,0
7068,255965.3004175872,2010-12-02 09:40:13,0.187408579040921,9,23,-1.9243103452026844e-05,3.392328977584839,21.04919798062242,21.706487956739043,84.41973294679326,78.69532120396356,0.0,0.0963535830378532,0,0,0
7069,255970.12856199383,2010-12-02 09:40:17,5.015552980686555,9,23,0.0003419754502829,3.399937629699707,21.04919891896029,21.70648795690598,84.41973613421787,78.69532120452986,0.0010684489971026,0.0963535830378532,0,0,0
