Data_Point,Test_Time(s),Date_Time,Step_Time(s),Step_Index,Cycle_Index,Current(A),Voltage(V),Charge_Capacity(Ah),Discharge_Capacity(Ah),Charge_Energy(Wh),Discharge_Energy(Wh),dV/dt(V/s),Internal_Resistance(Ohm),Is_FC_Data,AC_Impedance(Ohm),ACI_Phase_Angle(Deg)
11423,413743.63523796544,2010-12-04 05:30:09,30.015240977740763,1,38,0.0,3.397671222686768,34.13861520652804,34.80318752592031,136.89008837631533,126.2026299098854,0.0007122993702068,0.0932833403348922,0,0,0
11424,413773.6505303511,2010-12-04 05:30:39,60.03053338847054,1,38,0.0,3.4219541549682617,34.13861520652804,34.80318752592031,136.89008837631533,126.2026299098854,0.0005504131549969,0.0932833403348922,0,0,0
11425,413803.6652367888,2010-12-04 05:31:09,90.04523977089141,1,38,0.0,3.440247058868408,34.13861520652804,34.80318752592031,136.89008837631533,126.2026299098854,0.0004532813909463,0.0932833403348922,0,0,0
11426,413833.633443664,2010-12-04 05:31:39,120.01344664607696,1,38,0.0,3.4548168182373047,34.13861520652804,34.80318752592031,136.89008837631533,126.2026299098854,0.0003561496851034,0.0932833403348922,0,0,0
11427,413863.6571523939,2010-12-04 05:32:09,30.015052764379053,2,38,0.5501165986061096,3.613464832305908,34.14320173017667,34.80318752592031,136.90650209115967,126.2026299098854,0.0015541076427325,0.0932833403348922,0,0,0
11428,413893.6722425162,2010-12-04 05:32:39,60.03014289173444,2,38,0.5501165986061096,3.659278631210327,34.14778835454268,34.80318752592031,136.92318810933753,126.2026299098854,0.0010036944877356,0.0932833403348922,0,0,0
11429,413923.6873100124,2010-12-04 05:33:09,90.04521038276019,2,38,0.5499359965324402,3.69230318069458,34.152374883320235,34.80318752592031,136.94005140328625,126.2026299098854,0.0007446765666827,0.0932833403348922,0,0,0
11430,413953.7023944304,2010-12-04 05:33:39,120.06029480592088,2,38,0.5501165986061096,3.718366861343384,34.15696143968482,34.80318752592031,136.9570487223074,126.2026299098854,0.0006151676061563,0.0932833403348922,0,0,0
11431,413983.71746647777,2010-12-04 05:34:09,150.07536685328492,2,38,0.5501165986061096,3.739412069320679,34.161547982312975,34.80318752592031,136.97415267387743,126.2026299098854,0.0005504131549969,0.0932833403348922,0,0,0
11432,414013.7349410136,2010-12-04 05:34:39,180.09284149942357,2,38,0.550297200679779,3.7557623386383057,34.16613489182413,34.80318752592031,136.99134360924936,126.2026299098854,0.0004209041653666,0.0932833403348922,0,0,0
11433,414043.74940455175,2010-12-04 05:35:09,210.1073050425482,2,38,0.5501165986061096,3.767256259918213,34.170721369731744,34.80318752592031,137.00859726109417,126.2026299098854,0.0002913951757363,0.0932833403348922,0,0,0
11434,414073.76273803774,2010-12-04 05:35:39,240.12063853859416,2,38,0.5499359965324402,3.774541139602661,34.17530768541134,34.80318752592031,137.0258931312236,126.2026299098854,0.0001295089750783,0.0932833403348922,0,0,0
11435,414103.7777857345,2010-12-04 05:36:09,270.1356861100508,2,38,0.5499359965324402,3.7800452709198,34.179894220935225,34.80318752592031,137.04321842847125,126.2026299098854,0.0001295089750783,0.0932833403348922,0,0,0
11436,414133.79297715897,2010-12-04 05:36:39,300.15087765477944,2,38,0.5501165986061096,3.784578084945679,34.184480718323755,34.80318752592031,137.0605661449034,126.2026299098854,9.713172767078504e-05,0.0932833403348922,0,0,0
11437,414163.8079418492,2010-12-04 05:37:09,330.1658422297024,2,38,0.5501165986061096,3.788949012756348,34.18906726972263,34.80318752592031,137.07793447176078,126.2026299098854,0.0001295089750783,0.0932833403348922,0,0,0
11438,414193.8231590728,2010-12-04 05:37:39,360.1810594533319,2,38,0.5499359965324402,3.7929961681365967,34.193653843928885,34.80318752592031,137.09532214167697,126.2026299098854,9.713172767078504e-05,0.0932833403348922,0,0,0
11439,414223.83810848,2010-12-04 05:38:09,390.196008865523,2,38,0.5501165986061096,3.796881437301636,34.19824032199504,34.80318752592031,137.11272779841468,126.2026299098854,9.713172767078504e-05,0.0932833403348922,0,0,0
11440,414253.8533351822,2010-12-04 05:38:40,420.211235622877,2,38,0.550297200679779,3.800766706466675,34.202826884355645,34.80318752592031,137.1301514878633,126.2026299098854,9.713172767078504e-05,0.0932833403348922,0,0,0
11441,414283.87072046095,2010-12-04 05:39:10,450.2286209317031,2,38,0.550297200679779,3.804328203201294,34.207413785991235,34.80318752592031,137.14759352331507,126.2026299098854,9.713172767078504e-05,0.0932833403348922,0,0,0
11442,414313.8833544463,2010-12-04 05:39:40,480.24125482180654,2,38,0.550297200679779,3.808051586151123,34.21199992575357,34.80318752592031,137.1650493458859,126.2026299098854,0.0001295089750783,0.0932833403348922,0,0,0
11443,414343.8985640159,2010-12-04 05:40:10,510.2564643964018,2,38,0.550297200679779,3.811613082885742,34.216586568074874,34.80318752592031,137.18252335243213,126.2026299098854,0.0001295089750783,0.0932833403348922,0,0,0
11444,414373.91367456905,2010-12-04 05:40:40,540.2715750398106,2,38,0.5501165986061096,3.815012693405152,34.221173148893655,34.80318752592031,137.2000131644909,126.2026299098854,9.713172767078504e-05,0.0932833403348922,0,0,0
11445,414403.9285801522,2010-12-04 05:41:10,570.2864805327102,2,38,0.5499359965324402,3.818412303924561,34.22575961838317,34.80318752592031,137.2175184554648,126.2026299098854,6.47544875391759e-05,0.0932833403348922,0,0,0
11446,414433.9436929509,2010-12-04 05:41:40,600.3015933314826,2,38,0.5501165986061096,3.8218119144439697,34.230346176708025,34.80318752592031,137.23503977527847,126.2026299098854,6.47544875391759e-05,0.0932833403348922,0,0,0
11447,414463.95889990905,2010-12-04 05:42:10,630.3168003196416,2,38,0.5499359965324402,3.825211524963379,34.234932752630776,34.80318752592031,137.25257682717506,126.2026299098854,6.47544875391759e-05,0.0932833403348922,0,0,0
11448,414493.9738344442,2010-12-04 05:42:40,660.3317348197245,2,38,0.550297200679779,3.828934907913208,34.239519229348154,34.80318752592031,137.27012942121033,126.2026299098854,0.0001295089750783,0.0932833403348922,0,0,0
11449,414523.98890834616,2010-12-04 05:43:10,690.3468088119281,2,38,0.5501165986061096,3.8321726322174072,34.24410575251251,34.80318752592031,137.28769831913414,126.2026299098854,9.713172767078504e-05,0.0932833403348922,0,0,0
11450,414554.0039803384,2010-12-04 05:43:40,720.3618807139304,2,38,0.5501165986061096,3.835895776748657,34.24869224308487,34.80318752592031,137.30528333071967,126.2026299098854,0.0001295089750783,0.0932833403348922,0,0,0
11451,414584.0190967261,2010-12-04 05:44:10,750.3769971768209,2,38,0.5501165986061096,3.839457273483277,34.25327864367841,34.80318752592031,137.32288455005047,126.2026299098854,9.713172767078504e-05,0.0932833403348922,0,0,0
11452,414614.03414556576,2010-12-04 05:44:40,780.3920459663085,2,38,0.5501165986061096,3.8431806564331055,34.257865032091075,34.80318752592031,137.34050236062166,126.2026299098854,9.713172767078504e-05,0.0932833403348922,0,0,0
11453,414644.05103299057,2010-12-04 05:45:10,810.4089334613442,2,38,0.5501165986061096,3.8467421531677246,34.26245172628488,34.80318752592031,137.35813786187913,126.2026299098854,6.47544875391759e-05,0.0932833403348922,0,0,0
11454,414674.06440373935,2010-12-04 05:45:40,840.4223041098426,2,38,0.5499359965324402,3.850303649902344,34.267037979244186,34.80318752592031,137.3757881911795,126.2026299098854,9.713172767078504e-05,0.0932833403348922,0,0,0
11455,414704.0793496378,2010-12-04 05:46:10,870.4372500133024,2,38,0.5501165986061096,3.853703260421753,34.27162449147868,34.80318752592031,137.39345590979175,126.2026299098854,6.47544875391759e-05,0.0932833403348922,0,0,0
11456,414734.0945714027,2010-12-04 05:46:40,900.4524717982828,2,38,0.5501165986061096,3.857426643371582,34.27621104636165,34.80318752592031,137.41113998287156,126.2026299098854,0.0001295089750783,0.0932833403348922,0,0,0
11457,414764.1096330392,2010-12-04 05:47:10,930.467533439752,2,38,0.550297200679779,3.860826253890991,34.28079761558728,34.80318752592031,137.4288400311899,126.2026299098854,9.713172767078504e-05,0.0932833403348922,0,0,0
11458,414794.1245694792,2010-12-04 05:47:40,960.4824698545996,2,38,0.5499359965324402,3.863902091979981,34.285384118244416,34.80318752592031,137.44655536647394,126.2026299098854,3.237724376958795e-05,0.0932833403348922,0,0,0
11459,414824.13979471766,2010-12-04 05:48:10,990.4976951182366,2,38,0.550297200679779,3.8674635887146,34.28997076681036,34.80318752592031,137.46428631510668,126.2026299098854,9.713172767078504e-05,0.0932833403348922,0,0,0
11460,414854.1547674278,2010-12-04 05:48:40,1020.5126677983288,2,38,0.5501165986061096,3.870539426803589,34.294557331442434,34.80318752592031,137.48203151476312,126.2026299098854,9.713172767078504e-05,0.0932833403348922,0,0,0
11461,414884.1698496906,2010-12-04 05:49:10,1050.5277500911884,2,38,0.550297200679779,3.873615264892578,34.2991439127263,34.80318752592031,137.49979089848043,126.2026299098854,9.713172767078504e-05,0.0932833403348922,0,0,0
11462,414914.1849172318,2010-12-04 05:49:40,1080.542817612289,2,38,0.550297200679779,3.876529216766357,34.30373054716931,34.80318752592031,137.5175639474021,126.2026299098854,6.47544875391759e-05,0.0932833403348922,0,0,0
11463,414944.199990036,2010-12-04 05:50:10,1110.557890411524,2,38,0.5501165986061096,3.879119396209717,34.308317190685244,34.80318752592031,137.535349927147,126.2026299098854,6.47544875391759e-05,0.0932833403348922,0,0,0
11464,414974.2154102197,2010-12-04 05:50:40,1140.573310595212,2,38,0.5501165986061096,3.881709575653076,34.31290387744133,34.80318752592031,137.55314827906196,126.2026299098854,6.47544875391759e-05,0.0932833403348922,0,0,0
11465,415004.230231879,2010-12-04 05:51:10,1170.588132319657,2,38,0.5501165986061096,3.884299755096436,34.31749049560477,34.80318752592031,137.57095793341702,126.2026299098854,6.47544875391759e-05,0.0932833403348922,0,0,0
11466,415034.24523664895,2010-12-04 05:51:40,1200.603137029454,2,38,0.550297200679779,3.886404275894165,34.32207711876776,34.80318752592031,137.58877837689812,126.2026299098854,3.237724376958795e-05,0.0932833403348922,0,0,0
11467,415064.2603144356,2010-12-04 05:52:10,1230.6182148110877,2,38,0.550297200679779,3.8888325691223145,34.32666375710723,34.80318752592031,137.60660904754587,126.2026299098854,9.713172767078504e-05,0.0932833403348922,0,0,0
11468,415094.2754292493,2010-12-04 05:52:40,1260.633329644924,2,38,0.5499359965324402,3.890613317489624,34.331250502088444,34.80318752592031,137.6244497310115,126.2026299098854,6.47544875391759e-05,0.0932833403348922,0,0,0
11469,415124.29049458005,2010-12-04 05:53:10,1290.6483950507609,2,38,0.5499359965324402,3.8923940658569336,34.33583714468099,34.80318752592031,137.6422990651928,126.2026299098854,0.0,0.0932833403348922,0,0,0
11470,415154.3055582365,2010-12-04 05:53:40,1320.6634586069952,2,38,0.550297200679779,3.894498586654663,34.34042390583451,34.80318752592031,137.6601574494772,126.2026299098854,6.47544875391759e-05,0.0932833403348922,0,0,0
11471,415184.3206405895,2010-12-04 05:54:10,1350.6785409650167,2,38,0.5501165986061096,3.8961174488067623,34.34501057723263,34.80318752592031,137.67802324238968,126.2026299098854,6.47544875391759e-05,0.0932833403348922,0,0,0
11472,415214.33573049126,2010-12-04 05:54:40,1380.693630866811,2,38,0.5501165986061096,3.897898197174072,34.349597180056115,34.80318752592031,137.69589667431595,126.2026299098854,9.713172767078504e-05,0.0932833403348922,0,0,0
11473,415244.3527045467,2010-12-04 05:55:10,1410.710604977386,2,38,0.5499359965324402,3.899355173110962,34.35418411128714,34.80318752592031,137.7137790563213,126.2026299098854,6.47544875391759e-05,0.0932833403348922,0,0,0
11474,415274.3658749619,2010-12-04 05:55:40,1440.7237753374743,2,38,0.5501165986061096,3.9009740352630615,34.35877052394951,34.80318752592031,137.731666803291,126.2026299098854,3.237724376958795e-05,0.0932833403348922,0,0,0
11475,415304.38101509376,2010-12-04 05:56:10,1470.738915489314,2,38,0.5501165986061096,3.902592897415161,34.36335714598125,34.80318752592031,137.74956271492945,126.2026299098854,3.237724376958795e-05,0.0932833403348922,0,0,0
11476,415334.3961697667,2010-12-04 05:56:40,1500.754070147251,2,38,0.5501165986061096,3.9042117595672607,34.36794373437846,34.80318752592031,137.76746563225242,126.2026299098854,3.237724376958795e-05,0.0932833403348922,0,0,0
11477,415364.4113810506,2010-12-04 05:57:10,1530.7692814511497,2,38,0.550297200679779,3.905506849288941,34.37253041656665,34.80318752592031,137.78537598149592,126.2026299098854,3.237724376958795e-05,0.0932833403348922,0,0,0
11478,415394.4262018176,2010-12-04 05:57:40,1560.78410219315,2,38,0.5499359965324402,3.90712571144104,34.377117021093305,34.80318752592031,137.80329302122593,126.2026299098854,6.47544875391759e-05,0.0932833403348922,0,0,0
11479,415424.4412761758,2010-12-04 05:58:10,1590.799176551264,2,38,0.5501165986061096,3.90874457359314,34.38170360855054,34.80318752592031,137.82121693046412,126.2026299098854,6.47544875391759e-05,0.0932833403348922,0,0,0
11480,415454.4563615313,2010-12-04 05:58:40,1620.8142619117573,2,38,0.5501165986061096,3.910201549530029,34.38629023077243,34.80318752592031,137.83914800741678,126.2026299098854,6.47544875391759e-05,0.0932833403348922,0,0,0
11481,415484.4714243707,2010-12-04 05:59:10,1650.8293247461952,2,38,0.5499359965324402,3.911496639251709,34.390876808689626,34.80318752592031,137.85708574152991,126.2026299098854,3.237724376958795e-05,0.0932833403348922,0,0,0
11482,415514.48657924414,2010-12-04 05:59:40,1680.8444797098934,2,38,0.5501165986061096,3.9132773876190186,34.39546341492269,34.80318752592031,137.8750305895482,126.2026299098854,3.237724376958795e-05,0.0932833403348922,0,0,0
11483,415544.5016012319,2010-12-04 06:00:10,1710.8595016074617,2,38,0.5501165986061096,3.914896011352539,34.40005003644552,34.80318752592031,137.8929824918424,126.2026299098854,6.47544875391759e-05,0.0932833403348922,0,0,0
11484,415574.51668034686,2010-12-04 06:00:40,1740.8745807474754,2,38,0.5499359965324402,3.9161911010742183,34.4046366762996,34.80318752592031,137.91094128413596,126.2026299098854,3.237724376958795e-05,0.0932833403348922,0,0,0
11485,415604.5317440335,2010-12-04 06:01:10,1770.8896444089714,2,38,0.5501165986061096,3.9178099632263184,34.40922320010321,34.80318752592031,137.9289065563067,126.2026299098854,6.47544875391759e-05,0.0932833403348922,0,0,0
11486,415634.5469159794,2010-12-04 06:01:40,1800.9048164601911,2,38,0.5499359965324402,3.919105052947998,34.41380973517763,34.80318752592031,137.9468788403298,126.2026299098854,0.0,0.0932833403348922,0,0,0
11487,415664.5618835568,2010-12-04 06:02:10,1830.9197839273115,2,38,0.550297200679779,3.920885801315308,34.418396178967754,34.80318752592031,137.9648577889678,126.2026299098854,6.47544875391759e-05,0.0932833403348922,0,0,0
11488,415694.5771426898,2010-12-04 06:02:40,1860.935043075268,2,38,0.5501165986061096,3.9221808910369873,34.422982678065225,34.80318752592031,137.98284388663183,126.2026299098854,3.237724376958795e-05,0.0932833403348922,0,0,0
11489,415724.5921089539,2010-12-04 06:03:10,1890.950009324357,2,38,0.550297200679779,3.923961639404297,34.427569166023474,34.80318752592031,138.0008370249688,126.2026299098854,6.47544875391759e-05,0.0932833403348922,0,0,0
11490,415754.60716714174,2010-12-04 06:03:40,1920.9650675172447,2,38,0.550297200679779,3.925580501556397,34.432155811784575,34.80318752592031,138.0188378823977,126.2026299098854,9.713172767078504e-05,0.0932833403348922,0,0,0
11491,415784.6222296854,2010-12-04 06:04:10,1950.9801300910344,2,38,0.5501165986061096,3.926875591278076,34.43674246066024,34.80318752592031,138.03684576889194,126.2026299098854,3.237724376958795e-05,0.0932833403348922,0,0,0
11492,415814.637316284,2010-12-04 06:04:40,1980.9952166595333,2,38,0.5501165986061096,3.928494453430176,34.44132903117409,34.80318752592031,138.05486050532272,126.2026299098854,6.47544875391759e-05,0.0932833403348922,0,0,0
11493,415844.6542800839,2010-12-04 06:05:10,2011.0121805597005,2,38,0.550297200679779,3.9301133155822754,34.44591587463913,34.80318752592031,138.0728834751705,126.2026299098854,3.237724376958795e-05,0.0932833403348922,0,0,0
11494,415874.66824933706,2010-12-04 06:05:40,2041.0261498328537,2,38,0.5501165986061096,3.931570291519165,34.450502326267284,34.80318752592031,138.09091210887993,126.2026299098854,3.237724376958795e-05,0.0932833403348922,0,0,0
11495,415904.68259597424,2010-12-04 06:06:10,2071.040496354775,2,38,0.5501165986061096,3.9331891536712646,34.45508882857081,34.80318752592031,138.10894815198645,126.2026299098854,3.237724376958795e-05,0.0932833403348922,0,0,0
11496,415934.69999010005,2010-12-04 06:06:40,2101.0578905908164,2,38,0.5501165986061096,3.934808015823364,34.459675825617275,34.80318752592031,138.12699335137845,126.2026299098854,3.237724376958795e-05,0.0932833403348922,0,0,0
11497,415964.7127715874,2010-12-04 06:07:10,2131.070671967936,2,38,0.550297200679779,3.936264991760254,34.46426220044172,34.80318752592031,138.14504346215935,126.2026299098854,3.237724376958795e-05,0.0932833403348922,0,0,0
11498,415994.7278331186,2010-12-04 06:07:40,2161.085733494118,2,38,0.5499359965324402,3.938045740127564,34.46884891475276,34.80318752592031,138.16310212680693,126.2026299098854,3.237724376958795e-05,0.0932833403348922,0,0,0
11499,416024.74306768033,2010-12-04 06:08:10,2191.1009681511296,2,38,0.5501165986061096,3.939340829849243,34.473435624732865,34.80318752592031,138.18116825209614,126.2026299098854,-3.237724376958795e-05,0.0932833403348922,0,0,0
11500,416054.75802356366,2010-12-04 06:08:40,2221.1159239391877,2,38,0.5501165986061096,3.9412834644317623,34.47802220965193,34.80318752592031,138.19924135764265,126.2026299098854,6.47544875391759e-05,0.0932833403348922,0,0,0
11501,416084.7730725486,2010-12-04 06:09:10,2251.130972929174,2,38,0.5499359965324402,3.9429023265838623,34.48260886498468,34.80318752592031,138.21732209307623,126.2026299098854,6.47544875391759e-05,0.0932833403348922,0,0,0
11502,416114.7881575533,2010-12-04 06:09:40,2281.146057928769,2,38,0.550297200679779,3.944683074951172,34.487195545141134,34.80318752592031,138.2354104236366,126.2026299098854,9.713172767078504e-05,0.0932833403348922,0,0,0
11503,416144.80325609655,2010-12-04 06:10:10,2311.16115647708,2,38,0.5501165986061096,3.9461400508880615,34.49178228913633,34.80318752592031,138.253506553079,126.2026299098854,3.237724376958795e-05,0.0932833403348922,0,0,0
11504,416174.818453581,2010-12-04 06:10:41,2341.176353981639,2,38,0.5501165986061096,3.947758913040161,34.49636891255516,34.80318752592031,138.27160960012114,126.2026299098854,0.0,0.0932833403348922,0,0,0
11505,416204.83570920216,2010-12-04 06:11:11,2371.193609667904,2,38,0.550297200679779,3.949539661407471,34.50095581777814,34.80318752592031,138.28972137653736,126.2026299098854,6.47544875391759e-05,0.0932833403348922,0,0,0
11506,416234.8485425236,2010-12-04 06:11:41,2401.2064429892853,2,38,0.5499359965324402,3.9511585235595694,34.505542155345694,34.80318752592031,138.3078385709034,126.2026299098854,6.47544875391759e-05,0.0932833403348922,0,0,0
11507,416264.8635766716,2010-12-04 06:12:11,2431.221477047113,2,38,0.5501165986061096,3.95277738571167,34.510128850341914,34.80318752592031,138.3259647864061,126.2026299098854,0.0,0.0932833403348922,0,0,0
11508,416294.87864894455,2010-12-04 06:12:41,2461.236549345101,2,38,0.5501165986061096,3.9543962478637695,34.5147151554219,34.80318752592031,138.3440970722692,126.2026299098854,6.47544875391759e-05,0.0932833403348922,0,0,0
11509,416324.89370899706,2010-12-04 06:13:11,2491.251609402629,2,38,0.5499359965324402,3.956015110015869,34.51930092118861,34.80318752592031,138.36223479900386,126.2026299098854,6.47544875391759e-05,0.0932833403348922,0,0,0
11510,416354.9089667215,2010-12-04 06:13:41,2521.266867106993,2,38,0.5501165986061096,3.9579577445983887,34.52388710381929,34.80318752592031,138.3803819604566,126.2026299098854,9.713172767078504e-05,0.0932833403348922,0,0,0
11511,416384.9240402225,2010-12-04 06:14:11,2551.2819406079743,2,38,0.5501165986061096,3.9594147205352783,34.52847372686854,34.80318752592031,138.39853878996533,126.2026299098854,0.0,0.0932833403348922,0,0,0
11512,416414.93910967326,2010-12-04 06:14:41,2581.2970101090023,2,38,0.5501165986061096,3.961195468902588,34.53306033298366,34.80318752592031,138.41670338726723,126.2026299098854,3.237724376958795e-05,0.0932833403348922,0,0,0
11513,416444.9560233085,2010-12-04 06:15:11,2611.313923819273,2,38,0.5499359965324402,3.962814331054688,34.537647289577905,34.80318752592031,138.4348772807239,126.2026299098854,3.237724376958795e-05,0.0932833403348922,0,0,0
11514,416474.9692761488,2010-12-04 06:15:41,2641.327176534299,2,38,0.5501165986061096,3.964595079421997,34.54223364013035,34.80318752592031,138.4530567090732,126.2026299098854,6.47544875391759e-05,0.0932833403348922,0,0,0
11515,416504.98422843806,2010-12-04 06:16:11,2671.3421288186373,2,38,0.550297200679779,3.9665377140045166,34.54682026208736,34.80318752592031,138.47124523955964,126.2026299098854,6.47544875391759e-05,0.0932833403348922,0,0,0
11516,416534.99933379336,2010-12-04 06:16:41,2701.357234234036,2,38,0.5501165986061096,3.968156576156616,34.55140692682775,34.80318752592031,138.48944202476395,126.2026299098854,3.237724376958795e-05,0.0932833403348922,0,0,0
11517,416565.0144020213,2010-12-04 06:17:11,2731.372302421796,2,38,0.5501165986061096,3.970099210739136,34.55599359412532,34.80318752592031,138.50764698455097,126.2026299098854,9.713172767078504e-05,0.0932833403348922,0,0,0
11518,416595.0294645399,2010-12-04 06:17:41,2761.387364915385,2,38,0.550297200679779,3.971879959106445,34.56058021765164,34.80318752592031,138.52586004362638,126.2026299098854,6.47544875391759e-05,0.0932833403348922,0,0,0
11519,416625.04456219095,2010-12-04 06:18:11,2791.402462566464,2,38,0.5501165986061096,3.973660707473755,34.565166879024964,34.80318752592031,138.54408155050655,126.2026299098854,6.47544875391759e-05,0.0932833403348922,0,0,0
11520,416655.05962773215,2010-12-04 06:18:41,2821.417528112649,2,38,0.550297200679779,3.975441455841065,34.56975355722549,34.80318752592031,138.56231156277684,126.2026299098854,3.237724376958795e-05,0.0932833403348922,0,0,0
11521,416685.0747041554,2010-12-04 06:19:11,2851.4326045308903,2,38,0.550297200679779,3.977384090423584,34.57434026854684,34.80318752592031,138.58055018758455,126.2026299098854,6.47544875391759e-05,0.0932833403348922,0,0,0
11522,416715.08990722377,2010-12-04 06:19:41,2881.44780760932,2,38,0.5499359965324402,3.979326725006104,34.5789268810738,34.80318752592031,138.59879653818624,126.2026299098854,9.713172767078504e-05,0.0932833403348922,0,0,0
11523,416745.105729458,2010-12-04 06:20:11,2911.4636299337194,2,38,0.5501165986061096,3.980945587158203,34.583513564023235,34.80318752592031,138.6170523133313,126.2026299098854,0.0,0.0932833403348922,0,0,0
11524,416775.1199719761,2010-12-04 06:20:41,2941.477872356595,2,38,0.5501165986061096,3.982888221740722,34.58809996164711,34.80318752592031,138.63531571756533,126.2026299098854,3.237724376958795e-05,0.0932833403348922,0,0,0
11525,416805.1350252216,2010-12-04 06:21:11,2971.4929255971592,2,38,0.5501165986061096,3.984830856323242,34.592686497865245,34.80318752592031,138.65358849574565,126.2026299098854,3.237724376958795e-05,0.0932833403348922,0,0,0
11526,416835.1501107024,2010-12-04 06:21:41,3001.508011072939,2,38,0.5501165986061096,3.9867734909057617,34.59727298811036,34.80318752592031,138.6718700118839,126.2026299098854,0.0,0.0932833403348922,0,0,0
11527,416865.16518421343,2010-12-04 06:22:11,3031.5230845889578,2,38,0.5501165986061096,3.988878011703491,34.6018595818286,34.80318752592031,138.6901609825242,126.2026299098854,6.47544875391759e-05,0.0932833403348922,0,0,0
11528,416895.1804045598,2010-12-04 06:22:41,3061.538304940371,2,38,0.5501165986061096,3.9908206462860103,34.60644613337852,34.80318752592031,138.70846087264567,126.2026299098854,3.237724376958795e-05,0.0932833403348922,0,0,0
11529,416925.1953523079,2010-12-04 06:23:11,3091.5532526834086,2,38,0.5499359965324402,3.99292516708374,34.61103269352303,34.80318752592031,138.72677012441525,126.2026299098854,9.713172767078504e-05,0.0932833403348922,0,0,0
11530,416955.21047460526,2010-12-04 06:23:41,3121.56837498583,2,38,0.5501165986061096,3.99502944946289,34.61561925641521,34.80318752592031,138.74508865474425,126.2026299098854,3.237724376958795e-05,0.0932833403348922,0,0,0
11531,416985.2255284674,2010-12-04 06:24:11,3151.5834288529536,2,38,0.5501165986061096,3.99713397026062,34.62020586431902,34.80318752592031,138.76341689594415,126.2026299098854,6.47544875391759e-05,0.0932833403348922,0,0,0
11532,417015.2406216573,2010-12-04 06:24:41,3181.5985220278926,2,38,0.5499359965324402,3.9992384910583496,34.62479246689866,34.80318752592031,138.78175459402573,126.2026299098854,6.47544875391759e-05,0.0932833403348922,0,0,0
11533,417045.25748200994,2010-12-04 06:25:11,3211.615382485647,2,38,0.5501165986061096,4.001343250274658,34.62937920641196,34.80318752592031,138.80010254075304,126.2026299098854,6.47544875391759e-05,0.0932833403348922,0,0,0
11534,417075.270769331,2010-12-04 06:25:41,3241.628669706539,2,38,0.5501165986061096,4.003285884857178,34.63396547268832,34.80318752592031,138.81845846088032,126.2026299098854,0.0,0.0932833403348922,0,0,0
11535,417105.2858343258,2010-12-04 06:26:11,3271.643734701353,2,38,0.5501165986061096,4.005552291870117,34.6385520377106,34.80318752592031,138.8368254279554,126.2026299098854,6.47544875391759e-05,0.0932833403348922,0,0,0
11536,417135.30093090434,2010-12-04 06:26:41,3301.658831274749,2,38,0.5501165986061096,4.007980346679688,34.64313865081532,34.80318752592031,138.85520259434242,126.2026299098854,9.70840483205393e-05,0.0932833403348922,0,0,0
11537,417165.31624374574,2010-12-04 06:27:11,3331.674144131358,2,38,0.5501165986061096,4.010085105895996,34.64772530946609,34.80318752592031,138.87359004968658,126.2026299098854,9.71794142969884e-05,0.0932833403348922,0,0,0
11538,417195.3311006528,2010-12-04 06:27:41,3361.689001063415,2,38,0.5501165986061096,4.0121893882751465,34.65231184891711,34.80318752592031,138.89198718599457,126.2026299098854,3.23295607813634e-05,0.0932833403348922,0,0,0
11539,417225.34616107127,2010-12-04 06:28:11,3391.704061451767,2,38,0.5499359965324402,4.014617919921875,34.65689842262108,34.80318752592031,138.91039480439977,126.2026299098854,6.47544875391759e-05,0.0932833403348922,0,0,0
11540,417255.3612426524,2010-12-04 06:28:41,3421.719143032855,2,38,0.5501165986061096,4.016884326934815,34.66148501558023,34.80318752592031,138.92881294242483,126.2026299098854,9.71794142969884e-05,0.0932833403348922,0,0,0
11541,417285.3765812982,2010-12-04 06:29:11,3451.734481768863,2,38,0.5501165986061096,4.018988609313965,34.666071693141724,34.80318752592031,138.9472419858826,126.2026299098854,6.47544875391759e-05,0.0932833403348922,0,0,0
11542,417315.3913979299,2010-12-04 06:29:41,3481.7492983655484,2,38,0.5501165986061096,4.021417140960693,34.67065817701554,34.80318752592031,138.9656807349435,126.2026299098854,9.71794142969884e-05,0.0932833403348922,0,0,0
11543,417345.4064692354,2010-12-04 06:30:11,3511.764369610916,2,38,0.5499359965324402,4.023683547973633,34.67524476043489,34.80318752592031,138.98413075123582,126.2026299098854,6.47544875391759e-05,0.0932833403348922,0,0,0
11544,417375.4215908712,2010-12-04 06:30:41,3541.7794913419166,2,38,0.5501165986061096,4.026111602783203,34.67983129911128,34.80318752592031,139.00259139357445,126.2026299098854,3.23295607813634e-05,0.0932833403348922,0,0,0
11545,417405.4366662268,2010-12-04 06:31:11,3571.794566637363,2,38,0.5501165986061096,4.028540134429932,34.68441783706285,34.80318752592031,139.02106305483386,126.2026299098854,9.71794142969884e-05,0.0932833403348922,0,0,0
11546,417435.4517135576,2010-12-04 06:31:41,3601.8096139381464,2,38,0.5501165986061096,4.030968189239502,34.68900441332093,34.80318752592031,139.03954584903886,126.2026299098854,6.47544875391759e-05,0.0932833403348922,0,0,0
11547,417465.4668005021,2010-12-04 06:32:11,3631.8247008825806,2,38,0.5501165986061096,4.033558368682861,34.69359098527559,34.80318752592031,139.05803981774315,126.2026299098854,9.70840483205393e-05,0.0932833403348922,0,0,0
11548,417495.48188407806,2010-12-04 06:32:41,3661.8397844536207,2,38,0.550297200679779,4.035986423492432,34.698177544646654,34.80318752592031,139.07654503935782,126.2026299098854,9.70840483205393e-05,0.0932833403348922,0,0,0
11549,417525.4969646568,2010-12-04 06:33:11,3691.85486510239,2,38,0.5501165986061096,4.03841495513916,34.70276412831429,34.80318752592031,139.09506179029077,126.2026299098854,3.24249267578125e-05,0.0932833403348922,0,0,0
11550,417555.512041912,2010-12-04 06:33:41,3721.8699422875393,2,38,0.5501165986061096,4.0408430099487305,34.70735073534017,34.80318752592031,139.11359007997797,126.2026299098854,3.23295607813634e-05,0.0932833403348922,0,0,0
11551,417585.52653300366,2010-12-04 06:34:11,3751.884433073456,2,38,0.5501165986061096,4.04343318939209,34.71193712097289,34.80318752592031,139.13212902257408,126.2026299098854,6.47544875391759e-05,0.0932833403348922,0,0,0
11552,417615.5266478406,2010-12-04 06:34:41,3781.8845482211514,2,38,0.5499359965324402,4.046023368835449,34.716521416168256,34.80318752592031,139.15067124284568,126.2026299098854,6.47544875391759e-05,0.0932833403348922,0,0,0
11553,417645.5416884999,2010-12-04 06:35:11,3811.899588880407,2,38,0.5499359965324402,4.048451900482178,34.72110796022537,34.80318752592031,139.16923437839642,126.2026299098854,3.24249267578125e-05,0.0932833403348922,0,0,0
11554,417675.55675672775,2010-12-04 06:35:41,3841.9146571082656,2,38,0.5501165986061096,4.051042079925537,34.725694543443375,34.80318752592031,139.18780962278606,126.2026299098854,3.24249267578125e-05,0.0932833403348922,0,0,0
11555,417705.558017797,2010-12-04 06:36:11,3871.915918287816,2,38,0.5501165986061096,4.053793907165527,34.730279319085064,34.80318752592031,139.20638954724618,126.2026299098854,6.47544875391759e-05,0.0932833403348922,0,0,0
11556,417735.57123534445,2010-12-04 06:36:41,3901.9291357250554,2,38,0.550297200679779,4.056384086608887,34.734866434758295,34.80318752592031,139.22499110115248,126.2026299098854,6.47544875391759e-05,0.0932833403348922,0,0,0
11557,417765.58634860447,2010-12-04 06:37:11,3931.9442489849744,2,38,0.5504778623580933,4.059298038482666,34.739453723883095,34.80318752592031,139.24360561837284,126.2026299098854,6.47544875391759e-05,0.0932833403348922,0,0,0
11558,417795.6014250979,2010-12-04 06:37:41,3961.9593254784018,2,38,0.5501165986061096,4.061888217926025,34.74404112367551,34.80318752592031,139.2622327251134,126.2026299098854,6.47544875391759e-05,0.0932833403348922,0,0,0
11559,417825.6164920576,2010-12-04 06:38:11,3991.974392433093,2,38,0.5501165986061096,4.064640522003174,34.74862846476657,34.80318752592031,139.2808720140228,126.2026299098854,9.71794142969884e-05,0.0932833403348922,0,0,0
11560,417855.6315697189,2010-12-04 06:38:41,4021.9894700944274,2,38,0.5501165986061096,4.067392349243164,34.753215797415486,34.80318752592031,139.29952385971134,126.2026299098854,6.47544875391759e-05,0.0932833403348922,0,0,0
11561,417885.64677507296,2010-12-04 06:39:11,4052.00467544852,2,38,0.550297200679779,4.0701446533203125,34.75780299241644,34.80318752592031,139.3181878963587,126.2026299098854,6.47544875391759e-05,0.0932833403348922,0,0,0
11562,417915.66199948447,2010-12-04 06:39:41,4082.0198999101617,2,38,0.5499359965324402,4.072896480560303,34.76238970793259,34.80318752592031,139.3368626970131,126.2026299098854,6.47544875391759e-05,0.0932833403348922,0,0,0
11563,417945.66351606464,2010-12-04 06:40:11,4112.021416555428,2,38,0.5501165986061096,4.075810432434082,34.7669742767294,34.80318752592031,139.35554166011943,126.2026299098854,9.70840483205393e-05,0.0932833403348922,0,0,0
11564,417975.6762618682,2010-12-04 06:40:41,4142.034162248749,2,38,0.5501165986061096,4.078562736511231,34.77156058247657,34.80318752592031,139.37424067723492,126.2026299098854,6.47544875391759e-05,0.0932833403348922,0,0,0
11565,418005.69137863687,2010-12-04 06:41:11,4172.049279012389,2,38,0.5501165986061096,4.081314563751221,34.77614725621236,34.80318752592031,139.3929543365348,126.2026299098854,6.47544875391759e-05,0.0932833403348922,0,0,0
11566,418035.7064563934,2010-12-04 06:41:41,4202.064356859184,2,38,0.550297200679779,4.084390640258789,34.78073387950747,34.80318752592031,139.41168097629836,126.2026299098854,6.47544875391759e-05,0.0932833403348922,0,0,0
11567,418065.7215736383,2010-12-04 06:42:11,4232.079474043871,2,38,0.5501165986061096,4.087304592132568,34.78532058674852,34.80318752592031,139.4304213902604,126.2026299098854,3.24249267578125e-05,0.0932833403348922,0,0,0
11568,418095.7366138264,2010-12-04 06:42:41,4262.094514201879,2,38,0.5501165986061096,4.0903801918029785,34.78990719243386,34.80318752592031,139.44917487222187,126.2026299098854,9.70840483205393e-05,0.0932833403348922,0,0,0
11569,418125.7517043246,2010-12-04 06:43:11,4292.109604700157,2,38,0.5501165986061096,4.093132495880127,34.794493862530864,34.80318752592031,139.46794226085385,126.2026299098854,6.47544875391759e-05,0.0932833403348922,0,0,0
11570,418155.7667788833,2010-12-04 06:43:41,4322.124679263784,2,38,0.5501165986061096,4.096208095550537,34.79908052100401,34.80318752592031,139.48672336961508,126.2026299098854,6.47544875391759e-05,0.0932833403348922,0,0,0
11571,418185.78189924586,2010-12-04 06:44:12,4352.1397996213655,2,38,0.550297200679779,4.099445819854736,34.8036672809301,34.80318752592031,139.5055188249297,126.2026299098854,0.0001295089750783,0.0932833403348922,0,0,0
11572,418215.7992606853,2010-12-04 06:44:42,4382.1571611610425,2,38,0.550297200679779,4.102198123931885,34.80825433712526,34.80318752592031,139.5243294244604,126.2026299098854,3.24249267578125e-05,0.0932833403348922,0,0,0
11573,418245.81209907925,2010-12-04 06:45:12,4412.169999555047,2,38,0.550297200679779,4.105435848236084,34.81284072555009,34.80318752592031,139.54315135343558,126.2026299098854,6.47544875391759e-05,0.0932833403348922,0,0,0
11574,418275.8271251623,2010-12-04 06:45:42,4442.185025567856,2,38,0.5499359965324402,4.108349800109863,34.81742743801285,34.80318752592031,139.56198880985988,126.2026299098854,6.47544875391759e-05,0.0932833403348922,0,0,0
11575,418305.8422073148,2010-12-04 06:46:12,4472.200107690291,2,38,0.5501165986061096,4.111749172210693,34.822014166785934,34.80318752592031,139.58084066464713,126.2026299098854,9.70840483205393e-05,0.0932833403348922,0,0,0
11576,418335.859131441,2010-12-04 06:46:42,4502.217031916731,2,38,0.5501165986061096,4.114824771881104,34.826601177991414,34.80318752592031,139.5997080488087,126.2026299098854,6.46591215627268e-05,0.0932833403348922,0,0,0
11577,418365.87235092325,2010-12-04 06:47:12,4532.230251298809,2,38,0.5499359965324402,4.117900848388672,34.83118763950133,34.80318752592031,139.61858767992703,126.2026299098854,6.47544875391759e-05,0.0932833403348922,0,0,0
11578,418395.88742694055,2010-12-04 06:47:42,4562.245327316053,2,38,0.5501165986061096,4.121138572692871,34.83577434238158,34.80318752592031,139.63748292019594,126.2026299098854,9.71794142969884e-05,0.0932833403348922,0,0,0
11579,418425.9025193736,2010-12-04 06:48:12,4592.2604197491455,2,38,0.5501165986061096,4.124537944793701,34.840361087879714,34.80318752592031,139.65639300731596,126.2026299098854,9.70840483205393e-05,0.0932833403348922,0,0,0
11580,418455.9175847043,2010-12-04 06:48:42,4622.275485079796,2,38,0.550297200679779,4.1277756690979,34.84494777898957,34.80318752592031,139.67531773262525,126.2026299098854,9.70840483205393e-05,0.0932833403348922,0,0,0
11581,418485.93268782896,2010-12-04 06:49:12,4652.290588234568,2,38,0.550297200679779,4.130851745605469,34.84953449795502,34.80318752592031,139.69425748741585,126.2026299098854,9.71794142969884e-05,0.0932833403348922,0,0,0
11582,418515.94779308897,2010-12-04 06:49:42,4682.305693464506,2,38,0.5501165986061096,4.134089469909668,34.85412122857338,34.80318752592031,139.71321228142557,126.2026299098854,9.71794142969884e-05,0.0932833403348922,0,0,0
11583,418545.96296841337,2010-12-04 06:50:12,4712.320868798895,2,38,0.5501165986061096,4.137488842010498,34.858707994479246,34.80318752592031,139.7321823957514,126.2026299098854,9.70840483205393e-05,0.0932833403348922,0,0,0
11584,418575.9779060863,2010-12-04 06:50:42,4742.335806466862,2,38,0.5501165986061096,4.140888690948486,34.863294735269605,34.80318752592031,139.75116777907172,126.2026299098854,9.71794142969884e-05,0.0932833403348922,0,0,0
11585,418605.99298864993,2010-12-04 06:51:12,4772.350889030395,2,38,0.5499359965324402,4.144288063049316,34.86788152289617,34.80318752592031,139.7701687880225,126.2026299098854,0.0001295089750783,0.0932833403348922,0,0,0
11586,418636.0080729378,2010-12-04 06:51:42,4802.365973318219,2,38,0.5501165986061096,4.147849559783936,34.87246817601283,34.80318752592031,139.78918510345463,126.2026299098854,0.0001295089750783,0.0932833403348922,0,0,0
11587,418666.0230917025,2010-12-04 06:52:12,4832.3809921030415,2,38,0.5499359965324402,4.150925636291504,34.87705485519326,34.80318752592031,139.80821718587202,126.2026299098854,6.47544875391759e-05,0.0932833403348922,0,0,0
11588,418696.0382254885,2010-12-04 06:52:42,4862.396125884027,2,38,0.550297200679779,4.154648780822754,34.88164159366138,34.80318752592031,139.82726525504168,126.2026299098854,9.70840483205393e-05,0.0932833403348922,0,0,0
11589,418726.05342056695,2010-12-04 06:53:12,4892.411320972574,2,38,0.550297200679779,4.158210277557373,34.88622824772905,34.80318752592031,139.84632885285174,126.2026299098854,0.0001295089750783,0.0932833403348922,0,0,0
11590,418756.068361884,2010-12-04 06:53:42,4922.426262259546,2,38,0.5501165986061096,4.161448001861572,34.890814959342194,34.80318752592031,139.8654086425722,126.2026299098854,6.47544875391759e-05,0.0932833403348922,0,0,0
11591,418786.0834346933,2010-12-04 06:54:12,4952.441335068806,2,38,0.550297200679779,4.1651716232299805,34.8954016575961,34.80318752592031,139.8845043889479,126.2026299098854,0.0001295089750783,0.0932833403348922,0,0,0
11592,418816.09850593866,2010-12-04 06:54:42,4982.456406339236,2,38,0.550297200679779,4.1685709953308105,34.899988268663655,34.80318752592031,139.90361586145872,126.2026299098854,0.0001295089750783,0.0932833403348922,0,0,0
11593,418846.1135834597,2010-12-04 06:55:12,5012.471483835159,2,38,0.5497553944587708,4.171970844268799,34.90457499965448,34.80318752592031,139.92274409425968,126.2026299098854,9.71794142969884e-05,0.0932833403348922,0,0,0
11594,418876.1286705996,2010-12-04 06:55:42,5042.486570990117,2,38,0.5499359965324402,4.175693988800049,34.909161746630595,34.80318752592031,139.94188874530082,126.2026299098854,0.0001295089750783,0.0932833403348922,0,0,0
11595,418906.1440750541,2010-12-04 06:56:12,5072.501975429627,2,38,0.5501165986061096,4.179093837738037,34.913748483042376,34.80318752592031,139.9610497652706,126.2026299098854,6.47544875391759e-05,0.0932833403348922,0,0,0
11596,418936.16064351023,2010-12-04 06:56:42,5102.518543991009,2,38,0.5501165986061096,4.182816982269287,34.918335373405405,34.80318752592031,139.98022799731865,126.2026299098854,9.70840483205393e-05,0.0932833403348922,0,0,0
11597,418966.1738562007,2010-12-04 06:57:12,5132.5317565761725,2,38,0.5501165986061096,4.186540603637695,34.92292183508217,34.80318752592031,139.99942106199188,126.2026299098854,6.47544875391759e-05,0.0932833403348922,0,0,0
11598,418996.1890361465,2010-12-04 06:57:42,5162.54693652705,2,38,0.5501165986061096,4.1901021003723145,34.92750853428896,34.80318752592031,140.01863191782238,126.2026299098854,6.47544875391759e-05,0.0932833403348922,0,0,0
11599,419026.2041575517,2010-12-04 06:58:12,5192.562057932239,2,38,0.5501165986061096,4.1938252449035645,34.93209522234143,34.80318752592031,140.03785959743783,126.2026299098854,6.47544875391759e-05,0.0932833403348922,0,0,0
11600,419056.2191779656,2010-12-04 06:58:42,5222.577078346116,2,38,0.5499359965324402,4.197548389434815,34.93668192261161,34.80318752592031,140.05710438672384,126.2026299098854,9.70840483205393e-05,0.0932833403348922,0,0,0
11601,419073.8126408364,2010-12-04 06:59:00,5240.170541216798,2,38,0.550297200679779,4.200138568878174,34.939370432743885,34.80318752592031,140.06839276753422,126.2026299098854,0.0001618385285837,0.0932833403348922,0,0,0
11602,419103.8220810717,2010-12-04 06:59:30,30.01508712989632,3,38,0.0,4.112396717071533,34.939370432743885,34.80318752592031,140.06839276753422,126.2026299098854,-0.0004209518374409,0.0932833403348922,0,0,0
11603,419133.8371337057,2010-12-04 07:00:00,60.03013976395106,3,38,0.0,4.101712226867676,34.939370432743885,34.80318752592031,140.06839276753422,126.2026299098854,-0.0002266883820993,0.0932833403348922,0,0,0
11604,419163.853931638,2010-12-04 07:00:30,90.04693778633754,3,38,0.0,4.095236778259277,34.939370432743885,34.80318752592031,140.06839276753422,126.2026299098854,-0.0001619339018361,0.0932833403348922,0,0,0
11605,419193.8204214903,2010-12-04 07:01:00,120.01342753852856,3,38,0.0,4.090866088867188,34.939370432743885,34.80318752592031,140.06839276753422,126.2026299098854,-0.0001295089750783,0.0932833403348922,0,0,0
11606,419193.83303980215,2010-12-04 07:01:00,0.016069648702733,4,38,0.9938735961914062,4.199814796447754,34.93937489700694,34.80318752592031,140.06841151697418,126.2026299098854,-3.24249267578125e-05,0.0932833403348922,0,0,0
11607,419194.78567889286,2010-12-04 07:01:01,0.968708674277915,4,38,0.9438448548316956,4.199814796447754,34.93962983848641,34.80318752592031,140.06948219493236,126.2026299098854,-3.24249267578125e-05,0.0932833403348922,0,0,0
11608,419196.8637737319,2010-12-04 07:01:03,3.046803513358241,4,38,0.8936354517936707,4.199814796447754,34.94015919138761,34.80318752592031,140.07170532181135,126.2026299098854,-3.24249267578125e-05,0.0932833403348922,0,0,0
11609,419200.03586448776,2010-12-04 07:01:06,6.218894364437658,4,38,0.8434261083602905,4.199814796447754,34.940923396586705,34.80318752592031,140.07491476153032,126.2026299098854,3.23295607813634e-05,0.0932833403348922,0,0,0
11610,419204.3949175837,2010-12-04 07:01:10,10.577947375199054,4,38,0.7932167053222656,4.199814796447754,34.94191290690203,34.80318752592031,140.07907042673355,126.2026299098854,0.0,0.0932833403348922,0,0,0
11611,419210.113611664,2010-12-04 07:01:16,16.29664145546803,4,38,0.7430073022842407,4.199814796447754,34.94313144763625,34.80318752592031,140.08418796851188,126.2026299098854,3.23295607813634e-05,0.0932833403348922,0,0,0
11612,419217.6133971016,2010-12-04 07:01:24,23.796426893076237,4,38,0.69297856092453,4.199814796447754,34.94462469884272,34.80318752592031,140.0904592201463,126.2026299098854,3.23295607813634e-05,0.0932833403348922,0,0,0
11613,419227.4882236377,2010-12-04 07:01:34,33.67125341908519,4,38,0.6429497599601746,4.199653148651123,34.94645356324126,34.80318752592031,140.09813994223134,126.2026299098854,-3.23295607813634e-05,0.0932833403348922,0,0,0
11614,419241.4747708876,2010-12-04 07:01:48,47.65780076922187,4,38,0.5929210186004639,4.199653148651123,34.94884904080161,34.80318752592031,140.10820029383234,126.2026299098854,0.0,0.0932833403348922,0,0,0
11615,419263.05024004274,2010-12-04 07:02:09,69.23326985421414,4,38,0.5428922176361084,4.199814796447754,34.95224176527391,34.80318752592031,140.12244883404392,126.2026299098854,3.23295607813634e-05,0.0932833403348922,0,0,0
11616,419300.6118910466,2010-12-04 07:02:47,106.79492082798347,4,38,0.4928634762763977,4.199491024017334,34.95762044350692,34.80318752592031,140.14503782717202,126.2026299098854,-6.47544875391759e-05,0.0932833403348922,0,0,0
11617,419369.6106439494,2010-12-04 07:03:56,175.79367373078392,4,38,0.4428347051143646,4.199653148651123,34.966547836706376,34.80318752592031,140.18253055112612,126.2026299098854,-3.23295607813634e-05,0.0932833403348922,0,0,0
11618,419471.5306824552,2010-12-04 07:05:38,277.71371231179126,4,38,0.3928059339523315,4.199653148651123,34.978356756103075,34.80318752592031,140.23212497124652,126.2026299098854,-3.23295607813634e-05,0.0932833403348922,0,0,0
11619,419599.6533419555,2010-12-04 07:07:46,405.83637173697633,4,38,0.3427771627902984,4.199491024017334,34.991442321858074,34.80318752592031,140.28708095601522,126.2026299098854,-9.71794142969884e-05,0.0932833403348922,0,0,0
11620,419753.2911733098,2010-12-04 07:10:19,559.4742031162161,4,38,0.2925677895545959,4.199814796447754,35.0049920730678,34.80318752592031,140.34398637077405,126.2026299098854,0.0,0.0932833403348922,0,0,0
11621,419937.1315993792,2010-12-04 07:13:23,743.3146291606421,4,38,0.2425390183925628,4.199653148651123,35.01863423781808,34.80318752592031,140.40127987055178,126.2026299098854,-3.23295607813634e-05,0.0932833403348922,0,0,0
11622,420166.3173122057,2010-12-04 07:17:12,972.5003420824128,4,38,0.1923296302556991,4.199653148651123,35.03243532441113,34.80318752592031,140.45924084155092,126.2026299098854,0.0,0.0932833403348922,0,0,0
11623,420478.1686612585,2010-12-04 07:22:24,1284.351691040011,4,38,0.1423008739948272,4.199653148651123,35.046821054906125,34.80318752592031,140.5196571762108,126.2026299098854,0.0,0.0932833403348922,0,0,0
11624,420957.6929987442,2010-12-04 07:30:24,1763.8760286358747,4,38,0.0922720953822135,4.199814796447754,35.06219632164361,34.80318752592031,140.58422937108952,126.2026299098854,0.0,0.0932833403348922,0,0,0
11625,421740.1457807128,2010-12-04 07:43:26,2546.328810494192,4,38,0.0498289167881011,4.199653148651123,35.077187989569005,34.80318752592031,140.64719051308512,126.2026299098854,-3.23295607813634e-05,0.0932833403348922,0,0,0
11626,421770.1719481553,2010-12-04 07:43:56,30.01467749553697,5,38,0.0,4.191720962524414,35.077187989569005,34.80318752592031,140.64719051308512,126.2026299098854,-6.47544875391759e-05,0.0932833403348922,0,0,0
11627,421800.1715207228,2010-12-04 07:44:26,60.01425005802902,5,38,0.0,4.190263748168945,35.077187989569005,34.80318752592031,140.64719051308512,126.2026299098854,-6.47544875391759e-05,0.0932833403348922,0,0,0
11628,421800.37175602285,2010-12-04 07:44:27,0.187776574784174,6,38,-1.9243103452026844e-05,4.190425872802734,35.077187989569005,34.80318752692403,140.64719051308512,126.20262991409142,0.0,0.0969880521297454,0,0,0
11629,421805.2017510097,2010-12-04 07:44:32,5.017771591614518,6,38,0.0005225847125984,4.190263748168945,35.07718887699426,34.8031875270889,140.64719423183257,126.20262991478228,-6.47544875391759e-05,0.0969880521297454,0,0,0
11630,421835.2271143814,2010-12-04 07:45:02,30.015065335662207,7,38,-1.0997490882873535,4.010246753692627,35.07718887699426,34.812356541382364,140.64719423183257,126.23960111886396,-0.0009389877086505,0.0969880521297454,0,0,0
11631,421865.2423337553,2010-12-04 07:45:32,60.03028470964284,7,38,-1.099568486213684,3.982888221740722,35.07718887699426,34.82152562575128,140.64719423183257,126.2762364509014,-0.0005827903514727,0.0969880521297454,0,0,0
11632,421895.2572932576,2010-12-04 07:46:02,90.04524424201763,7,38,-1.0997490882873535,3.963947534561157,35.07718887699426,34.83069447927969,140.64719423183257,126.31266369873842,-0.0004209041653666,0.0969880521297454,0,0,0
11633,421925.27236207685,2010-12-04 07:46:32,120.06031303628644,7,38,-1.099568486213684,3.9493777751922607,35.07718887699426,34.83986337661879,140.64719423183257,126.34893935357972,-0.0003561496851034,0.0969880521297454,0,0,0
11634,421955.2874876576,2010-12-04 07:47:02,150.0754386770155,7,38,-1.0997490882873535,3.936426877975464,35.07718887699426,34.849032296795706,140.64719423183257,126.38509082549945,-0.0003885269106831,0.0969880521297454,0,0,0
11635,421985.30256119854,2010-12-04 07:47:32,180.09051215794688,7,38,-1.0997490882873535,3.925094842910767,35.07718887699426,34.85820123103904,140.64719423183257,126.42113187195729,-0.0003237724304199,0.0969880521297454,0,0,0
11636,422015.31760310096,2010-12-04 07:48:02,210.1055540602962,7,38,-1.099929690361023,3.914248466491699,35.07718887699426,34.867370160209084,140.64719423183257,126.45707069674305,-0.0002913951757363,0.0969880521297454,0,0,0
11637,422045.3326852835,2010-12-04 07:48:32,240.1206362378689,7,38,-1.099568486213684,3.904049873352051,35.07718887699426,34.87653909832504,140.64719423183257,126.49291303967011,-0.0002590179501567,0.0969880521297454,0,0,0
11638,422075.3477644988,2010-12-04 07:49:02,270.1357154530698,7,38,-1.0997490882873535,3.894012928009033,35.07718887699426,34.88570800090824,140.64719423183257,126.52866227586516,-0.0002590179501567,0.0969880521297454,0,0,0
11639,422105.3629380237,2010-12-04 07:49:32,300.15088908321866,7,38,-1.0997490882873535,3.8844616413116455,35.07718887699426,34.89487689422342,140.64719423183257,126.56432294567053,-0.0002913951757363,0.0969880521297454,0,0,0
11640,422135.37802420114,2010-12-04 07:50:02,330.16597515548307,7,38,-1.0997490882873535,3.875396013259888,35.07718887699426,34.90404586442991,140.64719423183257,126.59989780932024,-0.0002266406954731,0.0969880521297454,0,0,0
11641,422165.3929790519,2010-12-04 07:50:32,360.1809300362826,7,38,-1.099568486213684,3.86633038520813,35.07718887699426,34.91321481141576,140.64719423183257,126.63538881000228,-0.0002266406954731,0.0969880521297454,0,0,0
11642,422195.4080675903,2010-12-04 07:51:02,390.19601857468393,7,38,-1.099929690361023,3.857426643371582,35.07718887699426,34.92238381264868,140.64719423183257,126.67079844204804,-0.0002266406954731,0.0969880521297454,0,0,0
11643,422225.4231567502,2010-12-04 07:51:32,420.2111077095696,7,38,-1.0997490882873535,3.848846673965454,35.07718887699426,34.93155274214918,140.64719423183257,126.70612811949188,-0.0002266406954731,0.0969880521297454,0,0,0
11644,422255.4382260709,2010-12-04 07:52:02,450.2261770251356,7,38,-1.0997490882873535,3.840428590774536,35.07718887699426,34.94072164378872,140.64719423183257,126.74137947105038,-0.0002266406954731,0.0969880521297454,0,0,0
11645,422285.4533073912,2010-12-04 07:52:32,480.2412583505878,7,38,-1.0997490882873535,3.832334518432617,35.07718887699426,34.949890706588526,140.64719423183257,126.77655499321416,-0.0002265930233988,0.0969880521297454,0,0,0
11646,422315.4684055586,2010-12-04 07:53:02,510.2563565380003,7,38,-1.099929690361023,3.824078321456909,35.07718887699426,34.959059740362015,140.64719423183257,126.81165559833843,-0.0002266406954731,0.0969880521297454,0,0,0
11647,422345.4838210757,2010-12-04 07:53:32,540.2717720951754,7,38,-1.0997490882873535,3.816145896911621,35.07718887699426,34.96822877308467,140.64719423183257,126.84668274199338,-0.0001942634553415,0.0969880521297454,0,0,0
11648,422375.50038542657,2010-12-04 07:54:02,570.2883364911916,7,38,-1.0997490882873535,3.808375358581543,35.07718887699426,34.97739825639857,140.64719423183257,126.88163955156055,-0.0001942634553415,0.0969880521297454,0,0,0
11649,422405.5136468383,2010-12-04 07:54:32,600.3015978026089,7,38,-1.099568486213684,3.8009285926818848,35.07718887699426,34.98656661577106,140.64719423183257,126.9165214552962,-0.0001618862152099,0.0969880521297454,0,0,0
11650,422435.5286792219,2010-12-04 07:55:02,630.3166301812588,7,38,-1.099929690361023,3.7933199405670166,35.07718887699426,34.99573632349599,140.64719423183257,126.95133934293276,-0.0002266406954731,0.0969880521297454,0,0,0
11651,422465.54377698834,2010-12-04 07:55:32,660.331727952636,7,38,-1.099929690361023,3.786035060882568,35.07718887699426,35.004906047938896,140.64719423183257,126.98608976193492,-0.0001618862152099,0.0969880521297454,0,0,0
11652,422495.5588525946,2010-12-04 07:56:02,690.3468035538436,7,38,-1.099929690361023,3.77907395362854,35.07718887699426,35.01407559874082,140.64719423183257,127.02077380823911,-0.0001942634553415,0.0969880521297454,0,0,0
11653,422525.5739741752,2010-12-04 07:56:32,720.3619251495066,7,38,-1.0997490882873535,3.772112846374512,35.07718887699426,35.0232453189108,140.64719423183257,127.05539433763836,-0.0001942634553415,0.0969880521297454,0,0,0
11654,422555.5890171552,2010-12-04 07:57:02,750.3769681145003,7,38,-1.099929690361023,3.765313625335693,35.07718887699426,35.032414944814086,140.64719423183257,127.08995178845517,-0.0001295089750783,0.0969880521297454,0,0,0
11655,422585.6043085033,2010-12-04 07:57:32,780.3922595728602,7,38,-1.0997490882873535,3.758838176727295,35.07718887699426,35.04158467965357,140.64719423183257,127.12444788853348,-0.0001618862152099,0.0969880521297454,0,0,0
11656,422615.6193078848,2010-12-04 07:58:02,810.4072588391113,7,38,-1.099568486213684,3.7522010803222656,35.07718887699426,35.05075373144514,140.64719423183257,127.1588811708601,-0.0001618385285837,0.0969880521297454,0,0,0
11657,422645.63426234457,2010-12-04 07:58:32,840.4222132988631,7,38,-1.0997490882873535,3.745887517929077,35.07718887699426,35.059922575844304,140.64719423183257,127.1932547313608,-0.0001618862152099,0.0969880521297454,0,0,0
11658,422675.6493445371,2010-12-04 07:59:02,870.4372954914729,7,38,-1.0997490882873535,3.7395739555358887,35.07718887699426,35.069091482451626,140.64719423183257,127.2275706336317,-0.0001618862152099,0.0969880521297454,0,0,0
11659,422705.6644388048,2010-12-04 07:59:32,900.4523897591314,7,38,-1.0997490882873535,3.73342227935791,35.07718887699426,35.07826033409339,140.64719423183257,127.26182989985148,-0.0001618862152099,0.0969880521297454,0,0,0
11660,422735.6798235953,2010-12-04 08:00:02,930.4677746499945,7,38,-1.0997490882873535,3.7274324893951416,35.07718887699426,35.08742926924418,140.64719423183257,127.2960338902434,-0.0001618862152099,0.0969880521297454,0,0,0
11661,422765.69472327887,2010-12-04 08:00:32,960.48267429835,7,38,-1.0997490882873535,3.721442699432373,35.07718887699426,35.0965980215757,140.64719423183257,127.330183159834,-0.0001942634553415,0.0969880521297454,0,0,0
11662,422795.7096639142,2010-12-04 08:01:02,990.4976148685382,7,38,-1.0997490882873535,3.715776681900024,35.07718887699426,35.10576686085194,140.64719423183257,127.36427892251298,-0.0001295089750783,0.0969880521297454,0,0,0
11663,422825.72476040747,2010-12-04 08:01:32,1020.5127113617348,7,38,-1.099568486213684,3.709948778152466,35.07718887699426,35.11493575744216,140.64719423183257,127.39832196365836,-0.0001618862152099,0.0969880521297454,0,0,0
11664,422855.73983066034,2010-12-04 08:02:02,1050.527781614633,7,38,-1.0997490882873535,3.704282760620117,35.07718887699426,35.12410463444876,140.64719423183257,127.4323124278897,-0.0001942634553415,0.0969880521297454,0,0,0
11665,422885.75491606095,2010-12-04 08:02:32,1080.5428670152262,7,38,-1.099568486213684,3.6987786293029785,35.07718887699426,35.13327347588539,140.64719423183257,127.46625160351978,-0.0001618862152099,0.0969880521297454,0,0,0
11666,422915.7700043236,2010-12-04 08:03:02,1110.5579553380917,7,38,-1.099568486213684,3.69327449798584,35.07718887699426,35.14244232527235,140.64719423183257,127.5001406209928,-0.0001618862152099,0.0969880521297454,0,0,0
11667,422945.78509596974,2010-12-04 08:03:32,1140.5730469240766,7,38,-1.0997490882873535,3.687770366668701,35.07718887699426,35.15161120378062,140.64719423183257,127.53397991232768,-0.0001942634553415,0.0969880521297454,0,0,0
11668,422975.8020114043,2010-12-04 08:04:02,1170.5899624889628,7,38,-1.099568486213684,3.6825900077819824,35.07718887699426,35.16078064252133,140.64719423183257,127.56777225297256,-0.0001618862152099,0.0969880521297454,0,0,0
11669,423005.8152431322,2010-12-04 08:04:32,1200.6031940864382,7,38,-1.099568486213684,3.6772477626800537,35.07718887699426,35.16994896769383,140.64719423183257,127.60151209798548,-0.0001295089750783,0.0969880521297454,0,0,0
11670,423035.8303128687,2010-12-04 08:05:02,1230.6182638280643,7,38,-1.099568486213684,3.672067642211914,35.07718887699426,35.17911786348588,140.64719423183257,127.63520630009197,-0.0001942157687153,0.0969880521297454,0,0,0
11671,423065.845413828,2010-12-04 08:05:32,1260.6333647823622,7,38,-1.099568486213684,3.667049169540405,35.07718887699426,35.18828674893898,140.64719423183257,127.6688531635431,-0.0001618862152099,0.0969880521297454,0,0,0
11672,423095.8604699558,2010-12-04 08:06:02,1290.6484210003357,7,38,-1.0997490882873535,3.6621925830841056,35.07718887699426,35.19745500973861,140.64719423183257,127.70245144340882,-0.0001295089750783,0.0969880521297454,0,0,0
11673,423125.8755595518,2010-12-04 08:06:32,1320.6635105312066,7,38,-1.099568486213684,3.657335996627808,35.07718887699426,35.20662324406908,140.64719423183257,127.73600400517408,-0.0001295089750783,0.0969880521297454,0,0,0
11674,423155.8906496941,2010-12-04 08:07:02,1350.678600648537,7,38,-1.0997490882873535,3.652317523956299,35.07718887699426,35.215791468135954,140.64719423183257,127.76951167557796,-0.0001618862152099,0.0969880521297454,0,0,0
11675,423185.905726779,2010-12-04 08:07:32,1380.6936777334367,7,38,-1.0997490882873535,3.6474609375,35.07718887699426,35.22495969211528,140.64719423183257,127.80297519268908,-0.0001618862152099,0.0969880521297454,0,0,0
11676,423215.9207936335,2010-12-04 08:08:02,1410.7087445928908,7,38,-1.099568486213684,3.642928123474121,35.07718887699426,35.234128443151626,140.64719423183257,127.836397017867,-0.0001295089750783,0.0969880521297454,0,0,0
11677,423245.93588449777,2010-12-04 08:08:32,1440.7238354520673,7,38,-1.099568486213684,3.638233423233032,35.07718887699426,35.24329730469914,140.64719423183257,127.86977660912984,-0.0001295089750783,0.0969880521297454,0,0,0
11678,423275.95095559774,2010-12-04 08:09:02,1470.738906577136,7,38,-1.0997490882873535,3.633700609207153,35.07718887699426,35.25246612753882,140.64719423183257,127.90311401815138,-9.713172767078504e-05,0.0969880521297454,0,0,0
11679,423305.9662657927,2010-12-04 08:09:32,1500.754216812221,7,38,-1.099929690361023,3.6291677951812735,35.07718887699426,35.26163513529448,140.64719423183257,127.93641079825797,-0.0001618862152099,0.0969880521297454,0,0,0
11680,423335.967971303,2010-12-04 08:10:02,1530.7559223725964,7,38,-1.0997490882873535,3.6247968673706055,35.07718887699426,35.2707999412694,140.64719423183257,127.96965187679255,-0.0001295089750783,0.0969880521297454,0,0,0
11681,423365.9807286954,2010-12-04 08:10:32,1560.7686797449808,7,38,-1.0997490882873535,3.6205878257751465,35.07718887699426,35.27996813207371,140.64719423183257,128.0028658085749,-9.713172767078504e-05,0.0969880521297454,0,0,0
11682,423395.9956302535,2010-12-04 08:11:02,1590.7835812178769,7,38,-1.0997490882873535,3.616378784179688,35.07718887699426,35.28913698535998,140.64719423183257,128.03604360786343,-0.0001295089750783,0.0969880521297454,0,0,0
11683,423426.0108365098,2010-12-04 08:11:32,1620.7987874942646,7,38,-1.0997490882873535,3.612493515014648,35.07718887699426,35.29830594719499,140.64719423183257,128.06918427164047,-0.0001295089750783,0.0969880521297454,0,0,0
11684,423456.0258025734,2010-12-04 08:12:02,1650.8137535378423,7,38,-1.099929690361023,3.6082844734191895,35.07718887699426,35.30747479700189,140.64719423183257,128.10228789599492,-0.0001295089750783,0.0969880521297454,0,0,0
11685,423486.04104261886,2010-12-04 08:12:32,1680.8289936033127,7,38,-1.099568486213684,3.60456109046936,35.07718887699426,35.31664382580056,140.64719423183257,128.13535600344622,-9.713172767078504e-05,0.0969880521297454,0,0,0
11686,423516.05602406577,2010-12-04 08:13:02,1710.8439750401965,7,38,-1.099568486213684,3.6008377075195312,35.07718887699426,35.32581273606889,140.64719423183257,128.16838891979242,-9.713172767078504e-05,0.0969880521297454,0,0,0
11687,423546.0710995117,2010-12-04 08:13:32,1740.859050581254,7,38,-1.0997490882873535,3.597114324569702,35.07718887699426,35.33498176706865,140.64719423183257,128.20138819110818,-6.47544875391759e-05,0.0969880521297454,0,0,0
11688,423576.0863377325,2010-12-04 08:14:03,1770.87428871191,7,38,-1.099929690361023,3.593552827835083,35.07718887699426,35.34415078900181,140.64719423183257,128.23435425392825,-9.713172767078504e-05,0.0969880521297454,0,0,0
11689,423606.10377471487,2010-12-04 08:14:33,1800.891725769511,7,38,-1.0997490882873535,3.590153455734253,35.07718887699426,35.35332044862979,140.64719423183257,128.2672903956226,-9.713172767078504e-05,0.0969880521297454,0,0,0
11690,423636.1163419792,2010-12-04 08:15:03,1830.9042930388312,7,38,-1.099568486213684,3.586753845214844,35.07718887699426,35.36248864854932,140.64719423183257,128.3001897775719,-6.47544875391759e-05,0.0969880521297454,0,0,0
11691,423666.1313990344,2010-12-04 08:15:33,1860.919350013688,7,38,-1.099568486213684,3.5836780071258545,35.07718887699426,35.37165753917485,140.64719423183257,128.33306101754337,-3.237724376958795e-05,0.0969880521297454,0,0,0
11692,423696.1465612862,2010-12-04 08:16:03,1890.9345123557464,7,38,-1.099929690361023,3.580116510391236,35.07718887699426,35.3808265251653,140.64719423183257,128.365902901672,-9.713172767078504e-05,0.0969880521297454,0,0,0
11693,423726.1615960056,2010-12-04 08:16:33,1920.9495469599349,7,38,-1.0997490882873535,3.577040672302246,35.07718887699426,35.38999545350499,140.64719423183257,128.39871507698075,-6.47544875391759e-05,0.0969880521297454,0,0,0
11694,423756.17664362217,2010-12-04 08:17:03,1950.9645946065789,7,38,-1.099568486213684,3.573964834213257,35.07718887699426,35.399164434448174,140.64719423183257,128.43149840570206,-6.47544875391759e-05,0.0969880521297454,0,0,0
11695,423786.1917218349,2010-12-04 08:17:33,1980.97967280926,7,38,-1.099568486213684,3.570888996124268,35.07718887699426,35.40833330808636,140.64719423183257,128.46425303531686,-6.47544875391759e-05,0.0969880521297454,0,0,0
11696,423816.2068118971,2010-12-04 08:18:03,2010.9947628764653,7,38,-1.0997490882873535,3.5678131580352783,35.07718887699426,35.417502235361546,140.64719423183257,128.49697954759017,-9.713172767078504e-05,0.0969880521297454,0,0,0
11697,423846.221935628,2010-12-04 08:18:33,2041.0098866976668,7,38,-1.099568486213684,3.564737319946289,35.07718887699426,35.42667113930581,140.64719423183257,128.529677630011,-3.237724376958795e-05,0.0969880521297454,0,0,0
11698,423876.2369735506,2010-12-04 08:19:03,2071.024924499813,7,38,-1.0997490882873535,3.5616614818573,35.07718887699426,35.43584011320124,140.64719423183257,128.5623476071953,-9.713172767078504e-05,0.0969880521297454,0,0,0
11699,423906.2522067739,2010-12-04 08:19:33,2101.04015772827,7,38,-1.099929690361023,3.5584237575531006,35.07718887699426,35.44500918719514,140.64719423183257,128.59498987265752,-9.713172767078504e-05,0.0969880521297454,0,0,0
11700,423936.2671690631,2010-12-04 08:20:03,2131.055120037555,7,38,-1.0997490882873535,3.5555098056793213,35.07718887699426,35.45417815396382,140.64719423183257,128.62760350447616,-6.47544875391759e-05,0.0969880521297454,0,0,0
11701,423966.2823378312,2010-12-04 08:20:33,2161.0702888657543,7,38,-1.099929690361023,3.552272081375122,35.07718887699426,35.46334722373295,140.64719423183257,128.66018906432956,-9.713172767078504e-05,0.0969880521297454,0,0,0
11702,423996.2974266253,2010-12-04 08:21:03,2191.085377579592,7,38,-1.0997490882873535,3.549196243286133,35.07718887699426,35.472516276800576,140.64719423183257,128.69274603282977,-9.713172767078504e-05,0.0969880521297454,0,0,0
11703,424026.31251069246,2010-12-04 08:21:33,2221.100461646868,7,38,-1.0993878841400146,3.546282291412353,35.07718887699426,35.48168527633635,140.64719423183257,128.7252740204564,-3.237724376958795e-05,0.0969880521297454,0,0,0
11704,424056.3275124049,2010-12-04 08:22:03,2251.115463384268,7,38,-1.099568486213684,3.5428826808929443,35.07718887699426,35.4908542965681,140.64719423183257,128.75777283070278,-6.47544875391759e-05,0.0969880521297454,0,0,0
11705,424086.3426194594,2010-12-04 08:22:33,2281.13057052897,7,38,-1.099929690361023,3.539483070373535,35.07718887699426,35.50002325858562,140.64719423183257,128.7902420591753,-9.713172767078504e-05,0.0969880521297454,0,0,0
11706,424116.3576163297,2010-12-04 08:23:03,2311.1455672889847,7,38,-1.0997490882873535,3.536245346069336,35.07718887699426,35.50919223724968,140.64719423183257,128.82268093759566,-9.713172767078504e-05,0.0969880521297454,0,0,0
11707,424146.3728461396,2010-12-04 08:23:33,2341.1607970939226,7,38,-1.0997490882873535,3.5328457355499268,35.07718887699426,35.518361390451915,140.64719423183257,128.85508947273823,-9.713172767078504e-05,0.0969880521297454,0,0,0
11708,424176.3877890456,2010-12-04 08:24:03,2371.1757400249853,7,38,-1.0997490882873535,3.5294461250305176,35.07718887699426,35.527530442064034,140.64719423183257,128.8874660173002,-6.47544875391759e-05,0.0969880521297454,0,0,0
11709,424206.40486039314,2010-12-04 08:24:33,2401.192811447718,7,38,-1.0997490882873535,3.5257227420806885,35.07718887699426,35.536700094026344,140.64719423183257,128.91981212823717,-9.713172767078504e-05,0.0969880521297454,0,0,0
11710,424236.4180795346,2010-12-04 08:25:03,2431.20603051401,7,38,-1.0997490882873535,3.52199935913086,35.07718887699426,35.545868567453574,140.64719423183257,128.95212030193665,-9.713172767078504e-05,0.0969880521297454,0,0,0
11711,424266.4330313077,2010-12-04 08:25:33,2461.220982257001,7,38,-1.099929690361023,3.5179522037506104,35.07718887699426,35.55503755505662,140.64719423183257,128.98439540204188,-9.713172767078504e-05,0.0969880521297454,0,0,0
11712,424296.44845484965,2010-12-04 08:26:03,2491.236405854183,7,38,-1.0997490882873535,3.5140669345855717,35.07718887699426,35.564206678903524,140.64719423183257,129.016634149519,-6.47544875391759e-05,0.0969880521297454,0,0,0
11713,424326.4632046903,2010-12-04 08:26:33,2521.251155649636,7,38,-1.0997490882873535,3.5095343589782715,35.07718887699426,35.573375666540485,140.64719423183257,129.04883414762023,-0.0001618862152099,0.0969880521297454,0,0,0
11714,424356.47829644167,2010-12-04 08:27:03,2551.2662473960204,7,38,-1.099568486213684,3.5051634311676025,35.07718887699426,35.58254472424664,140.64719423183257,129.0809938432545,-0.0001295089750783,0.0969880521297454,0,0,0
11715,424386.49334833387,2010-12-04 08:27:33,2581.281299318304,7,38,-1.0997490882873535,3.500306844711304,35.07718887699426,35.5917137835265,140.64719423183257,129.11311059114217,-0.0001295089750783,0.0969880521297454,0,0,0
11716,424416.50847457605,2010-12-04 08:28:03,2611.296425580579,7,38,-1.0997490882873535,3.494964599609375,35.07718887699426,35.6008828729895,140.64719423183257,129.14518133109536,-0.0001942634553415,0.0969880521297454,0,0,0
11717,424446.5235839664,2010-12-04 08:28:33,2641.311535005957,7,38,-1.099568486213684,3.4892985820770264,35.07718887699426,35.61005196018232,140.64719423183257,129.1772015917699,-0.0001618862152099,0.0969880521297454,0,0,0
11718,424476.53852259176,2010-12-04 08:29:03,2671.3264735711555,7,38,-1.0997490882873535,3.482985019683838,35.07718887699426,35.61922093818563,140.64719423183257,129.2091663763491,-0.0001942634553415,0.0969880521297454,0,0,0
11719,424506.5536557562,2010-12-04 08:29:33,2701.3416067155576,7,38,-1.0997490882873535,3.4758620262146,35.07718887699426,35.628390001328,140.64719423183257,129.24106947942886,-0.0001942634553415,0.0969880521297454,0,0,0
11720,424536.56876965775,2010-12-04 08:30:03,2731.3567206872485,7,38,-1.0997490882873535,3.467605829238892,35.07718887699426,35.63755904128058,140.64719423183257,129.27290252502252,-0.0002266406954731,0.0969880521297454,0,0,0
11721,424566.5840400286,2010-12-04 08:30:33,2761.3719910932205,7,38,-1.0997490882873535,3.458054542541504,35.07718887699426,35.64672810302244,140.64719423183257,129.30465509126248,-0.0002913951757363,0.0969880521297454,0,0,0
11722,424596.5989286045,2010-12-04 08:31:03,2791.3868796990973,7,38,-1.099929690361023,3.446722507476806,35.07718887699426,35.655897097171774,140.64719423183257,129.33631190986716,-0.0003237724304199,0.0969880521297454,0,0,0
11723,424626.6139865618,2010-12-04 08:31:33,2821.401937511037,7,38,-1.0997490882873535,3.43247652053833,35.07718887699426,35.66506613581086,140.64719423183257,129.3678527022968,-0.0004209041653666,0.0969880521297454,0,0,0
11724,424656.629071827,2010-12-04 08:32:03,2851.417022806368,7,38,-1.0997490882873535,3.4148311614990234,35.07718887699426,35.67423518384707,140.64719423183257,129.39924867734686,-0.0005180359003134,0.0969880521297454,0,0,0
11725,424686.64442500897,2010-12-04 08:32:33,2881.4323760284246,7,38,-1.099568486213684,3.392005205154419,35.07718887699426,35.6834043507432,140.64719423183257,129.43045973600917,-0.0006475448608398,0.0969880521297454,0,0,0
11726,424716.6592359716,2010-12-04 08:33:03,2911.44718695099,7,38,-1.0997490882873535,3.3612468242645264,35.07718887699426,35.69257338399498,140.64719423183257,129.46142653891494,-0.0009065627818927,0.0969880521297454,0,0,0
11727,424746.6743081192,2010-12-04 08:33:33,2941.4622590735407,7,38,-1.0997490882873535,3.3198041915893555,35.07718887699426,35.70174248925617,140.64719423183257,129.49206569018466,-0.0012627125252038,0.0969880521297454,0,0,0
11728,424776.68942202575,2010-12-04 08:34:03,2971.477372975057,7,38,-1.099929690361023,3.2628204822540283,35.07718887699426,35.71091155094359,140.64719423183257,129.52225770458412,-0.0017483234405517,0.0969880521297454,0,0,0
11729,424806.706312433,2010-12-04 08:34:33,3001.494263477577,7,38,-1.0997490882873535,3.182525157928467,35.07718887699426,35.720081167789004,140.64719423183257,129.5518303352291,-0.0024930001236498,0.0969880521297454,0,0,0
11730,424836.7195610328,2010-12-04 08:35:03,3031.507511982125,7,38,-1.0997490882873535,3.061272621154785,35.07718887699426,35.729249643687474,140.64719423183257,129.5804951232027,-0.0039176465943455,0.0969880521297454,0,0,0
11731,424864.0628354946,2010-12-04 08:35:31,3058.850786448971,7,38,-1.0997490882873535,2.861020088195801,35.07718887699426,35.73760254431725,140.64719423183257,129.6053302135448,-0.0078352447599172,0.0969880521297454,0,0,0
11732,424878.1095683992,2010-12-04 08:35:45,3072.89751938362,7,38,-1.099929690361023,2.699781894683838,35.07718887699426,35.74189360866994,140.64719423183257,129.61727004163228,-0.0096159931272268,0.0969880521297454,0,0,0
11733,424938.12993043335,2010-12-04 08:36:45,60.01459694624701,8,38,0.0,3.355418920516968,35.07718887699426,35.74189360866994,140.64719423183257,129.61727004163228,0.0013274193042889,0.0969880521297454,0,0,0
11734,424938.32433143473,2010-12-04 08:36:45,0.187477445412237,9,38,-1.9243103452026844e-05,3.355418920516968,35.07718887699426,35.74189360967206,140.64719423183257,129.61727004499485,0.0,0.0939245000481605,0,0,0
11735,424943.1524876559,2010-12-04 08:36:50,5.01563369153239,9,38,0.0005225847125984,3.363675117492676,35.07718968594938,35.74189360985122,140.647196950146,129.61727004559617,0.0011655807029455,0.0939245000481605,0,0,0
