Data_Point,Test_Time(s),Date_Time,Step_Time(s),Step_Index,Cycle_Index,Current(A),Voltage(V),Charge_Capacity(Ah),Discharge_Capacity(Ah),Charge_Energy(Wh),Discharge_Energy(Wh),dV/dt(V/s),Internal_Resistance(Ohm),Is_FC_Data,AC_Impedance(Ohm),ACI_Phase_Angle(Deg)
2070,74681.6288239986,2010-11-30 07:18:28,30.015003175980222,1,8,0.0,3.412888526916504,5.973399001828923,6.635437878135131,23.96729306641653,24.09281568437064,0.0007446765666827,0.0947341993451118,0,0,0
2071,74711.64382836755,2010-11-30 07:18:58,60.03000746974201,1,8,0.0,3.437171220779419,5.973399001828923,6.635437878135131,23.96729306641653,24.09281568437064,0.0005827903514727,0.0947341993451118,0,0,0
2072,74741.65882106747,2010-11-30 07:19:28,90.04500019972778,1,8,0.0,3.4553024768829346,5.973399001828923,6.635437878135131,23.96729306641653,24.09281568437064,0.0004532813909463,0.0947341993451118,0,0,0
2073,74771.62696697091,2010-11-30 07:19:58,120.01314609817508,1,8,0.0,3.469710350036621,5.973399001828923,6.635437878135131,23.96729306641653,24.09281568437064,0.0004209041653666,0.0947341993451118,0,0,0
2074,74801.64332380485,2010-11-30 07:20:28,30.017106304534742,2,8,0.5499359965324402,3.629329681396485,5.977985747589907,6.635437878135131,23.9837836380788,24.09281568437064,0.0014893531333655,0.0947341993451118,0,0,0
2075,74831.65631874341,2010-11-30 07:20:58,60.03010120800607,2,8,0.5501165986061096,3.674819469451904,5.982571787751905,6.635437878135131,24.000538728464186,24.09281568437064,0.0010360240703448,0.0947341993451118,0,0,0
2076,74861.67128142863,2010-11-30 07:21:28,90.04506382806444,2,8,0.5499359965324402,3.7073585987091056,5.987158066981287,6.635437878135131,24.017470394232777,24.09281568437064,0.0007770538213662,0.0947341993451118,0,0,0
2077,74891.68627330649,2010-11-30 07:21:58,120.06005571094222,2,8,0.5501165986061096,3.73293662071228,5.991744464978454,6.635437878135131,24.03453464751857,24.09281568437064,0.0006475448608398,0.0947341993451118,0,0,0
2078,74921.70141147841,2010-11-30 07:22:28,150.07519387784217,2,8,0.5501165986061096,3.753495931625366,5.996330798135541,6.635437878135131,24.051703737191986,24.09281568437064,0.0005179882282391,0.0947341993451118,0,0,0
2079,74951.71640820835,2010-11-30 07:22:58,180.09019060778166,2,8,0.5501165986061096,3.7693607807159424,6.000917128532353,6.635437878135131,24.06895702712372,24.09281568437064,0.0003237724304199,0.0947341993451118,0,0,0
2080,74981.73146311806,2010-11-30 07:23:28,210.10524552752423,2,8,0.5501165986061096,3.7800452709198,6.005503434895427,6.635437878135131,24.086271339004384,24.09281568437064,0.0002266406954731,0.0947341993451118,0,0,0
2081,75011.74635354849,2010-11-30 07:23:58,240.1201359579415,2,8,0.550297200679779,3.7865207195281982,6.010089697806389,6.635437878135131,24.103623672098472,24.09281568437064,0.0001618862152099,0.0947341993451118,0,0,0
2082,75041.76136241863,2010-11-30 07:24:28,270.1351448481413,2,8,0.5499359965324402,3.791215419769287,6.014676061358624,6.635437878135131,24.12100142478067,24.09281568437064,9.713172767078504e-05,0.0947341993451118,0,0,0
2083,75071.77636863719,2010-11-30 07:24:58,300.15015103661807,2,8,0.5501165986061096,3.795424461364746,6.019262374288217,6.635437878135131,24.138399023126503,24.09281568437064,9.713172767078504e-05,0.0947341993451118,0,0,0
2084,75101.7914065496,2010-11-30 07:25:28,330.16518895906347,2,8,0.5501165986061096,3.799309730529785,6.023848720295774,6.635437878135131,24.15581559501945,24.09281568437064,9.713172767078504e-05,0.0947341993451118,0,0,0
2085,75131.80639526961,2010-11-30 07:25:58,360.1801776690457,2,8,0.5501165986061096,3.803356885910034,6.028435068066769,6.635437878135131,24.17325027613013,24.09281568437064,9.713172767078504e-05,0.0947341993451118,0,0,0
2086,75161.8214157336,2010-11-30 07:26:28,390.19519813805897,2,8,0.5501165986061096,3.8070802688598633,6.0330214327379,6.635437878135131,24.19070279261481,24.09281568437064,6.47544875391759e-05,0.0947341993451118,0,0,0
2087,75191.83828295319,2010-11-30 07:26:59,420.2120654578894,2,8,0.5501165986061096,3.8109655380249023,6.037608085057024,6.635437878135131,24.208173713643856,24.09281568437064,0.0001295089750783,0.0947341993451118,0,0,0
2088,75221.85172886899,2010-11-30 07:27:29,450.2255113436128,2,8,0.5499359965324402,3.8145270347595215,6.042194221104534,6.635437878135131,24.22565965209693,24.09281568437064,6.47544875391759e-05,0.0947341993451118,0,0,0
2089,75251.86646457438,2010-11-30 07:27:59,480.24024698384056,2,8,0.5499359965324402,3.8180885314941406,6.046780548238894,6.635437878135131,24.243162966486203,24.09281568437064,9.713172767078504e-05,0.0947341993451118,0,0,0
2090,75281.8816027914,2010-11-30 07:28:29,510.25538526602736,2,8,0.5501165986061096,3.82148814201355,6.051366899650033,6.635437878135131,24.260682489788117,24.09281568437064,9.713172767078504e-05,0.0947341993451118,0,0,0
2091,75311.89649012413,2010-11-30 07:28:59,540.2702725335739,2,8,0.5501165986061096,3.825049638748169,6.055953186071175,6.635437878135131,24.27821746589635,24.09281568437064,9.713172767078504e-05,0.0947341993451118,0,0,0
2092,75341.91199084822,2010-11-30 07:29:29,570.2857733328707,2,8,0.5501165986061096,3.828611135482788,6.060539556324055,6.635437878135131,24.29576834335948,24.09281568437064,0.0001295089750783,0.0947341993451118,0,0,0
2093,75371.92662971263,2010-11-30 07:29:59,600.300412107051,2,8,0.5501165986061096,3.8318488597869873,6.065125832573102,6.635437878135131,24.313334357472336,24.09281568437064,9.713172767078504e-05,0.0947341993451118,0,0,0
2094,75401.94153485465,2010-11-30 07:30:29,630.3153172641149,2,8,0.5501165986061096,3.8352482318878174,6.069712072027204,6.635437878135131,24.33091556931691,24.09281568437064,9.713172767078504e-05,0.0947341993451118,0,0,0
2095,75431.95674088041,2010-11-30 07:30:59,660.3305232848666,2,8,0.5499359965324402,3.8384859561920166,6.074298343979599,6.635437878135131,24.3485125020589,24.09281568437064,6.47544875391759e-05,0.0947341993451118,0,0,0
2096,75461.97160438383,2010-11-30 07:31:29,690.3453867832644,2,8,0.5501165986061096,3.841885566711426,6.078884658776674,6.635437878135131,24.366125329328572,24.09281568437064,6.47544875391759e-05,0.0947341993451118,0,0,0
2097,75491.98673512726,2010-11-30 07:31:59,720.3605175266914,2,8,0.5501165986061096,3.845447063446045,6.083471057342024,6.635437878135131,24.383754364491104,24.09281568437064,6.47544875391759e-05,0.0947341993451118,0,0,0
2098,75522.00163019422,2010-11-30 07:32:29,750.3754126036714,2,8,0.5499359965324402,3.849008560180664,6.088057424772024,6.635437878135131,24.401399409721755,24.09281568437064,9.713172767078504e-05,0.0947341993451118,0,0,0
2099,75552.01682044571,2010-11-30 07:32:59,780.3906029203441,2,8,0.550297200679779,3.852731943130493,6.092643787092094,6.635437878135131,24.41906069753313,24.09281568437064,0.0001295089750783,0.0947341993451118,0,0,0
2100,75582.03165996444,2010-11-30 07:33:29,810.4054423739075,2,8,0.5501165986061096,3.8561315536499023,6.097230125311937,6.635437878135131,24.43673822411526,24.09281568437064,6.47544875391759e-05,0.0947341993451118,0,0,0
2101,75612.04679024171,2010-11-30 07:33:59,840.4205726411493,2,8,0.5501165986061096,3.859531164169312,6.101816460258657,6.635437878135131,24.45443209512404,24.09281568437064,6.47544875391759e-05,0.0947341993451118,0,0,0
2102,75642.06172233581,2010-11-30 07:34:29,870.4355047653198,2,8,0.5501165986061096,3.863416433334351,6.106402761572229,6.635437878135131,24.472142159771547,24.09281568437064,0.0001295089750783,0.0947341993451118,0,0,0
2103,75672.07683954557,2010-11-30 07:34:59,900.4506220201811,2,8,0.5501165986061096,3.86665415763855,6.110989054706227,6.635437878135131,24.489868218044258,24.09281568437064,6.47544875391759e-05,0.0947341993451118,0,0,0
2104,75702.09172352492,2010-11-30 07:35:29,930.4655059393951,2,8,0.5499359965324402,3.870215654373169,6.115574950428176,6.635437878135131,24.507608662528572,24.09281568437064,0.0001295089750783,0.0947341993451118,0,0,0
2105,75732.10672629489,2010-11-30 07:35:59,960.4805087143776,2,8,0.5499359965324402,3.873615264892578,6.120160462410571,6.635437878135131,24.52536330309359,24.09281568437064,9.713172767078504e-05,0.0947341993451118,0,0,0
2106,75762.1217353054,2010-11-30 07:36:29,990.4955177098396,2,8,0.5501165986061096,3.876852989196777,6.124745949751999,6.635437878135131,24.543133206763045,24.09281568437064,6.47544875391759e-05,0.0947341993451118,0,0,0
2107,75792.13860665023,2010-11-30 07:36:59,1020.5123891499233,2,8,0.550297200679779,3.8802525997161865,6.129331719059119,6.635437878135131,24.56091935387017,24.09281568437064,0.0001295089750783,0.0947341993451118,0,0,0
2108,75822.15179182218,2010-11-30 07:37:29,1050.525574221621,2,8,0.5501165986061096,3.883166551589966,6.133917383162617,6.635437878135131,24.578719822965663,24.09281568437064,3.237724376958795e-05,0.0947341993451118,0,0,0
2109,75852.16681231125,2010-11-30 07:37:59,1080.5405947407587,2,8,0.5501165986061096,3.886404275894165,6.138503746251735,6.635437878135131,24.59653720618049,24.09281568437064,9.713172767078504e-05,0.0947341993451118,0,0,0
2110,75882.18179974306,2010-11-30 07:38:29,1110.555582147498,2,8,0.5501165986061096,3.889318227767944,6.143090173772762,6.635437878135131,24.61436844456509,24.09281568437064,6.47544875391759e-05,0.0947341993451118,0,0,0
2111,75912.19706298619,2010-11-30 07:38:59,1140.5708453856328,2,8,0.5499359965324402,3.891908407211304,6.147676630242559,6.635437878135131,24.63221272671021,24.09281568437064,3.237724376958795e-05,0.0947341993451118,0,0,0
2112,75942.21184364846,2010-11-30 07:39:29,1170.5856260478963,2,8,0.5501165986061096,3.894498586654663,6.15226299323578,6.635437878135131,24.65006891426409,24.09281568437064,9.713172767078504e-05,0.0947341993451118,0,0,0
2113,75972.22685314517,2010-11-30 07:39:59,1200.6006355696677,2,8,0.5501165986061096,3.896926879882813,6.156849343266161,6.635437878135131,24.667936149102623,24.09281568437064,6.47544875391759e-05,0.0947341993451118,0,0,0
2114,76002.24186009052,2010-11-30 07:40:29,1230.615642494978,2,8,0.550297200679779,3.899193286895752,6.161435669405431,6.635437878135131,24.68581419803076,24.09281568437064,3.237724376958795e-05,0.0947341993451118,0,0,0
2115,76032.2569058976,2010-11-30 07:40:59,1260.6306883621935,2,8,0.5499359965324402,3.9012978076934814,6.166021994785918,6.635437878135131,24.70370232705819,24.09281568437064,3.237724376958795e-05,0.0947341993451118,0,0,0
2116,76062.27191919376,2010-11-30 07:41:29,1290.6457016232705,2,8,0.5501165986061096,3.903402328491211,6.170608408746483,6.635437878135131,24.721600273052445,24.09281568437064,6.47544875391759e-05,0.0947341993451118,0,0,0
2117,76092.28690635489,2010-11-30 07:41:59,1320.6606887543232,2,8,0.5501165986061096,3.905183076858521,6.175194753518378,6.635437878135131,24.739506792329664,24.09281568437064,6.47544875391759e-05,0.0947341993451118,0,0,0
2118,76122.30192612717,2010-11-30 07:42:29,1350.6757086218397,2,8,0.5501165986061096,3.90712571144104,6.179781083425394,6.635437878135131,24.757421433248936,24.09281568437064,9.713172767078504e-05,0.0947341993451118,0,0,0
2119,76152.31705288067,2010-11-30 07:42:59,1380.690835305163,2,8,0.5501165986061096,3.9085826873779297,6.184367404473212,6.635437878135131,24.775343935254757,24.09281568437064,3.237724376958795e-05,0.0947341993451118,0,0,0
2120,76182.33209392088,2010-11-30 07:43:29,1410.7058763453672,2,8,0.5499359965324402,3.910201549530029,6.188953728502164,6.635437878135131,24.79327396827798,24.09281568437064,3.237724376958795e-05,0.0947341993451118,0,0,0
2121,76212.34695976009,2010-11-30 07:43:59,1440.7207421695528,2,8,0.5501165986061096,3.911820411682129,6.193540009665536,6.635437878135131,24.81121090291391,24.09281568437064,6.47544875391759e-05,0.0947341993451118,0,0,0
2122,76242.36198198849,2010-11-30 07:44:29,1470.7357643929315,2,8,0.5501165986061096,3.9132773876190186,6.198126325466736,6.635437878135131,24.82915484643775,24.09281568437064,3.237724376958795e-05,0.0947341993451118,0,0,0
2123,76272.37700758525,2010-11-30 07:44:59,1500.7507900047426,2,8,0.5501165986061096,3.914734125137329,6.202712674240677,6.635437878135131,24.84710562471863,24.09281568437064,6.47544875391759e-05,0.0947341993451118,0,0,0
2124,76302.39250227936,2010-11-30 07:45:29,1530.766284774034,2,8,0.5501165986061096,3.916029214859009,6.207299194440654,6.635437878135131,24.86506352425983,24.09281568437064,0.0,0.0947341993451118,0,0,0
2125,76332.40702299475,2010-11-30 07:45:59,1560.780805439305,2,8,0.5499359965324402,3.917648077011109,6.211885443797626,6.635437878135131,24.883026881470386,24.09281568437064,6.47544875391759e-05,0.0947341993451118,0,0,0
2126,76362.42206269162,2010-11-30 07:46:29,1590.7958451762656,2,8,0.5501165986061096,3.918943166732788,6.216471729927344,6.635437878135131,24.90099682168829,24.09281568437064,3.237724376958795e-05,0.0947341993451118,0,0,0
2127,76392.43902210062,2010-11-30 07:46:59,1620.8128045952817,2,8,0.5501165986061096,3.920238256454468,6.221058286743399,6.635437878135131,24.918974313385945,24.09281568437064,3.237724376958795e-05,0.0947341993451118,0,0,0
2128,76422.45209082779,2010-11-30 07:47:29,1650.8258732222107,2,8,0.5501165986061096,3.921695232391357,6.225644271793997,6.635437878135131,24.936955953057677,24.09281568437064,3.237724376958795e-05,0.0947341993451118,0,0,0
2129,76452.4672067744,2010-11-30 07:47:59,1680.8409891938786,2,8,0.550297200679779,3.923314094543457,6.23023055064997,6.635437878135131,24.954945292802904,24.09281568437064,9.713172767078504e-05,0.0947341993451118,0,0,0
2130,76482.48209180638,2010-11-30 07:48:29,1710.8558742408995,2,8,0.5501165986061096,3.9246091842651367,6.234816847446846,6.635437878135131,24.97294122981201,24.09281568437064,6.47544875391759e-05,0.0947341993451118,0,0,0
2131,76512.4970843058,2010-11-30 07:48:59,1740.8708667052242,2,8,0.5499359965324402,3.925904273986816,6.239403147984167,6.635437878135131,24.99094375957227,24.09281568437064,0.0,0.0947341993451118,0,0,0
2132,76542.51210624847,2010-11-30 07:49:29,1770.8858886579296,2,8,0.550297200679779,3.927523136138916,6.243989803186079,6.635437878135131,25.008954174588347,24.09281568437064,6.47544875391759e-05,0.0947341993451118,0,0,0
2133,76572.52923547504,2010-11-30 07:49:59,1800.9030179647043,2,8,0.5501165986061096,3.9286563396453857,6.248577078790594,6.635437878135131,25.02697371528512,24.09281568437064,0.0,0.0947341993451118,0,0,0
2134,76602.54213178318,2010-11-30 07:50:29,1830.9159141926257,2,8,0.550297200679779,3.930275201797485,6.253163647317463,6.635437878135131,25.04499717689927,24.09281568437064,0.0,0.0947341993451118,0,0,0
2135,76632.55716575577,2010-11-30 07:50:59,1860.930948155217,2,8,0.5501165986061096,3.931894063949585,6.257750684252812,6.635437878135131,25.06302914956144,24.09281568437064,0.0,0.0947341993451118,0,0,0
2136,76662.57389171384,2010-11-30 07:51:29,1890.947674198486,2,8,0.5501165986061096,3.9331891536712646,6.262337551093972,6.635437878135131,25.08106715467331,24.09281568437064,0.0,0.0947341993451118,0,0,0
2137,76692.58720211242,2010-11-30 07:51:59,1920.9609845419177,2,8,0.5499359965324402,3.9346461296081534,6.266923591121898,6.635437878135131,25.09910861195089,24.09281568437064,6.47544875391759e-05,0.0947341993451118,0,0,0
2138,76722.6042580115,2010-11-30 07:52:29,1950.9780405011704,2,8,0.5501165986061096,3.936264991760254,6.271510242169502,6.635437878135131,25.11715929032054,24.09281568437064,6.47544875391759e-05,0.0947341993451118,0,0,0
2139,76752.61721494047,2010-11-30 07:52:59,1980.9909973900435,2,8,0.5501165986061096,3.937721967697144,6.276096233343669,6.635437878135131,25.13521406392234,24.09281568437064,6.47544875391759e-05,0.0947341993451118,0,0,0
2140,76782.63224012624,2010-11-30 07:53:29,2011.00602254572,2,8,0.5499359965324402,3.939178943634033,6.280682548234968,6.635437878135131,25.15327713348863,24.09281568437064,3.237724376958795e-05,0.0947341993451118,0,0,0
2141,76812.64723245021,2010-11-30 07:53:59,2041.0210148446329,2,8,0.5499359965324402,3.940635919570923,6.28526878245672,6.635437878135131,25.17134685343188,24.09281568437064,0.0,0.0947341993451118,0,0,0
2142,76842.66225071874,2010-11-30 07:54:29,2071.036033143245,2,8,0.5497553944587708,3.9422547817230233,6.289855091134991,6.635437878135131,25.189423863829077,24.09281568437064,3.237724376958795e-05,0.0947341993451118,0,0,0
2143,76872.67726618532,2010-11-30 07:54:59,2101.05104860981,2,8,0.5499359965324402,3.943711757659912,6.294441313787526,6.635437878135131,25.207507574832064,24.09281568437064,0.0,0.0947341993451118,0,0,0
2144,76902.69243710372,2010-11-30 07:55:29,2131.066219583348,2,8,0.550297200679779,3.9454925060272217,6.299027605794035,6.635437878135131,25.22559864074472,24.09281568437064,6.47544875391759e-05,0.0947341993451118,0,0,0
2145,76932.70728876766,2010-11-30 07:55:59,2161.0810711871463,2,8,0.550297200679779,3.9469494819641113,6.30361392559331,6.635437878135131,25.24369695376929,24.09281568437064,6.47544875391759e-05,0.0947341993451118,0,0,0
2146,76962.72242930546,2010-11-30 07:56:29,2191.0962117299587,2,8,0.5501165986061096,3.948568344116211,6.308200201565749,6.635437878135131,25.26180223635157,24.09281568437064,6.47544875391759e-05,0.0947341993451118,0,0,0
2147,76992.73906025708,2010-11-30 07:56:59,2221.112842796883,2,8,0.5501165986061096,3.9500253200531006,6.312786699841033,6.635437878135131,25.279915595706377,24.09281568437064,0.0,0.0947341993451118,0,0,0
2148,77022.75249001269,2010-11-30 07:57:29,2251.126272422143,2,8,0.5501165986061096,3.9514822959899902,6.317372698354702,6.635437878135131,25.298034270495297,24.09281568437064,3.237724376958795e-05,0.0947341993451118,0,0,0
2149,77052.76735348103,2010-11-30 07:57:59,2281.141135900491,2,8,0.5499359965324402,3.9532630443573,6.321958992427425,6.635437878135131,25.316161352234776,24.09281568437064,3.237724376958795e-05,0.0947341993451118,0,0,0
2150,77082.78248834469,2010-11-30 07:58:29,2311.156270769184,2,8,0.5501165986061096,3.9547200202941895,6.326545294581107,6.635437878135131,25.334295874909017,24.09281568437064,0.0,0.0947341993451118,0,0,0
2151,77112.79739636889,2010-11-30 07:59:00,2341.171178783357,2,8,0.5499359965324402,3.956500768661499,6.331131614263838,6.635437878135131,25.35243789887207,24.09281568437064,3.237724376958795e-05,0.0947341993451118,0,0,0
2152,77142.81279047267,2010-11-30 07:59:30,2371.186572932258,2,8,0.5501165986061096,3.958119630813599,6.335717980088938,6.635437878135131,25.37058743316054,24.09281568437064,3.237724376958795e-05,0.0947341993451118,0,0,0
2153,77172.82725644685,2010-11-30 08:00:00,2401.201038926483,2,8,0.550297200679779,3.959738492965698,6.340304174957679,6.635437878135131,25.388743796639403,24.09281568437064,3.237724376958795e-05,0.0947341993451118,0,0,0
2154,77202.84239910993,2010-11-30 08:00:30,2431.216181514384,2,8,0.5501165986061096,3.961357355117798,6.344890479917883,6.635437878135131,25.406908120608385,24.09281568437064,3.237724376958795e-05,0.0947341993451118,0,0,0
2155,77232.85742098745,2010-11-30 08:01:00,2461.231203391902,2,8,0.5501165986061096,3.9629762172698975,6.349476784401996,6.635437878135131,25.42507999352578,24.09281568437064,3.237724376958795e-05,0.0947341993451118,0,0,0
2156,77262.87262492803,2010-11-30 08:01:30,2491.246407422702,2,8,0.5501165986061096,3.964595079421997,6.354063071431551,6.635437878135131,25.44325940061903,24.09281568437064,3.237724376958795e-05,0.0947341993451118,0,0,0
2157,77292.88730836337,2010-11-30 08:02:00,2521.2610907627827,2,8,0.5499359965324402,3.9662139415740967,6.358649264150794,6.635437878135131,25.46144610608432,24.09281568437064,3.237724376958795e-05,0.0947341993451118,0,0,0
2158,77322.90247931183,2010-11-30 08:02:30,2551.2762617212834,2,8,0.5499359965324402,3.9679946899414062,6.363235619258108,6.635437878135131,25.479641298720093,24.09281568437064,0.0,0.0947341993451118,0,0,0
2159,77352.91749409669,2010-11-30 08:03:00,2581.2912765011392,2,8,0.5497553944587708,3.969613552093506,6.36782181922899,6.635437878135131,25.49784368335601,24.09281568437064,0.0,0.0947341993451118,0,0,0
2160,77382.93250625001,2010-11-30 08:03:30,2611.306288654459,2,8,0.5499359965324402,3.971394300460816,6.372408092001691,6.635437878135131,25.51605419411758,24.09281568437064,3.237724376958795e-05,0.0947341993451118,0,0,0
2161,77412.94751168662,2010-11-30 08:04:00,2641.321294091065,2,8,0.5501165986061096,3.973175048828125,6.376994430132419,6.635437878135131,25.53427287014665,24.09281568437064,3.237724376958795e-05,0.0947341993451118,0,0,0
2162,77442.96253531349,2010-11-30 08:04:30,2671.3363177429987,2,8,0.5499359965324402,3.9747939109802246,6.381580687324584,6.635437878135131,25.55249911822442,24.09281568437064,3.237724376958795e-05,0.0947341993451118,0,0,0
2163,77472.97753742182,2010-11-30 08:05:00,2701.351319841297,2,8,0.5501165986061096,3.976898431777954,6.386167011584895,6.635437878135131,25.57073363867713,24.09281568437064,9.713172767078504e-05,0.0947341993451118,0,0,0
2164,77502.99256462257,2010-11-30 08:05:30,2731.3663470470747,2,8,0.5501165986061096,3.9785172939300537,6.390753383999109,6.635437878135131,25.588975983400367,24.09281568437064,0.0001295089750783,0.0947341993451118,0,0,0
2165,77533.00757959292,2010-11-30 08:06:00,2761.38136200738,2,8,0.5501165986061096,3.9802980422973633,6.395339555349174,6.635437878135131,25.60722607317889,24.09281568437064,3.237724376958795e-05,0.0947341993451118,0,0,0
2166,77563.022573165,2010-11-30 08:06:30,2791.396355589486,2,8,0.5501165986061096,3.981916904449463,6.399925708991764,6.635437878135131,25.625484282375027,24.09281568437064,0.0,0.0947341993451118,0,0,0
2167,77593.0392911432,2010-11-30 08:07:00,2821.413073537611,2,8,0.550297200679779,3.984021425247192,6.404512179385344,6.635437878135131,25.64375196657803,24.09281568437064,9.680101356934756e-05,0.0947341993451118,0,0,0
2168,77623.05265259379,2010-11-30 08:07:30,2851.426434998245,2,8,0.5501165986061096,3.985640287399292,6.409098093363499,6.635437878135131,25.662025667617364,24.09281568437064,3.237724376958795e-05,0.0947341993451118,0,0,0
2169,77653.06762018622,2010-11-30 08:08:00,2881.441402610727,2,8,0.5501165986061096,3.987582921981812,6.413684343311958,6.635437878135131,25.68030905878269,24.09281568437064,6.47544875391759e-05,0.0947341993451118,0,0,0
2170,77683.08262513662,2010-11-30 08:08:30,2911.456407556111,2,8,0.5499359965324402,3.989201784133911,6.418270484232798,6.635437878135131,25.6986002797928,24.09281568437064,3.237724376958795e-05,0.0947341993451118,0,0,0
2171,77713.09771311864,2010-11-30 08:09:00,2941.4714955932645,2,8,0.550297200679779,3.991144418716431,6.422856604874125,6.635437878135131,25.71689978705917,24.09281568437064,6.47544875391759e-05,0.0947341993451118,0,0,0
2172,77743.1127123849,2010-11-30 08:09:30,2971.486494789341,2,8,0.5499359965324402,3.99292516708374,6.427442689427549,6.635437878135131,25.735207604046856,24.09281568437064,3.237724376958795e-05,0.0947341993451118,0,0,0
2173,77773.12779513889,2010-11-30 08:10:00,3001.5015775583856,2,8,0.5501165986061096,3.9948675632476807,6.432028826150083,6.635437878135131,25.75352399908912,24.09281568437064,6.47544875391759e-05,0.0947341993451118,0,0,0
2174,77803.1426796195,2010-11-30 08:10:30,3031.516462018947,2,8,0.5499359965324402,3.9966483116149902,6.436614993839038,6.635437878135131,25.771849096735075,24.09281568437064,3.237724376958795e-05,0.0947341993451118,0,0,0
2175,77833.15782402694,2010-11-30 08:11:00,3061.5316064464264,2,8,0.5501165986061096,3.9985909461975098,6.4412012395215,6.635437878135131,25.79018318501285,24.09281568437064,6.47544875391759e-05,0.0947341993451118,0,0,0
2176,77863.17274957975,2010-11-30 08:11:30,3091.5465319992445,2,8,0.5501165986061096,4.000533580780029,6.445787420922627,6.635437878135131,25.80852569111131,24.09281568437064,6.47544875391759e-05,0.0947341993451118,0,0,0
2177,77893.18772435005,2010-11-30 08:12:00,3121.5615067745503,2,8,0.5499359965324402,4.002476215362549,6.450373505847449,6.635437878135131,25.82687676238624,24.09281568437064,6.47544875391759e-05,0.0947341993451118,0,0,0
2178,77923.20274195695,2010-11-30 08:12:30,3151.5765243814417,2,8,0.5501165986061096,4.004418849945068,6.45495970720164,6.635437878135131,25.84523737311686,24.09281568437064,6.47544875391759e-05,0.0947341993451118,0,0,0
2179,77953.21782016965,2010-11-30 08:13:00,3181.59160267936,2,8,0.5499359965324402,4.006361484527588,6.459545803269811,6.635437878135131,25.86360668340264,24.09281568437064,3.23295607813634e-05,0.0947341993451118,0,0,0
2180,77983.23279854392,2010-11-30 08:13:30,3211.6065809533725,2,8,0.5501165986061096,4.008627891540527,6.464131947612382,6.635437878135131,25.88198554504749,24.09281568437064,9.70840483205393e-05,0.0947341993451118,0,0,0
2181,78013.24781999036,2010-11-30 08:14:00,3241.6216023897928,2,8,0.5501165986061096,4.010570526123047,6.468718084888389,6.635437878135131,25.90037368455233,24.09281568437064,3.23295607813634e-05,0.0947341993451118,0,0,0
2182,78043.26291786198,2010-11-30 08:14:30,3271.63670026142,2,8,0.550297200679779,4.012836933135986,6.473304230149313,6.635437878135131,25.91877138068197,24.09281568437064,9.70840483205393e-05,0.0947341993451118,0,0,0
2183,78073.27780461825,2010-11-30 08:15:00,3301.6515870427565,2,8,0.5501165986061096,4.014779567718506,6.477890441817807,6.635437878135131,25.937178979262825,24.09281568437064,6.47544875391759e-05,0.0947341993451118,0,0,0
2184,78103.29296575733,2010-11-30 08:15:30,3331.6667482319467,2,8,0.5501165986061096,4.016722202301025,6.482476670913927,6.635437878135131,25.95559634509033,24.09281568437064,3.23295607813634e-05,0.0947341993451118,0,0,0
2185,78133.30795385077,2010-11-30 08:16:00,3361.681736260232,2,8,0.5499359965324402,4.019150733947754,6.487062864078704,6.635437878135131,25.97402339491526,24.09281568437064,9.71794142969884e-05,0.0947341993451118,0,0,0
2186,78163.32287517807,2010-11-30 08:16:30,3391.69665759756,2,8,0.5501165986061096,4.021255016326904,6.491648911643813,6.635437878135131,25.992459603735217,24.09281568437064,6.47544875391759e-05,0.0947341993451118,0,0,0
2187,78193.33977247251,2010-11-30 08:17:00,3421.7135549721806,2,8,0.5501165986061096,4.023359775543213,6.496235294682033,6.635437878135131,26.01090724175553,24.09281568437064,6.47544875391759e-05,0.0947341993451118,0,0,0
2188,78223.35339249155,2010-11-30 08:17:30,3451.727174971178,2,8,0.5499359965324402,4.025626182556152,6.500821261780028,6.635437878135131,26.02936324673308,24.09281568437064,9.71794142969884e-05,0.0947341993451118,0,0,0
2189,78253.36798688528,2010-11-30 08:18:00,3481.7417693599077,2,8,0.5499359965324402,4.027730464935303,6.505407363917343,6.635437878135131,26.047830071521364,24.09281568437064,3.23295607813634e-05,0.0947341993451118,0,0,0
2190,78283.38291563105,2010-11-30 08:18:30,3511.7566980555457,2,8,0.5501165986061096,4.030158996582031,6.509993524543488,6.635437878135131,26.066307531691127,24.09281568437064,6.47544875391759e-05,0.0947341993451118,0,0,0
2191,78313.39792572927,2010-11-30 08:19:00,3541.771708123677,2,8,0.550297200679779,4.032425403594971,6.514579744607705,6.635437878135131,26.08479576136327,24.09281568437064,6.47544875391759e-05,0.0947341993451118,0,0,0
2192,78343.41307815163,2010-11-30 08:19:30,3571.786860576126,2,8,0.5501165986061096,4.034691333770752,6.519165932088663,6.635437878135131,26.103294486532608,24.09281568437064,3.23295607813634e-05,0.0947341993451118,0,0,0
2193,78373.42797114843,2010-11-30 08:20:00,3601.8017535629047,2,8,0.5499359965324402,4.036957740783691,6.523752096196009,6.635437878135131,26.121803840919004,24.09281568437064,3.23295607813634e-05,0.0947341993451118,0,0,0
2194,78403.44309875907,2010-11-30 08:20:30,3631.81688118356,2,8,0.550297200679779,4.039547920227051,6.52833829451517,6.635437878135131,26.140324220358632,24.09281568437064,6.47544875391759e-05,0.0947341993451118,0,0,0
2195,78433.45798061314,2010-11-30 08:21:00,3661.831763032624,2,8,0.5501165986061096,4.04181432723999,6.532924473444362,6.635437878135131,26.15885536662232,24.09281568437064,3.23295607813634e-05,0.0947341993451118,0,0,0
2196,78463.47301228503,2010-11-30 08:21:30,3691.8467947095273,2,8,0.5501165986061096,4.044242858886719,6.537510631390592,6.635437878135131,26.17739750950889,24.09281568437064,3.24249267578125e-05,0.0947341993451118,0,0,0
2197,78493.4901696015,2010-11-30 08:22:00,3721.8639520911647,2,8,0.5499359965324402,4.046670913696289,6.542097141105062,6.635437878135131,26.195952269632517,24.09281568437064,6.47544875391759e-05,0.0947341993451118,0,0,0
2198,78523.5030769521,2010-11-30 08:22:30,3751.876859466827,2,8,0.5499359965324402,4.049099445343018,6.546682901816079,6.635437878135131,26.21451533899154,24.09281568437064,3.24249267578125e-05,0.0947341993451118,0,0,0
2199,78553.51798527705,2010-11-30 08:23:00,3781.8917676815,2,8,0.5499359965324402,4.051689624786377,6.551269047524164,6.635437878135131,26.23309138175222,24.09281568437064,6.47544875391759e-05,0.0947341993451118,0,0,0
2200,78583.53479655743,2010-11-30 08:23:30,3811.9085790771646,2,8,0.5501165986061096,4.054279804229736,6.555854616531539,6.635437878135131,26.251676469596493,24.09281568437064,6.47544875391759e-05,0.0947341993451118,0,0,0
2201,78613.54803519744,2010-11-30 08:24:00,3841.9218176219288,2,8,0.5497553944587708,4.056707859039307,6.56043966133866,6.635437878135131,26.270271035933245,24.09281568437064,3.23295607813634e-05,0.0947341993451118,0,0,0
2202,78643.56514108594,2010-11-30 08:24:30,3871.93892359564,2,8,0.5499359965324402,4.059298038482666,6.565026084773954,6.635437878135131,26.288883035525,24.09281568437064,6.47544875391759e-05,0.0947341993451118,0,0,0
2203,78673.57810849597,2010-11-30 08:25:00,3901.951890920483,2,8,0.5501165986061096,4.061888217926025,6.569611893645512,6.635437878135131,26.30750413612728,24.09281568437064,6.47544875391759e-05,0.0947341993451118,0,0,0
2204,78703.59313424314,2010-11-30 08:25:30,3931.966916647581,2,8,0.5499359965324402,4.064478397369385,6.574197952238753,6.635437878135131,26.326138197432325,24.09281568437064,9.70840483205393e-05,0.0947341993451118,0,0,0
2205,78733.60812717362,2010-11-30 08:26:00,3961.981909598115,2,8,0.550297200679779,4.067230701446533,6.578784074437412,6.635437878135131,26.344784662452344,24.09281568437064,9.71794142969884e-05,0.0947341993451118,0,0,0
2206,78763.62314241462,2010-11-30 08:26:30,3991.996924844131,2,8,0.5501165986061096,4.069820880889893,6.583370237700901,6.635437878135131,26.363443518942045,24.09281568437064,6.47544875391759e-05,0.0947341993451118,0,0,0
2207,78793.64013494604,2010-11-30 08:27:00,4022.0139174607584,2,8,0.550297200679779,4.072411060333252,6.587956648656601,6.635437878135131,26.382115594291065,24.09281568437064,3.24249267578125e-05,0.0947341993451118,0,0,0
2208,78823.65320062063,2010-11-30 08:27:30,4052.026983045116,2,8,0.5501165986061096,4.075001239776611,6.592542414685518,6.635437878135131,26.40079735043535,24.09281568437064,0.0,0.0947341993451118,0,0,0
2209,78853.66818540083,2010-11-30 08:28:00,4082.0419678253193,2,8,0.550297200679779,4.0780768394470215,6.597128578550064,6.635437878135131,26.41949319556861,24.09281568437064,9.70840483205393e-05,0.0947341993451118,0,0,0
2210,78883.68320262176,2010-11-30 08:28:30,4112.05698504625,2,8,0.5501165986061096,4.080667018890381,6.601714690582027,6.635437878135131,26.43820151819454,24.09281568437064,3.23295607813634e-05,0.0947341993451118,0,0,0
2211,78913.69821700061,2010-11-30 08:29:00,4142.071999430121,2,8,0.5501165986061096,4.08358097076416,6.606300801879327,6.635437878135131,26.456922573157417,24.09281568437064,9.70840483205393e-05,0.0947341993451118,0,0,0
2212,78943.71324060242,2010-11-30 08:29:30,4172.087023001855,2,8,0.5499359965324402,4.086333274841309,6.610886861345485,6.635437878135131,26.4756563235857,24.09281568437064,6.47544875391759e-05,0.0947341993451118,0,0,0
2213,78973.72838993209,2010-11-30 08:30:00,4202.102172431782,2,8,0.5499359965324402,4.089085102081299,6.615473026651562,6.635437878135131,26.4944034602483,24.09281568437064,6.47544875391759e-05,0.0947341993451118,0,0,0
2214,79003.74328760053,2010-11-30 08:30:30,4232.117070025024,2,8,0.5501165986061096,4.091999053955078,6.620059197491243,6.635437878135131,26.513163684454145,24.09281568437064,6.47544875391759e-05,0.0947341993451118,0,0,0
2215,79033.75839530664,2010-11-30 08:31:01,4262.132177711073,2,8,0.5499359965324402,4.094913005828857,6.624645355698227,6.635437878135131,26.53193700995548,24.09281568437064,6.47544875391759e-05,0.0947341993451118,0,0,0
2216,79063.77342309886,2010-11-30 08:31:31,4292.147205568472,2,8,0.5501165986061096,4.097826957702637,6.629231571578082,6.635437878135131,26.55072392687305,24.09281568437064,6.47544875391759e-05,0.0947341993451118,0,0,0
2217,79093.788425934,2010-11-30 08:32:01,4322.162208338442,2,8,0.5499359965324402,4.100903034210205,6.633817745501004,6.635437878135131,26.569524158379625,24.09281568437064,9.71794142969884e-05,0.0947341993451118,0,0,0
2218,79123.80331092588,2010-11-30 08:32:31,4352.177093350376,2,8,0.5501165986061096,4.103816986083984,6.638403879974272,6.635437878135131,26.588337740236582,24.09281568437064,6.47544875391759e-05,0.0947341993451118,0,0,0
2219,79153.81847772404,2010-11-30 08:33:01,4382.192260138499,2,8,0.550297200679779,4.1068925857543945,6.642990050790472,6.635437878135131,26.60716517791343,24.09281568437064,0.0001295089750783,0.0947341993451118,0,0,0
2220,79183.8335488842,2010-11-30 08:33:31,4412.20733134878,2,8,0.5499359965324402,4.109806537628174,6.647576194177069,6.635437878135131,26.62600614755379,24.09281568437064,9.70840483205393e-05,0.0947341993451118,0,0,0
2221,79213.84851600043,2010-11-30 08:34:01,4442.222298490088,2,8,0.5501165986061096,4.112882614135742,6.652162331401192,6.635437878135131,26.64486097511827,24.09281568437064,9.71794142969884e-05,0.0947341993451118,0,0,0
2222,79243.8633701255,2010-11-30 08:34:31,4472.2371525299495,2,8,0.5501165986061096,4.115958213806152,6.65674846292903,6.635437878135131,26.663729785669396,24.09281568437064,0.0001295089750783,0.0947341993451118,0,0,0
2223,79273.87838524621,2010-11-30 08:35:01,4502.252167675716,2,8,0.5499359965324402,4.118872165679932,6.661334522183421,6.635437878135131,26.68261236651557,24.09281568437064,3.24249267578125e-05,0.0947341993451118,0,0,0
2224,79303.8934123768,2010-11-30 08:35:31,4532.267194776231,2,8,0.5501165986061096,4.122109889984131,6.665920734267784,6.635437878135131,26.701509789146307,24.09281568437064,9.71794142969884e-05,0.0947341993451118,0,0,0
2225,79333.90853008779,2010-11-30 08:36:01,4562.28231251229,2,8,0.5499359965324402,4.125185489654541,6.67050694530897,6.635437878135131,26.72042156199721,24.09281568437064,6.47544875391759e-05,0.0947341993451118,0,0,0
2226,79363.92345178603,2010-11-30 08:36:31,4592.297234190466,2,8,0.5499359965324402,4.128261566162109,6.675093102997827,6.635437878135131,26.739347609477928,24.09281568437064,6.47544875391759e-05,0.0947341993451118,0,0,0
2227,79393.94028625407,2010-11-30 08:37:01,4622.314068768821,2,8,0.5499359965324402,4.131499290466309,6.679679567303372,6.635437878135131,26.75828954094048,24.09281568437064,3.24249267578125e-05,0.0947341993451118,0,0,0
2228,79423.95348717022,2010-11-30 08:37:31,4652.327269599735,2,8,0.550297200679779,4.134898662567139,6.684265492756554,6.635437878135131,26.7772439924362,24.09281568437064,9.70840483205393e-05,0.0947341993451118,0,0,0
2229,79453.96846837153,2010-11-30 08:38:01,4682.342250770957,2,8,0.5501165986061096,4.138298511505127,6.688851704706456,6.635437878135131,26.79621467044751,24.09281568437064,0.0001295089750783,0.0947341993451118,0,0,0
2230,79483.98359895454,2010-11-30 08:38:31,4712.357381358997,2,8,0.5501165986061096,4.141536235809326,6.693437938517986,6.635437878135131,26.815200470066408,24.09281568437064,0.0001295089750783,0.0947341993451118,0,0,0
2231,79513.99849220699,2010-11-30 08:39:01,4742.372274631487,2,8,0.5499359965324402,4.144773960113525,6.698024158451386,6.635437878135131,26.834201425621707,24.09281568437064,9.71794142969884e-05,0.0947341993451118,0,0,0
2232,79544.01364090509,2010-11-30 08:39:31,4772.387423304531,2,8,0.5501165986061096,4.1483354568481445,6.702610261688965,6.635437878135131,26.85321755953148,24.09281568437064,0.0001295089750783,0.0947341993451118,0,0,0
2233,79574.02851198235,2010-11-30 08:40:01,4802.402294406851,2,8,0.5499359965324402,4.151573181152344,6.707196330918166,6.635437878135131,26.87224905003935,24.09281568437064,6.47544875391759e-05,0.0947341993451118,0,0,0
2234,79604.04355001006,2010-11-30 08:40:31,4832.417332409495,2,8,0.5501165986061096,4.154972553253174,6.711782494337022,6.635437878135131,26.891296537115903,24.09281568437064,0.0001295089750783,0.0947341993451118,0,0,0
2235,79634.05859902009,2010-11-30 08:41:01,4862.432381444595,2,8,0.5501165986061096,4.158534049987793,6.716368646476648,6.635437878135131,26.91035957872037,24.09281568437064,0.0001295089750783,0.0947341993451118,0,0,0
2236,79664.0735825171,2010-11-30 08:41:31,4892.447364921555,2,8,0.550297200679779,4.162095546722412,6.720954779350722,6.635437878135131,26.92943831652611,24.09281568437064,0.0001618385285837,0.0947341993451118,0,0,0
2237,79694.08856915192,2010-11-30 08:42:01,4922.462351576423,2,8,0.5497553944587708,4.1651716232299805,6.725540915924316,6.635437878135131,26.9485329478212,24.09281568437064,6.47544875391759e-05,0.0947341993451118,0,0,0
2238,79724.10364621176,2010-11-30 08:42:31,4952.477428701423,2,8,0.5501165986061096,4.168894767761231,6.730127078755218,6.635437878135131,26.96764368617336,24.09281568437064,0.0001295089750783,0.0947341993451118,0,0,0
2239,79754.11872807857,2010-11-30 08:43:01,4982.492510578247,2,8,0.5499359965324402,4.17213249206543,6.734713209673352,6.635437878135131,26.98677028728983,24.09281568437064,6.47544875391759e-05,0.0947341993451118,0,0,0
2240,79784.1337548232,2010-11-30 08:43:31,5012.5075372476895,2,8,0.5501165986061096,4.175856113433838,6.739299389372468,6.635437878135131,27.005913304778705,24.09281568437064,9.71794142969884e-05,0.0947341993451118,0,0,0
2241,79814.14869602997,2010-11-30 08:44:01,5042.5224785496985,2,8,0.5501165986061096,4.179579257965088,6.743885494522301,6.635437878135131,27.025072347335225,24.09281568437064,0.0001618385285837,0.0947341993451118,0,0,0
2242,79844.16378208218,2010-11-30 08:44:31,5072.537564586876,2,8,0.5501165986061096,4.183140754699707,6.748471595618297,6.635437878135131,27.044247769475064,24.09281568437064,0.0001295089750783,0.0947341993451118,0,0,0
2243,79874.17867555017,2010-11-30 08:45:01,5102.5524579746525,2,8,0.5499359965324402,4.186540603637695,6.753057751339016,6.635437878135131,27.06344011868551,24.09281568437064,9.71794142969884e-05,0.0947341993451118,0,0,0
2244,79904.19368547795,2010-11-30 08:45:31,5132.567467907446,2,8,0.5499359965324402,4.190263748168945,6.757643906008813,6.635437878135131,27.082649276125466,24.09281568437064,6.47544875391759e-05,0.0947341993451118,0,0,0
2245,79934.20869850344,2010-11-30 08:46:01,5162.582480998099,2,8,0.550297200679779,4.194149017333984,6.762230035313243,6.635437878135131,27.1018750083762,24.09281568437064,0.0001295089750783,0.0947341993451118,0,0,0
2246,79964.22368717832,2010-11-30 08:46:31,5192.59746960282,2,8,0.5499359965324402,4.197710514068604,6.766816149092067,6.635437878135131,27.12111753828125,24.09281568437064,9.71794142969884e-05,0.0947341993451118,0,0,0
2247,79982.75470320397,2010-11-30 08:46:50,5211.128485603405,2,8,0.5501165986061096,4.200138568878174,6.769647580536905,6.635437878135131,27.13300613471584,24.09281568437064,0.0001618385285837,0.0947341993451118,0,0,0
2248,80012.77337694156,2010-11-30 08:47:20,30.01509649319653,3,8,0.0,4.107054710388184,6.769647580536905,6.635437878135131,27.13300613471584,24.09281568437064,-0.0004532813909463,0.0947341993451118,0,0,0
2249,80042.78828197833,2010-11-30 08:47:50,60.03000160514819,3,8,0.0,4.095722675323486,6.769647580536905,6.635437878135131,27.13300613471584,24.09281568437064,-0.0002265930233988,0.0947341993451118,0,0,0
2250,80072.8033170587,2010-11-30 08:48:20,90.04503658025935,3,8,0.0,4.088761329650879,6.769647580536905,6.635437878135131,27.13300613471584,24.09281568437064,-0.0001295089750783,0.0947341993451118,0,0,0
2251,80102.77146100231,2010-11-30 08:48:50,120.01318052885452,3,8,0.0,4.08390474319458,6.769647580536905,6.635437878135131,27.13300613471584,24.09281568437064,-0.0001295089750783,0.0947341993451118,0,0,0
2252,80102.78542802432,2010-11-30 08:48:50,0.0156412426307,4,8,0.9889971613883972,4.199814796447754,6.769651929713681,6.635437878135131,27.13302440080543,24.09281568437064,-3.24249267578125e-05,0.0947341993451118,0,0,0
2253,80103.73852002209,2010-11-30 08:48:51,0.968733220359896,4,8,0.9384265542030334,4.199814796447754,6.769905267711557,6.635437878135131,27.134088368920587,24.09281568437064,-3.24249267578125e-05,0.0947341993451118,0,0,0
2254,80106.051470345,2010-11-30 08:48:53,3.281683628490899,4,8,0.8882171511650085,4.199814796447754,6.770490732553794,6.635437878135131,27.136547225035063,24.09281568437064,-3.24249267578125e-05,0.0947341993451118,0,0,0
2255,80109.47277201262,2010-11-30 08:48:57,6.702985210890177,4,8,0.837827205657959,4.199814796447754,6.771309526726013,6.635437878135131,27.13998601409078,24.09281568437064,0.0,0.0947341993451118,0,0,0
2256,80114.14460578628,2010-11-30 08:49:01,11.374818989562486,4,8,0.7877984046936035,4.199976921081543,6.772362860353712,6.635437878135131,27.14440983352799,24.09281568437064,3.24249267578125e-05,0.0947341993451118,0,0,0
2257,80120.22426663348,2010-11-30 08:49:07,17.454479936997064,4,8,0.7377696633338928,4.199814796447754,6.773649350208373,6.635437878135131,27.149812878195085,24.09281568437064,0.0,0.0947341993451118,0,0,0
2258,80128.22238681291,2010-11-30 08:49:15,25.45260003624404,4,8,0.6875602602958679,4.199653148651123,6.775230655209126,6.635437878135131,27.156454122816843,24.09281568437064,-6.47544875391759e-05,0.0947341993451118,0,0,0
2259,80138.97399307658,2010-11-30 08:49:26,36.20420639514485,4,8,0.6375315189361572,4.199976921081543,6.7772059784158,6.635437878135131,27.16475018597608,24.09281568437064,0.0,0.0947341993451118,0,0,0
2260,80154.20623751602,2010-11-30 08:49:41,51.436450744352285,4,8,0.5875027179718018,4.199814796447754,6.779791437464565,6.635437878135131,27.175608731074256,24.09281568437064,0.0,0.0947341993451118,0,0,0
2261,80178.20574700732,2010-11-30 08:50:05,75.43596022062596,4,8,0.5374739766120911,4.199653148651123,6.783528102234215,6.635437878135131,27.19130216613355,24.09281568437064,-3.23295607813634e-05,0.0947341993451118,0,0,0
2262,80221.62672533184,2010-11-30 08:50:49,118.85693853011146,4,8,0.487445205450058,4.199814796447754,6.789679418206742,6.635437878135131,27.217136931641797,24.09281568437064,0.0,0.0947341993451118,0,0,0
2263,80301.922058029,2010-11-30 08:52:09,199.15227123225876,4,8,0.4370552003383636,4.199814796447754,6.799947366276307,6.635437878135131,27.26026091752356,24.09281568437064,0.0,0.0947341993451118,0,0,0
2264,80419.29461467186,2010-11-30 08:54:06,316.52482787513543,4,8,0.3870264291763305,4.199814796447754,6.813363763625977,6.635437878135131,27.31660785111328,24.09281568437064,0.0,0.0947341993451118,0,0,0
2265,80564.11980210057,2010-11-30 08:56:31,461.3500153038522,4,8,0.3369976580142975,4.199814796447754,6.827911906408155,6.635437878135131,27.377707992359653,24.09281568437064,0.0,0.0947341993451118,0,0,0
2266,80737.18088386135,2010-11-30 08:59:24,634.4110971598556,4,8,0.2869688868522644,4.199653148651123,6.842895931507775,6.635437878135131,27.440638882785084,24.09281568437064,-3.23295607813634e-05,0.0947341993451118,0,0,0
2267,80948.95754448605,2010-11-30 09:02:56,846.1877577595016,4,8,0.2369401305913925,4.199491024017334,6.85829215637741,6.635437878135131,27.505300965314305,24.09281568437064,-6.47544875391759e-05,0.0947341993451118,0,0,0
2268,81215.38775761411,2010-11-30 09:07:22,1112.6179708123675,4,8,0.1869113594293594,4.199814796447754,6.87393266395727,6.635437878135131,27.57098902763189,24.09281568437064,-3.24249267578125e-05,0.0947341993451118,0,0,0
2269,81565.25577733973,2010-11-30 09:13:12,1462.4859906131796,4,8,0.1368825882673263,4.199814796447754,6.889566380670803,6.635437878135131,27.63664853995604,24.09281568437064,-3.24249267578125e-05,0.0947341993451118,0,0,0
2270,82094.77610708412,2010-11-30 09:22:02,1992.006320282395,4,8,0.0868538171052932,4.199814796447754,6.905752632783819,6.635437878135131,27.7046286970735,24.09281568437064,0.0,0.0947341993451118,0,0,0
2271,82805.91788566853,2010-11-30 09:33:53,2703.148098931957,4,8,0.0498289167881011,4.199653148651123,6.918934034685448,6.635437878135131,27.75998881688055,24.09281568437064,-3.23295607813634e-05,0.0947341993451118,0,0,0
2272,82835.93154725253,2010-11-30 09:34:23,30.015000058221805,5,8,0.0,4.191235065460205,6.918934034685448,6.635437878135131,27.75998881688055,24.09281568437064,-3.24249267578125e-05,0.0947341993451118,0,0,0
2273,82865.93092804782,2010-11-30 09:34:53,60.01438085350854,5,8,0.0,4.189778327941895,6.918934034685448,6.635437878135131,27.75998881688055,24.09281568437064,-3.23295607813634e-05,0.0947341993451118,0,0,0
2274,82866.11663084972,2010-11-30 09:34:53,0.18580312392762,6,8,-1.9243103452026844e-05,4.189939975738525,6.918934034685448,6.635437879128306,27.75998881688055,24.092815688531985,0.0,0.0988719761371612,0,0,0
2275,82870.9447415074,2010-11-30 09:34:58,5.013913791627627,6,8,0.0007031940040178,4.189778327941895,6.918934858516142,6.635437879212681,27.75999226869716,24.09281568888551,-3.23295607813634e-05,0.0988719761371612,0,0,0
2276,82900.95973539482,2010-11-30 09:35:28,30.015120828754632,7,8,-1.099568486213684,3.99648642539978,6.918934858516142,6.644605676049377,27.75999226869716,24.129668648738672,-0.000971364963334,0.0988719761371612,0,0,0
2277,82930.9746702157,2010-11-30 09:35:58,60.03005555439884,7,8,-1.099568486213684,3.966699600219727,6.918934858516142,6.653773430241443,27.75999226869716,24.16616246418181,-0.0007122993702068,0.0988719761371612,0,0,0
2278,82960.98965218892,2010-11-30 09:36:28,90.04503753262927,7,8,-1.099568486213684,3.9461400508880615,6.918934858516142,6.662941159503829,27.75999226869716,24.202429323682715,-0.0004856586456298,0.0988719761371612,0,0,0
2279,82991.00466560537,2010-11-30 09:36:58,120.06005094909254,7,8,-1.0997490882873535,3.9299514293670654,6.918934858516142,6.67210888676506,27.75999226869716,24.2385298633211,-0.0003885269106831,0.0988719761371612,0,0,0
2280,83021.01970069579,2010-11-30 09:37:28,150.0750860394906,7,8,-1.0997490882873535,3.9168386459350586,6.918934858516142,6.681276673317577,27.75999226869716,24.27449769377609,-0.0003237724304199,0.0988719761371612,0,0,0
2281,83051.03470246826,2010-11-30 09:37:58,180.0900878220032,7,8,-1.0993878841400146,3.9053449630737305,6.918934858516142,6.690444342098546,27.75999226869716,24.310352404932296,-0.0003237724304199,0.0988719761371612,0,0,0
2282,83081.0496822761,2010-11-30 09:38:28,210.10506761980776,7,8,-1.0993878841400146,3.894822359085083,6.918934858516142,6.699611916879499,27.75999226869716,24.34610516842505,-0.0002590179501567,0.0988719761371612,0,0,0
2283,83111.06469502089,2010-11-30 09:38:58,240.1200803645996,7,8,-1.0993878841400146,3.8847854137420654,6.918934858516142,6.708779484676263,27.75999226869716,24.38176453633088,-0.0002590179501567,0.0988719761371612,0,0,0
2284,83141.08152077728,2010-11-30 09:39:29,270.13690624631295,7,8,-1.099568486213684,3.8752341270446777,6.918934858516142,6.717947661721538,27.75999226869716,24.417336380109955,-0.0002266406954731,0.0988719761371612,0,0,0
2285,83171.09487525556,2010-11-30 09:39:59,300.15026059926043,7,8,-1.099568486213684,3.86616849899292,6.918934858516142,6.727114723469683,27.75999226869716,24.45281853143402,-0.0002266406954731,0.0988719761371612,0,0,0
2286,83201.10974118499,2010-11-30 09:40:29,330.1651265236955,7,8,-1.0997490882873535,3.857102870941162,6.918934858516142,6.736282250695078,27.75999226869716,24.48822002448117,-0.0002266406954731,0.0988719761371612,0,0,0
2287,83231.12475348367,2010-11-30 09:40:59,360.18013882738967,7,8,-1.099568486213684,3.848522901535034,6.918934858516142,6.74544980400456,27.75999226869716,24.52354164957995,-0.0002266406954731,0.0988719761371612,0,0,0
2288,83261.13981271916,2010-11-30 09:41:29,390.1951981731463,7,8,-1.0993878841400146,3.840104818344116,6.918934858516142,6.754617381793607,27.75999226869716,24.558784703757716,-0.0002266406954731,0.0988719761371612,0,0,0
2289,83291.15504731603,2010-11-30 09:41:59,420.2104327750209,7,8,-1.099568486213684,3.8318488597869873,6.918934858516142,6.763785011988973,27.75999226869716,24.5939513664696,-0.0001618862152099,0.0988719761371612,0,0,0
2290,83321.1698004598,2010-11-30 09:42:29,450.22518580351874,7,8,-1.099568486213684,3.823754549026489,6.918934858516142,6.772952530492628,27.75999226869716,24.62904262729192,-0.0002266406954731,0.0988719761371612,0,0,0
2291,83351.18494025075,2010-11-30 09:42:59,480.2403255944601,7,8,-1.099568486213684,3.815822124481201,6.918934858516142,6.782120176399389,27.75999226869716,24.664061107491644,-0.0002266406954731,0.0988719761371612,0,0,0
2292,83381.19982602457,2010-11-30 09:43:29,510.2552113632771,7,8,-1.099568486213684,3.807889699935913,6.918934858516142,6.791287705877724,27.75999226869716,24.69900644186003,-0.0002590179501567,0.0988719761371612,0,0,0
2293,83411.21485237824,2010-11-30 09:43:59,540.2702377269591,7,8,-1.099568486213684,3.800119161605835,6.918934858516142,6.80045536076535,27.75999226869716,24.73388037376736,-0.0001942634553415,0.0988719761371612,0,0,0
2294,83441.22985744894,2010-11-30 09:44:29,570.2852427926417,7,8,-1.099568486213684,3.7926723957061768,6.918934858516142,6.809622934107929,27.75999226869716,24.76868428539415,-0.0001942634553415,0.0988719761371612,0,0,0
2295,83471.24490102545,2010-11-30 09:44:59,600.300286389207,7,8,-1.099568486213684,3.785387516021729,6.918934858516142,6.818790619125858,27.75999226869716,24.80342051123235,-0.0001618862152099,0.0988719761371612,0,0,0
2296,83501.25988650239,2010-11-30 09:45:29,630.315271846094,7,8,-1.099568486213684,3.77810263633728,6.918934858516142,6.827958206744369,27.75999226869716,24.838088718916,-0.0001618862152099,0.0988719761371612,0,0,0
2297,83531.2749144851,2010-11-30 09:45:59,660.3302998237923,7,8,-1.099568486213684,3.771141529083252,6.918934858516142,6.83712591771437,27.75999226869716,24.8726924379446,-0.0001618862152099,0.0988719761371612,0,0,0
2298,83561.28991543052,2010-11-30 09:46:29,690.3453007992968,7,8,-1.0997490882873535,3.7640185356140137,6.918934858516142,6.846293491737438,27.75999226869716,24.907231744707488,-0.0002266406954731,0.0988719761371612,0,0,0
2299,83591.30492647609,2010-11-30 09:46:59,720.3603118248102,7,8,-1.0993878841400146,3.757381200790405,6.918934858516142,6.855461096399953,27.75999226869716,24.941708134984143,-0.0001618862152099,0.0988719761371612,0,0,0
2300,83621.31994029856,2010-11-30 09:47:29,750.3753256422712,7,8,-1.0993878841400146,3.750744104385376,6.918934858516142,6.86462875976774,27.75999226869716,24.97612300628004,-0.0001295089750783,0.0988719761371612,0,0,0
2301,83651.33496681764,2010-11-30 09:47:59,780.39035216134,7,8,-1.0993878841400146,3.7442686557769775,6.918934858516142,6.873796345800722,27.75999226869716,25.01047764189284,-0.0001295089750783,0.0988719761371612,0,0,0
2302,83681.35000682024,2010-11-30 09:48:29,810.4053922541864,7,8,-1.0993878841400146,3.737955093383789,6.918934858516142,6.882963998558197,27.75999226869716,25.04477352498163,-0.0001295089750783,0.0988719761371612,0,0,0
2303,83711.3649821319,2010-11-30 09:48:59,840.4203674705902,7,8,-1.099568486213684,3.7316415309906006,6.918934858516142,6.892131634737567,27.75999226869716,25.079011642939957,-0.0001618862152099,0.0988719761371612,0,0,0
2304,83741.38180005379,2010-11-30 09:49:29,870.4371854827205,7,8,-1.099568486213684,3.725327968597412,6.918934858516142,6.901299749442406,27.75999226869716,25.113194832090404,-0.0001618862152099,0.0988719761371612,0,0,0
2305,83771.39503374648,2010-11-30 09:49:59,900.4504190952101,7,8,-1.099568486213684,3.7195000648498535,6.918934858516142,6.910466790301507,27.75999226869716,25.147318470606745,-0.0001295089750783,0.0988719761371612,0,0,0
2306,83801.41015116175,2010-11-30 09:50:29,930.465536505458,7,8,-1.0993878841400146,3.713510274887085,6.918934858516142,6.919634400903005,27.75999226869716,25.181389086636106,-0.0001618862152099,0.0988719761371612,0,0,0
2307,83831.42503805837,2010-11-30 09:50:59,960.480423407094,7,8,-1.0993878841400146,3.707520484924317,6.918934858516142,6.928801927564373,27.75999226869716,25.2154047650792,-0.0001295089750783,0.0988719761371612,0,0,0
2308,83861.44030481526,2010-11-30 09:51:29,990.4956901639852,7,8,-1.099568486213684,3.701692581176758,6.918934858516142,6.937969615607103,27.75999226869716,25.249367170335645,-0.0001295089750783,0.0988719761371612,0,0,0
2309,83891.45510022923,2010-11-30 09:51:59,1020.5104855679324,7,8,-1.0997490882873535,3.696026563644409,6.918934858516142,6.947137151648755,27.75999226869716,25.28327609489677,-0.0001295089750783,0.0988719761371612,0,0,0
2310,83921.47009281386,2010-11-30 09:52:29,1050.5254781575693,7,8,-1.099568486213684,3.690360546112061,6.918934858516142,6.956304797660375,27.75999226869716,25.31713323437002,-9.713172767078504e-05,0.0988719761371612,0,0,0
2311,83951.48509339338,2010-11-30 09:52:59,1080.540478757138,7,8,-1.099568486213684,3.684856414794922,6.918934858516142,6.965472417125892,27.75999226869716,25.350938319052748,-9.713172767078504e-05,0.0988719761371612,0,0,0
2312,83981.5001233109,2010-11-30 09:53:29,1110.5555086546135,7,8,-1.099568486213684,3.679352283477783,6.918934858516142,6.974640116473524,27.75999226869716,25.38469302556012,-9.713172767078504e-05,0.0988719761371612,0,0,0
2313,84011.51513537901,2010-11-30 09:53:59,1140.5705207427714,7,8,-1.099568486213684,3.673848152160645,6.918934858516142,6.983807706223521,27.75999226869716,25.41839729733755,-0.0001295089750783,0.0988719761371612,0,0,0
2314,84041.53014187826,2010-11-30 09:54:29,1170.585527216959,7,8,-1.099568486213684,3.668182373046875,6.918934858516142,6.992975333309727,27.75999226869716,25.452052119617036,-0.0001942634553415,0.0988719761371612,0,0,0
2315,84071.54516246256,2010-11-30 09:54:59,1200.600547851384,7,8,-1.099568486213684,3.663002014160156,6.918934858516142,7.002142909830215,27.75999226869716,25.48565729744993,-0.0001618862152099,0.0988719761371612,0,0,0
2316,84101.56020373334,2010-11-30 09:55:29,1230.6155891021117,7,8,-1.099568486213684,3.6578216552734375,6.918934858516142,7.011310546782966,27.75999226869716,25.51921450784732,-0.0001295089750783,0.0988719761371612,0,0,0
2317,84131.57535596524,2010-11-30 09:55:59,1260.6307413841366,7,8,-1.0997490882873535,3.652479410171509,6.918934858516142,7.020478179037315,27.75999226869716,25.5527240754909,-0.0001618862152099,0.0988719761371612,0,0,0
2318,84161.59019998016,2010-11-30 09:56:29,1290.6455853990508,7,8,-1.0993878841400146,3.64729905128479,6.918934858516142,7.029645725710636,27.75999226869716,25.586185599219057,-0.0001618862152099,0.0988719761371612,0,0,0
2319,84191.60521523618,2010-11-30 09:56:59,1320.660600579905,7,8,-1.099568486213684,3.642280578613281,6.918934858516142,7.038813257951994,27.75999226869716,25.619599555257967,-0.0001295089750783,0.0988719761371612,0,0,0
2320,84221.62021985075,2010-11-30 09:57:29,1350.675605199477,7,8,-1.0993878841400146,3.6374239921569824,6.918934858516142,7.047980801056992,27.75999226869716,25.65296785262024,-0.0001295089750783,0.0988719761371612,0,0,0
2321,84251.63587846277,2010-11-30 09:57:59,1380.6912638164972,7,8,-1.099568486213684,3.632567405700684,6.918934858516142,7.05714859170154,27.75999226869716,25.686292213513777,-9.713172767078504e-05,0.0988719761371612,0,0,0
2322,84281.65028287373,2010-11-30 09:58:29,1410.7056683176982,7,8,-1.099568486213684,3.6277108192443848,6.918934858516142,7.066316079147854,27.75999226869716,25.719571173174096,-0.0001295089750783,0.0988719761371612,0,0,0
2323,84311.6653007864,2010-11-30 09:58:59,1440.7206861501506,7,8,-1.099568486213684,3.622854232788086,6.918934858516142,7.07548369936078,27.75999226869716,25.75280670116715,-0.0001295089750783,0.0988719761371612,0,0,0
2324,84341.68209992656,2010-11-30 09:59:29,1470.737485295331,7,8,-1.0993878841400146,3.618159532546997,6.918934858516142,7.084651869132384,27.75999226869716,25.78600120340832,-0.0001618862152099,0.0988719761371612,0,0,0
2325,84371.69532052666,2010-11-30 09:59:59,1500.7507058804024,7,8,-1.099929690361023,3.613626718521118,6.918934858516142,7.093818972323708,27.75999226869716,25.81914927549039,-9.713172767078504e-05,0.0988719761371612,0,0,0
2326,84401.71031228424,2010-11-30 10:00:29,1530.7656976229307,7,8,-1.099568486213684,3.609255790710449,6.918934858516142,7.102986515838804,27.75999226869716,25.852257773606247,-0.0001295089750783,0.0988719761371612,0,0,0
2327,84431.72532307416,2010-11-30 10:00:59,1560.7807084128583,7,8,-1.099568486213684,3.6047229766845694,6.918934858516142,7.112154133820841,27.75999226869716,25.885326102421324,-0.0001295089750783,0.0988719761371612,0,0,0
2328,84461.74033367362,2010-11-30 10:01:29,1590.795719042386,7,8,-1.0997490882873535,3.6006758213043213,6.918934858516142,7.121321764191259,27.75999226869716,25.91835496650007,-0.0001295089750783,0.0988719761371612,0,0,0
2329,84491.75536641816,2010-11-30 10:01:59,1620.810751756872,7,8,-1.0992072820663452,3.5966286659240723,6.918934858516142,7.130489296961875,27.75999226869716,25.95134496286913,-6.47544875391759e-05,0.0988719761371612,0,0,0
2330,84521.77251142402,2010-11-30 10:02:29,1650.827896852938,7,8,-1.0997490882873535,3.5922577381134038,6.918934858516142,7.139657608635317,27.75999226869716,25.984299557686978,-0.0001295089750783,0.0988719761371612,0,0,0
2331,84551.78538319607,2010-11-30 10:02:59,1680.8407685397897,7,8,-1.099568486213684,3.588372707366944,6.918934858516142,7.148824628648964,27.75999226869716,26.017212128942397,-9.713172767078504e-05,0.0988719761371612,0,0,0
2332,84581.80038870286,2010-11-30 10:03:29,1710.855774051582,7,8,-1.0997490882873535,3.5843255519866943,6.918934858516142,7.157992344638266,27.75999226869716,26.050090374265373,-9.713172767078504e-05,0.0988719761371612,0,0,0
2333,84611.81713376848,2010-11-30 10:03:59,1740.8725192074123,7,8,-1.0997490882873535,3.5804402828216557,6.918934858516142,7.16716048880691,27.75999226869716,26.08293455427464,-9.713172767078504e-05,0.0988719761371612,0,0,0
2334,84641.83042560585,2010-11-30 10:04:29,1770.8858109495552,7,8,-1.0997490882873535,3.576716899871826,6.918934858516142,7.176327581148494,27.75999226869716,26.115740587940103,-9.713172767078504e-05,0.0988719761371612,0,0,0
2335,84671.84766130737,2010-11-30 10:04:59,1800.9030467713887,7,8,-1.099568486213684,3.573155403137207,6.918934858516142,7.185495929506819,27.75999226869716,26.14851734639636,-9.713172767078504e-05,0.0988719761371612,0,0,0
2336,84701.86045310041,2010-11-30 10:05:29,1830.915838439116,7,8,-1.0993878841400146,3.569593906402588,6.918934858516142,7.194662925584009,27.75999226869716,26.18125677254492,-9.713172767078504e-05,0.0988719761371612,0,0,0
2337,84731.87550427084,2010-11-30 10:05:59,1860.9308896345904,7,8,-1.099929690361023,3.5661942958831787,6.918934858516142,7.203830602184161,27.75999226869716,26.213966988574203,-9.713172767078504e-05,0.0988719761371612,0,0,0
2338,84761.89047645469,2010-11-30 10:06:29,1890.9458617983985,7,8,-1.0997490882873535,3.5629565715789795,6.918934858516142,7.212998232078726,27.75999226869716,26.246645428740745,-9.713172767078504e-05,0.0988719761371612,0,0,0
2339,84791.90549589615,2010-11-30 10:06:59,1920.9608812348424,7,8,-1.099568486213684,3.5597188472747803,6.918934858516142,7.222165889380671,27.75999226869716,26.279294287597235,-6.47544875391759e-05,0.0988719761371612,0,0,0
2340,84821.92056501622,2010-11-30 10:07:29,1950.975950475221,7,8,-1.099568486213684,3.556481122970581,6.918934858516142,7.23133406365318,27.75999226869716,26.31191479842504,-6.47544875391759e-05,0.0988719761371612,0,0,0
2341,84851.93548695004,2010-11-30 10:07:59,1980.990872313796,7,8,-1.099568486213684,3.553081512451172,6.918934858516142,7.240502545818532,27.75999226869716,26.344506306861767,-6.47544875391759e-05,0.0988719761371612,0,0,0
2342,84881.95063381857,2010-11-30 10:08:29,2011.0060191923749,7,8,-1.099568486213684,3.5500056743621826,6.918934858516142,7.249670875196435,27.75999226869716,26.377068293261924,-6.47544875391759e-05,0.0988719761371612,0,0,0
2343,84911.96552361743,2010-11-30 10:08:59,2041.0209089811951,7,8,-1.0997490882873535,3.5467679500579834,6.918934858516142,7.258839345652485,27.75999226869716,26.409601708239396,-9.713172767078504e-05,0.0988719761371612,0,0,0
2344,84941.98230488812,2010-11-30 10:09:29,2071.037690327083,7,8,-1.0997490882873535,3.543692111968994,6.918934858516142,7.268008474313752,27.75999226869716,26.44210922500811,-9.713172767078504e-05,0.0988719761371612,0,0,0
2345,84971.99557138245,2010-11-30 10:09:59,2101.050956746211,7,8,-1.099568486213684,3.540778160095215,6.918934858516142,7.277176447346458,27.75999226869716,26.47458453840304,-6.47544875391759e-05,0.0988719761371612,0,0,0
2346,85002.01056492947,2010-11-30 10:10:29,2131.06595027318,7,8,-1.099568486213684,3.5377023220062256,6.918934858516142,7.286344620270397,27.75999226869716,26.50703214543539,-6.47544875391759e-05,0.0988719761371612,0,0,0
2347,85032.02556204036,2010-11-30 10:10:59,2161.080947379055,7,8,-1.099568486213684,3.5346264839172363,6.918934858516142,7.295512322423138,27.75999226869716,26.539449771524,-6.47544875391759e-05,0.0988719761371612,0,0,0
2348,85062.04057379268,2010-11-30 10:11:30,2191.0959591363894,7,8,-1.099568486213684,3.531388759613037,6.918934858516142,7.304679959098352,27.75999226869716,26.571838745108835,-9.713172767078504e-05,0.0988719761371612,0,0,0
2349,85092.05577137243,2010-11-30 10:12:00,2221.111156716136,7,8,-1.0997490882873535,3.528151035308838,6.918934858516142,7.313847752490868,27.75999226869716,26.604199932770115,-0.0001295089750783,0.0988719761371612,0,0,0
2350,85122.07079819225,2010-11-30 10:12:30,2251.1261835359533,7,8,-1.099568486213684,3.5250751972198486,6.918934858516142,7.323015421247673,27.75999226869716,26.63653205572525,-9.713172767078504e-05,0.0988719761371612,0,0,0
2351,85152.08568100371,2010-11-30 10:13:00,2281.141066372473,7,8,-1.0997490882873535,3.5218374729156494,6.918934858516142,7.332182979704288,27.75999226869716,26.668833902118745,-9.713172767078504e-05,0.0988719761371612,0,0,0
2352,85182.10068155816,2010-11-30 10:13:30,2311.1560669068795,7,8,-1.099568486213684,3.51876163482666,6.918934858516142,7.341350532741754,27.75999226869716,26.70110635286764,-3.237724376958795e-05,0.0988719761371612,0,0,0
2353,85212.11594907193,2010-11-30 10:14:00,2341.171334530929,7,8,-1.099568486213684,3.515038251876831,6.918934858516142,7.350518204135695,27.75999226869716,26.733349082362416,-0.0001618862152099,0.0988719761371612,0,0,0
2354,85242.13070868682,2010-11-30 10:14:30,2371.1860940305296,7,8,-1.0993878841400146,3.511962413787842,6.918934858516142,7.359685771644571,27.75999226869716,26.76556016113022,-9.713172767078504e-05,0.0988719761371612,0,0,0
2355,85272.14572021858,2010-11-30 10:15:00,2401.201105567316,7,8,-1.099568486213684,3.5084011554718018,6.918934858516142,7.368853385918605,27.75999226869716,26.797739997742667,-9.713172767078504e-05,0.0988719761371612,0,0,0
2356,85302.16074128408,2010-11-30 10:15:30,2431.216126652863,7,8,-1.099568486213684,3.5048396587371826,6.918934858516142,7.378021054288413,27.75999226869716,26.829887515475377,-6.47544875391759e-05,0.0988719761371612,0,0,0
2357,85332.17579350711,2010-11-30 10:16:00,2461.2311789360447,7,8,-1.099568486213684,3.500954389572144,6.918934858516142,7.387188714265871,27.75999226869716,26.86200056399338,-9.713172767078504e-05,0.0988719761371612,0,0,0
2358,85362.19079564553,2010-11-30 10:16:30,2491.246180999256,7,8,-1.0997490882873535,3.4969072341918945,6.918934858516142,7.396356396255215,27.75999226869716,26.894078365591376,-0.0001295089750783,0.0988719761371612,0,0,0
2359,85392.20578943314,2010-11-30 10:17:00,2521.2611747768483,7,8,-1.0993878841400146,3.4926981925964355,6.918934858516142,7.405524066255516,27.75999226869716,26.926118228763,-0.0001295089750783,0.0988719761371612,0,0,0
2360,85422.22087468335,2010-11-30 10:17:30,2551.276260117292,7,8,-1.099568486213684,3.488489151000977,6.918934858516142,7.41469175531786,27.75999226869716,26.95811886899552,-9.713172767078504e-05,0.0988719761371612,0,0,0
2361,85452.23583373452,2010-11-30 10:18:00,2581.2912190782445,7,8,-1.099568486213684,3.4836325645446777,6.918934858516142,7.423859330801571,27.75999226869716,26.99007785548164,-0.0001618862152099,0.0988719761371612,0,0,0
2362,85482.25082744195,2010-11-30 10:18:30,2611.3062127856624,7,8,-1.099568486213684,3.478452205657959,6.918934858516142,7.433026971342926,27.75999226869716,27.021991096522022,-0.0001295089750783,0.0988719761371612,0,0,0
2363,85512.26584533456,2010-11-30 10:19:00,2641.321230678265,7,8,-1.099568486213684,3.47327184677124,6.918934858516142,7.442194527033445,27.75999226869716,27.05385524798184,-9.713172767078504e-05,0.0988719761371612,0,0,0
2364,85542.28269717084,2010-11-30 10:19:30,2671.338082609802,7,8,-1.0997490882873535,3.466796398162842,6.918934858516142,7.451362677906607,27.75999226869716,27.085668447524803,-0.0001618862152099,0.0988719761371612,0,0,0
2365,85572.29603863673,2010-11-30 10:20:00,2701.3514240105183,7,8,-1.099568486213684,3.4599971771240234,6.918934858516142,7.460529750718476,27.75999226869716,27.117419088084027,-0.0001942634553415,0.0988719761371612,0,0,0
2366,85602.30317946256,2010-11-30 10:20:30,2731.35856491153,7,8,-1.099568486213684,3.452550411224365,6.918934858516142,7.469694969874575,27.75999226869716,27.149097344842524,-0.0001942634553415,0.0988719761371612,0,0,0
2367,85632.31027100574,2010-11-30 10:21:00,2761.365656359479,7,8,-1.0993878841400146,3.4436466693878174,6.918934858516142,7.478860190573163,27.75999226869716,27.180700115092367,-0.0002590179501567,0.0988719761371612,0,0,0
2368,85662.32528777556,2010-11-30 10:21:30,2791.380673124275,7,8,-1.099568486213684,3.43344783782959,6.918934858516142,7.488027843753415,27.75999226869716,27.21222442610115,-0.0002590179501567,0.0988719761371612,0,0,0
2369,85692.3403231667,2010-11-30 10:22:00,2821.395708515421,7,8,-1.099568486213684,3.420982837677002,6.918934858516142,7.497195485363344,27.75999226869716,27.243645659615225,-0.0003561496851034,0.0988719761371612,0,0,0
2370,85722.35534602165,2010-11-30 10:22:30,2851.410731390422,7,8,-1.099568486213684,3.4057655334472656,6.918934858516142,7.506363165357732,27.75999226869716,27.274940753674468,-0.0004209041653666,0.0988719761371612,0,0,0
2371,85752.37033473162,2010-11-30 10:23:00,2881.425720100404,7,8,-1.0997490882873535,3.3858535289764404,6.918934858516142,7.51553085758261,27.75999226869716,27.306076552453195,-0.0006151676061563,0.0988719761371612,0,0,0
2372,85782.38545054289,2010-11-30 10:23:30,2911.440835916685,7,8,-1.099568486213684,3.360437393188477,6.918934858516142,7.524698531163972,27.75999226869716,27.33700613156425,-0.0007446765666827,0.0988719761371612,0,0,0
2373,85812.40046153333,2010-11-30 10:24:00,2941.455846907111,7,8,-1.099568486213684,3.326279640197754,6.918934858516142,7.533866148130098,27.75999226869716,27.367663487384885,-0.0009713172912597,0.0988719761371612,0,0,0
2374,85842.41554823716,2010-11-30 10:24:30,2971.4709335908974,7,8,-1.0993878841400146,3.280627727508545,6.918934858516142,7.543033755158292,27.75999226869716,27.39795829651145,-0.0013598442310467,0.0988719761371612,0,0,0
2375,85872.4304123571,2010-11-30 10:25:00,3001.4857977158545,7,8,-1.0993878841400146,3.218139886856079,6.918934858516142,7.552201385723284,27.75999226869716,27.427762408573056,-0.0018455028766766,0.0988719761371612,0,0,0
2376,85902.44555686979,2010-11-30 10:25:30,3031.500942223533,7,8,-1.099568486213684,3.1278076171875,6.918934858516142,7.561369109471622,27.75999226869716,27.456877920028344,-0.0028491974808275,0.0988719761371612,0,0,0
2377,85932.46046962577,2010-11-30 10:26:00,3061.5158549995567,7,8,-1.0997490882873535,2.9855101108551025,6.918934858516142,7.570536724326365,27.75999226869716,27.48496067305194,-0.0048565864562988,0.0988719761371612,0,0,0
2378,85955.28824663087,2010-11-30 10:26:23,3084.34363197958,7,8,-1.099568486213684,2.785257577896118,6.918934858516142,7.577509136983665,27.75999226869716,27.505146138592835,-0.0087418081238865,0.0988719761371612,0,0,0
2379,85962.52249571646,2010-11-30 10:26:30,3091.577881070202,7,8,-1.099568486213684,2.699943780899048,6.918934858516142,7.579718739286603,27.75999226869716,27.511207428529183,-0.0095836166292428,0.0988719761371612,0,0,0
2380,86022.53713991537,2010-11-30 10:27:30,60.01440459258231,8,8,0.0,3.3764641284942627,6.918934858516142,7.579718739286603,27.75999226869716,27.511207428529183,0.0013598442310467,0.0988719761371612,0,0,0
2381,86022.72464048193,2010-11-30 10:27:30,0.185892190566525,9,8,-0.0003804616571869,3.3767879009246826,6.918934858516142,7.579718758932395,27.75999226869716,27.511207494868856,0.0,0.0947341993451118,0,0,0
2382,86027.53912161806,2010-11-30 10:27:35,5.000373406901018,9,8,0.0007031940040178,3.384396553039551,6.918935708115403,7.579718760571895,27.75999514139365,27.5112075004051,0.0011008263099938,0.0947341993451118,0,0,0
