Data_Point,Test_Time(s),Date_Time,Step_Time(s),Step_Index,Cycle_Index,Current(A),Voltage(V),Charge_Capacity(Ah),Discharge_Capacity(Ah),Charge_Energy(Wh),Discharge_Energy(Wh),dV/dt(V/s),Internal_Resistance(Ohm),Is_FC_Data,AC_Impedance(Ohm),ACI_Phase_Angle(Deg)
12675,458640.6319637624,2010-12-04 17:58:31,30.01507321025783,1,42,0.0,3.397671222686768,37.892007064236765,38.55721693005641,151.91408031070964,139.86024860814834,0.0007446765666827,0.0939245000481605,0,0,0
12676,458670.64703917806,2010-12-04 17:59:01,60.030148626003935,1,42,0.0,3.421792268753052,37.892007064236765,38.55721693005641,151.91408031070964,139.86024860814834,0.0005180359003134,0.0939245000481605,0,0,0
12677,458700.6621390648,2010-12-04 17:59:31,90.0452485377073,1,42,0.0,3.440247058868408,37.892007064236765,38.55721693005641,151.91408031070964,139.86024860814834,0.0004209041653666,0.0939245000481605,0,0,0
12678,458730.6303684559,2010-12-04 18:00:01,120.01347792892312,1,42,0.0,3.4551405906677246,37.892007064236765,38.55721693005641,151.91408031070964,139.86024860814834,0.0003885269106831,0.0939245000481605,0,0,0
12679,458760.6514387333,2010-12-04 18:00:31,30.01509273885399,2,42,0.5501165986061096,3.613464832305908,37.89659352955371,38.55721693005641,151.93049291056695,139.86024860814834,0.0015541076427325,0.0939245000481605,0,0,0
12680,458790.6689034748,2010-12-04 18:01:01,60.03255759061973,2,42,0.5501165986061096,3.659278631210327,37.90118049771143,38.55721693005641,151.9471792800822,139.86024860814834,0.0010684489971026,0.0939245000481605,0,0,0
12681,458820.6816208175,2010-12-04 18:01:31,90.04527482813,2,42,0.5501165986061096,3.69214129447937,37.90576665700052,38.55721693005641,151.96404020239262,139.86024860814834,0.0007770538213662,0.0939245000481605,0,0,0
12682,458850.69670739607,2010-12-04 18:02:01,120.06036140665424,2,42,0.550297200679779,3.718204975128174,37.91035318439303,38.55721693005641,151.98103623835593,139.86024860814834,0.0006151676061563,0.0939245000481605,0,0,0
12683,458880.7118002452,2010-12-04 18:02:31,150.07545425578266,2,42,0.5501165986061096,3.738926410675049,37.91493973459344,38.55721693005641,151.99813889798824,139.86024860814834,0.0004856586456298,0.0939245000481605,0,0,0
12684,458910.72690415184,2010-12-04 18:03:01,180.09055815741482,2,42,0.550297200679779,3.755276679992676,37.91952626131635,38.55721693005641,152.01532668946825,139.86024860814834,0.0003885269106831,0.0939245000481605,0,0,0
12685,458940.74196653016,2010-12-04 18:03:31,210.1056205407302,2,42,0.5501165986061096,3.766770601272583,37.92411282089724,38.55721693005641,152.03257860911705,139.86024860814834,0.0002590179501567,0.0939245000481605,0,0,0
12686,458970.7571880445,2010-12-04 18:04:01,240.12084205503697,2,42,0.5501165986061096,3.774217367172241,37.92869940889104,38.55721693005641,152.04987326689786,139.86024860814834,0.0001942634553415,0.0939245000481605,0,0,0
12687,459000.7721795664,2010-12-04 18:04:31,270.1358336572162,2,42,0.5501165986061096,3.77955961227417,37.93328597606452,38.55721693005641,152.06719641274523,139.86024860814834,0.0001295089750783,0.0939245000481605,0,0,0
12688,459030.78724766907,2010-12-04 18:05:02,300.15090167956413,2,42,0.5501165986061096,3.784092426300049,37.93787248878852,38.55721693005641,152.08454191371118,139.86024860814834,9.713172767078504e-05,0.0939245000481605,0,0,0
12689,459060.8047157037,2010-12-04 18:05:32,330.1683697994625,2,42,0.5501165986061096,3.7884633541107178,37.94245933625865,38.55721693005641,152.10190909627713,139.86024860814834,9.713172767078504e-05,0.0939245000481605,0,0,0
12690,459090.817495542,2010-12-04 18:06:02,360.1811496477774,2,42,0.5501165986061096,3.792510509490967,37.94704553789333,38.55721693005641,152.11929297600787,139.86024860814834,9.713172767078504e-05,0.0939245000481605,0,0,0
12691,459120.8325130837,2010-12-04 18:06:32,390.1961670942692,2,42,0.5501165986061096,3.796395778656006,37.95163207330462,38.55721693005641,152.13669641265568,139.86024860814834,9.713172767078504e-05,0.0939245000481605,0,0,0
12692,459150.8475964943,2010-12-04 18:07:02,420.2112504998978,2,42,0.550297200679779,3.800281047821045,37.95621857123659,38.55721693005641,152.15411724902935,139.86024860814834,0.0001618862152099,0.0939245000481605,0,0,0
12693,459180.86440571456,2010-12-04 18:07:32,450.2280598103743,2,42,0.5501165986061096,3.803842544555664,37.960805330007474,38.55721693005641,152.1715560891617,139.86024860814834,9.713172767078504e-05,0.0939245000481605,0,0,0
12694,459210.8777893053,2010-12-04 18:08:02,480.2414433409291,2,42,0.5499359965324402,3.807242155075073,37.96539159123154,38.55721693005641,152.18900962838188,139.86024860814834,9.713172767078504e-05,0.0939245000481605,0,0,0
12695,459240.89284846553,2010-12-04 18:08:32,510.2565024761618,2,42,0.5501165986061096,3.8109655380249023,37.96997816429046,38.55721693005641,152.20648058225157,139.86024860814834,9.713172767078504e-05,0.0939245000481605,0,0,0
12696,459270.9080754184,2010-12-04 18:09:02,540.2717294941643,2,42,0.550297200679779,3.8145270347595215,37.9745647466535,38.55721693005641,152.2239676306928,139.86024860814834,0.0001295089750783,0.0939245000481605,0,0,0
12697,459300.923022174,2010-12-04 18:09:32,570.2866761845825,2,42,0.5499359965324402,3.8177647590637207,37.979151264225614,38.55721693005641,152.2414703993707,139.86024860814834,9.713172767078504e-05,0.0939245000481605,0,0,0
12698,459330.9381175344,2010-12-04 18:10:02,600.3017715399475,2,42,0.5499359965324402,3.82132625579834,37.98373777745884,38.55721693005641,152.25898882302772,139.86024860814834,9.713172767078504e-05,0.0939245000481605,0,0,0
12699,459360.9532210802,2010-12-04 18:10:32,630.316875085694,2,42,0.5501165986061096,3.824725866317749,37.98832430534882,38.55721693005641,152.27652300338622,139.86024860814834,9.713172767078504e-05,0.0939245000481605,0,0,0
12700,459390.9683193327,2010-12-04 18:11:02,660.3319733934059,2,42,0.5501165986061096,3.828287363052368,37.99291086586586,38.55721693005641,152.29407323289718,139.86024860814834,0.0001295089750783,0.0939245000481605,0,0,0
12701,459420.9833929038,2010-12-04 18:11:32,690.3470469244621,2,42,0.5501165986061096,3.831686973571777,37.9974973932527,38.55721693005641,152.31163954294817,139.86024860814834,6.47544875391759e-05,0.0939245000481605,0,0,0
12702,459450.9984728058,2010-12-04 18:12:02,720.3621268113344,2,42,0.5501165986061096,3.8354101181030273,38.00208393216353,38.55721693005641,152.32922223363664,139.86024860814834,0.0001295089750783,0.0939245000481605,0,0,0
12703,459481.0135587177,2010-12-04 18:12:32,750.3772127282122,2,42,0.5501165986061096,3.8389716148376474,38.00667051560137,38.55721693005641,152.34682161755717,139.86024860814834,9.713172767078504e-05,0.0939245000481605,0,0,0
12704,459511.02865979227,2010-12-04 18:13:02,780.3923137977968,2,42,0.5499359965324402,3.8425331115722656,38.01125698871461,38.55721693005641,152.3644372025607,139.86024860814834,6.47544875391759e-05,0.0939245000481605,0,0,0
12705,459541.0438613068,2010-12-04 18:13:32,810.4075153173474,2,42,0.5499359965324402,3.8460946083068848,38.01584354179206,38.55721693005641,152.38206967681072,139.86024860814834,6.47544875391759e-05,0.0939245000481605,0,0,0
12706,459571.05884652806,2010-12-04 18:14:02,840.4225005386481,2,42,0.5499359965324402,3.849656105041504,38.020430043265456,38.55721693005641,152.39971851920535,139.86024860814834,9.713172767078504e-05,0.0939245000481605,0,0,0
12707,459601.0739151168,2010-12-04 18:14:32,870.4375691223929,2,42,0.550297200679779,3.853379487991333,38.02501661828906,38.55721693005641,152.417384022099,139.86024860814834,9.713172767078504e-05,0.0939245000481605,0,0,0
12708,459631.08905046165,2010-12-04 18:15:02,900.4527044973454,2,42,0.5499359965324402,3.856779098510742,38.02960315801269,38.55721693005641,152.43506542331946,139.86024860814834,6.47544875391759e-05,0.0939245000481605,0,0,0
12709,459661.1040945796,2010-12-04 18:15:32,930.467748585133,2,42,0.5499359965324402,3.860178709030152,38.03418966130192,38.55721693005641,152.45276259617572,139.86024860814834,6.47544875391759e-05,0.0939245000481605,0,0,0
12710,459691.1191922306,2010-12-04 18:16:02,960.4828462412232,2,42,0.550297200679779,3.863578319549561,38.03877618779404,38.55721693005641,152.47047535845144,139.86024860814834,9.713172767078504e-05,0.0939245000481605,0,0,0
12711,459721.13426823285,2010-12-04 18:16:32,990.4979222384164,2,42,0.5501165986061096,3.86681604385376,38.04336273524324,38.55721693005641,152.48820313066446,139.86024860814834,9.713172767078504e-05,0.0939245000481605,0,0,0
12712,459751.1494959776,2010-12-04 18:17:02,1020.51314998824,2,42,0.5501165986061096,3.870053768157959,38.047949322738674,38.55721693005641,152.50594564161145,139.86024860814834,9.713172767078504e-05,0.0939245000481605,0,0,0
12713,459781.1662552887,2010-12-04 18:17:32,1050.529909344407,2,42,0.5501165986061096,3.872805833816528,38.05253614229072,38.55721693005641,152.52370311579165,139.86024860814834,6.47544875391759e-05,0.0939245000481605,0,0,0
12714,459811.17953759234,2010-12-04 18:18:02,1080.5431916079629,2,42,0.5499359965324402,3.875719785690308,38.05712251079347,38.55721693005641,152.54147222538978,139.86024860814834,6.47544875391759e-05,0.0939245000481605,0,0,0
12715,459841.1946473736,2010-12-04 18:18:32,1110.5583013992511,2,42,0.5499359965324402,3.878471851348877,38.06170910163639,38.55721693005641,152.55925498162674,139.86024860814834,6.47544875391759e-05,0.0939245000481605,0,0,0
12716,459871.2097358168,2010-12-04 18:19:02,1140.5733898524404,2,42,0.5501165986061096,3.8812239170074463,38.06629565661265,38.55721693005641,152.577049705474,139.86024860814834,9.713172767078504e-05,0.0939245000481605,0,0,0
12717,459901.2247954984,2010-12-04 18:19:32,1170.588449503958,2,42,0.5499359965324402,3.883328437805176,38.070882236563534,38.55721693005641,152.59485599578375,139.86024860814834,0.0,0.0939245000481605,0,0,0
12718,459931.24001022585,2010-12-04 18:20:02,1200.6036642414008,2,42,0.5499359965324402,3.885756731033325,38.07546891230153,38.55721693005641,152.61267336673424,139.86024860814834,6.47544875391759e-05,0.0939245000481605,0,0,0
12719,459961.2549942942,2010-12-04 18:20:32,1230.6186483098325,2,42,0.550297200679779,3.887861251831055,38.08005552033262,38.55721693005641,152.63050058855006,139.86024860814834,6.47544875391759e-05,0.0939245000481605,0,0,0
12720,459991.2700747325,2010-12-04 18:21:02,1260.6337287430645,2,42,0.5499359965324402,3.889803886413574,38.084642105329536,38.55721693005641,152.64833725729682,139.86024860814834,6.47544875391759e-05,0.0939245000481605,0,0,0
12721,460021.28529810143,2010-12-04 18:21:32,1290.6489522022107,2,42,0.5501165986061096,3.891908407211304,38.08922871489067,38.55721693005641,152.6661830161076,139.86024860814834,6.47544875391759e-05,0.0939245000481605,0,0,0
12722,460051.3002712477,2010-12-04 18:22:02,1320.6639252833013,2,42,0.5501165986061096,3.893689155578613,38.09381525269222,38.55721693005641,152.6840370136235,139.86024860814834,9.713172767078504e-05,0.0939245000481605,0,0,0
12723,460081.3153386384,2010-12-04 18:22:32,1350.6789926490153,2,42,0.550297200679779,3.895146131515503,38.09840190483061,38.55721693005641,152.7018994578113,139.86024860814834,3.237724376958795e-05,0.0939245000481605,0,0,0
12724,460111.3304576928,2010-12-04 18:23:02,1380.694111703354,2,42,0.5501165986061096,3.8970887660980233,38.10298850365881,38.55721693005641,152.7197693745643,139.86024860814834,6.47544875391759e-05,0.0939245000481605,0,0,0
12725,460141.3457758777,2010-12-04 18:23:32,1410.7094299383466,2,42,0.550297200679779,3.898707628250122,38.10757515439058,38.55721693005641,152.73764710168973,139.86024860814834,6.47544875391759e-05,0.0939245000481605,0,0,0
12726,460171.3607276357,2010-12-04 18:24:02,1440.724381651263,2,42,0.5501165986061096,3.900164604187012,38.11216172162951,38.55721693005641,152.75553197100086,139.86024860814834,3.237724376958795e-05,0.0939245000481605,0,0,0
12727,460201.3756776093,2010-12-04 18:24:32,1470.7393316198386,2,42,0.5499359965324402,3.9017834663391113,38.116748245120746,38.55721693005641,152.77342389379015,139.86024860814834,3.237724376958795e-05,0.0939245000481605,0,0,0
12728,460231.3909115946,2010-12-04 18:25:02,1500.7545656051789,2,42,0.5501165986061096,3.903240442276001,38.12133486160602,38.55721693005641,152.79132337417585,139.86024860814834,3.237724376958795e-05,0.0939245000481605,0,0,0
12729,460261.4059992408,2010-12-04 18:25:32,1530.7696532463476,2,42,0.550297200679779,3.905021190643311,38.125921463064,38.55721693005641,152.80922993079295,139.86024860814834,9.713172767078504e-05,0.0939245000481605,0,0,0
12730,460291.4209420316,2010-12-04 18:26:02,1560.7845960470863,2,42,0.5501165986061096,3.9064781665802,38.13050801495655,38.55721693005641,152.82714319927635,139.86024860814834,6.47544875391759e-05,0.0939245000481605,0,0,0
12731,460321.4361530698,2010-12-04 18:26:32,1590.7998070803114,2,42,0.5501165986061096,3.90793514251709,38.13509458032052,38.55721693005641,152.84506354114512,139.86024860814834,3.237724376958795e-05,0.0939245000481605,0,0,0
12732,460351.45113704295,2010-12-04 18:27:02,1620.8147910535065,2,42,0.5501165986061096,3.90939211845398,38.13968110778628,38.55721693005641,152.86299071543482,139.86024860814834,3.237724376958795e-05,0.0939245000481605,0,0,0
12733,460381.4679874206,2010-12-04 18:27:32,1650.8316415414513,2,42,0.5499359965324402,3.910849094390869,38.14426796568069,38.55721693005641,152.88092616214513,139.86024860814834,6.47544875391759e-05,0.0939245000481605,0,0,0
12734,460411.4813174079,2010-12-04 18:28:02,1680.8449714184912,2,42,0.5501165986061096,3.9126298427581783,38.14885426101607,38.55721693005641,152.89886637263692,139.86024860814834,6.47544875391759e-05,0.0939245000481605,0,0,0
12735,460441.4963865781,2010-12-04 18:28:32,1710.8600405836833,2,42,0.5501165986061096,3.914086580276489,38.15344077656153,38.55721693005641,152.9168144071507,139.86024860814834,6.47544875391759e-05,0.0939245000481605,0,0,0
12736,460471.5115093918,2010-12-04 18:29:02,1740.8751634224398,2,42,0.5501165986061096,3.915543556213379,38.15802735724097,38.55721693005641,152.93476971750175,139.86024860814834,6.47544875391759e-05,0.0939245000481605,0,0,0
12737,460501.5265700208,2010-12-04 18:29:32,1770.890224186726,2,42,0.550297200679779,3.9171624183654794,38.16261382737154,38.55721693005641,152.95273140663934,139.86024860814834,6.47544875391759e-05,0.0939245000481605,0,0,0
12738,460531.5416539176,2010-12-04 18:30:02,1800.905307923178,2,42,0.5501165986061096,3.918619394302368,38.167200365040536,38.55721693005641,152.97070043869837,139.86024860814834,3.237724376958795e-05,0.0939245000481605,0,0,0
12739,460561.5567671274,2010-12-04 18:30:32,1830.9204211329727,2,42,0.5501165986061096,3.920076370239258,38.17178688983881,38.55721693005641,152.98867644122086,139.86024860814834,6.47544875391759e-05,0.0939245000481605,0,0,0
12740,460591.5718427788,2010-12-04 18:31:02,1860.935496784305,2,42,0.5501165986061096,3.921695232391357,38.1763734758763,38.55721693005641,153.00665970100002,139.86024860814834,3.237724376958795e-05,0.0939245000481605,0,0,0
12741,460621.5869161194,2010-12-04 18:31:32,1890.9505701349128,2,42,0.5501165986061096,3.923152208328247,38.18095995797577,38.55721693005641,153.02464960695255,139.86024860814834,0.0,0.0939245000481605,0,0,0
12742,460651.6021642248,2010-12-04 18:32:02,1920.9658182704657,2,42,0.5501165986061096,3.9247710704803462,38.18554655835722,38.55721693005641,153.0426470144109,139.86024860814834,3.237724376958795e-05,0.0939245000481605,0,0,0
12743,460681.6172419864,2010-12-04 18:32:32,1950.9808959919487,2,42,0.5501165986061096,3.926228046417236,38.190133123525584,38.55721693005641,153.0606513978393,139.86024860814834,3.237724376958795e-05,0.0939245000481605,0,0,0
12744,460711.6346596056,2010-12-04 18:33:02,1980.998313731478,2,42,0.5501165986061096,3.927846908569336,38.19472003335764,38.55721693005641,153.07866423987494,139.86024860814834,6.47544875391759e-05,0.0939245000481605,0,0,0
12745,460741.6472975057,2010-12-04 18:33:32,2011.0109516215352,2,42,0.5499359965324402,3.929141998291016,38.19930623734307,38.55721693005641,153.0966814615909,139.86024860814834,0.0,0.0939245000481605,0,0,0
12746,460771.6624966443,2010-12-04 18:34:02,2041.026150720061,2,42,0.5499359965324402,3.930922746658325,38.203892814656776,38.55721693005641,153.11470736867622,139.86024860814834,3.237724376958795e-05,0.0939245000481605,0,0,0
12747,460801.6774521968,2010-12-04 18:34:32,2071.04110620737,2,42,0.5501165986061096,3.932541608810425,38.20847936823472,38.55721693005641,153.13274030708385,139.86024860814834,6.47544875391759e-05,0.0939245000481605,0,0,0
12748,460831.6925875717,2010-12-04 18:35:02,2101.0562416675343,2,42,0.5499359965324402,3.9339985847473145,38.2130659867219,38.55721693005641,153.1507808280637,139.86024860814834,3.237724376958795e-05,0.0939245000481605,0,0,0
12749,460861.70762697794,2010-12-04 18:35:32,2131.07128098846,2,42,0.550297200679779,3.935617446899414,38.217652570979055,38.55721693005641,153.16882856354022,139.86024860814834,3.237724376958795e-05,0.0939245000481605,0,0,0
12750,460891.722899434,2010-12-04 18:36:02,2161.086553514708,2,42,0.5499359965324402,3.9372363090515137,38.22223919089871,38.55721693005641,153.18688365385844,139.86024860814834,3.237724376958795e-05,0.0939245000481605,0,0,0
12751,460921.7377992026,2010-12-04 18:36:32,2191.101453223213,2,42,0.5501165986061096,3.9390170574188232,38.226825681474594,38.55721693005641,153.20494565526192,139.86024860814834,6.47544875391759e-05,0.0939245000481605,0,0,0
12752,460951.7530355038,2010-12-04 18:37:03,2221.1166895142915,2,42,0.5501165986061096,3.940474033355713,38.231412152054816,38.55721693005641,153.2230149011969,139.86024860814834,6.47544875391759e-05,0.0939245000481605,0,0,0
12753,460981.7704246822,2010-12-04 18:37:33,2251.134078792996,2,42,0.5499359965324402,3.942092895507813,38.23599903920475,38.55721693005641,153.2410932240742,139.86024860814834,6.47544875391759e-05,0.0939245000481605,0,0,0
12754,461011.7830840958,2010-12-04 18:38:03,2281.146738106365,2,42,0.5501165986061096,3.943711757659912,38.240585089214015,38.55721693005641,153.2591756503685,139.86024860814834,6.47544875391759e-05,0.0939245000481605,0,0,0
12755,461041.7981650303,2010-12-04 18:38:33,2311.1618190358317,2,42,0.5501165986061096,3.945330619812012,38.245171592473895,38.55721693005641,153.27726731519144,139.86024860814834,3.237724376958795e-05,0.0939245000481605,0,0,0
12756,461071.8132704156,2010-12-04 18:39:03,2341.176924426168,2,42,0.550297200679779,3.9469494819641113,38.2497581732345,38.55721693005641,153.29536674555794,139.86024860814834,6.47544875391759e-05,0.0939245000481605,0,0,0
12757,461101.8283761668,2010-12-04 18:39:33,2371.192030197453,2,42,0.550297200679779,3.948730230331421,38.25434476790702,38.55721693005641,153.3134736917665,139.86024860814834,6.47544875391759e-05,0.0939245000481605,0,0,0
12758,461131.8435639422,2010-12-04 18:40:03,2401.207217952752,2,42,0.5501165986061096,3.950187206268311,38.258931354539136,38.55721693005641,153.33158810293,139.86024860814834,3.237724376958795e-05,0.0939245000481605,0,0,0
12759,461161.8586509317,2010-12-04 18:40:33,2431.2223049422987,2,42,0.5501165986061096,3.95196795463562,38.26351796519136,38.55721693005641,153.34971024103083,139.86024860814834,6.47544875391759e-05,0.0939245000481605,0,0,0
12760,461191.87385921314,2010-12-04 18:41:03,2461.2375132286884,2,42,0.5499359965324402,3.95358681678772,38.26810455012965,38.55721693005641,153.36783985495435,139.86024860814834,6.47544875391759e-05,0.0939245000481605,0,0,0
12761,461221.88885155215,2010-12-04 18:41:33,2491.252505627851,2,42,0.550297200679779,3.955367565155029,38.272691110694105,38.55721693005641,153.38597708282524,139.86024860814834,6.47544875391759e-05,0.0939245000481605,0,0,0
12762,461251.9037905283,2010-12-04 18:42:03,2521.267444533898,2,42,0.5501165986061096,3.956824541091919,38.277277637968105,38.55721693005641,153.40412196309308,139.86024860814834,3.237724376958795e-05,0.0939245000481605,0,0,0
12763,461281.9190174611,2010-12-04 18:42:33,2551.2826714717007,2,42,0.5501165986061096,3.958605289459229,38.2818642649236,38.55721693005641,153.42227490172897,139.86024860814834,3.237724376958795e-05,0.0939245000481605,0,0,0
12764,461311.9340037802,2010-12-04 18:43:03,2581.297657810783,2,42,0.550297200679779,3.960386037826538,38.286450819435245,38.55721693005641,153.44043542900917,139.86024860814834,6.47544875391759e-05,0.0939245000481605,0,0,0
12765,461341.9490726997,2010-12-04 18:43:33,2611.3127267153263,2,42,0.5501165986061096,3.9620048999786377,38.2910374436807,38.55721693005641,153.4586041898141,139.86024860814834,0.0,0.0939245000481605,0,0,0
12766,461371.9642818683,2010-12-04 18:44:03,2641.327935878898,2,42,0.550297200679779,3.963947534561157,38.29562409287817,38.55721693005641,153.4767809136314,139.86024860814834,6.47544875391759e-05,0.0939245000481605,0,0,0
12767,461401.9792478618,2010-12-04 18:44:33,2671.3429018673387,2,42,0.5501165986061096,3.965566396713257,38.30021069226585,38.55721693005641,153.4949654907837,139.86024860814834,3.237724376958795e-05,0.0939245000481605,0,0,0
12768,461431.9943587007,2010-12-04 18:45:03,2701.3580127062346,2,42,0.5501165986061096,3.9673471450805664,38.30479726498567,38.55721693005641,153.51315806533086,139.86024860814834,6.47544875391759e-05,0.0939245000481605,0,0,0
12769,461462.0094313395,2010-12-04 18:45:33,2731.37308534507,2,42,0.5499359965324402,3.969127893447876,38.309383903207525,38.55721693005641,153.53135891379188,139.86024860814834,6.47544875391759e-05,0.0939245000481605,0,0,0
12770,461492.0246567234,2010-12-04 18:46:03,2761.388310739032,2,42,0.5501165986061096,3.971070528030396,38.31397056330074,38.55721693005641,153.54956806341167,139.86024860814834,6.47544875391759e-05,0.0939245000481605,0,0,0
12771,461522.0396293484,2010-12-04 18:46:33,2791.4032833639867,2,42,0.550297200679779,3.972689390182495,38.31855714156782,38.55721693005641,153.56778514338637,139.86024860814834,6.47544875391759e-05,0.0939245000481605,0,0,0
12772,461552.05474524986,2010-12-04 18:47:03,2821.4183993256297,2,42,0.5499359965324402,3.974632024765015,38.32314382791611,38.55721693005641,153.58601097043928,139.86024860814834,6.47544875391759e-05,0.0939245000481605,0,0,0
12773,461582.0716421433,2010-12-04 18:47:33,2851.4352962491275,2,42,0.5499359965324402,3.976250886917114,38.32773074327064,38.55721693005641,153.6042460911052,139.86024860814834,3.237724376958795e-05,0.0939245000481605,0,0,0
12774,461612.0849094196,2010-12-04 18:48:03,2881.448563435164,2,42,0.5501165986061096,3.978031635284424,38.332317121453976,38.55721693005641,153.62248738842354,139.86024860814834,3.237724376958795e-05,0.0939245000481605,0,0,0
12775,461642.099989512,2010-12-04 18:48:33,2911.4636435225348,2,42,0.5501165986061096,3.9802980422973633,38.33690361659364,38.55721693005641,153.6407378830796,139.86024860814834,9.713172767078504e-05,0.0939245000481605,0,0,0
12776,461672.1155514434,2010-12-04 18:49:03,2941.479205458969,2,42,0.5501165986061096,3.982240676879883,38.341490224770105,38.55721693005641,153.65899772505264,139.86024860814834,6.47544875391759e-05,0.0939245000481605,0,0,0
12777,461702.13018563617,2010-12-04 18:49:33,2971.493839646736,2,42,0.5501165986061096,3.984021425247192,38.34607668990101,38.55721693005641,153.67726577033076,139.86024860814834,3.237724376958795e-05,0.0939245000481605,0,0,0
12778,461732.1454150852,2010-12-04 18:50:03,3001.5090692060626,2,42,0.5501165986061096,3.985964059829712,38.35066321145192,38.55721693005641,153.6955429667357,139.86024860814834,3.237724376958795e-05,0.0939245000481605,0,0,0
12779,461762.1603096961,2010-12-04 18:50:33,3031.5239637266586,2,42,0.550297200679779,3.9880685806274414,38.355249774601,38.55721693005641,153.71382937596627,139.86024860814834,6.47544875391759e-05,0.0939245000481605,0,0,0
12780,461792.17542164266,2010-12-04 18:51:03,3061.53907567331,2,42,0.5501165986061096,3.989849328994751,38.3598362948455,38.55721693005641,153.73212459317108,139.86024860814834,0.0,0.0939245000481605,0,0,0
12781,461822.1905440504,2010-12-04 18:51:33,3091.554198086006,2,42,0.5501165986061096,3.991953849792481,38.364422834343706,38.55721693005641,153.75042910849405,139.86024860814834,3.237724376958795e-05,0.0939245000481605,0,0,0
12782,461852.2056399672,2010-12-04 18:52:03,3121.5692939777064,2,42,0.5499359965324402,3.993896484375,38.36900941961726,38.55721693005641,153.76874311779204,139.86024860814834,3.237724376958795e-05,0.0939245000481605,0,0,0
12783,461882.2207586104,2010-12-04 18:52:33,3151.584412716259,2,42,0.5501165986061096,3.9960007667541504,38.37359605126682,38.55721693005641,153.787066743817,139.86024860814834,6.47544875391759e-05,0.0939245000481605,0,0,0
12784,461912.23599333264,2010-12-04 18:53:03,3181.599647353222,2,42,0.5501165986061096,3.99826717376709,38.37818278441608,38.55721693005641,153.80540031169568,139.86024860814834,9.713172767078504e-05,0.0939245000481605,0,0,0
12785,461942.2510863021,2010-12-04 18:53:33,3211.614740417886,2,42,0.5501165986061096,4.000209808349609,38.38276943595034,38.55721693005641,153.8237430477814,139.86024860814834,6.47544875391759e-05,0.0939245000481605,0,0,0
12786,461972.2661108964,2010-12-04 18:54:03,3241.629764931965,2,42,0.5499359965324402,4.002152442932129,38.38735599422076,38.55721693005641,153.8420952082601,139.86024860814834,0.0,0.0939245000481605,0,0,0
12787,462002.28108752624,2010-12-04 18:54:33,3271.6447416069987,2,42,0.550297200679779,4.004418849945068,38.39194260944311,38.55721693005641,153.8604574734108,139.86024860814834,6.47544875391759e-05,0.0939245000481605,0,0,0
12788,462032.2962122798,2010-12-04 18:55:03,3301.6598662903457,2,42,0.5501165986061096,4.006847381591797,38.39652923282032,38.55721693005641,153.8788297079775,139.86024860814834,9.71794142969884e-05,0.0939245000481605,0,0,0
12789,462062.3115822635,2010-12-04 18:55:33,3331.67523636935,2,42,0.5501165986061096,4.008951663970947,38.40111584328831,38.55721693005641,153.89721207453331,139.86024860814834,6.47544875391759e-05,0.0939245000481605,0,0,0
12790,462092.326537821,2010-12-04 18:56:03,3361.690191841621,2,42,0.5501165986061096,4.011056423187256,38.405702436142576,38.55721693005641,153.91560452640206,139.86024860814834,3.24249267578125e-05,0.0939245000481605,0,0,0
12791,462122.3414925364,2010-12-04 18:56:33,3391.7051465519967,2,42,0.5499359965324402,4.013322830200195,38.41028903618295,38.55721693005641,153.9340074074134,139.86024860814834,3.24249267578125e-05,0.0939245000481605,0,0,0
12792,462152.3566144428,2010-12-04 18:57:03,3421.720268478483,2,42,0.5501165986061096,4.015750885009766,38.41487571650638,38.55721693005641,153.95242106759284,139.86024860814834,6.47544875391759e-05,0.0939245000481605,0,0,0
12793,462182.3734719934,2010-12-04 18:57:33,3451.73712610419,2,42,0.5499359965324402,4.018017292022705,38.419462675841466,38.55721693005641,153.97084637073652,139.86024860814834,6.47544875391759e-05,0.0939245000481605,0,0,0
12794,462212.3867802015,2010-12-04 18:58:03,3481.750434217071,2,42,0.5501165986061096,4.020445823669434,38.42404909199449,38.55721693005641,153.98928005338473,139.86024860814834,9.71794142969884e-05,0.0939245000481605,0,0,0
12795,462242.4018627199,2010-12-04 18:58:33,3511.7655167304792,2,42,0.5501165986061096,4.022712230682373,38.42863573262619,38.55721693005641,154.00772544569278,139.86024860814834,9.71794142969884e-05,0.0939245000481605,0,0,0
12796,462272.4169742906,2010-12-04 18:59:03,3541.780628301196,2,42,0.550297200679779,4.025140285491943,38.43322242560895,38.55721693005641,154.0261819064153,139.86024860814834,6.47544875391759e-05,0.0939245000481605,0,0,0
12797,462302.4320493956,2010-12-04 18:59:33,3571.7957034061687,2,42,0.5501165986061096,4.027568817138672,38.43780909329264,38.55721693005641,154.04464919988183,139.86024860814834,6.47544875391759e-05,0.0939245000481605,0,0,0
12798,462332.4471587909,2010-12-04 19:00:03,3601.8108128114964,2,42,0.5501165986061096,4.029996871948242,38.44239575734307,38.55721693005641,154.06312751310344,139.86024860814834,6.47544875391759e-05,0.0939245000481605,0,0,0
12799,462362.4622637051,2010-12-04 19:00:33,3631.825917740686,2,42,0.5501165986061096,4.032263278961182,38.446982439038365,38.55721693005641,154.0816169975337,139.86024860814834,3.23295607813634e-05,0.0939245000481605,0,0,0
12800,462392.477415521,2010-12-04 19:01:03,3661.84106959665,2,42,0.5501165986061096,4.034853458404541,38.45156910421951,38.55721693005641,154.1001176649217,139.86024860814834,6.47544875391759e-05,0.0939245000481605,0,0,0
12801,462422.4925468258,2010-12-04 19:01:33,3691.856200856362,2,42,0.5499359965324402,4.0374436378479,38.45615570778767,38.55721693005641,154.11862948142266,139.86024860814834,0.0001295089750783,0.0939245000481605,0,0,0
12802,462452.5075168592,2010-12-04 19:02:03,3721.8711708698174,2,42,0.5501165986061096,4.039871692657471,38.46074240044612,38.55721693005641,154.13715322460595,139.86024860814834,9.70840483205393e-05,0.0939245000481605,0,0,0
12803,462482.5227364438,2010-12-04 19:02:33,3751.886390454323,2,42,0.5501165986061096,4.04246187210083,38.46532909250237,38.55721693005641,154.15568847362894,139.86024860814834,9.70840483205393e-05,0.0939245000481605,0,0,0
12804,462512.53784541297,2010-12-04 19:03:03,3781.9014994285785,2,42,0.5501165986061096,4.044890403747559,38.46991575232943,38.55721693005641,154.17423538481148,139.86024860814834,3.24249267578125e-05,0.0939245000481605,0,0,0
12805,462542.55281860434,2010-12-04 19:03:33,3811.9164726199433,2,42,0.5497553944587708,4.047318458557129,38.47450240271167,38.55721693005641,154.19279402506857,139.86024860814834,3.23295607813634e-05,0.0939245000481605,0,0,0
12806,462572.5680630106,2010-12-04 19:04:03,3841.931717051277,2,42,0.5501165986061096,4.050070762634277,38.47908903168621,38.55721693005641,154.2113644882721,139.86024860814834,6.47544875391759e-05,0.0939245000481605,0,0,0
12807,462602.5829866186,2010-12-04 19:04:33,3871.946640659256,2,42,0.550297200679779,4.052822589874268,38.48367565329144,38.55721693005641,154.22994682584027,139.86024860814834,6.47544875391759e-05,0.0939245000481605,0,0,0
12808,462632.6004993295,2010-12-04 19:05:03,3901.9641534302673,2,42,0.5501165986061096,4.055412769317627,38.48826273495617,38.55721693005641,154.2485432115952,139.86024860814834,6.47544875391759e-05,0.0939245000481605,0,0,0
12809,462662.61321533896,2010-12-04 19:05:33,3931.976869444733,2,42,0.5501165986061096,4.058002948760986,38.49284911556226,38.55721693005641,154.2671489775509,139.86024860814834,6.47544875391759e-05,0.0939245000481605,0,0,0
12810,462692.62840496894,2010-12-04 19:06:03,3961.9920589894855,2,42,0.5499359965324402,4.060593128204346,38.497435819286565,38.55721693005641,154.2857684328424,139.86024860814834,3.23295607813634e-05,0.0939245000481605,0,0,0
12811,462722.6433649274,2010-12-04 19:06:33,3992.007018942908,2,42,0.5501165986061096,4.063507080078125,38.50202239585284,38.55721693005641,154.304399397061,139.86024860814834,6.47544875391759e-05,0.0939245000481605,0,0,0
12812,462752.6584733051,2010-12-04 19:07:03,4022.022127315666,2,42,0.5499359965324402,4.066097259521484,38.50660905161781,38.55721693005641,154.3230433741163,139.86024860814834,6.47544875391759e-05,0.0939245000481605,0,0,0
12813,462782.6754556813,2010-12-04 19:07:33,4052.0391098121095,2,42,0.5501165986061096,4.069173336029053,38.51119601832021,38.55721693005641,154.34170128579663,139.86024860814834,0.0001295089750783,0.0939245000481605,0,0,0
12814,462812.6886461564,2010-12-04 19:08:03,4082.052300171966,2,42,0.550297200679779,4.071763515472412,38.51578239653699,38.55721693005641,154.36036954617103,139.86024860814834,9.71794142969884e-05,0.0939245000481605,0,0,0
12815,462842.7037335068,2010-12-04 19:08:33,4112.067387622661,2,42,0.5501165986061096,4.074677467346191,38.52036902308327,38.55721693005641,154.3790516392433,139.86024860814834,0.0001295089750783,0.0939245000481605,0,0,0
12816,462872.7188768967,2010-12-04 19:09:04,4142.08253093737,2,42,0.5501165986061096,4.077429294586182,38.52495568550537,38.55721693005641,154.39774697107123,139.86024860814834,6.47544875391759e-05,0.0939245000481605,0,0,0
12817,462902.7362802655,2010-12-04 19:09:34,4172.0999344063885,2,42,0.5501165986061096,4.080343246459961,38.52954273855924,38.55721693005641,154.41645703028644,139.86024860814834,9.70840483205393e-05,0.0939245000481605,0,0,0
12818,462932.7490360539,2010-12-04 19:10:04,4202.112690064507,2,42,0.5501165986061096,4.08325719833374,38.53412903702059,38.55721693005641,154.43517715781772,139.86024860814834,9.70840483205393e-05,0.0939245000481605,0,0,0
12819,462962.76411329926,2010-12-04 19:10:34,4232.127767309806,2,42,0.5501165986061096,4.08617115020752,38.53871559425919,38.55721693005641,154.45391169779307,139.86024860814834,9.70840483205393e-05,0.0939245000481605,0,0,0
12820,462992.7793590488,2010-12-04 19:11:04,4262.143013039371,2,42,0.5497553944587708,4.089085102081299,38.54330224769435,38.55721693005641,154.4726601425149,139.86024860814834,6.47544875391759e-05,0.0939245000481605,0,0,0
12821,463022.7942928171,2010-12-04 19:11:34,4292.157946827682,2,42,0.5501165986061096,4.092161178588867,38.54788888361425,38.55721693005641,154.4914220851942,139.86024860814834,9.71794142969884e-05,0.0939245000481605,0,0,0
12822,463052.80934384215,2010-12-04 19:12:04,4322.172997852734,2,42,0.5501165986061096,4.095075130462647,38.55247619559787,38.55721693005641,154.51020044906173,139.86024860814834,9.71794142969884e-05,0.0939245000481605,0,0,0
12823,463082.8244489318,2010-12-04 19:12:34,4352.188102942321,2,42,0.5501165986061096,4.097989082336426,38.55706364130895,38.55721693005641,154.52899310835252,139.86024860814834,9.71794142969884e-05,0.0939245000481605,0,0,0
12824,463112.8396571079,2010-12-04 19:13:04,4382.203311208662,2,42,0.5501165986061096,4.101064682006836,38.56165093081645,38.55721693005641,154.54779900828365,139.86024860814834,6.47544875391759e-05,0.0939245000481605,0,0,0
12825,463142.8546422339,2010-12-04 19:13:34,4412.218296244501,2,42,0.5501165986061096,4.104140758514404,38.56623836718757,38.55721693005641,154.5666194842083,139.86024860814834,6.47544875391759e-05,0.0939245000481605,0,0,0
12826,463172.8697355642,2010-12-04 19:14:04,4442.233389574827,2,42,0.5501165986061096,4.107054710388184,38.57082577624834,38.55721693005641,154.58545400964564,139.86024860814834,3.24249267578125e-05,0.0939245000481605,0,0,0
12827,463202.8848761472,2010-12-04 19:14:34,4472.248530227914,2,42,0.550297200679779,4.110292434692383,38.575413221845245,38.55721693005641,154.60430288186785,139.86024860814834,9.71794142969884e-05,0.0939245000481605,0,0,0
12828,463232.8999618134,2010-12-04 19:15:04,4502.26361589918,2,42,0.550297200679779,4.113691806793213,38.580000175321565,38.55721693005641,154.62316406849473,139.86024860814834,9.70840483205393e-05,0.0939245000481605,0,0,0
12829,463262.915017074,2010-12-04 19:15:34,4532.278671084584,2,42,0.5501165986061096,4.116767406463623,38.58458700236689,38.55721693005641,154.64203923213225,139.86024860814834,9.70840483205393e-05,0.0939245000481605,0,0,0
12830,463292.9302518313,2010-12-04 19:16:04,4562.293905841845,2,42,0.5501165986061096,4.119843482971191,38.58917381546059,38.55721693005641,154.66092892971994,139.86024860814834,9.71794142969884e-05,0.0939245000481605,0,0,0
12831,463322.9452118399,2010-12-04 19:16:34,4592.308865850405,2,42,0.5501165986061096,4.122919082641602,38.59376058708367,38.55721693005641,154.67983319266835,139.86024860814834,6.47544875391759e-05,0.0939245000481605,0,0,0
12832,463352.9603032503,2010-12-04 19:17:04,4622.323957260954,2,42,0.5501165986061096,4.126480579376221,38.59834741195942,38.55721693005641,154.69875247650393,139.86024860814834,9.70840483205393e-05,0.0939245000481605,0,0,0
12833,463382.9773236912,2010-12-04 19:17:34,4652.340977802069,2,42,0.5501165986061096,4.129556655883789,38.60293452609576,38.55721693005641,154.71768790182554,139.86024860814834,6.47544875391759e-05,0.0939245000481605,0,0,0
12834,463412.9905102867,2010-12-04 19:18:04,4682.354164322372,2,42,0.550297200679779,4.132956027984619,38.607521035423886,38.55721693005641,154.73663598387623,139.86024860814834,9.70840483205393e-05,0.0939245000481605,0,0,0
12835,463443.0057031397,2010-12-04 19:18:34,4712.369357215456,2,42,0.5501165986061096,4.136193752288818,38.6121078696306,38.55721693005641,154.75560050716078,139.86024860814834,9.70840483205393e-05,0.0939245000481605,0,0,0
12836,463473.02084747696,2010-12-04 19:19:04,4742.384501577772,2,42,0.5501165986061096,4.139431476593018,38.616694719452845,38.55721693005641,154.77458042298912,139.86024860814834,6.47544875391759e-05,0.0939245000481605,0,0,0
12837,463503.0357645085,2010-12-04 19:19:34,4772.3994185191605,2,42,0.5501165986061096,4.142992973327637,38.62128154654182,38.55721693005641,154.7935756498747,139.86024860814834,6.47544875391759e-05,0.0939245000481605,0,0,0
12838,463533.05089325714,2010-12-04 19:20:04,4802.414547277649,2,42,0.5501165986061096,4.146392822265625,38.62586842573282,38.55721693005641,154.8125867761743,139.86024860814834,9.71794142969884e-05,0.0939245000481605,0,0,0
12839,463563.0659565426,2010-12-04 19:20:34,4832.429610563209,2,42,0.5501165986061096,4.149792194366455,38.63045515427287,38.55721693005641,154.83161303571492,139.86024860814834,9.70840483205393e-05,0.0939245000481605,0,0,0
12840,463593.0813691474,2010-12-04 19:21:04,4862.445023223175,2,42,0.550297200679779,4.153353691101074,38.6350419802126,38.55721693005641,154.85065536251054,139.86024860814834,0.0001295089750783,0.0939245000481605,0,0,0
12841,463623.0961543009,2010-12-04 19:21:34,4892.459808321477,2,42,0.5501165986061096,4.156591415405273,38.63962867535157,38.55721693005641,154.8697127502975,139.86024860814834,6.47544875391759e-05,0.0939245000481605,0,0,0
12842,463653.1113551838,2010-12-04 19:22:04,4922.475009194419,2,42,0.5501165986061096,4.160315036773682,38.64421543301086,38.55721693005641,154.8887862680821,139.86024860814834,0.0001295089750783,0.0939245000481605,0,0,0
12843,463683.12631697184,2010-12-04 19:22:34,4952.489970987419,2,42,0.5501165986061096,4.163714408874512,38.64880218660234,38.55721693005641,154.90787586712867,139.86024860814834,0.0001295089750783,0.0939245000481605,0,0,0
12844,463713.1414463319,2010-12-04 19:23:04,4982.505100352416,2,42,0.5501165986061096,4.1671142578125,38.65338890793825,38.55721693005641,154.92698142045364,139.86024860814834,6.47544875391759e-05,0.0939245000481605,0,0,0
12845,463743.1565092364,2010-12-04 19:23:34,5012.520163247003,2,42,0.5501165986061096,4.170675754547119,38.65797567754796,38.55721693005641,154.94610347583014,139.86024860814834,9.71794142969884e-05,0.0939245000481605,0,0,0
12846,463773.1715996144,2010-12-04 19:24:04,5042.535253624982,2,42,0.5501165986061096,4.174237251281738,38.66256240723725,38.55721693005641,154.9652416943909,139.86024860814834,6.47544875391759e-05,0.0939245000481605,0,0,0
12847,463803.1866963132,2010-12-04 19:24:34,5072.5503503236905,2,42,0.5499359965324402,4.177636623382568,38.66714916403787,38.55721693005641,154.9843963893501,139.86024860814834,6.47544875391759e-05,0.0939245000481605,0,0,0
12848,463833.2018942337,2010-12-04 19:25:04,5102.565548364584,2,42,0.5501165986061096,4.181521892547607,38.67173592547375,38.55721693005641,155.0035676433358,139.86024860814834,0.0001295089750783,0.0939245000481605,0,0,0
12849,463863.21702409495,2010-12-04 19:25:34,5132.580678210778,2,42,0.5501165986061096,4.185083389282227,38.67632275790472,38.55721693005641,155.02275592710626,139.86024860814834,9.70840483205393e-05,0.0939245000481605,0,0,0
12850,463893.2319762039,2010-12-04 19:26:04,5162.595630214419,2,42,0.5499359965324402,4.188807010650635,38.68090949444613,38.55721693005641,155.04196055171352,139.86024860814834,9.71794142969884e-05,0.0939245000481605,0,0,0
12851,463923.2470868974,2010-12-04 19:26:34,5192.610740922989,2,42,0.550297200679779,4.192530155181885,38.68549624500441,38.55721693005641,155.06118211367516,139.86024860814834,9.70840483205393e-05,0.0939245000481605,0,0,0
12852,463953.26218345074,2010-12-04 19:27:04,5222.625837461298,2,42,0.5501165986061096,4.196091651916504,38.69008298991374,38.55721693005641,155.0804205566247,139.86024860814834,6.47544875391759e-05,0.0939245000481605,0,0,0
12853,463983.2794145007,2010-12-04 19:27:34,5252.643068611506,2,42,0.5501165986061096,4.199976921081543,38.69467004647411,38.55721693005641,155.09967735802545,139.86024860814834,0.0001295089750783,0.0939245000481605,0,0,0
12854,463983.4803935693,2010-12-04 19:27:34,5252.844047584952,2,42,0.550297200679779,4.200138568878174,38.694700758495244,38.55721693005641,155.09980634570329,139.86024860814834,0.0001295089750783,0.0939245000481605,0,0,0
12855,464013.4994262542,2010-12-04 19:28:04,30.01334720014806,3,42,0.0,4.113530158996582,38.694700758495244,38.55721693005641,155.09980634570329,139.86024860814834,-0.0003884315374307,0.0939245000481605,0,0,0
12856,464043.51461852575,2010-12-04 19:28:34,60.028539481710254,3,42,0.0,4.102845668792725,38.694700758495244,38.55721693005641,155.09980634570329,139.86024860814834,-0.0001618385285837,0.0939245000481605,0,0,0
12857,464073.529600524,2010-12-04 19:29:04,90.0435214799906,3,42,0.0,4.096370220184326,38.694700758495244,38.55721693005641,155.09980634570329,139.86024860814834,-0.0001618385285837,0.0939245000481605,0,0,0
12858,464103.49781212094,2010-12-04 19:29:34,120.01173307191355,3,42,0.0,4.091999053955078,38.694700758495244,38.55721693005641,155.09980634570329,139.86024860814834,-0.0001295089750783,0.0939245000481605,0,0,0
12859,464103.5056427321,2010-12-04 19:29:35,2.566386354e-06,4,42,0.0001613661734154,4.091999053955078,38.694700758495365,38.55721693005641,155.09980634570377,139.86024860814834,0.0,0.0939245000481605,0,0,0
12860,464133.5286815077,2010-12-04 19:30:05,30.015247569143217,5,42,0.0,4.089247226715088,38.694700758495365,38.55721693005641,155.09980634570377,139.86024860814834,-6.47544875391759e-05,0.0939245000481605,0,0,0
12861,464163.5281310842,2010-12-04 19:30:35,60.01469716563911,5,42,0.0,4.087142467498779,38.694700758495365,38.55721693005641,155.09980634570377,139.86024860814834,-6.47544875391759e-05,0.0939245000481605,0,0,0
12862,464163.70869676,2010-12-04 19:30:35,0.187426523695504,6,42,-1.9243103452026844e-05,4.087304592132568,38.694700758495365,38.55721693105826,155.09980634570377,139.86024861224325,0.0,0.0977962836623191,0,0,0
12863,464168.5367152332,2010-12-04 19:30:40,5.015444996973237,6,42,0.0007031940040178,4.086818695068359,38.694701649246426,38.557216931152624,155.09980998629362,139.8602486126289,-6.47544875391759e-05,0.0977962836623191,0,0,0
12864,464198.5451774827,2010-12-04 19:31:10,30.01508698453459,7,42,-1.0997490882873535,3.9127917289733887,38.694701649246426,38.56638623050329,155.09980998629362,139.89631657218513,-0.0009065151098184,0.0977962836623191,0,0,0
12865,464228.5603880598,2010-12-04 19:31:40,60.03029766187397,7,42,-1.0997490882873535,3.887051820755005,38.694701649246426,38.57555549954699,155.09980998629362,139.9320672641857,-0.0005504131549969,0.0977962836623191,0,0,0
12866,464258.57536652434,2010-12-04 19:32:10,90.04527602611113,7,42,-1.0997490882873535,3.869406223297119,38.694701649246426,38.58472469412434,155.09980998629362,139.96762292879296,-0.0004209041653666,0.0977962836623191,0,0,0
12867,464288.59057989327,2010-12-04 19:32:40,120.06048940517366,7,42,-1.099929690361023,3.8551602363586426,38.694701649246426,38.59389397477062,155.09980998629362,140.00303541458496,-0.0003561496851034,0.0977962836623191,0,0,0
12868,464318.6056506173,2010-12-04 19:33:10,150.07556014428212,7,42,-1.0997490882873535,3.843666315078736,38.694701649246426,38.60306313492698,155.09980998629362,140.0383304929632,-0.0002590179501567,0.0977962836623191,0,0,0
12869,464348.6207625591,2010-12-04 19:33:40,180.09067208090903,7,42,-1.0997490882873535,3.833305597305298,38.694701649246426,38.61223239912453,155.09980998629362,140.07352486808264,-0.0002266406954731,0.0977962836623191,0,0,0
12870,464378.6377140884,2010-12-04 19:34:10,210.10762369049132,7,42,-1.0997490882873535,3.823430776596069,38.694701649246426,38.62140218568577,155.09980998629362,140.10862915365493,-0.0002913951757363,0.0977962836623191,0,0,0
12871,464408.65086257405,2010-12-04 19:34:40,240.12077208592152,7,42,-1.099929690361023,3.8142032623291016,38.694701649246426,38.63057071936001,155.09980998629362,140.14364239960153,-0.0002590179501567,0.0977962836623191,0,0,0
12872,464438.666024465,2010-12-04 19:35:10,270.1359340520449,7,42,-1.099568486213684,3.8056232929229736,38.694701649246426,38.639739832189846,155.09980998629362,140.17857548650574,-0.0002266406954731,0.0977962836623191,0,0,0
12873,464468.6810640767,2010-12-04 19:35:40,300.1509735734694,7,42,-1.0997490882873535,3.7970433235168457,38.694701649246426,38.6489089272818,155.09980998629362,140.21342971102985,-0.0002266406954731,0.0977962836623191,0,0,0
12874,464498.6964099104,2010-12-04 19:36:10,330.1663195073896,7,42,-1.0997490882873535,3.7887871265411377,38.694701649246426,38.65807815660772,155.09980998629362,140.24820865819152,-0.0002266406954731,0.0977962836623191,0,0,0
12875,464528.7112394644,2010-12-04 19:36:40,360.1811490362556,7,42,-1.099929690361023,3.78101658821106,38.694701649246426,38.66724723723196,155.09980998629362,140.28291313591055,-0.0002266406954731,0.0977962836623191,0,0,0
12876,464558.7262805095,2010-12-04 19:37:10,390.19619003635967,7,42,-1.099568486213684,3.773407936096192,38.694701649246426,38.676416819326285,155.09980998629362,140.3175477881161,-0.0001942634553415,0.0977962836623191,0,0,0
12877,464588.7413857545,2010-12-04 19:37:40,420.21129528133474,7,42,-1.0997490882873535,3.7657992839813232,38.694701649246426,38.68558668832956,155.09980998629362,140.35211366316392,-0.0001942634553415,0.0977962836623191,0,0,0
12878,464618.756491596,2010-12-04 19:38:10,450.2264012029936,7,42,-1.099568486213684,3.758352518081665,38.694701649246426,38.69475640680484,155.09980998629362,140.38661035548864,-0.0001942634553415,0.0977962836623191,0,0,0
12879,464648.7716103446,2010-12-04 19:38:40,480.2415198763847,7,42,-1.0997490882873535,3.751229763031006,38.694701649246426,38.70392628481832,155.09980998629362,140.4210411509575,-0.0001942634553415,0.0977962836623191,0,0,0
12880,464678.7866727229,2010-12-04 19:39:10,510.2565822496752,7,42,-1.0997490882873535,3.7442686557769775,38.694701649246426,38.713096183427005,155.09980998629362,140.4554075820297,-0.0001618862152099,0.0977962836623191,0,0,0
12881,464708.8018101378,2010-12-04 19:39:40,540.271719664704,7,42,-1.0997490882873535,3.737469434738159,38.694701649246426,38.72226614542899,155.09980998629362,140.48971126952722,-0.0001618862152099,0.0977962836623191,0,0,0
12882,464738.8168610025,2010-12-04 19:40:10,570.286770584493,7,42,-1.099929690361023,3.730832099914551,38.694701649246426,38.73143554597834,155.09980998629362,140.52395113361715,-0.0002266406954731,0.0977962836623191,0,0,0
12883,464768.8319847736,2010-12-04 19:40:40,600.3018942753698,7,42,-1.0997490882873535,3.724356651306152,38.694701649246426,38.740604553161184,155.09980998629362,140.55813019903968,-0.0001942634553415,0.0977962836623191,0,0,0
12884,464798.84695059655,2010-12-04 19:41:10,630.3168601084236,7,42,-1.0997490882873535,3.718204975128174,38.694701649246426,38.74977359737255,155.09980998629362,140.5922508661102,-0.0001295089750783,0.0977962836623191,0,0,0
12885,464828.8622849367,2010-12-04 19:41:40,660.3321945136552,7,42,-1.099568486213684,3.7120532989501953,38.694701649246426,38.75894271673701,155.09980998629362,140.62631454785722,-0.0001295089750783,0.0977962836623191,0,0,0
12886,464858.8772329604,2010-12-04 19:42:10,690.3471424922789,7,42,-1.0993878841400146,3.7060635089874263,38.694701649246426,38.768111777692994,155.09980998629362,140.66032259686867,-0.0001618862152099,0.0977962836623191,0,0,0
12887,464888.8923027321,2010-12-04 19:42:40,720.3622122589675,7,42,-1.0997490882873535,3.700235605239868,38.694701649246426,38.77728087063351,155.09980998629362,140.69427696541516,-0.0001942634553415,0.0977962836623191,0,0,0
12888,464918.9073948794,2010-12-04 19:43:10,750.3773044013371,7,42,-1.0997490882873535,3.69456958770752,38.694701649246426,38.786449993083686,155.09980998629362,140.72817846488755,-0.0001295089750783,0.0977962836623191,0,0,0
12889,464948.9225053224,2010-12-04 19:43:40,780.3924148241972,7,42,-1.0997490882873535,3.688903570175171,38.694701649246426,38.795619110201365,155.09980998629362,140.76202799438292,-0.0001618862152099,0.0977962836623191,0,0,0
12890,464978.9393919352,2010-12-04 19:44:10,810.4093015372871,7,42,-1.099568486213684,3.683399438858032,38.694701649246426,38.804788727159504,155.09980998629362,140.79582853233734,-0.0001942634553415,0.0977962836623191,0,0,0
12891,465008.95278569625,2010-12-04 19:44:40,840.4226952080753,7,42,-1.099568486213684,3.678057193756104,38.694701649246426,38.81395714051125,155.09980998629362,140.82957518024276,-0.0001295089750783,0.0977962836623191,0,0,0
12892,465038.9677493539,2010-12-04 19:45:10,870.4376588857657,7,42,-1.0997490882873535,3.6728768348693848,38.694701649246426,38.82312589599917,155.09980998629362,140.86327409277078,-0.0001295089750783,0.0977962836623191,0,0,0
12893,465068.9851527277,2010-12-04 19:45:40,900.455062324708,7,42,-1.099568486213684,3.667696714401245,38.694701649246426,38.83229532542942,155.09980998629362,140.89692778563833,-9.713172767078504e-05,0.0977962836623191,0,0,0
12894,465098.9979519793,2010-12-04 19:46:10,930.4678615061324,7,42,-1.0997490882873535,3.6625163555145264,38.694701649246426,38.84146333997798,155.09980998629362,140.9305292782233,-9.713172767078504e-05,0.0977962836623191,0,0,0
12895,465129.01304065296,2010-12-04 19:46:40,960.4829501548083,7,42,-1.099929690361023,3.6574978828430176,38.694701649246426,38.85063228961389,155.09980998629362,140.96408778898726,-0.0001295089750783,0.0977962836623191,0,0,0
12896,465159.0281311011,2010-12-04 19:47:10,990.498040602962,7,42,-1.0997490882873535,3.652479410171509,38.694701649246426,38.859801257080434,155.09980998629362,140.99760080175952,-0.0001295089750783,0.0977962836623191,0,0,0
12897,465189.0432502958,2010-12-04 19:47:40,1020.5131597976502,7,42,-1.099568486213684,3.64794659614563,38.694701649246426,38.86897029578558,155.09980998629362,141.03106889783135,-9.713172767078504e-05,0.0977962836623191,0,0,0
12898,465219.0583546336,2010-12-04 19:48:10,1050.5282641955173,7,42,-1.099568486213684,3.642766237258911,38.694701649246426,38.8781393311109,155.09980998629362,141.0644921419697,-0.0001618862152099,0.0977962836623191,0,0,0
12899,465249.0734176785,2010-12-04 19:48:40,1080.5433271803297,7,42,-1.0997490882873535,3.638233423233032,38.694701649246426,38.88730831951656,155.09980998629362,141.09787182120596,-9.713172767078504e-05,0.0977962836623191,0,0,0
12900,465279.088529946,2010-12-04 19:49:10,1110.5584394578048,7,42,-1.0997490882873535,3.633376836776733,38.694701649246426,38.89647723750956,155.09980998629362,141.13120828339646,-0.0001618862152099,0.0977962836623191,0,0,0
12901,465309.1036224492,2010-12-04 19:49:41,1140.57353195606,7,42,-1.0997490882873535,3.629005908966065,38.694701649246426,38.90564630262027,155.09980998629362,141.16450314205568,-0.0001618862152099,0.0977962836623191,0,0,0
12902,465339.1210084648,2010-12-04 19:50:11,1170.5909180568567,7,42,-1.0997490882873535,3.624634981155396,38.694701649246426,38.91481598985547,155.09980998629362,141.19775927560178,-0.0001295089750783,0.0977962836623191,0,0,0
12903,465369.1338041675,2010-12-04 19:50:41,1200.6037136694003,7,42,-1.0997490882873535,3.620264053344727,38.694701649246426,38.9239843434158,155.09980998629362,141.23097090840147,-0.0001295089750783,0.0977962836623191,0,0,0
12904,465399.14889428485,2010-12-04 19:51:11,1230.6188037917432,7,42,-1.0997490882873535,3.616055011749268,38.694701649246426,38.93315338876106,155.09980998629362,141.26414629757343,-9.713172767078504e-05,0.0977962836623191,0,0,0
12905,465429.163996377,2010-12-04 19:51:41,1260.63390587886,7,42,-1.099568486213684,3.612169742584229,38.694701649246426,38.94232242973419,155.09980998629362,141.29728383457245,-0.0001295089750783,0.0977962836623191,0,0,0
12906,465459.1790729056,2010-12-04 19:52:11,1290.6489824073751,7,42,-1.0997490882873535,3.6079607009887695,38.694701649246426,38.95149143094668,155.09980998629362,141.33038411388026,-9.713172767078504e-05,0.0977962836623191,0,0,0
12907,465489.1943158432,2010-12-04 19:52:41,1320.664225355018,7,42,-1.0997490882873535,3.6040754318237305,38.694701649246426,38.96066052364613,155.09980998629362,141.36344845158254,-9.713172767078504e-05,0.0977962836623191,0,0,0
12908,465519.209421429,2010-12-04 19:53:11,1350.6793309408413,7,42,-1.099929690361023,3.6003520488739014,38.694701649246426,38.969829575651154,155.09980998629362,141.39647781049086,-0.0001295089750783,0.0977962836623191,0,0,0
12909,465549.22437163314,2010-12-04 19:53:41,1380.6942811399908,7,42,-1.099568486213684,3.596952438354492,38.694701649246426,38.9789985967606,155.09980998629362,141.42947281042166,-6.47544875391759e-05,0.0977962836623191,0,0,0
12910,465579.2413774827,2010-12-04 19:54:11,1410.7112871198717,7,42,-1.0997490882873535,3.592905282974243,38.694701649246426,38.988168189592514,155.09980998629362,141.46243662891857,-9.713172767078504e-05,0.0977962836623191,0,0,0
12911,465609.2545918674,2010-12-04 19:54:41,1440.7245014343384,7,42,-1.0997490882873535,3.589505910873413,38.694701649246426,38.99733664860974,155.09980998629362,141.4953633587927,-9.713172767078504e-05,0.0977962836623191,0,0,0
12912,465639.2696481454,2010-12-04 19:55:11,1470.7395576472993,7,42,-1.099929690361023,3.586106300354004,38.694701649246426,39.006505663682205,155.09980998629362,141.5282601916373,-9.713172767078504e-05,0.0977962836623191,0,0,0
12913,465669.2847513855,2010-12-04 19:55:41,1500.7546608973098,7,42,-1.0997490882873535,3.5828685760498047,38.694701649246426,39.015674666887485,155.09980998629362,141.56112575238132,-6.47544875391759e-05,0.0977962836623191,0,0,0
12914,465699.2998499238,2010-12-04 19:56:11,1530.7697594506328,7,42,-1.0997490882873535,3.5794689655303955,38.694701649246426,39.02484368382365,155.09980998629362,141.5939606962009,-9.713172767078504e-05,0.0977962836623191,0,0,0
12915,465729.3150472128,2010-12-04 19:56:41,1560.7849567145936,7,42,-1.099568486213684,3.5762312412261963,38.694701649246426,39.03401274397817,155.09980998629362,141.6267656965118,-6.47544875391759e-05,0.0977962836623191,0,0,0
12916,465759.33016466815,2010-12-04 19:57:11,1590.800074250153,7,42,-1.0997490882873535,3.572831630706787,38.694701649246426,39.04318182868224,155.09980998629362,141.65954078441905,-9.713172767078504e-05,0.0977962836623191,0,0,0
12917,465789.3451229675,2010-12-04 19:57:41,1620.81503246926,7,42,-1.0997490882873535,3.569593906402588,38.694701649246426,39.05235089001888,155.09980998629362,141.69228605519442,-9.713172767078504e-05,0.0977962836623191,0,0,0
12918,465819.3602237213,2010-12-04 19:58:11,1650.830133223059,7,42,-1.099568486213684,3.566518068313598,38.694701649246426,39.061519954781815,155.09980998629362,141.72500198677264,-9.713172767078504e-05,0.0977962836623191,0,0,0
12919,465849.3753847601,2010-12-04 19:58:41,1680.8452943771615,7,42,-1.0997490882873535,3.5632803440093994,38.694701649246426,39.07068906230137,155.09980998629362,141.7576885580052,-6.47544875391759e-05,0.0977962836623191,0,0,0
12920,465879.3903928934,2010-12-04 19:59:11,1710.860302395191,7,42,-1.0997490882873535,3.56020450592041,38.694701649246426,39.079858022071605,155.09980998629362,141.7903459436385,-6.47544875391759e-05,0.0977962836623191,0,0,0
12921,465909.40564528445,2010-12-04 19:59:41,1740.8755547863336,7,42,-1.0997490882873535,3.556804895401001,38.694701649246426,39.08902706495344,155.09980998629362,141.8229738581905,-6.47544875391759e-05,0.0977962836623191,0,0,0
12922,465939.4205896491,2010-12-04 20:00:11,1770.8904991559766,7,42,-1.0997490882873535,3.5535671710968018,38.694701649246426,39.098196102158944,155.09980998629362,141.85557172579223,-9.713172767078504e-05,0.0977962836623191,0,0,0
12923,465969.4358031485,2010-12-04 20:00:41,1800.905712660351,7,42,-1.0997490882873535,3.5503294467926025,38.694701649246426,39.107365148731866,155.09980998629362,141.88813964698275,-6.47544875391759e-05,0.0977962836623191,0,0,0
12924,465999.4507759038,2010-12-04 20:01:11,1830.9206854056056,7,42,-1.0997490882873535,3.5469298362731934,38.694701649246426,39.11653417999519,155.09980998629362,141.92067700547713,-9.713172767078504e-05,0.0977962836623191,0,0,0
12925,466029.46620289946,2010-12-04 20:01:41,1860.9361124313195,7,42,-1.099929690361023,3.543530225753784,38.694701649246426,39.12570338114615,155.09980998629362,141.95318397936208,-6.47544875391759e-05,0.0977962836623191,0,0,0
12926,466059.4809650256,2010-12-04 20:02:11,1890.9508745273813,7,42,-1.0997490882873535,3.540130615234375,38.694701649246426,39.13487232933722,155.09980998629362,141.98565889871972,-3.237724376958795e-05,0.0977962836623191,0,0,0
12927,466089.4960643608,2010-12-04 20:02:41,1920.9659738626503,7,42,-1.099568486213684,3.536731004714966,38.694701649246426,39.1440414081204,155.09980998629362,142.0181023543451,-6.47544875391759e-05,0.0977962836623191,0,0,0
12928,466119.5111672049,2010-12-04 20:03:11,1950.9810767066504,7,42,-1.099568486213684,3.5330076217651367,38.694701649246426,39.15321051281119,155.09980998629362,142.05051260358834,-6.47544875391759e-05,0.0977962836623191,0,0,0
12929,466149.52639218775,2010-12-04 20:03:41,1980.9963016996144,7,42,-1.0997490882873535,3.5291223526000977,38.694701649246426,39.162379646474925,155.09980998629362,142.08288909994732,-9.713172767078504e-05,0.0977962836623191,0,0,0
12930,466179.5431145569,2010-12-04 20:04:11,2011.0130241589648,7,42,-1.1001102924346924,3.5252370834350586,38.694701649246426,39.17154924436401,155.09980998629362,142.11523230025344,-9.713172767078504e-05,0.0977962836623191,0,0,0
12931,466209.5564764035,2010-12-04 20:04:41,2041.0263859053105,7,42,-1.099568486213684,3.5211899280548096,38.694701649246426,39.18071776180162,155.09980998629362,142.14753527040276,-9.713172767078504e-05,0.0977962836623191,0,0,0
12932,466239.57153468666,2010-12-04 20:05:11,2071.041444193435,7,42,-1.0997490882873535,3.5169808864593506,38.694701649246426,39.18988678950778,155.09980998629362,142.17980304175347,-0.0001295089750783,0.0977962836623191,0,0,0
12933,466269.5866369642,2010-12-04 20:05:41,2101.056546466013,7,42,-1.0997490882873535,3.512771844863892,38.694701649246426,39.1990558869021,155.09980998629362,142.212032513191,-0.0001295089750783,0.0977962836623191,0,0,0
12934,466299.6018479373,2010-12-04 20:06:11,2131.071757509263,7,42,-1.099929690361023,3.508239269256592,38.694701649246426,39.20822502676291,155.09980998629362,142.24422186297008,-0.0001295089750783,0.0977962836623191,0,0,0
12935,466329.6168479404,2010-12-04 20:06:41,2161.0867574371605,7,42,-1.0997490882873535,3.503544569015503,38.694701649246426,39.217394159254965,155.09980998629362,142.27636848181476,-0.0001618862152099,0.0977962836623191,0,0,0
12936,466359.6319046045,2010-12-04 20:07:11,2191.101814111269,7,42,-1.1001102924346924,3.498364210128784,38.694701649246426,39.22656323324415,155.09980998629362,142.30846962975542,-0.0001618862152099,0.0977962836623191,0,0,0
12937,466389.647037047,2010-12-04 20:07:41,2221.116946548912,7,42,-1.0997490882873535,3.4926981925964355,38.694701649246426,39.23573235275932,155.09980998629362,142.34052168067365,-0.0001618862152099,0.0977962836623191,0,0,0
12938,466419.66230616986,2010-12-04 20:08:11,2251.1322157869777,7,42,-1.0997490882873535,3.486708402633667,38.694701649246426,39.24490154104097,155.09980998629362,142.3725204214724,-0.0001942634553415,0.0977962836623191,0,0,0
12939,466449.6771841042,2010-12-04 20:08:41,2281.1470936160367,7,42,-1.0997490882873535,3.4797472953796387,38.694701649246426,39.254070503495086,155.09980998629362,142.4044589930715,-0.0001618862152099,0.0977962836623191,0,0,0
12940,466479.6922212096,2010-12-04 20:09:11,2311.162130721449,7,42,-1.099568486213684,3.4721386432647705,38.694701649246426,39.26323957451852,155.09980998629362,142.43633063704195,-0.0001942634553415,0.0977962836623191,0,0,0
12941,466509.70745366113,2010-12-04 20:09:41,2341.1773632982845,7,42,-1.099568486213684,3.4630730152130127,38.694701649246426,39.27240873708443,155.09980998629362,142.46812623357133,-0.0002590179501567,0.0977962836623191,0,0,0
12942,466539.72252604936,2010-12-04 20:10:11,2371.192435581235,7,42,-1.099929690361023,3.4522266387939453,38.694701649246426,39.28157777246141,155.09980998629362,142.49983169763416,-0.0003237724304199,0.0977962836623191,0,0,0
12943,466569.7376181817,2010-12-04 20:10:41,2401.2075277887666,7,42,-1.099929690361023,3.4389519691467285,38.694701649246426,39.29074681748437,155.09980998629362,142.53142822062182,-0.0004532813909463,0.0977962836623191,0,0,0
12944,466599.7526926902,2010-12-04 20:11:11,2431.2226022020186,7,42,-1.0997490882873535,3.422439813613892,38.694701649246426,39.29991583522326,155.09980998629362,142.56288806307796,-0.0004856586456298,0.0977962836623191,0,0,0
12945,466629.76781392,2010-12-04 20:11:41,2461.2377235219947,7,42,-1.099568486213684,3.400423288345337,38.694701649246426,39.30908496958354,155.09980998629362,142.59417183822694,-0.0006475448608398,0.0977962836623191,0,0,0
12946,466659.7828788445,2010-12-04 20:12:11,2491.2527883564094,7,42,-1.099568486213684,3.370312452316284,38.694701649246426,39.31825403795655,155.09980998629362,142.62521978953436,-0.0009389400365762,0.0977962836623191,0,0,0
12947,466689.79798695166,2010-12-04 20:12:41,2521.267896453482,7,42,-1.099929690361023,3.3288698196411133,38.694701649246426,39.327423141104006,155.09980998629362,142.6559435349892,-0.0012627125252038,0.0977962836623191,0,0,0
12948,466719.8130820664,2010-12-04 20:13:11,2551.282991573261,7,42,-1.0997490882873535,3.2697815895080566,38.694701649246426,39.33659214099123,155.09980998629362,142.68621101634267,-0.0018454551463946,0.0977962836623191,0,0,0
12949,466749.8282057072,2010-12-04 20:13:41,2581.298115229051,7,42,-1.0997490882873535,3.184953451156616,38.694701649246426,39.345761115186704,155.09980998629362,142.7158282836128,-0.0026872635353356,0.0977962836623191,0,0,0
12950,466779.8450920192,2010-12-04 20:14:11,2611.3150016213426,7,42,-1.0997490882873535,3.0557684898376465,38.694701649246426,39.3549307099613,155.09980998629362,142.7444873360997,-0.0042090415954589,0.0977962836623191,0,0,0
12951,466805.56155907846,2010-12-04 20:14:37,2637.031468605337,7,42,-1.0997490882873535,2.855677843093872,38.694701649246426,39.36278666505312,155.09980998629362,142.76780027182832,-0.0082237720489501,0.0977962836623191,0,0,0
12952,466818.373881876,2010-12-04 20:14:50,2649.8437914780243,7,42,-1.0997490882873535,2.699458122253418,38.694701649246426,39.36670054499219,155.09980998629362,142.77868061353735,-0.0102959154173731,0.0977962836623191,0,0,0
12953,466878.3973917747,2010-12-04 20:15:50,60.01455950307111,8,42,0.0,3.3432776927948,38.694701649246426,39.36670054499219,155.09980998629362,142.77868061353735,0.0011979580158367,0.0977962836623191,0,0,0
12954,466878.59495596273,2010-12-04 20:15:50,0.187502923814261,9,42,-1.9243103452026844e-05,3.3434395790100098,38.694701649246426,39.366700545994455,155.09980998629362,142.77868061688835,0.0,0.0940094217658042,0,0,0
12955,466883.4231195921,2010-12-04 20:15:55,5.015666578370021,9,42,0.0008838032954372,3.350886344909668,38.694702502601736,39.36670054616142,155.09981284323197,142.77868061744658,0.0010360718006268,0.0940094217658042,0,0,0
