Data_Point,Test_Time(s),Date_Time,Step_Time(s),Step_Index,Cycle_Index,Current(A),Voltage(V),Charge_Capacity(Ah),Discharge_Capacity(Ah),Charge_Energy(Wh),Discharge_Energy(Wh),dV/dt(V/s),Internal_Resistance(Ohm),Is_FC_Data,AC_Impedance(Ohm),ACI_Phase_Angle(Deg)
10797,391276.14709558105,2010-12-03 23:15:39,30.014987662375216,1,36,0.0,3.4031753540039062,32.2634163703843,32.92615147764559,129.38171158584075,119.3765564925981,0.0007446765666827,0.0940094217658042,0,0,0
10798,391306.1621182706,2010-12-03 23:16:09,60.03001033687677,1,36,0.0,3.4271345138549805,32.2634163703843,32.92615147764559,129.38171158584075,119.3765564925981,0.0005504131549969,0.0940094217658042,0,0,0
10799,391336.177197125,2010-12-03 23:16:39,90.04508919117958,1,36,0.0,3.445103645324707,32.2634163703843,32.92615147764559,129.38171158584075,119.3765564925981,0.0004209041653666,0.0940094217658042,0,0,0
10800,391366.145380672,2010-12-03 23:17:09,120.01327274332668,1,36,0.0,3.4596734046936035,32.2634163703843,32.92615147764559,129.38171158584075,119.3765564925981,0.0003237724304199,0.0940094217658042,0,0,0
10801,391396.1635158322,2010-12-03 23:17:39,30.01519712862392,2,36,0.5499359965324402,3.618321418762207,32.26800307554909,32.92615147764559,129.39814983405944,119.3765564925981,0.0014893531333655,0.0940094217658042,0,0,0
10802,391426.178464628,2010-12-03 23:18:09,60.03014592929328,2,36,0.5501165986061096,3.663649559020996,32.27258974370754,32.92615147764559,129.4148568036869,119.3765564925981,0.0010036944877356,0.0940094217658042,0,0,0
10803,391456.19352521177,2010-12-03 23:18:39,90.04520650811828,2,36,0.5501165986061096,3.696350336074829,32.277176356147564,32.92615147764559,129.4317389072915,119.3765564925981,0.0007770538213662,0.0940094217658042,0,0,0
10804,391486.208587991,2010-12-03 23:19:09,120.06026929243154,2,36,0.5501165986061096,3.721928358078003,32.28176298263836,32.92615147764559,129.44875318252082,119.3765564925981,0.0006475448608398,0.0940094217658042,0,0,0
10805,391516.223681968,2010-12-03 23:19:39,150.07536326435397,2,36,0.550297200679779,3.742326021194458,32.28634963257748,32.92615147764559,129.46587263984765,119.3765564925981,0.0004856586456298,0.0940094217658042,0,0,0
10806,391546.2387351184,2010-12-03 23:20:09,180.0904164146935,2,36,0.5501165986061096,3.758514404296875,32.29093625099803,32.92615147764559,129.48307602007574,119.3765564925981,0.0003885269106831,0.0940094217658042,0,0,0
10807,391576.2537924792,2010-12-03 23:20:39,210.10547377551052,2,36,0.5501165986061096,3.7696845531463614,32.29552287321128,32.92615147764559,129.5003417752057,119.3765564925981,0.0002590179501567,0.0940094217658042,0,0,0
10808,391606.2688586669,2010-12-03 23:21:09,240.12053997331824,2,36,0.5499359965324402,3.776645660400391,32.300109450665055,32.92615147764559,129.51764849901653,119.3765564925981,0.0001942634553415,0.0940094217658042,0,0,0
10809,391636.28406204114,2010-12-03 23:21:39,270.13574333745896,2,36,0.5501165986061096,3.781826019287109,32.30469616782821,32.92615147764559,129.534983689625,119.3765564925981,6.47544875391759e-05,0.0940094217658042,0,0,0
10810,391666.2990154382,2010-12-03 23:22:09,300.15069673957885,2,36,0.550297200679779,3.786682605743408,32.30928275819702,32.92615147764559,129.55234088353154,119.3765564925981,0.0001295089750783,0.0940094217658042,0,0,0
10811,391696.3140673755,2010-12-03 23:22:39,330.16574867188734,2,36,0.550297200679779,3.790891647338867,32.31386938059236,32.92615147764559,129.56971862347106,119.3765564925981,0.0001295089750783,0.0940094217658042,0,0,0
10812,391726.32917486114,2010-12-03 23:23:09,360.1808561825003,2,36,0.5501165986061096,3.794938802719116,32.31845600329758,32.92615147764559,129.58711561872988,119.3765564925981,6.47544875391759e-05,0.0940094217658042,0,0,0
10813,391756.3442016358,2010-12-03 23:23:39,390.1958829321427,2,36,0.5501165986061096,3.798985958099365,32.32304260464304,32.92615147764559,129.60453099519492,119.3765564925981,0.0001295089750783,0.0940094217658042,0,0,0
10814,391786.3596315536,2010-12-03 23:24:09,420.2113128500538,2,36,0.5501165986061096,3.8027093410491934,32.32762930098027,32.92615147764559,129.62196439302417,119.3765564925981,9.713172767078504e-05,0.0940094217658042,0,0,0
10815,391816.3613240917,2010-12-03 23:24:39,450.2130055083226,2,36,0.5501165986061096,3.806432723999024,32.33221386316343,32.92615147764559,129.6394068504183,119.3765564925981,9.713172767078504e-05,0.0940094217658042,0,0,0
10816,391846.3756646587,2010-12-03 23:25:09,480.2273460804386,2,36,0.5501165986061096,3.8099942207336426,32.33680036681766,32.92615147764559,129.65687343915317,119.3765564925981,9.713172767078504e-05,0.0940094217658042,0,0,0
10817,391876.3890190869,2010-12-03 23:25:39,510.2407004183487,2,36,0.5501165986061096,3.8135557174682617,32.34138678506672,32.92615147764559,129.67435613550856,119.3765564925981,6.47544875391759e-05,0.0940094217658042,0,0,0
10818,391906.40392841934,2010-12-03 23:26:09,540.2556097608278,2,36,0.5501165986061096,3.817117214202881,32.345973364961715,32.92615147764559,129.69185587856165,119.3765564925981,9.713172767078504e-05,0.0940094217658042,0,0,0
10819,391936.4190410627,2010-12-03 23:26:39,570.2707223941886,2,36,0.550297200679779,3.82084059715271,32.35055996084367,32.92615147764559,129.7093715622175,119.3765564925981,0.0001618862152099,0.0940094217658042,0,0,0
10820,391966.434063241,2010-12-03 23:27:09,600.2857445373679,2,36,0.5499359965324402,3.823916435241699,32.35514653055115,32.92615147764559,129.72690297151507,119.3765564925981,9.713172767078504e-05,0.0940094217658042,0,0,0
10821,391996.4492547657,2010-12-03 23:27:39,630.3009360620467,2,36,0.5501165986061096,3.8274779319763184,32.35973314522145,32.92615147764559,129.74445041857405,119.3765564925981,6.47544875391759e-05,0.0940094217658042,0,0,0
10822,392026.46462207776,2010-12-03 23:28:09,660.3163034493529,2,36,0.5499359965324402,3.8310394287109375,32.36431985543071,32.92615147764559,129.76201418744566,119.3765564925981,9.713172767078504e-05,0.0940094217658042,0,0,0
10823,392056.47949686926,2010-12-03 23:28:40,690.3311782107784,2,36,0.5501165986061096,3.8346006870269775,32.368906525308574,32.92615147764559,129.77959396288335,119.3765564925981,9.713172767078504e-05,0.0940094217658042,0,0,0
10824,392086.49671756855,2010-12-03 23:29:10,720.3483989500796,2,36,0.550297200679779,3.8380002975463863,32.37349349479835,32.92615147764559,129.7971912198853,119.3765564925981,6.47544875391759e-05,0.0940094217658042,0,0,0
10825,392116.50941372855,2010-12-03 23:29:40,750.3610950199148,2,36,0.5501165986061096,3.841723680496216,32.37807976208465,32.92615147764559,129.81480228961036,119.3765564925981,6.47544875391759e-05,0.0940094217658042,0,0,0
10826,392146.5244734503,2010-12-03 23:30:10,780.376154751632,2,36,0.550297200679779,3.845447063446045,32.38266637415232,32.92615147764559,129.8324312595518,119.3765564925981,9.713172767078504e-05,0.0940094217658042,0,0,0
10827,392176.5395545752,2010-12-03 23:30:40,810.3912358715727,2,36,0.5501165986061096,3.849008560180664,32.387253014441704,32.92615147764559,129.85007696377934,119.3765564925981,6.47544875391759e-05,0.0940094217658042,0,0,0
10828,392206.5546165976,2010-12-03 23:31:10,840.4062978889776,2,36,0.5501165986061096,3.852570056915283,32.39183966198635,32.92615147764559,129.867739243037,119.3765564925981,9.713172767078504e-05,0.0940094217658042,0,0,0
10829,392236.5696940384,2010-12-03 23:31:40,870.4213753297629,2,36,0.5499359965324402,3.8561315536499023,32.396426358945675,32.92615147764559,129.8854180300272,119.3765564925981,9.713172767078504e-05,0.0940094217658042,0,0,0
10830,392266.5847472689,2010-12-03 23:32:10,900.436428560302,2,36,0.5501165986061096,3.859531164169312,32.40101304746844,32.92615147764559,129.9031130025066,119.3765564925981,6.47544875391759e-05,0.0940094217658042,0,0,0
10831,392296.6000050935,2010-12-03 23:32:40,930.4516864852152,2,36,0.5501165986061096,3.86309266090393,32.40559974921874,32.92615147764559,129.92082385972387,119.3765564925981,9.713172767078504e-05,0.0940094217658042,0,0,0
10832,392326.6148832936,2010-12-03 23:33:10,960.4665645949729,2,36,0.550297200679779,3.86649227142334,32.41018644541941,32.92615147764559,129.93855012899405,119.3765564925981,0.0001295089750783,0.0940094217658042,0,0,0
10833,392356.6299790349,2010-12-03 23:33:40,990.4816603262734,2,36,0.5501165986061096,3.869729995727539,32.41477316150445,32.92615147764559,129.9562914948644,119.3765564925981,0.0001295089750783,0.0940094217658042,0,0,0
10834,392386.64507028006,2010-12-03 23:34:10,1020.4967515814352,2,36,0.5499359965324402,3.8726439476013184,32.41935981530848,32.92615147764559,129.97404716790487,119.3765564925981,6.47544875391759e-05,0.0940094217658042,0,0,0
10835,392416.6601163177,2010-12-03 23:34:40,1050.5117976140627,2,36,0.550297200679779,3.875719785690308,32.423946490648895,32.92615147764559,129.99181688285162,119.3765564925981,9.713172767078504e-05,0.0940094217658042,0,0,0
10836,392446.676960931,2010-12-03 23:35:10,1080.528642227389,2,36,0.5501165986061096,3.878633737564087,32.42853344538224,32.92615147764559,130.00960111005625,119.3765564925981,0.0001295089750783,0.0940094217658042,0,0,0
10837,392476.69023941015,2010-12-03 23:35:40,1110.5419207366024,2,36,0.5499359965324402,3.881062030792236,32.4331198144544,32.92615147764559,130.02739583860443,119.3765564925981,0.0,0.0940094217658042,0,0,0
10838,392506.7053254775,2010-12-03 23:36:10,1140.5570067938293,2,36,0.5501165986061096,3.883975982666016,32.43770650680083,32.92615147764559,130.04520391509496,119.3765564925981,9.713172767078504e-05,0.0940094217658042,0,0,0
10839,392536.7205108918,2010-12-03 23:36:40,1170.572192198278,2,36,0.550297200679779,3.886242389678955,32.44229317083807,32.92615147764559,130.0630232047114,119.3765564925981,9.713172767078504e-05,0.0940094217658042,0,0,0
10840,392566.7354424346,2010-12-03 23:37:10,1200.5871237309766,2,36,0.5501165986061096,3.8885087966918954,32.44687990251601,32.92615147764559,130.08085353088947,119.3765564925981,6.47544875391759e-05,0.0940094217658042,0,0,0
10841,392596.7506201699,2010-12-03 23:37:40,1230.602301466341,2,36,0.550297200679779,3.890775203704834,32.45146667625742,32.92615147764559,130.09869410608954,119.3765564925981,9.713172767078504e-05,0.0940094217658042,0,0,0
10842,392626.7655624495,2010-12-03 23:38:10,1260.617243770845,2,36,0.5501165986061096,3.892555952072144,32.456053271245466,32.92615147764559,130.1165434578742,119.3765564925981,3.237724376958795e-05,0.0940094217658042,0,0,0
10843,392656.7806871479,2010-12-03 23:38:40,1290.6323684441668,2,36,0.550297200679779,3.894660472869873,32.46063999243481,32.92615147764559,130.13440229211866,119.3765564925981,9.713172767078504e-05,0.0940094217658042,0,0,0
10844,392686.79574285954,2010-12-03 23:39:10,1320.6474241608926,2,36,0.5501165986061096,3.8962793350219727,32.4652267227542,32.92615147764559,130.15226918080836,119.3765564925981,6.47544875391759e-05,0.0940094217658042,0,0,0
10845,392716.8108088167,2010-12-03 23:39:40,1350.662490143164,2,36,0.5501165986061096,3.8977363109588623,32.469813445674475,32.92615147764559,130.17014420427134,119.3765564925981,3.237724376958795e-05,0.0940094217658042,0,0,0
10846,392746.825852248,2010-12-03 23:40:10,1380.6775335442428,2,36,0.550297200679779,3.899840831756592,32.47440014229876,32.92615147764559,130.18802696437916,119.3765564925981,6.47544875391759e-05,0.0940094217658042,0,0,0
10847,392776.8414339786,2010-12-03 23:40:40,1410.6931153701712,2,36,0.5499359965324402,3.9012978076934814,32.478986886762684,32.92615147764559,130.20591745187258,119.3765564925981,6.47544875391759e-05,0.0940094217658042,0,0,0
10848,392806.85607063246,2010-12-03 23:41:10,1440.7077519438758,2,36,0.5501165986061096,3.902754783630371,32.48357347397433,32.92615147764559,130.22381473544226,119.3765564925981,3.237724376958795e-05,0.0940094217658042,0,0,0
10849,392836.8718394988,2010-12-03 23:41:40,1470.723520860372,2,36,0.550297200679779,3.9045355319976807,32.48816079611217,32.92615147764559,130.24172217343948,119.3765564925981,3.237724376958795e-05,0.0940094217658042,0,0,0
10850,392866.88617384544,2010-12-03 23:42:10,1500.7378551468462,2,36,0.550297200679779,3.90615439414978,32.49274803367104,32.92615147764559,130.25963637706118,119.3765564925981,6.47544875391759e-05,0.0940094217658042,0,0,0
10851,392896.9012591558,2010-12-03 23:42:40,1530.7529404522022,2,36,0.550297200679779,3.90744948387146,32.49733540432747,32.92615147764559,130.27755820583906,119.3765564925981,0.0,0.0940094217658042,0,0,0
10852,392926.9164568859,2010-12-03 23:43:10,1560.768138182323,2,36,0.5499359965324402,3.9089064598083496,32.501922769341526,32.92615147764559,130.2954870164886,119.3765564925981,3.237724376958795e-05,0.0940094217658042,0,0,0
10853,392956.9315110288,2010-12-03 23:43:40,1590.7831923301446,2,36,0.5499359965324402,3.910525321960449,32.506509523909685,32.92615147764559,130.31342045718122,119.3765564925981,3.237724376958795e-05,0.0940094217658042,0,0,0
10854,392986.9464553583,2010-12-03 23:44:10,1620.7981366596878,2,36,0.5501165986061096,3.912144184112549,32.51109617183281,32.92615147764559,130.33136044031016,119.3765564925981,6.47544875391759e-05,0.0940094217658042,0,0,0
10855,393016.9616844766,2010-12-03 23:44:40,1650.813365772904,2,36,0.5499359965324402,3.9136011600494394,32.51568289168203,32.92615147764559,130.34930769487897,119.3765564925981,0.0,0.0940094217658042,0,0,0
10856,393046.97850303503,2010-12-03 23:45:10,1680.8301844216185,2,36,0.550297200679779,3.915219783782959,32.52026987289132,32.92615147764559,130.36726300580506,119.3765564925981,6.47544875391759e-05,0.0940094217658042,0,0,0
10857,393076.9920891296,2010-12-03 23:45:40,1710.8437705012088,2,36,0.5501165986061096,3.9166767597198486,32.52485625581536,32.92615147764559,130.3852227426382,119.3765564925981,3.237724376958795e-05,0.0940094217658042,0,0,0
10858,393107.0067475176,2010-12-03 23:46:10,1740.8584288190227,2,36,0.5501165986061096,3.9181337356567374,32.52944279143435,32.92615147764559,130.40319016122763,119.3765564925981,3.237724376958795e-05,0.0940094217658042,0,0,0
10859,393137.02184264245,2010-12-03 23:46:40,1770.873523973889,2,36,0.5501165986061096,3.919752597808838,32.53402937707503,32.92615147764559,130.42116471042,119.3765564925981,6.47544875391759e-05,0.0940094217658042,0,0,0
10860,393167.0371400656,2010-12-03 23:47:10,1800.8888214572416,2,36,0.550297200679779,3.921209573745728,32.53861604966631,32.92615147764559,130.43914665662473,119.3765564925981,3.237724376958795e-05,0.0940094217658042,0,0,0
10861,393197.051952933,2010-12-03 23:47:40,1830.9036342294096,2,36,0.5501165986061096,3.922990322113037,32.543202598361766,32.92615147764559,130.4571351138553,119.3765564925981,6.47544875391759e-05,0.0940094217658042,0,0,0
10862,393227.0670150206,2010-12-03 23:48:10,1860.9186963169889,2,36,0.5501165986061096,3.924285411834717,32.54778922386393,32.92615147764559,130.4751308808488,119.3765564925981,0.0,0.0940094217658042,0,0,0
10863,393257.0820976744,2010-12-03 23:48:40,1890.9337789707463,2,36,0.550297200679779,3.925904273986816,32.55237590189616,32.92615147764559,130.49313390855352,119.3765564925981,0.0,0.0940094217658042,0,0,0
10864,393287.0971559123,2010-12-03 23:49:10,1920.9488372087465,2,36,0.5501165986061096,3.927361249923706,32.55696256549587,32.92615147764559,130.5111438196057,119.3765564925981,3.237724376958795e-05,0.0940094217658042,0,0,0
10865,393317.1122214685,2010-12-03 23:49:40,1950.9639027699693,2,36,0.5501165986061096,3.9289801120758057,32.56154923092077,32.92615147764559,130.5291608917304,119.3765564925981,6.47544875391759e-05,0.0940094217658042,0,0,0
10866,393347.1273352849,2010-12-03 23:50:10,1980.9790166013115,2,36,0.5501165986061096,3.9304370880126953,32.56613584784801,32.92615147764559,130.5471848714818,119.3765564925981,3.237724376958795e-05,0.0940094217658042,0,0,0
10867,393377.1423956582,2010-12-03 23:50:40,2010.9940769646005,2,36,0.550297200679779,3.932055950164795,32.57072250634852,32.92615147764559,130.56521616146588,119.3765564925981,3.237724376958795e-05,0.0940094217658042,0,0,0
10868,393407.1574534902,2010-12-03 23:51:10,2041.0091347915777,2,36,0.5501165986061096,3.9336748123168954,32.57530912530939,32.92615147764559,130.58325454349858,119.3765564925981,3.237724376958795e-05,0.0940094217658042,0,0,0
10869,393437.17250303656,2010-12-03 23:51:40,2071.024184337949,2,36,0.5501165986061096,3.935131788253784,32.57989574368783,32.92615147764559,130.60130015550996,119.3765564925981,0.0,0.0940094217658042,0,0,0
10870,393467.18763035646,2010-12-03 23:52:10,2101.0393117430685,2,36,0.5501165986061096,3.936750650405884,32.5844824615956,32.92615147764559,130.61935335840147,119.3765564925981,3.237724376958795e-05,0.0940094217658042,0,0,0
10871,393497.2027994803,2010-12-03 23:52:40,2131.054480861991,2,36,0.550297200679779,3.938369512557984,32.58906904576655,32.92615147764559,130.63741337196936,119.3765564925981,3.237724376958795e-05,0.0940094217658042,0,0,0
10872,393527.2177075848,2010-12-03 23:53:10,2161.069388911252,2,36,0.5501165986061096,3.939988374710083,32.59365566883864,32.92615147764559,130.65548084180566,119.3765564925981,6.47544875391759e-05,0.0940094217658042,0,0,0
10873,393557.2329321216,2010-12-03 23:53:40,2191.08461356838,2,36,0.550297200679779,3.941607236862183,32.59824237332952,32.92615147764559,130.67355605179554,119.3765564925981,3.237724376958795e-05,0.0940094217658042,0,0,0
10874,393587.2478256648,2010-12-03 23:54:10,2221.099506986231,2,36,0.5501165986061096,3.943226099014282,32.602828972331814,32.92615147764559,130.69163817918707,119.3765564925981,3.237724376958795e-05,0.0940094217658042,0,0,0
10875,393617.26302300894,2010-12-03 23:54:40,2251.114704305329,2,36,0.5501165986061096,3.945006847381592,32.60741564114296,32.92615147764559,130.70972805622122,119.3765564925981,3.237724376958795e-05,0.0940094217658042,0,0,0
10876,393647.27973106754,2010-12-03 23:55:10,2281.1314124841438,2,36,0.5501165986061096,3.9464638233184814,32.61200244109061,32.92615147764559,130.7278259271475,119.3765564925981,6.47544875391759e-05,0.0940094217658042,0,0,0
10877,393677.2930363333,2010-12-03 23:55:40,2311.14471762964,2,36,0.5501165986061096,3.948082685470581,32.61658874247462,32.92615147764559,130.7459291515212,119.3765564925981,6.47544875391759e-05,0.0940094217658042,0,0,0
10878,393707.30811565375,2010-12-03 23:56:10,2341.1597969450904,2,36,0.5501165986061096,3.94986343383789,32.62117532284724,32.92615147764559,130.76404109726045,119.3765564925981,6.47544875391759e-05,0.0940094217658042,0,0,0
10879,393737.3255356839,2010-12-03 23:56:40,2371.1772170956187,2,36,0.5501165986061096,3.95132040977478,32.625762294617175,32.92615147764559,130.78216218160767,119.3765564925981,6.47544875391759e-05,0.0940094217658042,0,0,0
10880,393767.33827599394,2010-12-03 23:57:10,2401.1899573052947,2,36,0.5501165986061096,3.95293927192688,32.63034861979811,32.92615147764559,130.80028826303723,119.3765564925981,0.0,0.0940094217658042,0,0,0
10881,393797.3534621702,2010-12-03 23:57:40,2431.2051434616137,2,36,0.5501165986061096,3.9547200202941895,32.63493529539215,32.92615147764559,130.8184234084176,119.3765564925981,3.237724376958795e-05,0.0940094217658042,0,0,0
10882,393827.36837645,2010-12-03 23:58:10,2461.2200577463923,2,36,0.5501165986061096,3.956500768661499,32.63952193726652,32.92615147764559,130.83656613051173,119.3765564925981,6.47544875391759e-05,0.0940094217658042,0,0,0
10883,393857.3834695798,2010-12-03 23:58:40,2491.235150901281,2,36,0.5501165986061096,3.9579577445983887,32.64410863673096,32.92615147764559,130.85471672072998,119.3765564925981,3.237724376958795e-05,0.0940094217658042,0,0,0
10884,393887.3985211362,2010-12-03 23:59:10,2521.2502024626665,2,36,0.550297200679779,3.959900379180908,32.64869527500276,32.92615147764559,130.87287486219063,119.3765564925981,9.713172767078504e-05,0.0940094217658042,0,0,0
10885,393917.4135918702,2010-12-03 23:59:40,2551.26527319175,2,36,0.5501165986061096,3.961519241333008,32.65328197847298,32.92615147764559,130.89104111275077,119.3765564925981,6.47544875391759e-05,0.0940094217658042,0,0,0
10886,393947.4286642334,2010-12-04 00:00:10,2581.2803455348503,2,36,0.5501165986061096,3.963299989700317,32.657868635434646,32.92615147764559,130.90921502273028,119.3765564925981,9.713172767078504e-05,0.0940094217658042,0,0,0
10887,393977.44393051416,2010-12-04 00:00:41,2611.295611890744,2,36,0.5501165986061096,3.964918851852417,32.66245537819028,32.92615147764559,130.92739725243504,119.3765564925981,3.237724376958795e-05,0.0940094217658042,0,0,0
10888,394007.4611103767,2010-12-04 00:01:11,2641.3127917733746,2,36,0.5499359965324402,3.966699600219727,32.667042409356995,32.92615147764559,130.94558867197202,119.3765564925981,3.237724376958795e-05,0.0940094217658042,0,0,0
10889,394037.4740065897,2010-12-04 00:01:41,2671.3256879662085,2,36,0.5499359965324402,3.968480348587036,32.67162873878565,32.92615147764559,130.96378530731732,119.3765564925981,6.47544875391759e-05,0.0940094217658042,0,0,0
10890,394067.4889384331,2010-12-04 00:02:11,2701.3406197294807,2,36,0.550297200679779,3.970099210739136,32.676215389081385,32.92615147764559,130.9819913221208,119.3765564925981,3.237724376958795e-05,0.0940094217658042,0,0,0
10891,394097.5040298035,2010-12-04 00:02:41,2731.3557111099544,2,36,0.5499359965324402,3.9720418453216553,32.68080208257471,32.92615147764559,131.00020572709937,119.3765564925981,6.47544875391759e-05,0.0940094217658042,0,0,0
10892,394127.51911431696,2010-12-04 00:03:11,2761.370795713564,2,36,0.5501165986061096,3.973822593688965,32.685388772270485,32.92615147764559,131.01842831801014,119.3765564925981,3.237724376958795e-05,0.0940094217658042,0,0,0
10893,394157.534270213,2010-12-04 00:03:41,2791.3859515093327,2,36,0.5501165986061096,3.9756033420562735,32.689975448292614,32.92615147764559,131.03665913323294,119.3765564925981,6.47544875391759e-05,0.0940094217658042,0,0,0
10894,394187.5492415848,2010-12-04 00:04:11,2821.4009229162566,2,36,0.5501165986061096,3.977384090423584,32.69456214374523,32.92615147764559,131.05489839904914,119.3765564925981,3.237724376958795e-05,0.0940094217658042,0,0,0
10895,394217.5642951662,2010-12-04 00:04:41,2851.415976472607,2,36,0.550297200679779,3.979326725006104,32.699148822334706,32.92615147764559,131.07314560406107,119.3765564925981,6.47544875391759e-05,0.0940094217658042,0,0,0
10896,394247.581082873,2010-12-04 00:05:11,2881.4327642695475,2,36,0.550297200679779,3.981107473373413,32.7037356799754,32.92615147764559,131.0914025331545,119.3765564925981,0.0,0.0940094217658042,0,0,0
10897,394277.5945554952,2010-12-04 00:05:41,2911.446236816617,2,36,0.5501165986061096,3.983211994171143,32.70832203093313,32.92615147764559,131.10966610926155,119.3765564925981,6.47544875391759e-05,0.0940094217658042,0,0,0
10898,394307.6094662412,2010-12-04 00:06:11,2941.4611475826387,2,36,0.5501165986061096,3.984992742538452,32.71290824235818,32.92615147764559,131.1279377979475,119.3765564925981,6.47544875391759e-05,0.0940094217658042,0,0,0
10899,394337.62454349647,2010-12-04 00:06:41,2971.476224822925,2,36,0.5501165986061096,3.986935377120972,32.71749396305429,32.92615147764559,131.14621623000468,119.3765564925981,6.47544875391759e-05,0.0940094217658042,0,0,0
10900,394367.6396082708,2010-12-04 00:07:11,3001.49128959719,2,36,0.5497553944587708,3.988716125488281,32.72207992458733,32.92615147764559,131.16450452741165,119.3765564925981,3.237724376958795e-05,0.0940094217658042,0,0,0
10901,394397.6547075258,2010-12-04 00:07:41,3031.506388852259,2,36,0.5501165986061096,3.990658760070801,32.72666564821319,32.92615147764559,131.18280082639393,119.3765564925981,3.237724376958795e-05,0.0940094217658042,0,0,0
10902,394427.66996131546,2010-12-04 00:08:11,3061.521642707044,2,36,0.5501165986061096,3.9927632808685294,32.73125144904261,32.92615147764559,131.20110658374338,119.3765564925981,6.47544875391759e-05,0.0940094217658042,0,0,0
10903,394457.6851004246,2010-12-04 00:08:41,3091.536781816289,2,36,0.5501165986061096,3.99502944946289,32.73583717789438,32.92615147764559,131.21942124035277,119.3765564925981,9.713172767078504e-05,0.0940094217658042,0,0,0
10904,394487.6999267757,2010-12-04 00:09:11,3121.55160807201,2,36,0.5499359965324402,3.9968101978302,32.74042310868458,32.92615147764559,131.23774611784563,119.3765564925981,0.0,0.0940094217658042,0,0,0
10905,394517.7149892291,2010-12-04 00:09:41,3151.566670555575,2,36,0.5501165986061096,3.99907660484314,32.74500984170935,32.92615147764559,131.25608379078196,119.3765564925981,9.713172767078504e-05,0.0940094217658042,0,0,0
10906,394547.7300450561,2010-12-04 00:10:11,3181.581726362525,2,36,0.5501165986061096,4.001181125640869,32.74959652979794,32.92615147764559,131.2744308489631,119.3765564925981,6.47544875391759e-05,0.0940094217658042,0,0,0
10907,394577.7451447222,2010-12-04 00:10:41,3211.596826138892,2,36,0.5501165986061096,4.003123760223389,32.75418321022209,32.92615147764559,131.2927875916464,119.3765564925981,3.23295607813634e-05,0.0940094217658042,0,0,0
10908,394607.7602023738,2010-12-04 00:11:11,3241.6118836901837,2,36,0.5499359965324402,4.005390167236328,32.75876992876898,32.92615147764559,131.31115426766002,119.3765564925981,6.47544875391759e-05,0.0940094217658042,0,0,0
10909,394637.7752497799,2010-12-04 00:11:41,3271.62693110124,2,36,0.550297200679779,4.007656574249268,32.76335659496059,32.92615147764559,131.32953066653147,119.3765564925981,9.70840483205393e-05,0.0940094217658042,0,0,0
10910,394667.7903196467,2010-12-04 00:12:11,3301.642000973191,2,36,0.550297200679779,4.009922981262207,32.767943334182505,32.92615147764559,131.34791737665478,119.3765564925981,6.47544875391759e-05,0.0940094217658042,0,0,0
10911,394697.8057325423,2010-12-04 00:12:41,3331.6574139038303,2,36,0.550297200679779,4.0121893882751465,32.77253000406585,32.92615147764559,131.36631383212932,119.3765564925981,0.0001295089750783,0.0940094217658042,0,0,0
10912,394727.8204665786,2010-12-04 00:13:11,3361.672147879917,2,36,0.5501165986061096,4.014294147491455,32.77711664839947,32.92615147764559,131.38472041489095,119.3765564925981,6.47544875391759e-05,0.0940094217658042,0,0,0
10913,394757.83554479625,2010-12-04 00:13:41,3391.687226102648,2,36,0.5499359965324402,4.0165605545043945,32.781703386303136,32.92615147764559,131.4031376997007,119.3765564925981,6.47544875391759e-05,0.0940094217658042,0,0,0
10914,394787.8506252996,2010-12-04 00:14:11,3421.7023065960298,2,36,0.550297200679779,4.018826961517334,32.78629010467797,32.92615147764559,131.42156534975393,119.3765564925981,9.71794142969884e-05,0.0940094217658042,0,0,0
10915,394817.8657059184,2010-12-04 00:14:41,3451.717387234773,2,36,0.5501165986061096,4.021093368530273,32.7908767426445,32.92615147764559,131.44000311490456,119.3765564925981,6.47544875391759e-05,0.0940094217658042,0,0,0
10916,394847.880759189,2010-12-04 00:15:11,3481.7324404953865,2,36,0.5499359965324402,4.023359775543213,32.79546338393409,32.92615147764559,131.45845168198778,119.3765564925981,3.24249267578125e-05,0.0940094217658042,0,0,0
10917,394877.8820068649,2010-12-04 00:15:41,3511.733688266572,2,36,0.5501165986061096,4.025787830352783,32.80004794440069,32.92615147764559,131.47690264726714,119.3765564925981,6.47544875391759e-05,0.0940094217658042,0,0,0
10918,394907.8952719056,2010-12-04 00:16:11,3541.746953212032,2,36,0.5497553944587708,4.028054237365723,32.80463422127655,32.92615147764559,131.49537143208818,119.3765564925981,3.23295607813634e-05,0.0940094217658042,0,0,0
10919,394937.91032927646,2010-12-04 00:16:41,3571.762010577861,2,36,0.550297200679779,4.030482769012451,32.809220820275655,32.92615147764559,131.51385245699402,119.3765564925981,3.24249267578125e-05,0.0940094217658042,0,0,0
10920,394967.9254322257,2010-12-04 00:17:11,3601.777113547173,2,36,0.5501165986061096,4.033234596252441,32.81380745116881,32.92615147764559,131.53234466221176,119.3765564925981,9.70840483205393e-05,0.0940094217658042,0,0,0
10921,394997.9405950339,2010-12-04 00:17:41,3631.792276345367,2,36,0.5501165986061096,4.035501003265381,32.8183940875649,32.92615147764559,131.5508481766216,119.3765564925981,6.47544875391759e-05,0.0940094217658042,0,0,0
10922,395027.9555385214,2010-12-04 00:18:11,3661.8072198278014,2,36,0.5499359965324402,4.03776741027832,32.822980702746214,32.92615147764559,131.569363008124,119.3765564925981,6.47544875391759e-05,0.0940094217658042,0,0,0
10923,395057.970616228,2010-12-04 00:18:41,3691.822297529237,2,36,0.5499359965324402,4.04035758972168,32.82756736493347,32.92615147764559,131.58788949760262,119.3765564925981,6.47544875391759e-05,0.0940094217658042,0,0,0
10924,395087.985711498,2010-12-04 00:19:11,3721.837392819439,2,36,0.550297200679779,4.042947769165039,32.83215402857523,32.92615147764559,131.60642745810145,119.3765564925981,6.47544875391759e-05,0.0940094217658042,0,0,0
10925,395118.0010356127,2010-12-04 00:19:41,3751.852717034312,2,36,0.550297200679779,4.045537948608398,32.83674068674093,32.92615147764559,131.62497707862408,119.3765564925981,6.47544875391759e-05,0.0940094217658042,0,0,0
10926,395148.0158198789,2010-12-04 00:20:11,3781.8675011802447,2,36,0.5501165986061096,4.047966003417969,32.84132728346629,32.92615147764559,131.6435380615685,119.3765564925981,3.23295607813634e-05,0.0940094217658042,0,0,0
10927,395178.0309462915,2010-12-04 00:20:41,3811.8826275979072,2,36,0.5501165986061096,4.050556182861328,32.84591397851614,32.92615147764559,131.6621112399229,119.3765564925981,3.23295607813634e-05,0.0940094217658042,0,0,0
10928,395208.04600007343,2010-12-04 00:21:11,3841.897681394856,2,36,0.5501165986061096,4.053146362304688,32.850500635202,32.92615147764559,131.680696127502,119.3765564925981,6.47544875391759e-05,0.0940094217658042,0,0,0
10929,395238.06105975,2010-12-04 00:21:41,3871.9127410513856,2,36,0.5501165986061096,4.055898666381836,32.85508735524317,32.92615147764559,131.69929328336664,119.3765564925981,9.71794142969884e-05,0.0940094217658042,0,0,0
10930,395268.076126805,2010-12-04 00:22:11,3901.927808116351,2,36,0.550297200679779,4.058650493621826,32.85967407197222,32.92615147764559,131.71790261137153,119.3765564925981,9.70840483205393e-05,0.0940094217658042,0,0,0
10931,395298.0914430199,2010-12-04 00:22:41,3931.9431244716657,2,36,0.550297200679779,4.0612406730651855,32.864260828708204,32.92615147764559,131.7365242662245,119.3765564925981,9.70840483205393e-05,0.0940094217658042,0,0,0
10932,395328.10640137433,2010-12-04 00:23:11,3961.9580826957854,2,36,0.550297200679779,4.064154624938965,32.86884744023562,32.92615147764559,131.7551575008948,119.3765564925981,0.0001295089750783,0.0940094217658042,0,0,0
10933,395358.12135874137,2010-12-04 00:23:41,3991.97304003771,2,36,0.550297200679779,4.066744804382324,32.8734341201646,32.92615147764559,131.77380359667416,119.3765564925981,9.70840483205393e-05,0.0940094217658042,0,0,0
10934,395388.1364270995,2010-12-04 00:24:11,4021.988108420955,2,36,0.5501165986061096,4.069497108459473,32.87802076999908,32.92615147764559,131.79246220163122,119.3765564925981,6.47544875391759e-05,0.0940094217658042,0,0,0
10935,395418.15147820977,2010-12-04 00:24:41,4052.003159506155,2,36,0.5499359965324402,4.072087287902832,32.882607431516504,32.92615147764559,131.81113361190373,119.3765564925981,6.47544875391759e-05,0.0940094217658042,0,0,0
10936,395448.16656631714,2010-12-04 00:25:11,4082.0182476134846,2,36,0.5501165986061096,4.075001239776611,32.887194101694014,32.92615147764559,131.82981786701234,119.3765564925981,9.71794142969884e-05,0.0940094217658042,0,0,0
10937,395478.18342182256,2010-12-04 00:25:41,4112.035103249239,2,36,0.5501165986061096,4.077753067016602,32.89178108359453,32.92615147764559,131.84851632736218,119.3765564925981,6.47544875391759e-05,0.0940094217658042,0,0,0
10938,395508.1967033342,2010-12-04 00:26:11,4142.048384635613,2,36,0.550297200679779,4.08082914352417,32.89636746365715,32.92615147764559,131.8672253449757,119.3765564925981,6.47544875391759e-05,0.0940094217658042,0,0,0
10939,395538.2117605196,2010-12-04 00:26:41,4172.063441826005,2,36,0.5501165986061096,4.08358097076416,32.90095411671908,32.92615147764559,131.88594853454788,119.3765564925981,6.47544875391759e-05,0.0940094217658042,0,0,0
10940,395568.2269736581,2010-12-04 00:27:11,4202.078654979507,2,36,0.5501165986061096,4.08649492263794,32.90554081926532,32.92615147764559,131.90468530522543,119.3765564925981,0.0001295089750783,0.0940094217658042,0,0,0
10941,395598.2419258572,2010-12-04 00:27:41,4232.093607183646,2,36,0.5499359965324402,4.089247226715088,32.910127479349015,32.92615147764559,131.92343535562233,119.3765564925981,6.47544875391759e-05,0.0940094217658042,0,0,0
10942,395628.2569955237,2010-12-04 00:28:11,4262.10867688016,2,36,0.5501165986061096,4.092646598815918,32.914714138166914,32.92615147764559,131.94219900576934,119.3765564925981,0.0001295089750783,0.0940094217658042,0,0,0
10943,395658.2720396164,2010-12-04 00:28:41,4292.123720942885,2,36,0.5501165986061096,4.095398902893066,32.919300725121865,32.92615147764559,131.96097601544497,119.3765564925981,6.47544875391759e-05,0.0940094217658042,0,0,0
10944,395688.2895785225,2010-12-04 00:29:11,4322.141259919106,2,36,0.5501165986061096,4.098474502563477,32.92388775090812,32.92615147764559,131.97976865812092,119.3765564925981,9.70840483205393e-05,0.0940094217658042,0,0,0
10945,395718.3021469346,2010-12-04 00:29:41,4352.153828231021,2,36,0.550297200679779,4.101712226867676,32.92847403076756,32.92615147764559,131.99857220328892,119.3765564925981,0.0001295089750783,0.0940094217658042,0,0,0
10946,395748.3172505756,2010-12-04 00:30:11,4382.168931877017,2,36,0.5499359965324402,4.104302406311035,32.93306070913601,32.92615147764559,132.01739120692363,119.3765564925981,6.47544875391759e-05,0.0940094217658042,0,0,0
10947,395778.33228921983,2010-12-04 00:30:41,4412.183970526272,2,36,0.5499359965324402,4.107378482818604,32.93764736494037,32.92615147764559,132.0362240952281,119.3765564925981,3.24249267578125e-05,0.0940094217658042,0,0,0
10948,395808.3473984597,2010-12-04 00:31:11,4442.199079766187,2,36,0.5501165986061096,4.110616207122803,32.94223403961356,32.92615147764559,132.0550712463869,119.3765564925981,3.24249267578125e-05,0.0940094217658042,0,0,0
10949,395838.3624327732,2010-12-04 00:31:41,4472.214114069627,2,36,0.550297200679779,4.113691806793213,32.94682069150817,32.92615147764559,132.07393263371208,119.3765564925981,6.47544875391759e-05,0.0940094217658042,0,0,0
10950,395868.37750416907,2010-12-04 00:32:11,4502.2291854653695,2,36,0.550297200679779,4.117091178894043,32.95140742283079,32.92615147764559,132.0928088543767,119.3765564925981,0.0001295089750783,0.0940094217658042,0,0,0
10951,395898.3925832388,2010-12-04 00:32:41,4532.244264545234,2,36,0.5501165986061096,4.120167255401611,32.95599404865761,32.92615147764559,132.11169914905577,119.3765564925981,6.47544875391759e-05,0.0940094217658042,0,0,0
10952,395928.4079154636,2010-12-04 00:33:12,4562.259596770039,2,36,0.5501165986061096,4.1234049797058105,32.960580776166246,32.92615147764559,132.13060459021926,119.3765564925981,9.71794142969884e-05,0.0940094217658042,0,0,0
10953,395958.42294738616,2010-12-04 00:33:42,4592.274628692554,2,36,0.5501165986061096,4.12664270401001,32.96516747326295,32.92615147764559,132.14952463119306,119.3765564925981,9.71794142969884e-05,0.0940094217658042,0,0,0
10954,395988.4245200709,2010-12-04 00:34:12,4622.276201467498,2,36,0.550297200679779,4.129880428314209,32.969752118880606,32.92615147764559,132.16845109627295,119.3765564925981,9.71794142969884e-05,0.0940094217658042,0,0,0
10955,396018.43724852125,2010-12-04 00:34:42,4652.288929827687,2,36,0.5499359965324402,4.133118152618408,32.97433843339752,32.92615147764559,132.18739946637135,119.3765564925981,9.71794142969884e-05,0.0940094217658042,0,0,0
10956,396048.452309456,2010-12-04 00:35:12,4682.303990757385,2,36,0.5501165986061096,4.136517524719238,32.978925215466006,32.92615147764559,132.20636480807826,119.3765564925981,0.0001295089750783,0.0940094217658042,0,0,0
10957,396078.46740111214,2010-12-04 00:35:42,4712.319082408531,2,36,0.5501165986061096,4.1397552490234375,32.9835119164808,32.92615147764559,132.22534507138258,119.3765564925981,6.47544875391759e-05,0.0940094217658042,0,0,0
10958,396108.4842316154,2010-12-04 00:36:12,4742.33591304207,2,36,0.5501165986061096,4.143155097961426,32.988098934038895,32.92615147764559,132.24434201259433,119.3765564925981,0.0001295089750783,0.0940094217658042,0,0,0
10959,396138.497531999,2010-12-04 00:36:42,4772.349213320455,2,36,0.5501165986061096,4.146716594696045,32.99268535152061,32.92615147764559,132.26335202550052,119.3765564925981,9.71794142969884e-05,0.0940094217658042,0,0,0
10960,396168.5126217104,2010-12-04 00:37:12,4802.364303036788,2,36,0.5501165986061096,4.149954319000244,32.99727199000218,32.92615147764559,132.28237874356867,119.3765564925981,6.47544875391759e-05,0.0940094217658042,0,0,0
10961,396198.527675016,2010-12-04 00:37:42,4832.379356312439,2,36,0.550297200679779,4.153515815734863,33.00185929383206,32.92615147764559,132.30142402483125,119.3765564925981,6.47544875391759e-05,0.0940094217658042,0,0,0
10962,396228.54273401096,2010-12-04 00:38:12,4862.394415327372,2,36,0.550297200679779,4.156915187835693,33.00644657903614,32.92615147764559,132.3204849165882,119.3765564925981,9.70840483205393e-05,0.0940094217658042,0,0,0
10963,396258.5578293814,2010-12-04 00:38:42,4892.409510677725,2,36,0.5501165986061096,4.160315036773682,33.01103326266149,32.92615147764559,132.33955912555697,119.3765564925981,6.47544875391759e-05,0.0940094217658042,0,0,0
10964,396288.57291901245,2010-12-04 00:39:12,4922.42460037902,2,36,0.5501165986061096,4.163876533508301,33.015619889269104,32.92615147764559,132.35864914464375,119.3765564925981,6.47544875391759e-05,0.0940094217658042,0,0,0
10965,396318.588003611,2010-12-04 00:39:42,4952.439684912455,2,36,0.5501165986061096,4.16743803024292,33.02020652036799,32.92615147764559,132.3777552042285,119.3765564925981,9.71794142969884e-05,0.0940094217658042,0,0,0
10966,396348.6030573929,2010-12-04 00:40:12,4982.454738754516,2,36,0.550297200679779,4.17083740234375,33.02479310780084,32.92615147764559,132.39687728053352,119.3765564925981,6.47544875391759e-05,0.0940094217658042,0,0,0
10967,396378.6181407836,2010-12-04 00:40:42,5012.469822099994,2,36,0.5501165986061096,4.174398899078369,33.02937976892395,32.92615147764559,132.41601601820702,119.3765564925981,6.47544875391759e-05,0.0940094217658042,0,0,0
10968,396408.63331377215,2010-12-04 00:41:12,5042.48499505346,2,36,0.5501165986061096,4.178122520446777,33.033966441591794,32.92615147764559,132.43517116048685,119.3765564925981,0.0001295089750783,0.0940094217658042,0,0,0
10969,396438.6482790688,2010-12-04 00:41:42,5072.499960370229,2,36,0.550297200679779,4.1816840171813965,33.03855307868943,32.92615147764559,132.454342582123,119.3765564925981,9.71794142969884e-05,0.0940094217658042,0,0,0
10970,396468.6633523844,2010-12-04 00:42:12,5102.515033680736,2,36,0.550297200679779,4.185245513916016,33.0431397655183,32.92615147764559,132.47353081035138,119.3765564925981,9.71794142969884e-05,0.0940094217658042,0,0,0
10971,396498.6784178303,2010-12-04 00:42:42,5132.530099131685,2,36,0.5501165986061096,4.189130783081055,33.04772636664659,32.92615147764559,132.49273545987523,119.3765564925981,0.0001295089750783,0.0940094217658042,0,0,0
10972,396528.6934943537,2010-12-04 00:43:12,5162.545175650175,2,36,0.5499359965324402,4.192530155181885,33.05231301924598,32.92615147764559,132.51195726726087,119.3765564925981,9.70840483205393e-05,0.0940094217658042,0,0,0
10973,396558.70858083206,2010-12-04 00:43:42,5192.56026212845,2,36,0.5501165986061096,4.196253299713135,33.05689969614654,32.92615147764559,132.53119612044028,119.3765564925981,9.70840483205393e-05,0.0940094217658042,0,0,0
10974,396587.64553875895,2010-12-04 00:44:11,5221.497220060304,2,36,0.550297200679779,4.200138568878174,33.06132154854727,32.92615147764559,132.54975971723172,119.3765564925981,0.0001295089750783,0.0940094217658042,0,0,0
10975,396617.6666165695,2010-12-04 00:44:41,30.015357116748216,3,36,0.0,4.112072944641113,33.06132154854727,32.92615147764559,132.54975971723172,119.3765564925981,-0.0003561973571777,0.0940094217658042,0,0,0
10976,396647.6814155423,2010-12-04 00:45:11,60.03015609458923,3,36,0.0,4.101064682006836,33.06132154854727,32.92615147764559,132.54975971723172,119.3765564925981,-0.0002266883820993,0.0940094217658042,0,0,0
10977,396677.6966127261,2010-12-04 00:45:41,90.04535328336283,3,36,0.0,4.094427585601807,33.06132154854727,32.92615147764559,132.54975971723172,119.3765564925981,-0.0001618385285837,0.0940094217658042,0,0,0
10978,396707.6648138319,2010-12-04 00:46:11,120.0135543791666,3,36,0.0,4.0903801918029785,33.06132154854727,32.92615147764559,132.54975971723172,119.3765564925981,-9.71794142969884e-05,0.0940094217658042,0,0,0
10979,396707.6726240615,2010-12-04 00:46:11,2.756860341e-06,4,36,1.0025428533554075,4.199814796447754,33.06132154931501,32.92615147764559,132.5497597204561,119.3765564925981,0.0,0.0940094217658042,0,0,0
10980,396708.3600789114,2010-12-04 00:46:12,0.687457601801406,4,36,0.952514111995697,4.199491024017334,33.06150665795458,32.92615147764559,132.5505371233803,119.3765564925981,-6.47544875391759e-05,0.0940094217658042,0,0,0
10981,396710.2819218487,2010-12-04 00:46:14,2.609300518983779,4,36,0.902304708957672,4.199814796447754,33.062000668821526,32.92615147764559,132.55261183190893,119.3765564925981,0.0,0.0940094217658042,0,0,0
10982,396713.2193831432,2010-12-04 00:46:17,5.546761908672735,4,36,0.8522759079933167,4.199653148651123,33.06271546833902,32.92615147764559,132.55561380173344,119.3765564925981,-3.23295607813634e-05,0.0940094217658042,0,0,0
10983,396717.3911636886,2010-12-04 00:46:21,9.71854237891985,4,36,0.8020665645599365,4.199653148651123,33.06367279933748,32.92615147764559,132.55963432221714,119.3765564925981,-3.23295607813634e-05,0.0940094217658042,0,0,0
10984,396722.8928204248,2010-12-04 00:46:26,15.220199200317714,4,36,0.7514959573745728,4.199814796447754,33.064858322458,32.92615147764559,132.56461320706836,119.3765564925981,0.0,0.0940094217658042,0,0,0
10985,396730.0940920472,2010-12-04 00:46:33,22.421470752603597,4,36,0.7011059522628784,4.199814796447754,33.06630919339956,32.92615147764559,132.5707065011844,119.3765564925981,-3.24249267578125e-05,0.0940094217658042,0,0,0
10986,396739.6563785194,2010-12-04 00:46:43,31.983757204659288,4,36,0.6510772109031677,4.199814796447754,33.06810193609926,32.92615147764559,132.57823556777453,119.3765564925981,0.0,0.0940094217658042,0,0,0
10987,396752.8748943677,2010-12-04 00:46:56,45.202273057955765,4,36,0.6010484099388123,4.199653148651123,33.07039621974067,32.92615147764559,132.5878710047378,119.3765564925981,0.0,0.0940094217658042,0,0,0
10988,396773.0620374317,2010-12-04 00:47:16,65.38941611702968,4,36,0.5510196685791016,4.199653148651123,33.073617138566604,32.92615147764559,132.60139805927952,119.3765564925981,-3.23295607813634e-05,0.0940094217658042,0,0,0
10989,396807.43638942455,2010-12-04 00:47:51,99.7637681098734,4,36,0.5008102655410767,4.199814796447754,33.07861759397538,32.92615147764559,132.62239872768643,119.3765564925981,3.23295607813634e-05,0.0940094217658042,0,0,0
10990,396871.4978460505,2010-12-04 00:48:55,163.8252247357848,4,36,0.4507815241813659,4.199653148651123,33.087046935050296,32.92615147764559,132.65779985025063,119.3765564925981,0.0,0.0940094217658042,0,0,0
10991,396970.66775792686,2010-12-04 00:50:34,262.99513661727457,4,36,0.4007527530193329,4.199653148651123,33.09874688155492,32.92615147764559,132.70693673935497,119.3765564925981,-3.23295607813634e-05,0.0940094217658042,0,0,0
10992,397096.07169320167,2010-12-04 00:52:39,388.399071886965,4,36,0.3507239818572998,4.199653148651123,33.11181964561705,32.92615147764559,132.7618391704594,119.3765564925981,0.0,0.0940094217658042,0,0,0
10993,397246.2879622447,2010-12-04 00:55:10,538.615341020154,4,36,0.3003339767456054,4.199653148651123,33.12539079415512,32.92615147764559,132.81883467755284,119.3765564925981,0.0,0.0940094217658042,0,0,0
10994,397427.84683340247,2010-12-04 00:58:11,720.1742120927847,4,36,0.2503052055835724,4.199653148651123,33.13925360862917,32.92615147764559,132.87705512841208,119.3765564925981,-3.23295607813634e-05,0.0940094217658042,0,0,0
10995,397650.0632614368,2010-12-04 01:01:53,942.390640247462,4,36,0.2002764493227005,4.199653148651123,33.153115757236776,32.92615147764559,132.93527265686694,119.3765564925981,-6.47544875391759e-05,0.0940094217658042,0,0,0
10996,397945.8998015586,2010-12-04 01:06:49,1238.2271802439147,4,36,0.1502476781606674,4.199653148651123,33.167439746331766,32.92615147764559,132.9954297716345,119.3765564925981,-3.23295607813634e-05,0.0940094217658042,0,0,0
10997,398396.29953894205,2010-12-04 01:14:20,1688.6269177275758,4,36,0.1002189069986343,4.199653148651123,33.18289608893212,32.92615147764559,133.0603424965135,119.3765564925981,0.0,0.0940094217658042,0,0,0
10998,399264.8912874457,2010-12-04 01:28:48,2557.218666131103,4,36,0.0501901358366012,4.199653148651123,33.20033849785331,32.92615147764559,133.13359619139692,119.3765564925981,0.0,0.0940094217658042,0,0,0
10999,399280.0627549792,2010-12-04 01:29:03,2572.390133684592,4,36,0.0498289167881011,4.199653148651123,33.20055179414081,32.92615147764559,133.13449198211896,119.3765564925981,0.0,0.0940094217658042,0,0,0
11000,399310.0864387559,2010-12-04 01:29:34,30.015268661631065,5,36,0.0,4.191558837890625,33.20055179414081,32.92615147764559,133.13449198211896,119.3765564925981,-3.24249267578125e-05,0.0940094217658042,0,0,0
11001,399340.0856975375,2010-12-04 01:30:04,60.0145274382791,5,36,0.0,4.190425872802734,33.20055179414081,32.92615147764559,133.13449198211896,119.3765564925981,0.0,0.0940094217658042,0,0,0
11002,399340.2672249008,2010-12-04 01:30:04,0.187633187971606,6,36,-1.9243103452026844e-05,4.190263748168945,33.20055179414081,32.92615147864855,133.13449198211896,119.37655649680076,0.0,0.0971632748842239,0,0,0
11003,399345.0968743176,2010-12-04 01:30:09,5.017282674964238,6,36,0.0005225847125984,4.190263748168945,33.20055266276545,32.926151478731455,133.13449562201015,119.37655649714814,-3.24249267578125e-05,0.0971632748842239,0,0,0
11004,399375.1198908544,2010-12-04 01:30:39,30.015171840695885,7,36,-1.099568486213684,4.008627891540527,33.20055266276545,32.93532034093751,133.13449562201015,119.41351557468036,-0.0010360718006268,0.0971632748842239,0,0,0
11005,399405.13518724,2010-12-04 01:31:09,60.03046822631703,7,36,-1.0997490882873535,3.981107473373413,33.20055266276545,32.94448927715028,133.13449562201015,119.45013630615568,-0.0006475448608398,0.0971632748842239,0,0,0
11006,399435.1499202838,2010-12-04 01:31:39,90.04520130015847,7,36,-1.0997490882873535,3.962166786193848,33.20055266276545,32.953657846540494,133.13449562201015,119.48654626814862,-0.0004532813909463,0.0971632748842239,0,0,0
11007,399465.1649814591,2010-12-04 01:32:09,120.0602623802308,7,36,-1.099568486213684,3.9472732543945312,33.20055266276545,32.96282663831801,133.13449562201015,119.5228040174036,-0.0003885269106831,0.0971632748842239,0,0,0
11008,399495.1800483586,2010-12-04 01:32:39,150.07532927978468,7,36,-1.099568486213684,3.934484243392944,33.20055266276545,32.97199531904774,133.13449562201015,119.55893627325209,-0.0003561496851034,0.0971632748842239,0,0,0
11009,399525.1951392981,2010-12-04 01:33:09,180.09042021916076,7,36,-1.0997490882873535,3.922990322113037,33.20055266276545,32.981164045818026,133.13449562201015,119.5949577586081,-0.0003237724304199,0.0971632748842239,0,0,0
11010,399555.2102141624,2010-12-04 01:33:39,210.1054950835348,7,36,-1.0997490882873535,3.912144184112549,33.20055266276545,32.99033276866417,133.13449562201015,119.6308766790647,-0.0002590179501567,0.0971632748842239,0,0,0
11011,399585.22526747815,2010-12-04 01:34:09,240.12054839928587,7,36,-1.099568486213684,3.9017834663391113,33.20055266276545,32.99950149457494,133.13449562201015,119.66669823593288,-0.0002590179501567,0.0971632748842239,0,0,0
11012,399615.2404717044,2010-12-04 01:34:39,270.1357526255721,7,36,-1.099568486213684,3.8920702934265137,33.20055266276545,33.00867023091413,133.13449562201015,119.70242701385712,-0.0002266406954731,0.0971632748842239,0,0,0
11013,399645.2554275226,2010-12-04 01:35:09,300.1507084437041,7,36,-1.099568486213684,3.882357120513916,33.20055266276545,33.01783937088458,133.13449562201015,119.73806843353132,-0.0002590179501567,0.0971632748842239,0,0,0
11014,399675.2706194281,2010-12-04 01:35:39,330.16590034933085,7,36,-1.099929690361023,3.8729677200317374,33.20055266276545,33.027009109951024,133.13449562201015,119.77362570797892,-0.0002590179501567,0.0971632748842239,0,0,0
11015,399705.28556763736,2010-12-04 01:36:09,360.18084855852834,7,36,-1.0997490882873535,3.8642258644104,33.20055266276545,33.03617875079436,133.13449562201015,119.80909953557465,-0.0002266406954731,0.0971632748842239,0,0,0
11016,399735.30072986416,2010-12-04 01:36:39,390.1960109106122,7,36,-1.099929690361023,3.855322122573853,33.20055266276545,33.04534846147571,133.13449562201015,119.8444924406632,-0.0002590179501567,0.0971632748842239,0,0,0
11017,399765.3158555149,2010-12-04 01:37:09,420.2111365262789,7,36,-1.099568486213684,3.846904039382935,33.20055266276545,33.05451763455204,133.13449562201015,119.87980381643564,-0.0002266406954731,0.0971632748842239,0,0,0
11018,399795.3329405415,2010-12-04 01:37:39,450.2282215528642,7,36,-1.099929690361023,3.838324069976807,33.20055266276545,33.06368702514271,133.13449562201015,119.9150384442497,-0.0002590179501567,0.0971632748842239,0,0,0
11019,399825.3458890896,2010-12-04 01:38:09,480.24117000574506,7,36,-1.0997490882873535,3.8303918838500977,33.20055266276545,33.072855181711816,133.13449562201015,119.95019263742486,-0.0001942634553415,0.0971632748842239,0,0,0
11020,399855.36093376885,2010-12-04 01:38:39,510.2562146900172,7,36,-1.0997490882873535,3.8221356868743896,33.20055266276545,33.08202401491621,133.13449562201015,119.98527486420168,-0.0002266406954731,0.0971632748842239,0,0,0
11021,399885.37599931,2010-12-04 01:39:09,540.2712802562531,7,36,-1.0997490882873535,3.8142032623291016,33.20055266276545,33.0911928610423,133.13449562201015,120.02028381788853,-0.0002266406954731,0.0971632748842239,0,0,0
11022,399915.3910546608,2010-12-04 01:39:39,570.2863356120808,7,36,-1.0997490882873535,3.806432723999024,33.20055266276545,33.1003616151377,133.13449562201015,120.0552198532388,-0.0001942634553415,0.0971632748842239,0,0,0
11023,399945.4061786425,2010-12-04 01:40:09,600.3014595636063,7,36,-1.099929690361023,3.798662185668945,33.20055266276545,33.10953046243669,133.13449562201015,120.09008562851832,-0.0002266406954731,0.0971632748842239,0,0,0
11024,399975.42127515073,2010-12-04 01:40:39,630.3165560718403,7,36,-1.0997490882873535,3.791377305984497,33.20055266276545,33.11869928507055,133.13449562201015,120.12488260957528,-0.0001942634553415,0.0971632748842239,0,0,0
11025,400005.4363318349,2010-12-04 01:41:09,660.331612760986,7,36,-1.0997490882873535,3.784254312515259,33.20055266276545,33.12786817542859,133.13449562201015,120.15961286294936,-0.0001618862152099,0.0971632748842239,0,0,0
11026,400035.4513968348,2010-12-04 01:41:39,690.3466777558,7,36,-1.0997490882873535,3.777131319046021,33.20055266276545,33.13703703036168,133.13449562201015,120.19427702550831,-0.0001618862152099,0.0971632748842239,0,0,0
11027,400065.4664687367,2010-12-04 01:42:09,720.3617496578023,7,36,-1.099568486213684,3.770332098007202,33.20055266276545,33.146205904724376,133.13449562201015,120.2288770647308,-0.0001295089750783,0.0971632748842239,0,0,0
11028,400095.48154901445,2010-12-04 01:42:39,750.37682994066,7,36,-1.099568486213684,3.763370990753174,33.20055266276545,33.15537475125696,133.13449562201015,120.26341463054504,-0.0001942634553415,0.0971632748842239,0,0,0
11029,400125.49662311695,2010-12-04 01:43:09,780.3919040481508,7,36,-1.0997490882873535,3.756895542144776,33.20055266276545,33.16454361800321,133.13449562201015,120.2978912697358,-0.0001942634553415,0.0971632748842239,0,0,0
11030,400155.51169854274,2010-12-04 01:43:39,810.4069795290588,7,36,-1.099568486213684,3.750582218170166,33.20055266276545,33.17371254004986,133.13449562201015,120.33230809931749,-0.0001295089750783,0.0971632748842239,0,0,0
11031,400185.5269076411,2010-12-04 01:44:09,840.4221885623069,7,36,-1.0997490882873535,3.744106769561768,33.20055266276545,33.18288149004231,133.13449562201015,120.36666625111047,-0.0001618862152099,0.0971632748842239,0,0,0
11032,400215.5418426024,2010-12-04 01:44:39,870.4371235235375,7,36,-1.0997490882873535,3.737793207168579,33.20055266276545,33.192050428878815,133.13449562201015,120.40096701504588,-0.0002266406954731,0.0971632748842239,0,0,0
11033,400245.5570464277,2010-12-04 01:45:09,900.4523273688757,7,36,-1.0997490882873535,3.7318034172058105,33.20055266276545,33.20121936659347,133.13449562201015,120.43521194060595,-0.0001618862152099,0.0971632748842239,0,0,0
11034,400275.57210918696,2010-12-04 01:45:39,930.4673901080766,7,36,-1.099568486213684,3.725975513458252,33.20055266276545,33.210388206474455,133.13449562201015,120.46940173622866,-0.0001618862152099,0.0971632748842239,0,0,0
11035,400305.5870604387,2010-12-04 01:46:09,960.482341364858,7,36,-1.0997490882873535,3.7199857234954834,33.20055266276545,33.21955703199244,133.13449562201015,120.50353729407249,-0.0001618862152099,0.0971632748842239,0,0,0
11036,400335.6021322204,2010-12-04 01:46:39,990.4974131415483,7,36,-1.099568486213684,3.714157819747925,33.20055266276545,33.22872600627116,133.13449562201015,120.53761917068498,-0.0001942634553415,0.0971632748842239,0,0,0
11037,400365.6193594859,2010-12-04 01:47:09,1020.5146405424268,7,36,-1.099929690361023,3.708329916000366,33.20055266276545,33.237895561490994,133.13449562201015,120.57164937888574,-0.0001618862152099,0.0971632748842239,0,0,0
11038,400395.6340597682,2010-12-04 01:47:39,1050.5293407745428,7,36,-1.0997490882873535,3.7026638984680176,33.20055266276545,33.24706431532234,133.13449562201015,120.6056245091559,-0.0001618862152099,0.0971632748842239,0,0,0
11039,400425.6473681919,2010-12-04 01:48:09,1080.5426491179974,7,36,-1.0997490882873535,3.697159767150879,33.20055266276545,33.25623277512398,133.13449562201015,120.63954757673972,-0.0001618862152099,0.0971632748842239,0,0,0
11040,400455.6624366855,2010-12-04 01:48:39,1110.557717606505,7,36,-1.0997490882873535,3.69165563583374,33.20055266276545,33.26540173234585,133.13449562201015,120.6734222786834,-0.0001618862152099,0.0971632748842239,0,0,0
11041,400485.67767250526,2010-12-04 01:49:09,1140.5729534264112,7,36,-1.0997490882873535,3.6864752769470215,33.20055266276545,33.27457070915712,133.13449562201015,120.7072471077214,-0.0001295089750783,0.0971632748842239,0,0,0
11042,400515.6925808703,2010-12-04 01:49:39,1170.587861791458,7,36,-1.099568486213684,3.6811330318450928,33.20055266276545,33.28373960792114,133.13449562201015,120.7410226208034,-0.0001295089750783,0.0971632748842239,0,0,0
11043,400545.7076558299,2010-12-04 01:50:09,1200.6029367560814,7,36,-1.0997490882873535,3.675790786743164,33.20055266276545,33.29290858373062,133.13449562201015,120.77475012007864,-0.0001618862152099,0.0971632748842239,0,0,0
11044,400575.72264598846,2010-12-04 01:50:39,1230.6179269347183,7,36,-1.0997490882873535,3.670610666275024,33.20055266276545,33.30207756447977,133.13449562201015,120.80842996600632,-0.0001618862152099,0.0971632748842239,0,0,0
11045,400605.7379186802,2010-12-04 01:51:10,1260.6331997266277,7,36,-1.0997490882873535,3.6654303073883057,33.20055266276545,33.311246640486004,133.13449562201015,120.84206327857852,-0.0001618862152099,0.0971632748842239,0,0,0
11046,400635.7551676798,2010-12-04 01:51:40,1290.6504487262534,7,36,-1.099568486213684,3.660573720932007,33.20055266276545,33.32041631126998,133.13449562201015,120.87565261980416,-0.0001295089750783,0.0971632748842239,0,0,0
11047,400665.7679466058,2010-12-04 01:52:10,1320.663227547011,7,36,-1.0997490882873535,3.655717134475708,33.20055266276545,33.32958453729983,133.13449562201015,120.9091912797537,-9.713172767078504e-05,0.0971632748842239,0,0,0
11048,400695.7829452555,2010-12-04 01:52:40,1350.6782261766782,7,36,-1.0997490882873535,3.650860548019409,33.20055266276545,33.33875345922598,133.13449562201015,120.94268746396207,-0.0001295089750783,0.0971632748842239,0,0,0
11049,400725.7981581685,2010-12-04 01:53:10,1380.69343920988,7,36,-1.099568486213684,3.6460039615631104,33.20055266276545,33.34792232355996,133.13449562201015,120.97613897933776,-6.47544875391759e-05,0.0971632748842239,0,0,0
11050,400755.8131759658,2010-12-04 01:53:40,1410.7084568819332,7,36,-1.0997490882873535,3.641147375106812,33.20055266276545,33.35709117952211,133.13449562201015,121.00954705206009,-0.0001618862152099,0.0971632748842239,0,0,0
11051,400785.82824260974,2010-12-04 01:54:10,1440.7235235358758,7,36,-1.0997490882873535,3.636776447296143,33.20055266276545,33.36626009687141,133.13449562201015,121.04291269068024,-9.713172767078504e-05,0.0971632748842239,0,0,0
11052,400815.8433631178,2010-12-04 01:54:40,1470.738644043832,7,36,-1.0997490882873535,3.632243633270264,33.20055266276545,33.3754290909381,133.13449562201015,121.07623690726888,-0.0001295089750783,0.0971632748842239,0,0,0
11053,400845.8584001128,2010-12-04 01:55:10,1500.7536810339575,7,36,-1.0997490882873535,3.6277108192443848,33.20055266276545,33.384598027693926,133.13449562201015,121.10952011224484,-0.0001295089750783,0.0971632748842239,0,0,0
11054,400875.8734623458,2010-12-04 01:55:40,1530.7687432618864,7,36,-1.099929690361023,3.623501777648926,33.20055266276545,33.39376703948616,133.13449562201015,121.14276361920264,-9.713172767078504e-05,0.0971632748842239,0,0,0
11055,400905.88853602216,2010-12-04 01:56:10,1560.7838169433169,7,36,-1.099568486213684,3.619292736053467,33.20055266276545,33.40293600086239,133.13449562201015,121.17596775887876,-0.0001295089750783,0.0971632748842239,0,0,0
11056,400935.9036446356,2010-12-04 01:56:40,1590.798925686998,7,36,-1.099568486213684,3.615083694458008,33.20055266276545,33.41210508496513,133.13449562201015,121.20913353172496,-9.713172767078504e-05,0.0971632748842239,0,0,0
11057,400965.9187025628,2010-12-04 01:57:10,1620.8139834788878,7,36,-1.0997490882873535,3.610874652862549,33.20055266276545,33.421274061314065,133.13449562201015,121.2422614276602,-0.0001618862152099,0.0971632748842239,0,0,0
11058,400995.9356508691,2010-12-04 01:57:40,1650.8309318754748,7,36,-1.099568486213684,3.60715126991272,33.20055266276545,33.430443635152926,133.13449562201015,121.27535468048934,-6.47544875391759e-05,0.0971632748842239,0,0,0
11059,401025.9488668628,2010-12-04 01:58:10,1680.8441477788958,7,36,-1.0997490882873535,3.6032660007476807,33.20055266276545,33.43961207472957,133.13449562201015,121.30840799379676,-9.713172767078504e-05,0.0971632748842239,0,0,0
11060,401055.9639076724,2010-12-04 01:58:40,1710.8591885885262,7,36,-1.0997490882873535,3.599542617797852,33.20055266276545,33.44878104526662,133.13449562201015,121.34142845262348,-6.47544875391759e-05,0.0971632748842239,0,0,0
11061,401085.9789926419,2010-12-04 01:59:10,1740.8742735580463,7,36,-1.0997490882873535,3.5958192348480225,33.20055266276545,33.45795007820622,133.13449562201015,121.37441548028497,-9.713172767078504e-05,0.0971632748842239,0,0,0
11062,401115.9940574362,2010-12-04 01:59:40,1770.8893383523614,7,36,-1.0997490882873535,3.5922577381134038,33.20055266276545,33.46711912675941,133.13449562201015,121.40736964976097,-9.713172767078504e-05,0.0971632748842239,0,0,0
11063,401146.0091375136,2010-12-04 02:00:10,1800.9044184347204,7,36,-1.0997490882873535,3.588858366012573,33.20055266276545,33.47628814759418,133.13449562201015,121.44029142534106,-6.47544875391759e-05,0.0971632748842239,0,0,0
11064,401176.024206368,2010-12-04 02:00:40,1830.9194872841265,7,36,-1.099929690361023,3.585296869277954,33.20055266276545,33.48545718680892,133.13449562201015,121.47318188317868,-0.0001295089750783,0.0971632748842239,0,0,0
11065,401206.03942787234,2010-12-04 02:01:10,1860.934708793421,7,36,-1.0997490882873535,3.582221031188965,33.20055266276545,33.49462623501441,133.13449562201015,121.50604157629218,-6.47544875391759e-05,0.0971632748842239,0,0,0
11066,401236.0543768534,2010-12-04 02:01:40,1890.9496577695263,7,36,-1.0997490882873535,3.578821420669556,33.20055266276545,33.503795166690495,133.13449562201015,121.53887058750875,-6.47544875391759e-05,0.0971632748842239,0,0,0
11067,401266.069597696,2010-12-04 02:02:10,1920.9648787174235,7,36,-1.099929690361023,3.5757455825805664,33.20055266276545,33.51296428018934,133.13449562201015,121.57167048792395,-3.237724376958795e-05,0.0971632748842239,0,0,0
11068,401296.08450936433,2010-12-04 02:02:40,1950.9797902904536,7,36,-1.0997490882873535,3.572507858276367,33.20055266276545,33.522133173285475,133.13449562201015,121.60444035060804,-6.47544875391759e-05,0.0971632748842239,0,0,0
11069,401326.0999106961,2010-12-04 02:03:10,1980.9951916172167,7,36,-1.099929690361023,3.569270133972168,33.20055266276545,33.53130221810135,133.13449562201015,121.6371819922156,-9.713172767078504e-05,0.0971632748842239,0,0,0
11070,401356.1146663611,2010-12-04 02:03:40,2011.009947282275,7,36,-1.099929690361023,3.5661942958831787,33.20055266276545,33.540471153407225,133.13449562201015,121.6698946181392,-9.713172767078504e-05,0.0971632748842239,0,0,0
11071,401386.1298564472,2010-12-04 02:04:10,2041.0251373683743,7,36,-1.099929690361023,3.5632803440093994,33.20055266276545,33.54964026828425,133.13449562201015,121.70257936414755,-3.237724376958795e-05,0.0971632748842239,0,0,0
11072,401416.1449324995,2010-12-04 02:04:40,2071.0402134207047,7,36,-1.0997490882873535,3.5600426197052,33.20055266276545,33.55880925444854,133.13449562201015,121.73523632449222,-9.713172767078504e-05,0.0971632748842239,0,0,0
11073,401446.15992310434,2010-12-04 02:05:10,2101.055204025401,7,36,-1.099568486213684,3.557128667831421,33.20055266276545,33.567978224187115,133.13449562201015,121.76786505631704,-6.47544875391759e-05,0.0971632748842239,0,0,0
11074,401476.1750150762,2010-12-04 02:05:40,2131.07029600236,7,36,-1.0997490882873535,3.554052829742432,33.20055266276545,33.57714728693853,133.13449562201015,121.80046580537028,-9.713172767078504e-05,0.0971632748842239,0,0,0
11075,401506.19016361394,2010-12-04 02:06:10,2161.085444530042,7,36,-1.099568486213684,3.5509769916534424,33.20055266276545,33.58631634953101,133.13449562201015,121.8330381868082,-6.47544875391759e-05,0.0971632748842239,0,0,0
11076,401536.205246002,2010-12-04 02:06:40,2191.100527008363,7,36,-1.099929690361023,3.547739267349243,33.20055266276545,33.59548533319447,133.13449562201015,121.86558174839054,-6.47544875391759e-05,0.0971632748842239,0,0,0
11077,401566.22032115207,2010-12-04 02:07:10,2221.115602168473,7,36,-1.099568486213684,3.544663429260254,33.20055266276545,33.60465434523624,133.13449562201015,121.89809624304918,-6.47544875391759e-05,0.0971632748842239,0,0,0
11078,401596.23716307874,2010-12-04 02:07:40,2251.132444095114,7,36,-1.099568486213684,3.5414257049560547,33.20055266276545,33.613823848335805,133.13449562201015,121.93058312210442,-9.713172767078504e-05,0.0971632748842239,0,0,0
11079,401626.250330286,2010-12-04 02:08:10,2281.145611202107,7,36,-1.0997490882873535,3.538026094436645,33.20055266276545,33.62299231385914,133.13449562201015,121.96303659850014,-9.713172767078504e-05,0.0971632748842239,0,0,0
11080,401656.2654427639,2010-12-04 02:08:40,2311.1607237703056,7,36,-1.0997490882873535,3.5346264839172363,33.20055266276545,33.632161342065025,133.13449562201015,121.99546141054527,-9.713172767078504e-05,0.0971632748842239,0,0,0
11081,401686.28060965735,2010-12-04 02:09:10,2341.1758905834904,7,36,-1.0997490882873535,3.531226873397827,33.20055266276545,33.64133041953636,133.13449562201015,122.02785521683832,-6.47544875391759e-05,0.0971632748842239,0,0,0
11082,401716.2959454811,2010-12-04 02:09:40,2371.191226467401,7,36,-1.0997490882873535,3.527827262878418,33.20055266276545,33.65049954780027,133.13449562201015,122.06021745631216,-6.47544875391759e-05,0.0971632748842239,0,0,0
11083,401746.3106213977,2010-12-04 02:10:10,2401.20590232386,7,36,-1.099568486213684,3.524103879928589,33.20055266276545,33.65966845744905,133.13449562201015,122.09254637166666,-6.47544875391759e-05,0.0971632748842239,0,0,0
11084,401776.32582311775,2010-12-04 02:10:40,2431.221104089021,7,36,-1.0997490882873535,3.52038049697876,33.20055266276545,33.6688374862853,133.13449562201015,122.1248418316807,-9.713172767078504e-05,0.0971632748842239,0,0,0
11085,401806.340803076,2010-12-04 02:11:10,2461.2360839920884,7,36,-1.0997490882873535,3.5164952278137207,33.20055266276545,33.678006447575065,133.13449562201015,122.15710217711812,-9.713172767078504e-05,0.0971632748842239,0,0,0
11086,401836.3558449934,2010-12-04 02:11:40,2491.2511259094745,7,36,-1.0997490882873535,3.512448072433472,33.20055266276545,33.68717549627923,133.13449562201015,122.1893263970382,-9.713172767078504e-05,0.0971632748842239,0,0,0
11087,401866.37094443885,2010-12-04 02:12:10,2521.26622536003,7,36,-1.0997490882873535,3.508239269256592,33.20055266276545,33.696344495273266,133.13449562201015,122.2215122494784,-9.713172767078504e-05,0.0971632748842239,0,0,0
11088,401896.3860040403,2010-12-04 02:12:40,2551.281284961424,7,36,-1.0997490882873535,3.503544569015503,33.20055266276545,33.705513541993966,133.13449562201015,122.25365758418174,-0.0001295089750783,0.0971632748842239,0,0,0
11089,401926.4011530994,2010-12-04 02:13:10,2581.296434120677,7,36,-1.0997490882873535,3.498687982559204,33.20055266276545,33.71468265506547,133.13449562201015,122.2857598552084,-9.713172767078504e-05,0.0971632748842239,0,0,0
11090,401956.4161414534,2010-12-04 02:13:40,2611.311422369512,7,36,-1.099929690361023,3.493183851242065,33.20055266276545,33.72385166190027,133.13449562201015,122.31781541398618,-0.0001942634553415,0.0971632748842239,0,0,0
11091,401986.4313808773,2010-12-04 02:14:10,2641.326661808423,7,36,-1.0997490882873535,3.487517833709717,33.20055266276545,33.73302078460683,133.13449562201015,122.34982070882944,-0.0001618862152099,0.0971632748842239,0,0,0
11092,402016.4463000693,2010-12-04 02:14:40,2671.3415809954,7,36,-1.0997490882873535,3.4810423851013184,33.20055266276545,33.742189772819735,133.13449562201015,122.38176956028022,-0.0002266406954731,0.0971632748842239,0,0,0
11093,402046.4613977504,2010-12-04 02:15:10,2701.3566787166524,7,36,-1.0997490882873535,3.47375750541687,33.20055266276545,33.751358763049026,133.13449562201015,122.41365546150736,-0.0002266406954731,0.0971632748842239,0,0,0
11094,402076.4764617828,2010-12-04 02:15:40,2731.371742703959,7,36,-1.099929690361023,3.465663194656372,33.20055266276545,33.7605277598192,133.13449562201015,122.44547070131124,-0.0002266406954731,0.0971632748842239,0,0,0
11095,402106.4915168379,2010-12-04 02:16:10,2761.386797759039,7,36,-1.099568486213684,3.4561119079589844,33.20055266276545,33.76969674726207,133.13449562201015,122.47720453250938,-0.0002590179501567,0.0971632748842239,0,0,0
11096,402136.50659165217,2010-12-04 02:16:40,2791.401872573288,7,36,-1.0997490882873535,3.444617986679077,33.20055266276545,33.77886579249773,133.13449562201015,122.50884210303497,-0.0002913951757363,0.0971632748842239,0,0,0
11097,402166.5216761706,2010-12-04 02:17:10,2821.416957091686,7,36,-1.0997490882873535,3.43037223815918,33.20055266276545,33.78803486981299,133.13449562201015,122.54036266117735,-0.0003884792386088,0.0971632748842239,0,0,0
11098,402196.538525676,2010-12-04 02:17:40,2851.433806692424,7,36,-1.099568486213684,3.412402868270874,33.20055266276545,33.79720450630696,133.13449562201015,122.5717385293474,-0.0005180359003134,0.0971632748842239,0,0,0
11099,402226.5518239344,2010-12-04 02:18:10,2881.447104850532,7,36,-1.099929690361023,3.38909125328064,33.20055266276545,33.806373015846475,133.13449562201015,122.60292265599996,-0.0006799221155233,0.0971632748842239,0,0,0
11100,402256.56689276366,2010-12-04 02:18:40,2911.462173679888,7,36,-1.0997490882873535,3.357847213745117,33.20055266276545,33.81554252388211,133.13449562201015,122.63386244783162,-0.0009389400365762,0.0971632748842239,0,0,0
11101,402286.5842803031,2010-12-04 02:19:10,2941.479561334552,7,36,-1.099929690361023,3.3157570362091064,33.20055266276545,33.82471308292236,133.13449562201015,122.66447246149704,-0.0012950897216796,0.0971632748842239,0,0,0
11102,402316.59719966864,2010-12-04 02:19:40,2971.4924806699746,7,36,-1.099568486213684,3.2578020095825195,33.20055266276545,33.833881860573484,133.13449562201015,122.69462229186134,-0.0017807483673095,0.0971632748842239,0,0,0
11103,402346.6122151302,2010-12-04 02:20:10,3001.5074961716277,7,36,-1.0997490882873535,3.1760497093200684,33.20055266276545,33.84305087020496,133.13449562201015,122.72414211038976,-0.0025578022468835,0.0971632748842239,0,0,0
11104,402376.6273629261,2010-12-04 02:20:40,3031.522643912351,7,36,-1.0997490882873535,3.052854537963867,33.20055266276545,33.85222001964797,133.13449562201015,122.75274199315368,-0.0039500235579907,0.0971632748842239,0,0,0
11105,402403.26736099663,2010-12-04 02:21:07,3058.162641917772,7,36,-1.099568486213684,2.852602005004883,33.20055266276545,33.8603580824581,133.13449562201015,122.77686609693194,-0.0079323770478367,0.0971632748842239,0,0,0
11106,402416.58209421806,2010-12-04 02:21:20,3071.477375279638,7,36,-1.099568486213684,2.699943780899048,33.20055266276545,33.86442550524607,133.13449562201015,122.78816544038966,-0.0095512391999363,0.0971632748842239,0,0,0
11107,402476.5819692169,2010-12-04 02:22:21,60.01454172382815,8,36,0.0,3.3567140102386475,33.20055266276545,33.86442550524607,133.13449562201015,122.78816544038966,0.0012626647949218,0.0971632748842239,0,0,0
11108,402476.7585124525,2010-12-04 02:22:21,0.187634100241755,9,36,-1.9243103452026844e-05,3.3570377826690674,33.20055266276545,33.86442550624903,133.13449562201015,122.78816544375664,0.0,0.0938397273421287,0,0,0
11109,402481.5883795862,2010-12-04 02:22:26,5.017501238852066,9,36,0.0001613661734154,3.3649702072143555,33.20055339081253,33.86442550641532,133.13449806951718,122.7881654443149,0.0011332035064697,0.0938397273421287,0,0,0
