Data_Point,Test_Time(s),Date_Time,Step_Time(s),Step_Index,Cycle_Index,Current(A),Voltage(V),Charge_Capacity(Ah),Discharge_Capacity(Ah),Charge_Energy(Wh),Discharge_Energy(Wh),dV/dt(V/s),Internal_Resistance(Ohm),Is_FC_Data,AC_Impedance(Ohm),ACI_Phase_Angle(Deg)
12956,466913.46387208445,2010-12-04 20:16:25,30.01510953565218,1,43,0.0,3.383263349533081,38.694702502601736,39.36670054616142,155.09981284323197,142.77868061744658,0.0007446765666827,0.0940094217658042,0,0,0
12957,466943.47890496935,2010-12-04 20:16:55,60.03014241053699,1,43,0.0,3.4054417610168457,38.694702502601736,39.36670054616142,155.09981284323197,142.77868061744658,0.0005180359003134,0.0940094217658042,0,0,0
12958,466973.4940311464,2010-12-04 20:17:25,90.04526858760069,1,43,0.0,3.4222779273986816,38.694702502601736,39.36670054616142,155.09981284323197,142.77868061744658,0.0003561496851034,0.0940094217658042,0,0,0
12959,467003.4622427032,2010-12-04 20:17:55,120.01348005421184,1,43,0.0,3.436199903488159,38.694702502601736,39.36670054616142,155.09981284323197,142.77868061744658,0.0003561496851034,0.0940094217658042,0,0,0
12960,467033.47223023867,2010-12-04 20:18:25,30.01336058846437,2,43,0.5501165986061096,3.599704504013061,38.69928910511146,39.36670054616142,155.11615630253374,142.77868061744658,0.0016188144218176,0.0940094217658042,0,0,0
12961,467063.4872358608,2010-12-04 20:18:55,60.02836621053159,2,43,0.5501165986061096,3.64827036857605,38.70387602845675,39.36670054616142,155.1327861769203,142.77868061744658,0.0011008263099938,0.0940094217658042,0,0,0
12962,467093.5047572382,2010-12-04 20:19:25,90.04588763808401,2,43,0.5501165986061096,3.683399438858032,38.70846321783579,39.36670054616142,155.14960552071028,142.77868061744658,0.0008418083307333,0.0940094217658042,0,0,0
12963,467123.5174394485,2010-12-04 20:19:55,120.05856982838064,2,43,0.5501165986061096,3.7109200954437256,38.71304969801334,39.36670054616142,155.16656475358337,142.77868061744658,0.0006475448608398,0.0940094217658042,0,0,0
12964,467153.53261554986,2010-12-04 20:20:25,150.0737458344419,2,43,0.5501165986061096,3.7332603931427,38.717636562456136,39.36670054616142,155.18363945075387,142.77868061744658,0.0005504131549969,0.0940094217658042,0,0,0
12965,467183.5476178988,2010-12-04 20:20:55,180.08874824852612,2,43,0.5499359965324402,3.751067876815796,38.72222343514286,39.36670054616142,155.20080634029472,142.77868061744658,0.0003885269106831,0.0940094217658042,0,0,0
12966,467213.5627171889,2010-12-04 20:21:25,210.1038474785331,2,43,0.550297200679779,3.7643423080444336,38.72681024346961,39.36670054616142,155.2180444504726,142.77868061744658,0.0002913951757363,0.0940094217658042,0,0,0
12967,467243.57789370127,2010-12-04 20:21:55,240.1190239858417,2,43,0.5501165986061096,3.7729222774505615,38.73139714484326,39.36670054616142,155.23533197592792,142.77868061744658,0.0001942634553415,0.0940094217658042,0,0,0
12968,467273.5928667874,2010-12-04 20:22:25,270.1339970769569,2,43,0.5501165986061096,3.7784264087677,38.735984032886336,39.36670054616142,155.25265126352338,142.77868061744658,0.0001295089750783,0.0940094217658042,0,0,0
12969,467303.6080850736,2010-12-04 20:22:55,300.1492153582183,2,43,0.5501165986061096,3.783282995223999,38.74057086976313,39.36670054616142,155.2699938939591,142.77868061744658,9.713172767078504e-05,0.0940094217658042,0,0,0
12970,467333.6231935416,2010-12-04 20:23:26,330.1643238262137,2,43,0.5499359965324402,3.787492036819458,38.74515773656115,39.36670054616142,155.28735725076996,142.77868061744658,9.713172767078504e-05,0.0940094217658042,0,0,0
12971,467363.64040895767,2010-12-04 20:23:56,360.1815393324928,2,43,0.550297200679779,3.791539192199707,38.74974493393198,39.36670054616142,155.30474113196448,142.77868061744658,9.713172767078504e-05,0.0940094217658042,0,0,0
12972,467393.65325964725,2010-12-04 20:24:26,390.19438993688135,2,43,0.550297200679779,3.795586347579956,38.754331505095685,39.36670054616142,155.32214094563844,142.77868061744658,9.713172767078504e-05,0.0940094217658042,0,0,0
12973,467423.66838755866,2010-12-04 20:24:56,420.2095178632984,2,43,0.5501165986061096,3.799309730529785,38.75891836767543,39.36670054616142,155.33955938786997,142.77868061744658,9.713172767078504e-05,0.0940094217658042,0,0,0
12974,467453.6834567489,2010-12-04 20:25:26,450.2245870335026,2,43,0.550297200679779,3.8030331134796143,38.76350525699623,39.36670054616142,155.35699491507063,142.77868061744658,9.713172767078504e-05,0.0940094217658042,0,0,0
12975,467483.6985285607,2010-12-04 20:25:56,480.2396588452803,2,43,0.5501165986061096,3.806432723999024,38.7680921829756,39.36670054616142,155.37444700761242,142.77868061744658,6.47544875391759e-05,0.0940094217658042,0,0,0
12976,467513.71363420674,2010-12-04 20:26:26,510.2547644912533,2,43,0.550297200679779,3.8099942207336426,38.77267908276719,39.36670054616142,155.3919150700128,142.77868061744658,9.713172767078504e-05,0.0940094217658042,0,0,0
12977,467543.7287248553,2010-12-04 20:26:56,540.2698551399059,2,43,0.5501165986061096,3.813231945037842,38.777266008968645,39.36670054616142,155.4093990134819,142.77868061744658,3.237724376958795e-05,0.0940094217658042,0,0,0
12978,467573.7438265965,2010-12-04 20:27:26,570.284956881162,2,43,0.5501165986061096,3.816793441772461,38.7818528983883,39.36670054616142,155.4268986215277,142.77868061744658,6.47544875391759e-05,0.0940094217658042,0,0,0
12979,467603.760665626,2010-12-04 20:27:56,600.3017960008175,2,43,0.5501165986061096,3.82003116607666,38.78643996842904,39.36670054616142,155.44441428461167,142.77868061744658,6.47544875391759e-05,0.0940094217658042,0,0,0
12980,467633.77403933206,2010-12-04 20:28:26,630.3151696467748,2,43,0.5501165986061096,3.823430776596069,38.79102661660784,39.36670054616142,155.46194378935755,142.77868061744658,6.47544875391759e-05,0.0940094217658042,0,0,0
12981,467663.7891177954,2010-12-04 20:28:56,660.33024808003,2,43,0.550297200679779,3.826992273330689,38.79561346032405,39.36670054616142,155.47948956896064,142.77868061744658,9.713172767078504e-05,0.0940094217658042,0,0,0
12982,467693.8042122485,2010-12-04 20:29:26,690.3453425381623,2,43,0.5501165986061096,3.8303918838500977,38.800200298794365,39.36670054616142,155.4970510567257,142.77868061744658,6.47544875391759e-05,0.0940094217658042,0,0,0
12983,467723.8194749854,2010-12-04 20:29:56,720.3606052700374,2,43,0.550297200679779,3.8339531421661377,38.80478723763858,39.36670054616142,155.51462891974842,142.77868061744658,9.713172767078504e-05,0.0940094217658042,0,0,0
12984,467753.8343959469,2010-12-04 20:30:26,750.3755262364423,2,43,0.5501165986061096,3.837352752685547,38.80937403849792,39.36670054616142,155.53222247206654,142.77868061744658,6.47544875391759e-05,0.0940094217658042,0,0,0
12985,467783.8496040478,2010-12-04 20:30:56,780.390734332358,2,43,0.5501165986061096,3.841076135635376,38.81396089270052,39.36670054616142,155.54983262661983,142.77868061744658,9.713172767078504e-05,0.0940094217658042,0,0,0
12986,467813.8647120195,2010-12-04 20:31:26,810.4058423041184,2,43,0.5501165986061096,3.844637632369995,38.81854775510736,39.36670054616142,155.56745927658642,142.77868061744658,6.47544875391759e-05,0.0940094217658042,0,0,0
12987,467843.8798527077,2010-12-04 20:31:56,840.4209830624669,2,43,0.5499359965324402,3.848037242889404,38.82313460185964,39.36670054616142,155.58510230850922,142.77868061744658,3.237724376958795e-05,0.0940094217658042,0,0,0
12988,467873.8947697343,2010-12-04 20:32:26,870.4359000188933,2,43,0.5499359965324402,3.851598739624024,38.82772147475735,39.36670054616142,155.6027616491827,142.77868061744658,6.47544875391759e-05,0.0940094217658042,0,0,0
12989,467903.9098567189,2010-12-04 20:32:56,900.4509870034278,2,43,0.5501165986061096,3.8551602363586426,38.83230838719101,39.36670054616142,155.62043718779756,142.77868061744658,9.713172767078504e-05,0.0940094217658042,0,0,0
12990,467933.92507618805,2010-12-04 20:33:26,930.4662065027204,2,43,0.5501165986061096,3.858559846878052,38.836895326599794,39.36670054616142,155.6381287296903,142.77868061744658,3.237724376958795e-05,0.0940094217658042,0,0,0
12991,467963.9400487127,2010-12-04 20:33:56,960.4811790023635,2,43,0.5501165986061096,3.861959457397461,38.841482120234296,39.36670054616142,155.6558351934944,142.77868061744658,9.713172767078504e-05,0.0940094217658042,0,0,0
12992,467993.95526997646,2010-12-04 20:34:26,990.4964002610344,2,43,0.550297200679779,3.86535906791687,38.84606904278878,39.36670054616142,155.67355726653892,142.77868061744658,9.713172767078504e-05,0.0940094217658042,0,0,0
12993,468023.9702358095,2010-12-04 20:34:56,1020.5113660991004,2,43,0.550297200679779,3.8684349060058594,38.850655834032736,39.36670054616142,155.6912934590061,142.77868061744658,6.47544875391759e-05,0.0940094217658042,0,0,0
12994,468053.9856404495,2010-12-04 20:35:26,1050.526770754146,2,43,0.5504778623580933,3.8715107440948486,38.85524273085648,39.36670054616142,155.70904413254885,142.77868061744658,9.713172767078504e-05,0.0940094217658042,0,0,0
12995,468084.0004234275,2010-12-04 20:35:56,1080.5415537221472,2,43,0.5501165986061096,3.874100923538208,38.8598295696379,39.36670054616142,155.72680819233923,142.77868061744658,3.237724376958795e-05,0.0940094217658042,0,0,0
12996,468114.01552406105,2010-12-04 20:36:26,1110.556654350634,2,43,0.550297200679779,3.877176761627197,38.86441637223923,39.36670054616142,155.74458497193922,142.77868061744658,0.0001295089750783,0.0940094217658042,0,0,0
12997,468144.0306210404,2010-12-04 20:36:56,1140.571751335053,2,43,0.550297200679779,3.8796050548553462,38.86900325449784,39.36670054616142,155.7623744802762,142.77868061744658,6.47544875391759e-05,0.0940094217658042,0,0,0
12998,468174.04573494697,2010-12-04 20:37:26,1170.586865241582,2,43,0.5501165986061096,3.882033348083496,38.87359011754259,39.36670054616142,155.7801755641023,142.77868061744658,3.237724376958795e-05,0.0940094217658042,0,0,0
12999,468204.0626323266,2010-12-04 20:37:56,1200.6037627314895,2,43,0.5501165986061096,3.8844616413116455,38.87817727672017,39.36670054616142,155.7979888518025,142.77868061744658,6.47544875391759e-05,0.0940094217658042,0,0,0
13000,468234.07590642985,2010-12-04 20:38:26,1230.6170367194518,2,43,0.5501165986061096,3.886728048324585,38.88276383822083,39.36670054616142,155.8158100365996,142.77868061744658,9.713172767078504e-05,0.0940094217658042,0,0,0
13001,468264.0910226372,2010-12-04 20:38:56,1260.6321529417437,2,43,0.5501165986061096,3.888670682907105,38.88735070860012,39.36670054616142,155.83364218054743,142.77868061744658,3.237724376958795e-05,0.0940094217658042,0,0,0
13002,468294.1062286378,2010-12-04 20:39:26,1290.6473589223954,2,43,0.5499359965324402,3.890613317489624,38.891937640246695,39.36670054616142,155.85148375405305,142.77868061744658,6.47544875391759e-05,0.0940094217658042,0,0,0
13003,468324.1213103442,2010-12-04 20:39:56,1320.6624406488454,2,43,0.5499359965324402,3.8923940658569336,38.89652441473528,39.36670054616142,155.8693333504258,142.77868061744658,3.237724376958795e-05,0.0940094217658042,0,0,0
13004,468354.13640405046,2010-12-04 20:40:26,1350.6775343450818,2,43,0.550297200679779,3.894336700439453,38.9011112696116,39.36670054616142,155.88719152310713,142.77868061744658,6.47544875391759e-05,0.0940094217658042,0,0,0
13005,468384.1513788308,2010-12-04 20:40:56,1380.6925091153755,2,43,0.5499359965324402,3.895793676376343,38.9056981896783,39.36670054616142,155.90505748122027,142.77868061744658,3.237724376958795e-05,0.0940094217658042,0,0,0
13006,468414.1664915143,2010-12-04 20:41:26,1410.707621808886,2,43,0.5499359965324402,3.897574424743652,38.910285067524185,39.36670054616142,155.92293091741678,142.77868061744658,6.47544875391759e-05,0.0940094217658042,0,0,0
13007,468444.1817884212,2010-12-04 20:41:56,1440.7229188210663,2,43,0.550297200679779,3.899031400680542,38.91487247367012,39.36670054616142,155.9408138201113,142.77868061744658,3.237724376958795e-05,0.0940094217658042,0,0,0
13008,468474.1966965406,2010-12-04 20:42:26,1470.7378268903772,2,43,0.550297200679779,3.9006502628326416,38.919459991392586,39.36670054616142,155.9587043992185,142.77868061744658,9.713172767078504e-05,0.0940094217658042,0,0,0
13009,468504.21174517967,2010-12-04 20:42:56,1500.7528754893908,2,43,0.5499359965324402,3.9021072387695312,38.924047426716506,39.36670054616142,155.97660176499176,142.77868061744658,3.237724376958795e-05,0.0940094217658042,0,0,0
13010,468534.22695725056,2010-12-04 20:43:26,1530.76808762536,2,43,0.550297200679779,3.903726100921631,38.92863490734099,39.36670054616142,155.99450632693006,142.77868061744658,6.47544875391759e-05,0.0940094217658042,0,0,0
13011,468564.2419467876,2010-12-04 20:43:56,1560.783077102251,2,43,0.5501165986061096,3.905183076858521,38.93322182910568,39.36670054616142,156.0124156696408,142.77868061744658,3.237724376958795e-05,0.0940094217658042,0,0,0
13012,468594.25712286384,2010-12-04 20:44:26,1590.7982532687113,2,43,0.550297200679779,3.90664005279541,38.93780865421173,39.36670054616142,156.03033141887886,142.77868061744658,3.237724376958795e-05,0.0940094217658042,0,0,0
13013,468624.27212303726,2010-12-04 20:44:56,1620.813253326933,2,43,0.550297200679779,3.9082589149475098,38.94239544528882,39.36670054616142,156.04825401654915,142.77868061744658,6.47544875391759e-05,0.0940094217658042,0,0,0
13014,468654.287234598,2010-12-04 20:45:26,1650.8283648926367,2,43,0.5501165986061096,3.9097158908844,38.94698229500884,39.36670054616142,156.0661837515167,142.77868061744658,6.47544875391759e-05,0.0940094217658042,0,0,0
13015,468684.30233504105,2010-12-04 20:45:56,1680.8434653506995,2,43,0.550297200679779,3.911334753036499,38.95156905717876,39.36670054616142,156.0841199739289,142.77868061744658,9.713172767078504e-05,0.0940094217658042,0,0,0
13016,468714.3174104568,2010-12-04 20:46:26,1710.858540746396,2,43,0.5501165986061096,3.9127917289733887,38.95615582929085,39.36670054616142,156.10206314889206,142.77868061744658,6.47544875391759e-05,0.0940094217658042,0,0,0
13017,468744.33251294994,2010-12-04 20:46:56,1740.8736432595729,2,43,0.5501165986061096,3.914248466491699,38.96074264974711,39.36670054616142,156.12001342358116,142.77868061744658,3.237724376958795e-05,0.0940094217658042,0,0,0
13018,468774.34761183406,2010-12-04 20:47:26,1770.8887421437191,2,43,0.5501165986061096,3.915543556213379,38.96532947186061,39.36670054616142,156.13797066522343,142.77868061744658,0.0,0.0940094217658042,0,0,0
13019,468804.36453120346,2010-12-04 20:47:56,1800.90566158826,2,43,0.5499359965324402,3.9171624183654794,38.969916573267625,39.36670054616142,156.1559357700075,142.77868061744658,3.237724376958795e-05,0.0940094217658042,0,0,0
13020,468834.3778023744,2010-12-04 20:48:26,1830.918932684025,2,43,0.550297200679779,3.918781280517578,38.97450305939079,39.36670054616142,156.17390549562597,142.77868061744658,6.47544875391759e-05,0.0940094217658042,0,0,0
13021,468864.3928857699,2010-12-04 20:48:56,1860.9340160545664,2,43,0.5501165986061096,3.920076370239258,38.97908985103101,39.36670054616142,156.1918833860254,142.77868061744658,0.0,0.0940094217658042,0,0,0
13022,468894.4080028544,2010-12-04 20:49:26,1890.9491331740908,2,43,0.5499359965324402,3.921533346176148,38.983676666149016,39.36670054616142,156.2098682809076,142.77868061744658,0.0,0.0940094217658042,0,0,0
13023,468924.4230694381,2010-12-04 20:49:56,1920.964199747834,2,43,0.5501165986061096,3.923314094543457,38.98826342018168,39.36670054616142,156.2278599690124,142.77868061744658,6.47544875391759e-05,0.0940094217658042,0,0,0
13024,468954.4391163264,2010-12-04 20:50:26,1950.980246716252,2,43,0.5501165986061096,3.9247710704803462,38.99285036719396,39.36670054616142,156.24585944474967,142.77868061744658,3.237724376958795e-05,0.0940094217658042,0,0,0
13025,468984.4532650811,2010-12-04 20:50:56,1980.9943953657755,2,43,0.5501165986061096,3.9263899326324463,38.99743707765432,39.36670054616142,156.2638651051649,142.77868061744658,0.0,0.0940094217658042,0,0,0
13026,469014.4708401572,2010-12-04 20:51:26,2011.011970552105,2,43,0.550297200679779,3.928008794784546,39.002024244187055,39.36670054616142,156.28187964632488,142.77868061744658,3.237724376958795e-05,0.0940094217658042,0,0,0
13027,469044.48356082826,2010-12-04 20:51:56,2041.024691228172,2,43,0.5501165986061096,3.929465770721436,39.00661069922439,39.36670054616142,156.2998985407633,142.77868061744658,3.237724376958795e-05,0.0940094217658042,0,0,0
13028,469074.498547022,2010-12-04 20:52:26,2071.0396773066054,2,43,0.5501165986061096,3.930922746658325,39.011197471678166,39.36670054616142,156.31792586804903,142.77868061744658,0.0,0.0940094217658042,0,0,0
13029,469104.513684437,2010-12-04 20:52:56,2101.054814831909,2,43,0.5501165986061096,3.932541608810425,39.01578433198053,39.36670054616142,156.33596066662554,142.77868061744658,3.237724376958795e-05,0.0940094217658042,0,0,0
13030,469134.5287560634,2010-12-04 20:53:26,2131.069886357975,2,43,0.5501165986061096,3.9343223571777344,39.02037121430006,39.36670054616142,156.35400281569608,142.77868061744658,9.713172767078504e-05,0.0940094217658042,0,0,0
13031,469164.5438278952,2010-12-04 20:53:56,2161.0849581898037,2,43,0.5501165986061096,3.935779333114624,39.02495809157788,39.36670054616142,156.37205229056087,142.77868061744658,3.237724376958795e-05,0.0940094217658042,0,0,0
13032,469194.5589216666,2010-12-04 20:54:26,2191.100051956214,2,43,0.5501165986061096,3.937398195266724,39.02954498505862,39.36670054616142,156.39010898734998,142.77868061744658,0.0,0.0940094217658042,0,0,0
13033,469224.57401962846,2010-12-04 20:54:56,2221.115149943128,2,43,0.5499359965324402,3.938855171203613,39.03413178981872,39.36670054616142,156.40817278211745,142.77868061744658,0.0,0.0940094217658042,0,0,0
13034,469254.5891297555,2010-12-04 20:55:27,2251.130260045189,2,43,0.5501165986061096,3.940635919570923,39.03871863721041,39.36670054616142,156.4262441791322,142.77868061744658,3.237724376958795e-05,0.0940094217658042,0,0,0
13035,469284.6065368586,2010-12-04 20:55:57,2281.1476672334616,2,43,0.5501165986061096,3.942092895507813,39.04330580525533,39.36670054616142,156.44432426747477,142.77868061744658,3.237724376958795e-05,0.0940094217658042,0,0,0
13036,469314.6193283509,2010-12-04 20:56:27,2311.1604586555777,2,43,0.550297200679779,3.943873643875122,39.04789227904645,39.36670054616142,156.46240907238095,142.77868061744658,6.47544875391759e-05,0.0940094217658042,0,0,0
13037,469344.6343886941,2010-12-04 20:56:57,2341.175519008841,2,43,0.5501165986061096,3.9454925060272217,39.05247911620053,39.36670054616142,156.48050278959084,142.77868061744658,6.47544875391759e-05,0.0940094217658042,0,0,0
13038,469374.64952211926,2010-12-04 20:57:27,2371.190652519153,2,43,0.5501165986061096,3.947111368179321,39.05706601145664,39.36670054616142,156.49860427038067,142.77868061744658,3.237724376958795e-05,0.0940094217658042,0,0,0
13039,469404.666437589,2010-12-04 20:57:57,2401.207567953716,2,43,0.5501165986061096,3.948568344116211,39.06165307534811,39.36670054616142,156.51671391833108,142.77868061744658,0.0,0.0940094217658042,0,0,0
13040,469434.67969323625,2010-12-04 20:58:27,2431.2208235208386,2,43,0.550297200679779,3.9505109786987305,39.066239573152345,39.36670054616142,156.53482885802964,142.77868061744658,3.237724376958795e-05,0.0940094217658042,0,0,0
13041,469464.6941448648,2010-12-04 20:58:57,2461.235275244551,2,43,0.550297200679779,3.95212984085083,39.0708240261742,39.36670054616142,156.5529434119861,142.77868061744658,3.237724376958795e-05,0.0940094217658042,0,0,0
13042,469494.6942496266,2010-12-04 20:59:27,2491.235379916176,2,43,0.550297200679779,3.95391058921814,39.07541083392167,39.36670054616142,156.5710749470111,142.77868061744658,6.47544875391759e-05,0.0940094217658042,0,0,0
13043,469524.7093488466,2010-12-04 20:59:57,2521.2504791361584,2,43,0.5499359965324402,3.955367565155029,39.07999766942224,39.36670054616142,156.5892142939498,142.77868061744658,0.0,0.0940094217658042,0,0,0
13044,469554.7245541406,2010-12-04 21:00:27,2551.2656844501507,2,43,0.5501165986061096,3.957148313522339,39.084584555686405,39.36670054616142,156.6073616377927,142.77868061744658,3.237724376958795e-05,0.0940094217658042,0,0,0
13045,469584.739661205,2010-12-04 21:00:57,2581.2807914996165,2,43,0.5501165986061096,3.958929061889648,39.08917148606104,39.36670054616142,156.6255168644118,142.77868061744658,3.237724376958795e-05,0.0940094217658042,0,0,0
13046,469614.7547757531,2010-12-04 21:01:27,2611.295906067792,2,43,0.550297200679779,3.960709810256958,39.09375833245323,39.36670054616142,156.64367967140484,142.77868061744658,6.47544875391759e-05,0.0940094217658042,0,0,0
13047,469644.7696893913,2010-12-04 21:01:57,2641.310819705961,2,43,0.5501165986061096,3.962166786193848,39.09834510799127,39.36670054616142,156.6618501790172,142.77868061744658,0.0,0.0940094217658042,0,0,0
13048,469674.7849387349,2010-12-04 21:02:27,2671.326069039494,2,43,0.5501165986061096,3.964109420776367,39.102931985717085,39.36670054616142,156.6800290075787,142.77868061744658,6.47544875391759e-05,0.0940094217658042,0,0,0
13049,469704.7999279561,2010-12-04 21:02:57,2701.341058245712,2,43,0.5501165986061096,3.965728282928467,39.107518781530125,39.36670054616142,156.69821554422347,142.77868061744658,3.237724376958795e-05,0.0940094217658042,0,0,0
13050,469734.8149706604,2010-12-04 21:03:27,2731.356100970106,2,43,0.550297200679779,3.967832803726196,39.1121055726906,39.36670054616142,156.71641016336315,142.77868061744658,0.0001295089750783,0.0940094217658042,0,0,0
13051,469764.83007655706,2010-12-04 21:03:57,2761.3712068717155,2,43,0.550297200679779,3.969613552093506,39.11669241918543,39.36670054616142,156.73461313439833,142.77868061744658,6.47544875391759e-05,0.0940094217658042,0,0,0
13052,469794.8450816628,2010-12-04 21:04:27,2791.3862119825103,2,43,0.5501165986061096,3.971070528030396,39.1212792451502,39.36670054616142,156.75282428805497,142.77868061744658,0.0,0.0940094217658042,0,0,0
13053,469824.86026616,2010-12-04 21:04:57,2821.4013964746887,2,43,0.550297200679779,3.973175048828125,39.125866025844616,39.36670054616142,156.77104369383778,142.77868061744658,3.237724376958795e-05,0.0940094217658042,0,0,0
13054,469854.8754768724,2010-12-04 21:05:27,2851.4166071821032,2,43,0.5501165986061096,3.9749557971954346,39.13045276056992,39.36670054616142,156.7892714110468,142.77868061744658,3.237724376958795e-05,0.0940094217658042,0,0,0
13055,469884.89049051946,2010-12-04 21:05:57,2881.43162082914,2,43,0.5501165986061096,3.976898431777954,39.13503947255902,39.36670054616142,156.80750753032942,142.77868061744658,6.47544875391759e-05,0.0940094217658042,0,0,0
13056,469914.90532456455,2010-12-04 21:06:27,2911.446454879257,2,43,0.5501165986061096,3.978679180145264,39.13962629214039,39.36670054616142,156.82575227574284,142.77868061744658,0.0001295089750783,0.0940094217658042,0,0,0
13057,469944.92063553154,2010-12-04 21:06:57,2941.461765816088,2,43,0.5499359965324402,3.980459928512573,39.14421211218997,39.36670054616142,156.84400203253952,142.77868061744658,3.237724376958795e-05,0.0940094217658042,0,0,0
13058,469974.9358708351,2010-12-04 21:07:27,2971.4770011948967,2,43,0.5499359965324402,3.982564449310303,39.14879786677768,39.36670054616142,156.86226028808156,142.77868061744658,6.47544875391759e-05,0.0940094217658042,0,0,0
13059,470004.951183802,2010-12-04 21:07:57,3001.492314086592,2,43,0.5499359965324402,3.984345197677612,39.1533836217026,39.36670054616142,156.88052740328925,142.77868061744658,3.237724376958795e-05,0.0940094217658042,0,0,0
13060,470034.96775066416,2010-12-04 21:08:27,3031.508881043983,2,43,0.5497553944587708,3.986287832260132,39.15796961468411,39.36670054616142,156.8988045276221,142.77868061744658,3.237724376958795e-05,0.0940094217658042,0,0,0
13061,470064.981022176,2010-12-04 21:08:57,3061.522152470571,2,43,0.5499359965324402,3.9882304668426514,39.16255601548921,39.36670054616142,156.91709251787512,142.77868061744658,3.237724376958795e-05,0.0940094217658042,0,0,0
13062,470094.99630974967,2010-12-04 21:09:27,3091.5374400593014,2,43,0.5501165986061096,3.990496873855591,39.16714273301558,39.36670054616142,156.93539092936038,142.77868061744658,6.47544875391759e-05,0.0940094217658042,0,0,0
13063,470125.0112335882,2010-12-04 21:09:57,3121.5523638978534,2,43,0.550297200679779,3.9927632808685294,39.171729369068366,39.36670054616142,156.95369827776622,142.77868061744658,0.0001295089750783,0.0940094217658042,0,0,0
13064,470155.0263069638,2010-12-04 21:10:27,3151.567437243448,2,43,0.550297200679779,3.9945437908172607,39.1763160738506,39.36670054616142,156.97201532200063,142.77868061744658,6.47544875391759e-05,0.0940094217658042,0,0,0
13065,470185.0414178127,2010-12-04 21:10:57,3181.582548192618,2,43,0.550297200679779,3.9968101978302,39.18090283196426,39.36670054616142,156.99034207895176,142.77868061744658,9.713172767078504e-05,0.0940094217658042,0,0,0
13066,470215.0565012686,2010-12-04 21:11:27,3211.597631553134,2,43,0.550297200679779,3.9985909461975098,39.18548956452821,39.36670054616142,157.00867832404742,142.77868061744658,3.237724376958795e-05,0.0940094217658042,0,0,0
13067,470245.071593852,2010-12-04 21:11:57,3241.6127241366016,2,43,0.550297200679779,4.001019477844238,39.1900762701487,39.36670054616142,157.02702415328804,142.77868061744658,9.71794142969884e-05,0.0940094217658042,0,0,0
13068,470275.0868009454,2010-12-04 21:12:27,3271.6279313052096,2,43,0.550297200679779,4.003123760223389,39.19466295527824,39.36670054616142,157.04537975127016,142.77868061744658,9.70840483205393e-05,0.0940094217658042,0,0,0
13069,470305.1017919511,2010-12-04 21:12:57,3301.642922255767,2,43,0.5501165986061096,4.005228519439697,39.19924958958172,39.36670054616142,157.06374510770897,142.77868061744658,9.71794142969884e-05,0.0940094217658042,0,0,0
13070,470335.1168703493,2010-12-04 21:13:27,3331.658000633885,2,43,0.550297200679779,4.007494926452637,39.20383628237437,39.36670054616142,157.08212079582214,142.77868061744658,9.71794142969884e-05,0.0940094217658042,0,0,0
13071,470365.13202108745,2010-12-04 21:13:57,3361.6731514422427,2,43,0.550297200679779,4.009761333465576,39.20842301374715,39.36670054616142,157.1005068286846,142.77868061744658,9.71794142969884e-05,0.0940094217658042,0,0,0
13072,470395.1473379942,2010-12-04 21:14:27,3391.688468358955,2,43,0.5501165986061096,4.012027740478516,39.213009692691344,39.36670054616142,157.11890293056325,142.77868061744658,9.71794142969884e-05,0.0940094217658042,0,0,0
13073,470425.162280459,2010-12-04 21:14:57,3421.703410793783,2,43,0.5501165986061096,4.014132022857666,39.21759634409474,39.36670054616142,157.13730935273435,142.77868061744658,6.47544875391759e-05,0.0940094217658042,0,0,0
13074,470455.1772251194,2010-12-04 21:15:27,3451.7183554140497,2,43,0.5499359965324402,4.0163984298706055,39.222183044438495,39.36670054616142,157.15572642094898,142.77868061744658,3.23295607813634e-05,0.0940094217658042,0,0,0
13075,470485.19233790814,2010-12-04 21:15:57,3481.733468192772,2,43,0.5501165986061096,4.018988609313965,39.22676977069868,39.36670054616142,157.17415426186753,142.77868061744658,9.70840483205393e-05,0.0940094217658042,0,0,0
13076,470515.2074569174,2010-12-04 21:16:27,3511.7485872270613,2,43,0.5501165986061096,4.021093368530273,39.23135646675448,39.36670054616142,157.19259254365952,142.77868061744658,6.47544875391759e-05,0.0940094217658042,0,0,0
13077,470545.2225636912,2010-12-04 21:16:57,3541.7636940008406,2,43,0.5501165986061096,4.023359775543213,39.23594304506245,39.36670054616142,157.21104118735883,142.77868061744658,3.24249267578125e-05,0.0940094217658042,0,0,0
13078,470575.237669663,2010-12-04 21:17:27,3571.778799942549,2,43,0.5499359965324402,4.025949954986572,39.24052963676847,39.36670054616142,157.2295007134667,142.77868061744658,9.71794142969884e-05,0.0940094217658042,0,0,0
13079,470605.2527969929,2010-12-04 21:17:57,3601.7939272774943,2,43,0.5501165986061096,4.028216361999512,39.24511625472399,39.36670054616142,157.24797129491793,142.77868061744658,6.47544875391759e-05,0.0940094217658042,0,0,0
13080,470635.2696777612,2010-12-04 21:18:27,3631.810808141028,2,43,0.5499359965324402,4.030644416809082,39.249703190219634,39.36670054616142,157.26645421602424,142.77868061744658,6.47544875391759e-05,0.0940094217658042,0,0,0
13081,470665.2829541752,2010-12-04 21:18:57,3661.8240844597904,2,43,0.550297200679779,4.033234596252441,39.25428959655417,39.36670054616142,157.28494625155085,142.77868061744658,6.47544875391759e-05,0.0940094217658042,0,0,0
13082,470695.2980344732,2010-12-04 21:19:27,3691.8391647576855,2,43,0.5499359965324402,4.035662651062012,39.25887619467451,39.36670054616142,157.30345034367832,142.77868061744658,6.47544875391759e-05,0.0940094217658042,0,0,0
13083,470725.3131815772,2010-12-04 21:19:57,3721.8543118919006,2,43,0.5499359965324402,4.037929058074951,39.26346290876663,39.36670054616142,157.32196636530864,142.77868061744658,0.0,0.0940094217658042,0,0,0
13084,470755.3283463153,2010-12-04 21:20:27,3751.8694766249087,2,43,0.5501165986061096,4.0406813621521,39.26804965434956,39.36670054616142,157.340493973729,142.77868061744658,6.47544875391759e-05,0.0940094217658042,0,0,0
13085,470785.3434445979,2010-12-04 21:20:57,3781.884574907559,2,43,0.550297200679779,4.04343318939209,39.27263629749963,39.36670054616142,157.35903273087794,142.77868061744658,9.70840483205393e-05,0.0940094217658042,0,0,0
13086,470815.3585343192,2010-12-04 21:21:27,3811.8996645988286,2,43,0.5501165986061096,4.045861721038818,39.27722292693397,39.36670054616142,157.3775831384758,142.77868061744658,6.47544875391759e-05,0.0940094217658042,0,0,0
13087,470845.37352955545,2010-12-04 21:21:57,3841.9146598651255,2,43,0.5501165986061096,4.048289775848389,39.281809475272766,39.36670054616142,157.39614501317558,142.77868061744658,6.47544875391759e-05,0.0940094217658042,0,0,0
13088,470875.38869917067,2010-12-04 21:22:27,3871.929829455221,2,43,0.5501165986061096,4.050879955291748,39.2863960848614,39.36670054616142,157.41471901119712,142.77868061744658,6.47544875391759e-05,0.0940094217658042,0,0,0
13089,470905.4038473375,2010-12-04 21:22:57,3901.94497773228,2,43,0.5499359965324402,4.053470134735107,39.29098263630789,39.36670054616142,157.43330481212368,142.77868061744658,6.47544875391759e-05,0.0940094217658042,0,0,0
13090,470935.4187917371,2010-12-04 21:23:27,3931.959922046786,2,43,0.5501165986061096,4.056222438812256,39.29556915897681,39.36670054616142,157.45190266633256,142.77868061744658,9.71794142969884e-05,0.0940094217658042,0,0,0
13091,470965.4362825234,2010-12-04 21:23:57,3961.9774129183,2,43,0.5499359965324402,4.058812618255615,39.300156027304624,39.36670054616142,157.4705141613661,142.77868061744658,3.24249267578125e-05,0.0940094217658042,0,0,0
13092,470995.4489862773,2010-12-04 21:24:27,3991.990116561983,2,43,0.550297200679779,4.0615644454956055,39.304742220265325,39.36670054616142,157.48913507119002,142.77868061744658,9.70840483205393e-05,0.0940094217658042,0,0,0
13093,471025.464059638,2010-12-04 21:24:57,4022.005189922615,2,43,0.5501165986061096,4.064316749572754,39.30932879234079,39.36670054616142,157.50776982592515,142.77868061744658,9.71794142969884e-05,0.0940094217658042,0,0,0
13094,471055.47915922885,2010-12-04 21:25:27,4052.020289508507,2,43,0.5499359965324402,4.067068576812744,39.31391534109963,39.36670054616142,157.52641703473952,142.77868061744658,9.70840483205393e-05,0.0940094217658042,0,0,0
13095,471085.4944174496,2010-12-04 21:25:57,4082.0355477792814,2,43,0.5501165986061096,4.069820880889893,39.318501994255165,39.36670054616142,157.54507734844876,142.77868061744658,6.47544875391759e-05,0.0940094217658042,0,0,0
13096,471115.5093409573,2010-12-04 21:26:27,4112.050471236886,2,43,0.5501165986061096,4.072411060333252,39.32308855293244,39.36670054616142,157.56374986209283,142.77868061744658,3.24249267578125e-05,0.0940094217658042,0,0,0
13097,471145.5246075538,2010-12-04 21:26:57,4142.065737863452,2,43,0.550297200679779,4.075325012207031,39.327675185144585,39.36670054616142,157.5824355894466,142.77868061744658,3.24249267578125e-05,0.0940094217658042,0,0,0
13098,471175.5395338685,2010-12-04 21:27:27,4172.080664158117,2,43,0.5501165986061096,4.0782389640808105,39.3322617618842,39.36670054616142,157.60113413321452,142.77868061744658,9.71794142969884e-05,0.0940094217658042,0,0,0
13099,471205.5546551534,2010-12-04 21:27:58,4202.095785437994,2,43,0.5501165986061096,4.080990791320801,39.33684837910628,39.36670054616142,157.61984600450464,142.77868061744658,3.23295607813634e-05,0.0940094217658042,0,0,0
13100,471235.5722189564,2010-12-04 21:28:28,4232.11334935127,2,43,0.5501165986061096,4.084066867828369,39.34143542331245,39.36670054616142,157.63857278379274,142.77868061744658,9.71794142969884e-05,0.0940094217658042,0,0,0
13101,471265.58483863616,2010-12-04 21:28:58,4262.125968920737,2,43,0.5501165986061096,4.086818695068359,39.34602166430212,39.36670054616142,157.6573096756975,142.77868061744658,6.47544875391759e-05,0.0940094217658042,0,0,0
13102,471295.6000472483,2010-12-04 21:29:28,4292.141177558,2,43,0.5499359965324402,4.089894771575928,39.35060828998401,39.36670054616142,157.67606158089154,142.77868061744658,9.71794142969884e-05,0.0940094217658042,0,0,0
13103,471325.6151621172,2010-12-04 21:29:58,4322.156292426925,2,43,0.5501165986061096,4.092808723449707,39.35519493754258,39.36670054616142,157.69482716907572,142.77868061744658,6.47544875391759e-05,0.0940094217658042,0,0,0
13104,471355.63013600535,2010-12-04 21:30:28,4352.17126631001,2,43,0.5501165986061096,4.096046447753906,39.359781581325656,39.36670054616142,157.71360638128002,142.77868061744658,0.0001295089750783,0.0940094217658042,0,0,0
13105,471385.6452118522,2010-12-04 21:30:58,4382.186342161841,2,43,0.5501165986061096,4.0987982749938965,39.36436821649422,39.36670054616142,157.73239932919248,142.77868061744658,6.47544875391759e-05,0.0940094217658042,0,0,0
13106,471415.66029539815,2010-12-04 21:31:28,4412.201425692781,2,43,0.550297200679779,4.101874351501465,39.36895487310625,39.36670054616142,157.75120637155183,142.77868061744658,3.24249267578125e-05,0.0940094217658042,0,0,0
13107,471445.6754056205,2010-12-04 21:31:58,4442.21653593018,2,43,0.5501165986061096,4.104949951171875,39.37354155736039,39.36670054616142,157.7700274513425,142.77868061744658,6.47544875391759e-05,0.0940094217658042,0,0,0
13108,471475.6904910662,2010-12-04 21:32:28,4472.231621426011,2,43,0.5501165986061096,4.108187675476074,39.37812822495934,39.36670054616142,157.78886263252934,142.77868061744658,0.0001295089750783,0.0940094217658042,0,0,0
13109,471505.7055899905,2010-12-04 21:32:58,4502.246720300132,2,43,0.5501165986061096,4.111263751983643,39.38271485650958,39.36670054616142,157.8077119441975,142.77868061744658,9.71794142969884e-05,0.0940094217658042,0,0,0
13110,471535.7206957868,2010-12-04 21:33:28,4532.261826081441,2,43,0.5501165986061096,4.114339351654053,39.387301515061445,39.36670054616142,157.8265757343209,142.77868061744658,6.47544875391759e-05,0.0940094217658042,0,0,0
13111,471565.7358108262,2010-12-04 21:33:58,4562.276941221039,2,43,0.5501165986061096,4.117577075958252,39.391888104634674,39.36670054616142,157.8454537639889,142.77868061744658,9.71794142969884e-05,0.0940094217658042,0,0,0
13112,471595.7508921116,2010-12-04 21:34:28,4592.292022416166,2,43,0.5501165986061096,4.120814800262451,39.39647475452263,39.36670054616142,157.86434663923,142.77868061744658,9.71794142969884e-05,0.0940094217658042,0,0,0
13113,471625.7659598582,2010-12-04 21:34:58,4622.307090137766,2,43,0.5501165986061096,4.12405252456665,39.40106139142807,39.36670054616142,157.88325416469434,142.77868061744658,9.71794142969884e-05,0.0940094217658042,0,0,0
13114,471655.7810517199,2010-12-04 21:35:28,4652.32218200445,2,43,0.5501165986061096,4.1271281242370605,39.405648076857005,39.36670054616142,157.90217662248494,142.77868061744658,6.47544875391759e-05,0.0940094217658042,0,0,0
13115,471685.7961689446,2010-12-04 21:35:58,4682.337299224223,2,43,0.5501165986061096,4.13036584854126,39.41023473989318,39.36670054616142,157.9211139025957,142.77868061744658,6.47544875391759e-05,0.0940094217658042,0,0,0
13116,471715.8112429569,2010-12-04 21:36:28,4712.35237324149,2,43,0.550297200679779,4.133603572845459,39.414821662784775,39.36670054616142,157.9400671805553,142.77868061744658,6.47544875391759e-05,0.0940094217658042,0,0,0
13117,471745.82633775583,2010-12-04 21:36:58,4742.367468045482,2,43,0.5501165986061096,4.136841297149658,39.419409094148286,39.36670054616142,157.95903761721482,142.77868061744658,6.47544875391759e-05,0.0940094217658042,0,0,0
13118,471775.8414809002,2010-12-04 21:37:28,4772.3826112048055,2,43,0.5501165986061096,4.140402793884277,39.423996263332725,39.36670054616142,157.97802218363873,142.77868061744658,9.70840483205393e-05,0.0940094217658042,0,0,0
13119,471805.85656433087,2010-12-04 21:37:58,4802.397694615447,2,43,0.5501165986061096,4.143640518188477,39.42858299076188,39.36670054616142,157.99702031479887,142.77868061744658,9.70840483205393e-05,0.0940094217658042,0,0,0
13120,471835.8736251222,2010-12-04 21:38:28,4832.414755501961,2,43,0.550297200679779,4.147202014923096,39.43316995741239,39.36670054616142,158.01603520468035,142.77868061744658,0.0001295089750783,0.0940094217658042,0,0,0
13121,471865.8867501194,2010-12-04 21:38:58,4862.427880454054,2,43,0.5501165986061096,4.150601863861084,39.43775629261186,39.36670054616142,158.0350632547759,142.77868061744658,9.71794142969884e-05,0.0940094217658042,0,0,0
13122,471895.90184869774,2010-12-04 21:39:28,4892.442978977301,2,43,0.5501165986061096,4.153839588165283,39.44234294335592,39.36670054616142,158.05410833713785,142.77868061744658,6.47544875391759e-05,0.0940094217658042,0,0,0
13123,471925.9170755703,2010-12-04 21:39:58,4922.458205854954,2,43,0.5501165986061096,4.157401084899902,39.44692957240056,39.36670054616142,158.07316900365737,142.77868061744658,6.47544875391759e-05,0.0940094217658042,0,0,0
13124,471955.9320290627,2010-12-04 21:40:28,4952.473159347299,2,43,0.5499359965324402,4.1609625816345215,39.45151611030103,39.36670054616142,158.09224522636305,142.77868061744658,9.71794142969884e-05,0.0940094217658042,0,0,0
13125,471985.947154122,2010-12-04 21:40:58,4982.488284401568,2,43,0.5499359965324402,4.164361953735352,39.45610280380561,39.36670054616142,158.1113382388051,142.77868061744658,6.47544875391759e-05,0.0940094217658042,0,0,0
13126,472015.9622149464,2010-12-04 21:41:28,5012.503345226005,2,43,0.5501165986061096,4.167923450469971,39.46068937125782,39.36670054616142,158.130446727494,142.77868061744658,9.70840483205393e-05,0.0940094217658042,0,0,0
13127,472045.9773672636,2010-12-04 21:41:58,5042.51849754813,2,43,0.550297200679779,4.171647071838379,39.4652760138881,39.36670054616142,158.14957181597524,142.77868061744658,0.0001295089750783,0.0940094217658042,0,0,0
13128,472075.9924098977,2010-12-04 21:42:28,5072.5335401823,2,43,0.550297200679779,4.175046443939209,39.469862657779984,39.36670054616142,158.16871317792783,142.77868061744658,9.70840483205393e-05,0.0940094217658042,0,0,0
13129,472106.0075169673,2010-12-04 21:42:58,5102.548647251816,2,43,0.5501165986061096,4.178607940673828,39.47444929977564,39.36670054616142,158.18787097745084,142.77868061744658,6.47544875391759e-05,0.0940094217658042,0,0,0
13130,472136.02260838274,2010-12-04 21:43:28,5132.563738667376,2,43,0.5501165986061096,4.182331562042236,39.47903589540297,39.36670054616142,158.2070451113367,142.77868061744658,9.71794142969884e-05,0.0940094217658042,0,0,0
13131,472166.03783737565,2010-12-04 21:43:58,5162.578967660293,2,43,0.5501165986061096,4.185893058776856,39.48362252745815,39.36670054616142,158.22623596109807,142.77868061744658,0.0001295089750783,0.0940094217658042,0,0,0
13132,472196.0529514325,2010-12-04 21:44:28,5192.594081792384,2,43,0.5501165986061096,4.1896162033081055,39.48820910791316,39.36670054616142,158.24544341214258,142.77868061744658,0.0001295089750783,0.0940094217658042,0,0,0
13133,472226.06793888944,2010-12-04 21:44:58,5222.609069264285,2,43,0.5499359965324402,4.193177700042725,39.4927956792859,39.36670054616142,158.264667684357,142.77868061744658,6.47544875391759e-05,0.0940094217658042,0,0,0
13134,472256.0829774285,2010-12-04 21:45:28,5252.62410771304,2,43,0.5501165986061096,4.197062969207764,39.49738231229472,39.36670054616142,158.28390908482018,142.77868061744658,9.71794142969884e-05,0.0940094217658042,0,0,0
13135,472279.69193971314,2010-12-04 21:45:52,5276.233069997647,2,43,0.5504778623580933,4.200138568878174,39.50099000428896,39.36670054616142,158.29905563831312,142.77868061744658,0.0001618385285837,0.0940094217658042,0,0,0
13136,472309.7031363003,2010-12-04 21:46:22,30.015097260104955,3,43,0.0,4.113206386566162,39.50099000428896,39.36670054616142,158.29905563831312,142.77868061744658,-0.0003884315374307,0.0940094217658042,0,0,0
13137,472339.71821491903,2010-12-04 21:46:52,60.03017585375916,3,43,0.0,4.102198123931885,39.50099000428896,39.36670054616142,158.29905563831312,142.77868061744658,-0.0002913475036621,0.0940094217658042,0,0,0
13138,472369.7333077481,2010-12-04 21:47:22,90.04526868283769,3,43,0.0,4.096208095550537,39.50099000428896,39.36670054616142,158.29905563831312,142.77868061744658,-0.0001295089750783,0.0940094217658042,0,0,0
13139,472399.70152783615,2010-12-04 21:47:52,120.01348877591543,3,43,0.0,4.091837406158447,39.50099000428896,39.36670054616142,158.29905563831312,142.77868061744658,-9.70840483205393e-05,0.0940094217658042,0,0,0
13140,472399.71538287366,2010-12-04 21:47:52,2.53129904e-06,4,43,1.0021816492080688,4.199814796447754,39.50099000499363,39.36670054616142,158.29905564127262,142.77868061744658,0.0,0.0940094217658042,0,0,0
13141,472400.43411822896,2010-12-04 21:47:53,0.718737986836474,4,43,0.9514304399490356,4.199653148651123,39.50118343731465,39.36670054616142,158.299867993599,142.77868061744658,-3.23295607813634e-05,0.0940094217658042,0,0,0
13142,472402.3247696874,2010-12-04 21:47:55,2.60938944527343,4,43,0.9014016389846802,4.199653148651123,39.50166901410302,39.36670054616142,158.30190726466665,142.77868061744658,-3.23295607813634e-05,0.0940094217658042,0,0,0
13143,472405.31141466857,2010-12-04 21:47:58,5.596034466537884,4,43,0.8511922955513,4.199653148651123,39.50239483629266,39.36670054616142,158.30495551267848,142.77868061744658,3.24249267578125e-05,0.0940094217658042,0,0,0
13144,472409.40270888194,2010-12-04 21:48:02,9.687328564543304,4,43,0.8011634945869446,4.199653148651123,39.503332472117926,39.36670054616142,158.3088933306614,142.77868061744658,-3.23295607813634e-05,0.0940094217658042,0,0,0
13145,472414.8401135292,2010-12-04 21:48:07,15.124733196839829,4,43,0.7511347532272339,4.199653148651123,39.50450337190174,39.36670054616142,158.3138107821545,142.77868061744658,3.24249267578125e-05,0.0940094217658042,0,0,0
13146,472421.93373884296,2010-12-04 21:48:14,22.218358515613858,4,43,0.700925350189209,4.199653148651123,39.50593225553321,39.36670054616142,158.31981171387727,142.77868061744658,-3.23295607813634e-05,0.0940094217658042,0,0,0
13147,472431.4804577909,2010-12-04 21:48:24,31.765077458521784,4,43,0.6508966088294983,4.199814796447754,39.50772178211561,39.36670054616142,158.3273272487486,142.77868061744658,0.0,0.0940094217658042,0,0,0
13148,472444.6681702261,2010-12-04 21:48:37,44.95278990372196,4,43,0.6008678078651428,4.199814796447754,39.51000943458468,39.36670054616142,158.33693476557428,142.77868061744658,3.23295607813634e-05,0.0940094217658042,0,0,0
13149,472464.4956075963,2010-12-04 21:48:57,64.78022729407411,4,43,0.5506584644317627,4.199653148651123,39.5131709465493,39.36670054616142,158.35021210464214,142.77868061744658,0.0,0.0940094217658042,0,0,0
13150,472498.65125183336,2010-12-04 21:49:31,98.93587153107926,4,43,0.5002684593200684,4.199653148651123,39.5181381990082,39.36670054616142,158.3710729365012,142.77868061744658,-3.23295607813634e-05,0.0940094217658042,0,0,0
13151,472562.5250276528,2010-12-04 21:50:35,162.8096473254599,4,43,0.4502396881580353,4.199653148651123,39.52653615880365,39.36670054616142,158.40634204030954,142.77868061744658,-3.23295607813634e-05,0.0940094217658042,0,0,0
13152,472659.664300477,2010-12-04 21:52:12,259.94892014975727,4,43,0.4002109169960022,4.199653148651123,39.53798125776731,39.36670054616142,158.4544084383797,142.77868061744658,0.0,0.0940094217658042,0,0,0
13153,472783.1930086764,2010-12-04 21:54:15,383.47762834900686,4,43,0.3501821458339691,4.199653148651123,39.55083984625194,39.36670054616142,158.50841114807963,142.77868061744658,0.0,0.0940094217658042,0,0,0
13154,472930.9403964432,2010-12-04 21:56:43,531.225016115873,4,43,0.300153374671936,4.199814796447754,39.56416596352897,39.36670054616142,158.5643773809963,142.77868061744658,3.23295607813634e-05,0.0940094217658042,0,0,0
13155,473107.8903921568,2010-12-04 21:59:40,708.1750118294372,4,43,0.2499440014362335,4.199653148651123,39.577666097021805,39.36670054616142,158.62107446854378,142.77868061744658,-3.23295607813634e-05,0.0940094217658042,0,0,0
13156,473328.0114865289,2010-12-04 22:03:20,928.296106196574,4,43,0.1999152302742004,4.199653148651123,39.591384705263785,39.36670054616142,158.67868899546485,142.77868061744658,0.0,0.0940094217658042,0,0,0
13157,473623.2250629495,2010-12-04 22:08:15,1223.509682647203,4,43,0.1498864591121673,4.199653148651123,39.6056421901578,39.36670054616142,158.73856672162032,142.77868061744658,-3.23295607813634e-05,0.0940094217658042,0,0,0
13158,474071.9672694712,2010-12-04 22:15:44,1672.2518891487664,4,43,0.0998576879501342,4.199653148651123,39.62099869112641,39.36670054616142,158.80306002909654,142.77868061744658,0.0,0.0940094217658042,0,0,0
13159,474952.310981058,2010-12-04 22:30:25,2552.5956007306645,4,43,0.0498289167881011,4.199653148651123,39.638576908426565,39.36670054616142,158.87688405491727,142.77868061744658,0.0,0.0940094217658042,0,0,0
13160,474982.33994698914,2010-12-04 22:30:55,30.01696425104009,5,43,0.0,4.191720962524414,39.638576908426565,39.36670054616142,158.87688405491727,142.77868061744658,-3.23295607813634e-05,0.0940094217658042,0,0,0
13161,475012.3392967873,2010-12-04 22:31:25,60.01631404919164,5,43,0.0,4.190425872802734,39.638576908426565,39.36670054616142,158.87688405491727,142.77868061744658,-6.47544875391759e-05,0.0940094217658042,0,0,0
13162,475012.52440506814,2010-12-04 22:31:25,0.189454575424229,6,43,-1.9243103452026844e-05,4.190425872802734,39.638576908426565,39.36670054717411,158.87688405491727,142.7786806216902,0.0,0.0955438911914825,0,0,0
13163,475017.33497795375,2010-12-04 22:31:30,5.000027345741133,6,43,0.0008838032954372,4.190425872802734,39.63857771593885,39.36670054733293,158.8768874388739,142.77868062235572,-3.23295607813634e-05,0.0955438911914825,0,0,0
13164,475047.3474640239,2010-12-04 22:32:00,30.01506271915112,7,43,-1.0997490882873535,4.012999057769775,39.63857771593885,39.37586991829251,158.8768874388739,142.81567460716278,-0.0008741378551349,0.0955438911914825,0,0,0
13165,475077.3626489772,2010-12-04 22:32:30,60.03024774766438,7,43,-1.0997490882873535,3.985964059829712,39.63857771593885,39.38503923254732,158.8768874388739,142.8523375349589,-0.0005827903514727,0.0955438911914825,0,0,0
13166,475107.37765895016,2010-12-04 22:33:00,90.04525763033395,7,43,-1.0997490882873535,3.9673471450805664,39.63857771593885,39.39420846464732,158.8768874388739,142.88879661559963,-0.0004532813909463,0.0955438911914825,0,0,0
13167,475137.3927519697,2010-12-04 22:33:30,120.06035064487398,7,43,-1.0997490882873535,3.95293927192688,39.63857771593885,39.40337761377959,158.8768874388739,142.92510619973305,-0.0003561496851034,0.0955438911914825,0,0,0
13168,475167.4079723212,2010-12-04 22:34:00,150.07557099127445,7,43,-1.0997490882873535,3.940474033355713,39.63857771593885,39.41254687335072,158.8768874388739,142.96129338666287,-0.0002913951757363,0.0955438911914825,0,0,0
13169,475197.4229588607,2010-12-04 22:34:30,180.09055762609262,7,43,-1.0997490882873535,3.928818225860596,39.63857771593885,39.42171604585007,158.8768874388739,142.99737052679305,-0.0003237724304199,0.0955438911914825,0,0,0
13170,475227.4400591653,2010-12-04 22:35:00,210.10765793570928,7,43,-1.099929690361023,3.9181337356567374,39.63857771593885,39.43088586870846,158.8768874388739,143.03334791386925,-0.0002913951757363,0.0955438911914825,0,0,0
13171,475257.4531476216,2010-12-04 22:35:30,240.1207462967461,7,43,-1.099929690361023,3.90761137008667,39.63857771593885,39.44005449929565,158.8768874388739,143.06922378471322,-0.0003237724304199,0.0955438911914825,0,0,0
13172,475287.46826014464,2010-12-04 22:36:00,270.1358588398823,7,43,-1.0997490882873535,3.8977363109588623,39.63857771593885,39.44922377580071,158.8768874388739,143.10500930387985,-0.0002913951757363,0.0955438911914825,0,0,0
13173,475317.4833596002,2010-12-04 22:36:30,300.1509582954506,7,43,-1.0997490882873535,3.8881850242614746,39.63857771593885,39.45839302638401,158.8768874388739,143.1407057459798,-0.0002913951757363,0.0955438911914825,0,0,0
13174,475347.4986997798,2010-12-04 22:37:00,330.166298545226,7,43,-1.0997490882873535,3.879119396209717,39.63857771593885,39.46756235270352,158.8768874388739,143.17631640161912,-0.0002590179501567,0.0955438911914825,0,0,0
13175,475377.5135205619,2010-12-04 22:37:30,360.1811192320891,7,43,-1.099929690361023,3.869891881942749,39.63857771593885,39.47673154428232,158.8768874388739,143.21184238603178,-0.0002590179501567,0.0955438911914825,0,0,0
13176,475407.5286259473,2010-12-04 22:38:00,390.1962246274383,7,43,-1.0997490882873535,3.861150026321411,39.63857771593885,39.4859007834223,158.8768874388739,143.24728631812633,-0.0002266406954731,0.0955438911914825,0,0,0
13177,475437.5437322248,2010-12-04 22:38:30,420.21133098016986,7,43,-1.0997490882873535,3.852408170700073,39.63857771593885,39.49507011616171,158.8768874388739,143.28265037569923,-0.0002266406954731,0.0955438911914825,0,0,0
13178,475467.5588069138,2010-12-04 22:39:00,450.22640558890777,7,43,-1.099568486213684,3.8439900875091553,39.63857771593885,39.50423939153252,158.8768874388739,143.31793580744457,-0.0002266406954731,0.0955438911914825,0,0,0
13179,475497.5739188654,2010-12-04 22:39:30,480.2415175455846,7,43,-1.099568486213684,3.8357338905334473,39.63857771593885,39.51340863732182,158.8768874388739,143.3531435818237,-0.0001618862152099,0.0955438911914825,0,0,0
13180,475527.58899488265,2010-12-04 22:40:00,510.2565935528026,7,43,-1.0997490882873535,3.827316045761109,39.63857771593885,39.52257788571077,158.8768874388739,143.38827576202536,-0.0002590179501567,0.0955438911914825,0,0,0
13181,475557.6041121175,2010-12-04 22:40:30,540.2717107876138,7,43,-1.099568486213684,3.8195455074310303,39.63857771593885,39.5317471676192,158.8768874388739,143.423334337121,-0.0001942634553415,0.0955438911914825,0,0,0
13182,475587.6186010989,2010-12-04 22:41:00,570.2861994632798,7,43,-1.0997490882873535,3.811613082885742,39.63857771593885,39.54091635009262,158.8768874388739,143.4583200535787,-0.0002266406954731,0.0955438911914825,0,0,0
13183,475617.6187318353,2010-12-04 22:41:30,600.286330565677,7,43,-1.099568486213684,3.804004430770874,39.63857771593885,39.55008103896483,158.8768874388739,143.49321678029142,-0.0001618862152099,0.0955438911914825,0,0,0
13184,475647.63378483534,2010-12-04 22:42:00,630.3013835856921,7,43,-1.099929690361023,3.796395778656006,39.63857771593885,39.55925033741594,158.8768874388739,143.52806151290892,-0.0001942634553415,0.0955438911914825,0,0,0
13185,475677.6488464968,2010-12-04 22:42:30,660.3164451770367,7,43,-1.099568486213684,3.7891108989715576,39.63857771593885,39.56841970849171,158.8768874388739,143.5628382911285,-0.0001942634553415,0.0955438911914825,0,0,0
13186,475707.6639614158,2010-12-04 22:43:00,690.3315601111227,7,43,-1.0997490882873535,3.781826019287109,39.63857771593885,39.5775890875936,158.8768874388739,143.59754848649456,-0.0001618862152099,0.0955438911914825,0,0,0
13187,475737.6791709655,2010-12-04 22:43:30,720.3467696355932,7,43,-1.0997490882873535,3.775026798248291,39.63857771593885,39.58675840041424,158.8768874388739,143.63219341196222,-0.0001295089750783,0.0955438911914825,0,0,0
13188,475767.6941774296,2010-12-04 22:44:00,750.3617762200554,7,43,-1.0997490882873535,3.7679038047790527,39.63857771593885,39.595927662616376,158.8768874388739,143.66677421314822,-0.0001618862152099,0.0955438911914825,0,0,0
13189,475797.70935779647,2010-12-04 22:44:30,780.376956476694,7,43,-1.0997490882873535,3.761266469955444,39.63857771593885,39.605096986768736,158.8768874388739,143.7012930661296,-0.0001942634553415,0.0955438911914825,0,0,0
13190,475827.7243632781,2010-12-04 22:45:00,810.3919620536489,7,43,-1.0997490882873535,3.754629135131836,39.63857771593885,39.61426627399424,158.8768874388739,143.7357509487664,-0.0001942634553415,0.0955438911914825,0,0,0
13191,475857.7412609936,2010-12-04 22:45:30,840.4088597691177,7,43,-1.099568486213684,3.7483158111572266,39.63857771593885,39.62343611291677,158.8768874388739,143.77015148035875,-0.0001618862152099,0.0955438911914825,0,0,0
13192,475887.7548585368,2010-12-04 22:46:00,870.4224572921848,7,43,-1.0997490882873535,3.742002248764038,39.63857771593885,39.63260490234165,158.8768874388739,143.80449003235967,-0.0001618862152099,0.0955438911914825,0,0,0
13193,475917.7696254549,2010-12-04 22:46:30,900.4372241400716,7,43,-1.0997490882873535,3.7356886863708496,39.63857771593885,39.64177411027224,158.8768874388739,143.83877306834546,-0.0002266406954731,0.0955438911914825,0,0,0
13194,475947.7870273549,2010-12-04 22:47:00,930.454626140434,7,43,-1.0997490882873535,3.729698896408081,39.63857771593885,39.65094418966088,158.8768874388739,143.8730032191655,-0.0001618862152099,0.0955438911914825,0,0,0
13195,475977.7998220452,2010-12-04 22:47:30,960.4674207153956,7,43,-1.099929690361023,3.7238709926605225,39.63857771593885,39.66011277395326,158.8768874388739,143.9071730058437,-0.0001618862152099,0.0955438911914825,0,0,0
13196,476007.8149032403,2010-12-04 22:48:00,990.4825019105236,7,43,-1.0997490882873535,3.718043088912964,39.63857771593885,39.669282061985776,158.8768874388739,143.9412917481603,-0.0001618862152099,0.0955438911914825,0,0,0
13197,476037.8299968864,2010-12-04 22:48:30,1020.4975955616476,7,43,-1.099929690361023,3.7120532989501953,39.63857771593885,39.67845137993204,158.8768874388739,143.97535705473047,-0.0001942634553415,0.0955438911914825,0,0,0
13198,476067.84525628,2010-12-04 22:49:00,1050.5128549802778,7,43,-1.0997490882873535,3.7065491676330566,39.63857771593885,39.68762076937026,158.8768874388739,144.00936986341424,-0.0001942634553415,0.0955438911914825,0,0,0
13199,476097.8601789808,2010-12-04 22:49:30,1080.527777655936,7,43,-1.099568486213684,3.701045036315918,39.63857771593885,39.69679010876201,158.8768874388739,144.04333088081293,-0.0001295089750783,0.0955438911914825,0,0,0
13200,476127.8752962506,2010-12-04 22:50:00,1110.5428949308473,7,43,-1.099929690361023,3.695379018783569,39.63857771593885,39.70595948583775,158.8768874388739,144.07724095927375,-0.0001942634553415,0.0955438911914825,0,0,0
13201,476157.89037075406,2010-12-04 22:50:30,1140.557969434323,7,43,-1.0997490882873535,3.6900367736816406,39.63857771593885,39.715128854876674,158.8768874388739,144.11110069423037,-0.0001295089750783,0.0955438911914825,0,0,0
13202,476187.9054963647,2010-12-04 22:51:01,1170.5730950600146,7,43,-1.0997490882873535,3.684856414794922,39.63857771593885,39.72429821393732,158.8768874388739,144.14491099041652,-9.713172767078504e-05,0.0955438911914825,0,0,0
13203,476217.92291594384,2010-12-04 22:51:31,1200.5905147143085,7,43,-1.0997490882873535,3.679352283477783,39.63857771593885,39.73346827210956,158.8768874388739,144.17867556571997,-0.0001295089750783,0.0955438911914825,0,0,0
13204,476247.9358019814,2010-12-04 22:52:01,1230.603400656634,7,43,-1.0997490882873535,3.6743338108062735,39.63857771593885,39.7426369450269,158.8768874388739,144.21238703867886,-9.713172767078504e-05,0.0955438911914825,0,0,0
13205,476277.95078403485,2010-12-04 22:52:31,1260.6183827351138,7,43,-1.099568486213684,3.669153690338135,39.63857771593885,39.75180625552586,158.8768874388739,144.2460536950503,-0.0001295089750783,0.0955438911914825,0,0,0
13206,476307.9658813049,2010-12-04 22:53:01,1290.6334799801814,7,43,-1.0997490882873535,3.663973331451416,39.63857771593885,39.7609755858183,158.8768874388739,144.27967385669476,-0.0001942634553415,0.0955438911914825,0,0,0
13207,476337.9808758696,2010-12-04 22:53:31,1320.6484745497453,7,43,-1.0997490882873535,3.659116744995117,39.63857771593885,39.77014490173215,158.8768874388739,144.31324866144908,-0.0001618862152099,0.0955438911914825,0,0,0
13208,476367.99603103375,2010-12-04 22:54:01,1350.663629723967,7,43,-1.099929690361023,3.6542601585388175,39.63857771593885,39.779314236357166,158.8768874388739,144.34677896837397,-0.0001942634553415,0.0955438911914825,0,0,0
13209,476398.01110181294,2010-12-04 22:54:31,1380.6787005132,7,43,-1.0997490882873535,3.6495654582977295,39.63857771593885,39.78848355838634,158.8768874388739,144.38026523131074,-0.0001295089750783,0.0955438911914825,0,0,0
13210,476428.0262349072,2010-12-04 22:55:01,1410.693833637552,7,43,-1.0997490882873535,3.644708871841431,39.63857771593885,39.7976528493768,158.8768874388739,144.41370714893907,-0.0001295089750783,0.0955438911914825,0,0,0
13211,476458.0431393444,2010-12-04 22:55:31,1440.7107380196103,7,43,-1.0997490882873535,3.640176057815552,39.63857771593885,39.80682268113544,158.8768874388739,144.44710779373813,-0.0001295089750783,0.0955438911914825,0,0,0
13212,476488.0558233292,2010-12-04 22:56:01,1470.7234220043724,7,43,-1.0997490882873535,3.635643243789673,39.63857771593885,39.81598715194081,158.8768874388739,144.48044658762245,-0.0001295089750783,0.0955438911914825,0,0,0
13213,476518.0559964862,2010-12-04 22:56:31,1500.7235951664334,7,43,-1.0997490882873535,3.631272315979004,39.63857771593885,39.82515591388941,158.8768874388739,144.51375960830603,-6.47544875391759e-05,0.0955438911914825,0,0,0
13214,476548.0709838027,2010-12-04 22:57:01,1530.738582492973,7,43,-1.0997490882873535,3.626577615737915,39.63857771593885,39.83432507349114,158.8768874388739,144.547033412261,-0.0001295089750783,0.0955438911914825,0,0,0
13215,476578.0863916708,2010-12-04 22:57:31,1560.7539904462258,7,43,-1.0997490882873535,3.622368574142456,39.63857771593885,39.84349420496969,158.8768874388739,144.58026729818107,-9.713172767078504e-05,0.0955438911914825,0,0,0
13216,476608.1011370753,2010-12-04 22:58:01,1590.7687357705522,7,43,-1.099929690361023,3.618159532546997,39.63857771593885,39.85266314256145,158.8768874388739,144.61346184268783,-0.0001295089750783,0.0955438911914825,0,0,0
13217,476638.1162576734,2010-12-04 22:58:31,1620.7838563687328,7,43,-1.099929690361023,3.614112377166748,39.63857771593885,39.861832223487525,158.8768874388739,144.64661894434565,-0.0001295089750783,0.0955438911914825,0,0,0
13218,476668.13145256153,2010-12-04 22:59:01,1650.799051241744,7,43,-1.0997490882873535,3.610227108001709,39.63857771593885,39.87100147513132,158.8768874388739,144.67973997004995,-9.713172767078504e-05,0.0955438911914825,0,0,0
13219,476698.1464514468,2010-12-04 22:59:31,1680.8140501220346,7,43,-1.0997490882873535,3.60634183883667,39.63857771593885,39.88017075902046,158.8768874388739,144.7128254860229,-0.0001295089750783,0.0955438911914825,0,0,0
13220,476728.16151889774,2010-12-04 23:00:01,1710.8291175779727,7,43,-1.099568486213684,3.602780342102051,39.63857771593885,39.88934006351536,158.8768874388739,144.74587615752571,-3.237724376958795e-05,0.0955438911914825,0,0,0
13221,476758.1767528681,2010-12-04 23:00:31,1740.844351538251,7,43,-1.099929690361023,3.598895072937012,39.63857771593885,39.89850942790423,158.8768874388739,144.77889299507427,-9.713172767078504e-05,0.0955438911914825,0,0,0
13222,476788.19187126576,2010-12-04 23:01:01,1770.8594700161557,7,43,-1.099929690361023,3.5951716899871826,39.63857771593885,39.90767886470847,158.8768874388739,144.81187671663668,-9.713172767078504e-05,0.0955438911914825,0,0,0
13223,476818.20681295375,2010-12-04 23:01:31,1800.8744116239257,7,43,-1.0997490882873535,3.5917723178863525,39.63857771593885,39.91684804533598,158.8768874388739,144.8448276443278,-0.0001294612884521,0.0955438911914825,0,0,0
13224,476848.2219438826,2010-12-04 23:02:01,1830.889542658076,7,43,-1.0997490882873535,3.5885345935821533,39.63857771593885,39.9260174093259,158.8768874388739,144.87774774830075,-9.713172767078504e-05,0.0955438911914825,0,0,0
13225,476878.23699818586,2010-12-04 23:02:31,1860.9045968660475,7,43,-1.0997490882873535,3.585134983062744,39.63857771593885,39.935186861404446,158.8768874388739,144.91063706768728,-9.713172767078504e-05,0.0955438911914825,0,0,0
13226,476908.25208902,2010-12-04 23:03:01,1890.9196876951487,7,43,-1.0997490882873535,3.581897258758545,39.63857771593885,39.94435612957712,158.8768874388739,144.94349535757783,-9.713172767078504e-05,0.0955438911914825,0,0,0
13227,476938.2675155043,2010-12-04 23:03:31,1920.935114274753,7,43,-1.0997490882873535,3.5786595344543457,39.63857771593885,39.95352553075392,158.8768874388739,144.97632448631887,-9.713172767078504e-05,0.0955438911914825,0,0,0
13228,476968.2822848084,2010-12-04 23:04:01,1950.9498834785024,7,43,-1.099568486213684,3.5755836963653564,39.63857771593885,39.96269475893271,158.8768874388739,145.0091239502273,-6.47544875391759e-05,0.0955438911914825,0,0,0
13229,476998.29737734667,2010-12-04 23:04:31,1980.9649760419195,7,43,-1.0997490882873535,3.572507858276367,39.63857771593885,39.97186404079734,158.8768874388739,145.0418950273757,-6.47544875391759e-05,0.0955438911914825,0,0,0
13230,477028.312599282,2010-12-04 23:05:01,2010.980197952212,7,43,-1.0997490882873535,3.569270133972168,39.63857771593885,39.9810334366152,158.8768874388739,145.07463795827027,-0.0001295089750783,0.0955438911914825,0,0,0
13231,477058.3276017863,2010-12-04 23:05:31,2040.9952004615327,7,43,-1.0997490882873535,3.566518068313598,39.63857771593885,39.99020274220873,158.8768874388739,145.1073524219515,-3.237724376958795e-05,0.0955438911914825,0,0,0
13232,477088.3444916122,2010-12-04 23:06:01,2071.0120902923813,7,43,-1.0997490882873535,3.5632803440093994,39.63857771593885,39.99937254470472,158.8768874388739,145.14004024422624,-3.237724376958795e-05,0.0955438911914825,0,0,0
13233,477118.35776067286,2010-12-04 23:06:31,2101.0253593530824,7,43,-1.0997490882873535,3.56036639213562,39.63857771593885,40.00854128812596,158.8768874388739,145.17269724317842,-3.237724376958795e-05,0.0955438911914825,0,0,0
13234,477148.3728783688,2010-12-04 23:07:01,2131.040477099166,7,43,-1.0997490882873535,3.557128667831421,39.63857771593885,40.01771052400574,158.8768874388739,145.20532751774343,-6.47544875391759e-05,0.0955438911914825,0,0,0
13235,477178.38796596485,2010-12-04 23:07:31,2161.055564665148,7,43,-1.0997490882873535,3.5538909435272217,39.63857771593885,40.026879882593335,158.8768874388739,145.23792945532497,-0.0001295089750783,0.0955438911914825,0,0,0
13236,477208.40316664736,2010-12-04 23:08:01,2191.070765392727,7,43,-1.0997490882873535,3.5506532192230225,39.63857771593885,40.03604918489683,158.8768874388739,145.27050238992626,-0.0001295089750783,0.0955438911914825,0,0,0
13237,477238.4181348212,2010-12-04 23:08:31,2221.085733501444,7,43,-1.0997490882873535,3.547577381134033,39.63857771593885,40.04521847247252,158.8768874388739,145.30304611111916,-9.713172767078504e-05,0.0955438911914825,0,0,0
13238,477268.43325561495,2010-12-04 23:09:01,2251.100854310149,7,43,-1.0997490882873535,3.544501543045044,39.63857771593885,40.05438778782708,158.8768874388739,145.3355602142667,-3.237724376958795e-05,0.0955438911914825,0,0,0
13239,477298.4483549301,2010-12-04 23:09:31,2281.1159536905298,7,43,-1.0997490882873535,3.540940046310425,39.63857771593885,40.06355716036243,158.8768874388739,145.36804428792306,-0.0001295089750783,0.0955438911914825,0,0,0
13240,477328.4636898968,2010-12-04 23:10:01,2311.1312886671835,7,43,-1.0997490882873535,3.5377023220062256,39.63857771593885,40.07272660543081,158.8768874388739,145.40049807674285,-9.713172767078504e-05,0.0955438911914825,0,0,0
13241,477358.4785867732,2010-12-04 23:10:31,2341.1461855035413,7,43,-1.0997490882873535,3.5341408252716064,39.63857771593885,40.08189594146726,158.8768874388739,145.43292005071817,-9.713172767078504e-05,0.0955438911914825,0,0,0
13242,477388.49360828486,2010-12-04 23:11:01,2371.1612069600124,7,43,-1.0997490882873535,3.5305793285369877,39.63857771593885,40.09106525642648,158.8768874388739,145.465309856773,-9.713172767078504e-05,0.0955438911914825,0,0,0
13243,477418.5087496196,2010-12-04 23:11:31,2401.176348294795,7,43,-1.0997490882873535,3.527017831802368,39.63857771593885,40.10023456783685,158.8768874388739,145.49766672306225,-9.713172767078504e-05,0.0955438911914825,0,0,0
13244,477448.52380100056,2010-12-04 23:12:01,2431.191399735881,7,43,-1.0997490882873535,3.523132562637329,39.63857771593885,40.10940387623375,158.8768874388739,145.5299894654907,-0.0001295089750783,0.0955438911914825,0,0,0
13245,477478.538924872,2010-12-04 23:12:31,2461.2065235470577,7,43,-1.099568486213684,3.5194091796875,39.63857771593885,40.11857322034383,158.8768874388739,145.5622768628323,-9.713172767078504e-05,0.0955438911914825,0,0,0
13246,477508.5539835209,2010-12-04 23:13:01,2491.2215822010926,7,43,-1.0997490882873535,3.515038251876831,39.63857771593885,40.12774257419199,158.8768874388739,145.59452756203626,-0.0001942634553415,0.0955438911914825,0,0,0
13247,477538.56925571134,2010-12-04 23:13:31,2521.23685444163,7,43,-1.099568486213684,3.510829448699951,39.63857771593885,40.13691193449952,158.8768874388739,145.62673951658272,-0.0001295089750783,0.0955438911914825,0,0,0
13248,477568.584173966,2010-12-04 23:14:01,2551.251772636137,7,43,-1.0997490882873535,3.5062966346740723,39.63857771593885,40.14608122340578,158.8768874388739,145.65891038841434,-0.0001295089750783,0.0955438911914825,0,0,0
13249,477598.5992878875,2010-12-04 23:14:31,2581.266886562716,7,43,-1.0997490882873535,3.5012781620025635,39.63857771593885,40.15525059261639,158.8768874388739,145.69103811789086,-0.0001295089750783,0.0955438911914825,0,0,0
13250,477628.6143705864,2010-12-04 23:15:01,2611.281969261586,7,43,-1.099929690361023,3.4959359169006348,39.63857771593885,40.16441992965618,158.8768874388739,145.72311885101087,-0.0001618862152099,0.0955438911914825,0,0,0
13251,477658.62946927006,2010-12-04 23:15:31,2641.2970679402206,7,43,-1.099568486213684,3.490431785583496,39.63857771593885,40.17358932531042,158.8768874388739,145.75514888191083,-9.713172767078504e-05,0.0955438911914825,0,0,0
13252,477688.6445817931,2010-12-04 23:16:01,2671.312180473332,7,43,-1.0997490882873535,3.483794450759888,39.63857771593885,40.18275873790611,158.8768874388739,145.787123033517,-0.0001618862152099,0.0955438911914825,0,0,0
13253,477718.6458451581,2010-12-04 23:16:31,2701.313443928545,7,43,-1.0997490882873535,3.476347684860229,39.63857771593885,40.19192382776968,158.8768874388739,145.81901908296538,-0.0002266406954731,0.0955438911914825,0,0,0
13254,477748.6591364041,2010-12-04 23:17:01,2731.326735074204,7,43,-1.0997490882873535,3.468091487884521,39.63857771593885,40.20109263588364,158.8768874388739,145.85085683028063,-0.0002590179501567,0.0955438911914825,0,0,0
13255,477778.674236852,2010-12-04 23:17:31,2761.3418355823915,7,43,-1.0997490882873535,3.458540201187134,39.63857771593885,40.21026204654457,158.8768874388739,145.8826144115196,-0.0002266406954731,0.0955438911914825,0,0,0
13256,477808.68933289417,2010-12-04 23:18:01,2791.356931564316,7,43,-1.0997490882873535,3.4468843936920166,39.63857771593885,40.21943140402568,158.8768874388739,145.91427466815452,-0.0002913951757363,0.0955438911914825,0,0,0
13257,477838.7044267858,2010-12-04 23:18:31,2821.3720254760888,7,43,-1.0997490882873535,3.43247652053833,39.63857771593885,40.2286007771849,158.8768874388739,145.94581651704212,-0.0004209041653666,0.0955438911914825,0,0,0
13258,477868.7195211538,2010-12-04 23:19:01,2851.387119833971,7,43,-1.0997490882873535,3.4140217304229736,39.63857771593885,40.23777016719216,158.8768874388739,145.97721006747062,-0.0005504131549969,0.0955438911914825,0,0,0
13259,477898.7346152059,2010-12-04 23:19:31,2881.402213941231,7,43,-1.099568486213684,3.3907101154327397,39.63857771593885,40.246939498218886,158.8768874388739,146.0084126323273,-0.0006799221155233,0.0955438911914825,0,0,0
13260,477928.75206817815,2010-12-04 23:20:01,2911.419666988621,7,43,-1.0997490882873535,3.358818531036377,39.63857771593885,40.256109566928814,158.8768874388739,146.03936645701307,-0.0009713172912597,0.0955438911914825,0,0,0
13261,477958.76479818736,2010-12-04 23:20:31,2941.432396862577,7,43,-1.099929690361023,3.3160808086395264,39.63857771593885,40.26527820336212,158.8768874388739,146.06997656091374,-0.0012950897216796,0.0955438911914825,0,0,0
13262,477988.7798828411,2010-12-04 23:21:01,2971.447481511299,7,43,-1.0997490882873535,3.25715446472168,39.63857771593885,40.27444746802382,158.8768874388739,146.10012639877914,-0.0017807483673095,0.0955438911914825,0,0,0
13263,478018.7949837653,2010-12-04 23:21:31,3001.462582435522,7,43,-1.0997490882873535,3.173621416091919,39.63857771593885,40.28361670816486,158.8768874388739,146.12963271555327,-0.0026225566398352,0.0955438911914825,0,0,0
13264,478048.81013386697,2010-12-04 23:22:01,3031.4777326323583,7,43,-1.0997490882873535,3.0465409755706787,39.63857771593885,40.29278609694931,158.8768874388739,146.158196264781,-0.0041766641661524,0.0955438911914825,0,0,0
13265,478074.5128852202,2010-12-04 23:22:27,3057.180483900321,7,43,-1.099929690361023,2.8462884426116943,39.63857771593885,40.300638061917965,158.8768874388739,146.18142331451352,-0.0081913946196436,0.0955438911914825,0,0,0
13266,478087.0439223341,2010-12-04 23:22:40,3069.7115210142165,7,43,-1.0997490882873535,2.699943780899048,39.63857771593885,40.30446621039835,158.8768874388739,146.1920452184303,-0.0096159931272268,0.0955438911914825,0,0,0
13267,478147.0475598284,2010-12-04 23:23:40,60.01451593465277,8,43,0.0,3.353800058364868,39.63857771593885,40.30446621039835,158.8768874388739,146.1920452184303,0.0012626647949218,0.0955438911914825,0,0,0
13268,478147.2255663375,2010-12-04 23:23:40,0.187625468762652,9,43,0.0023286775685846,3.354933261871338,39.63857783730529,40.30446621039835,158.87688784605018,146.1920452184303,0.0,0.0953715816140174,0,0,0
13269,478152.0534946112,2010-12-04 23:23:45,5.015553742582504,9,43,0.0007031940040178,3.362218141555786,39.63857888093984,40.30446621039835,158.87689135150174,146.1920452184303,0.0011655807029455,0.0953715816140174,0,0,0
