Data_Point,Test_Time(s),Date_Time,Step_Time(s),Step_Index,Cycle_Index,Current(A),Voltage(V),Charge_Capacity(Ah),Discharge_Capacity(Ah),Charge_Energy(Wh),Discharge_Energy(Wh),dV/dt(V/s),Internal_Resistance(Ohm),Is_FC_Data,AC_Impedance(Ohm),ACI_Phase_Angle(Deg)
8624,312489.92122228805,2010-12-03 01:22:24,30.013223226644765,1,29,0.0,3.396538019180298,25.72648723515295,26.3914901394584,103.17624044001457,95.68279582030152,0.0007446765666827,0.0939245000481605,0,0,0
8625,312519.9372188561,2010-12-03 01:22:54,60.02921989990476,1,29,0.0,3.420335292816162,25.72648723515295,26.3914901394584,103.17624044001457,95.68279582030152,0.0005827903514727,0.0939245000481605,0,0,0
8626,312549.9507803946,2010-12-03 01:23:24,90.04278103241528,1,29,0.0,3.4383044242858887,25.72648723515295,26.3914901394584,103.17624044001457,95.68279582030152,0.0004209041653666,0.0939245000481605,0,0,0
8627,312579.9198736004,2010-12-03 01:23:54,120.01187464421078,1,29,0.0,3.452712297439575,25.72648723515295,26.3914901394584,103.17624044001457,95.68279582030152,0.0003237724304199,0.0939245000481605,0,0,0
8628,312609.946323819,2010-12-03 01:24:24,30.015115951618064,2,29,0.5501165986061096,3.6118459701538086,25.73107399071742,26.3914901394584,103.19264756392488,95.68279582030152,0.0014893531333655,0.0939245000481605,0,0,0
8629,312639.96132996737,2010-12-03 01:24:54,60.03012209999499,2,29,0.5501165986061096,3.6581454277038574,25.735660725168,26.3914901394584,103.20932768703776,95.68279582030152,0.0010360718006268,0.0939245000481605,0,0,0
8630,312669.976457192,2010-12-03 01:25:24,90.0452493246656,2,29,0.5501165986061096,3.69165563583374,25.74024741832394,26.3914901394584,103.2261867293744,95.68279582030152,0.0008094310760498,0.0939245000481605,0,0,0
8631,312699.99140389747,2010-12-03 01:25:54,120.06019603012112,2,29,0.550297200679779,3.717719316482544,25.744834091383577,26.3914901394584,103.24318090299202,95.68279582030152,0.0006475448608398,0.0939245000481605,0,0,0
8632,312730.0064735689,2010-12-03 01:26:24,150.07526571159772,2,29,0.5501165986061096,3.738926410675049,25.749420747315167,26.3914901394584,103.26028292348012,95.68279582030152,0.0005180359003134,0.0939245000481605,0,0,0
8633,312760.0216836999,2010-12-03 01:26:54,180.0904758977147,2,29,0.5499359965324402,3.755600452423096,25.75400740152308,26.3914901394584,103.27747195291325,95.68279582030152,0.0003561496851034,0.0939245000481605,0,0,0
8634,312790.0367462687,2010-12-03 01:27:24,210.10553847651656,2,29,0.5501165986061096,3.767418146133423,25.758594012599293,26.3914901394584,103.29472685412436,95.68279582030152,0.0002266406954731,0.0939245000481605,0,0,0
8635,312820.051681651,2010-12-03 01:27:54,240.12047378862016,2,29,0.5501165986061096,3.775350570678711,25.763180752842764,26.3914901394584,103.31202632025295,95.68279582030152,0.0002266406954731,0.0939245000481605,0,0,0
8636,312850.0667684701,2010-12-03 01:28:24,270.13556062779304,2,29,0.550297200679779,3.78069281578064,25.76776753070604,26.3914901394584,103.32935504575528,95.68279582030152,0.0001618862152099,0.0939245000481605,0,0,0
8637,312880.0818465374,2010-12-03 01:28:54,300.1506387653121,2,29,0.550297200679779,3.785387516021729,25.77235426639191,26.3914901394584,103.34670611943442,95.68279582030152,0.0001618862152099,0.0939245000481605,0,0,0
8638,312910.0989942951,2010-12-03 01:29:24,330.1677865631013,2,29,0.550297200679779,3.7894346714019775,25.776941324264165,26.3914901394584,103.36407869257869,95.68279582030152,9.713172767078504e-05,0.0939245000481605,0,0,0
8639,312940.1119552892,2010-12-03 01:29:54,360.1807474218536,2,29,0.5501165986061096,3.7934818267822266,25.781527685210296,26.3914901394584,103.38146765734784,95.68279582030152,9.713172767078504e-05,0.0939245000481605,0,0,0
8640,312970.1270085148,2010-12-03 01:30:24,390.1958006523926,2,29,0.5501165986061096,3.7973670959472656,25.78611441793944,26.3914901394584,103.39887621851126,95.68279582030152,9.713172767078504e-05,0.0939245000481605,0,0,0
8641,313000.1420948376,2010-12-03 01:30:54,420.2108869702684,2,29,0.5499359965324402,3.801090478897095,25.79070110462164,26.3914901394584,103.41630219124782,95.68279582030152,6.47544875391759e-05,0.0939245000481605,0,0,0
8642,313030.1571734313,2010-12-03 01:31:24,450.22596556392256,2,29,0.5501165986061096,3.804651975631714,25.795287849088005,26.3914901394584,103.43374535948878,95.68279582030152,6.47544875391759e-05,0.0939245000481605,0,0,0
8643,313060.1723652667,2010-12-03 01:31:54,480.2411574294495,2,29,0.5501165986061096,3.808375358581543,25.799874650476745,26.3914901394584,103.4512052874244,95.68279582030152,9.713172767078504e-05,0.0939245000481605,0,0,0
8644,313090.1872726444,2010-12-03 01:32:24,510.2560647819767,2,29,0.5501165986061096,3.811774969100952,25.804461381229004,26.3914901394584,103.4686810911044,95.68279582030152,6.47544875391759e-05,0.0939245000481605,0,0,0
8645,313120.2024378936,2010-12-03 01:32:54,540.2712301265071,2,29,0.550297200679779,3.8153364658355713,25.80904811875924,26.3914901394584,103.48617288740188,95.68279582030152,9.713172767078504e-05,0.0939245000481605,0,0,0
8646,313150.21741834306,2010-12-03 01:33:24,570.2862104756837,2,29,0.550297200679779,3.8188979625701904,25.81363483146906,26.3914901394584,103.50368039948394,95.68279582030152,0.0001295089750783,0.0939245000481605,0,0,0
8647,313180.23261481506,2010-12-03 01:33:54,600.3014069526862,2,29,0.5501165986061096,3.8221356868743896,25.81822159455403,26.3914901394584,103.52120364833208,95.68279582030152,9.713172767078504e-05,0.0939245000481605,0,0,0
8648,313210.247554102,2010-12-03 01:34:24,630.3163462346686,2,29,0.5499359965324402,3.825373411178589,25.82280824665212,26.3914901394584,103.53874194009204,95.68279582030152,6.47544875391759e-05,0.0939245000481605,0,0,0
8649,313240.2626305253,2010-12-03 01:34:54,660.3314226629343,2,29,0.5501165986061096,3.829096794128418,25.82739491412921,26.3914901394584,103.55629606387676,95.68279582030152,0.0001295089750783,0.0939245000481605,0,0,0
8650,313270.2777087681,2010-12-03 01:35:24,690.3465009257652,2,29,0.5501165986061096,3.832334518432617,25.83198162517493,26.3914901394584,103.57386633095358,95.68279582030152,6.47544875391759e-05,0.0939245000481605,0,0,0
8651,313300.2929018466,2010-12-03 01:35:54,720.3616939892732,2,29,0.5501165986061096,3.835895776748657,25.83656841046194,26.3914901394584,103.59145299452884,95.68279582030152,9.713172767078504e-05,0.0939245000481605,0,0,0
8652,313330.30795058096,2010-12-03 01:36:24,750.3767427236238,2,29,0.5501165986061096,3.839457273483277,25.841155173408445,26.3914901394584,103.60905602900851,95.68279582030152,6.47544875391759e-05,0.0939245000481605,0,0,0
8653,313360.32290416857,2010-12-03 01:36:54,780.3916963112051,2,29,0.5501165986061096,3.843018770217896,25.84574186831446,26.3914901394584,103.6266753371674,95.68279582030152,3.237724376958795e-05,0.0939245000481605,0,0,0
8654,313390.33808154805,2010-12-03 01:37:24,810.406873690684,2,29,0.5499359965324402,3.8467421531677246,25.850328633370992,26.3914901394584,103.64431140261168,95.68279582030152,9.713172767078504e-05,0.0939245000481605,0,0,0
8655,313420.3530472156,2010-12-03 01:37:54,840.4218393583262,2,29,0.5499359965324402,3.850303649902344,25.854915368248086,26.3914901394584,103.661963882724,95.68279582030152,6.47544875391759e-05,0.0939245000481605,0,0,0
8656,313450.36809296755,2010-12-03 01:38:24,870.4368851002303,2,29,0.550297200679779,3.854027032852173,25.85950211342298,26.3914901394584,103.6796327192133,95.68279582030152,0.0001295089750783,0.0939245000481605,0,0,0
8657,313480.3853704781,2010-12-03 01:38:54,900.4541627110541,2,29,0.5501165986061096,3.857426643371582,25.864089222582116,26.3914901394584,103.69731923663475,95.68279582030152,9.713172767078504e-05,0.0939245000481605,0,0,0
8658,313510.3999724207,2010-12-03 01:39:24,930.4687646435552,2,29,0.5501165986061096,3.860826253890991,25.868675905324995,26.3914901394584,103.715020001316,95.68279582030152,9.713172767078504e-05,0.0939245000481605,0,0,0
8659,313540.4134307624,2010-12-03 01:39:54,960.4822229050752,2,29,0.550297200679779,3.8643877506256095,25.873262383802125,26.3914901394584,103.73273554473263,95.68279582030152,0.0001295089750783,0.0939245000481605,0,0,0
8660,313570.4283757636,2010-12-03 01:40:24,990.497167896265,2,29,0.5501165986061096,3.8674635887146,25.87784911086295,26.3914901394584,103.7504672186172,95.68279582030152,9.713172767078504e-05,0.0939245000481605,0,0,0
8661,313600.4434585427,2010-12-03 01:40:54,1020.5122506853594,2,29,0.5501165986061096,3.870701313018799,25.882435841978037,26.3914901394584,103.76821365619396,95.68279582030152,9.713172767078504e-05,0.0939245000481605,0,0,0
8662,313630.4585082645,2010-12-03 01:41:24,1050.527300397142,2,29,0.5501165986061096,3.873777151107788,25.887022585408527,26.3914901394584,103.7859744439083,95.68279582030152,9.713172767078504e-05,0.0939245000481605,0,0,0
8663,313660.4736947266,2010-12-03 01:41:54,1080.542486859223,2,29,0.5501165986061096,3.876529216766357,25.89160934783783,26.3914901394584,103.80374891313951,95.68279582030152,6.47544875391759e-05,0.0939245000481605,0,0,0
8664,313690.4886593767,2010-12-03 01:42:24,1110.557451534395,2,29,0.5501165986061096,3.8794431686401367,25.896195991815908,26.3914901394584,103.82153600611235,95.68279582030152,9.713172767078504e-05,0.0939245000481605,0,0,0
8665,313720.50373503304,2010-12-03 01:42:55,1140.5725271757026,2,29,0.550297200679779,3.882195234298706,25.900782727173084,26.3914901394584,103.83933587455776,95.68279582030152,0.0001295089750783,0.0939245000481605,0,0,0
8666,313750.51891173585,2010-12-03 01:43:25,1170.5877038784977,2,29,0.5501165986061096,3.8844616413116455,25.90536949438255,26.3914901394584,103.85714759309424,95.68279582030152,6.47544875391759e-05,0.0939245000481605,0,0,0
8667,313780.5212122768,2010-12-03 01:43:55,1200.5900045297335,2,29,0.5501165986061096,3.886889934539795,25.909954322101093,26.3914901394584,103.87496274826752,95.68279582030152,3.237724376958795e-05,0.0939245000481605,0,0,0
8668,313810.53346734424,2010-12-03 01:44:25,1230.602259572089,2,29,0.550297200679779,3.8891563415527344,25.914540659372264,26.3914901394584,103.89279413891826,95.68279582030152,3.237724376958795e-05,0.0939245000481605,0,0,0
8669,313840.5483882254,2010-12-03 01:44:55,1260.6171803881198,2,29,0.5501165986061096,3.891098976135254,25.91912743890168,26.3914901394584,103.91063696491815,95.68279582030152,9.713172767078504e-05,0.0939245000481605,0,0,0
8670,313870.5636021809,2010-12-03 01:45:25,1290.6323943887287,2,29,0.550297200679779,3.893041610717773,25.923714169028337,26.3914901394584,103.92848869678454,95.68279582030152,6.47544875391759e-05,0.0939245000481605,0,0,0
8671,313900.578490085,2010-12-03 01:45:55,1320.6472822377225,2,29,0.550297200679779,3.894822359085083,25.928300906414908,26.3914901394584,103.94634915777895,95.68279582030152,6.47544875391759e-05,0.0939245000481605,0,0,0
8672,313930.59356642305,2010-12-03 01:46:25,1350.6623585557136,2,29,0.5501165986061096,3.896441221237183,25.93288765808717,26.3914901394584,103.96421733703512,95.68279582030152,3.237724376958795e-05,0.0939245000481605,0,0,0
8673,313960.608635869,2010-12-03 01:46:55,1380.677428001604,2,29,0.550297200679779,3.898221969604492,25.93747436420018,26.3914901394584,103.9820933860625,95.68279582030152,3.237724376958795e-05,0.0939245000481605,0,0,0
8674,313990.6238515588,2010-12-03 01:47:25,1410.6926436914168,2,29,0.5501165986061096,3.899840831756592,25.942061079189862,26.3914901394584,103.99997715463056,95.68279582030152,3.237724376958795e-05,0.0939245000481605,0,0,0
8675,314020.6387699989,2010-12-03 01:47:55,1440.7075621365475,2,29,0.550297200679779,3.9012978076934814,25.946647821821045,26.3914901394584,104.01786837517584,95.68279582030152,0.0,0.0939245000481605,0,0,0
8676,314050.65385678795,2010-12-03 01:48:25,1470.7226489456457,2,29,0.5501165986061096,3.903078556060791,25.95123454763975,26.3914901394584,104.03576677597076,95.68279582030152,6.47544875391759e-05,0.0939245000481605,0,0,0
8677,314080.66893022374,2010-12-03 01:48:55,1500.7377223564024,2,29,0.5501165986061096,3.9045355319976807,25.95582120337157,26.3914901394584,104.05367203628008,95.68279582030152,0.0,0.0939245000481605,0,0,0
8678,314110.68398588535,2010-12-03 01:49:25,1530.7527780330283,2,29,0.5501165986061096,3.9059925079345694,25.960407955562285,26.3914901394584,104.07158459278077,95.68279582030152,6.47544875391759e-05,0.0939245000481605,0,0,0
8679,314140.7007977572,2010-12-03 01:49:55,1560.7695898948537,2,29,0.5499359965324402,3.90744948387146,25.964994848462844,26.3914901394584,104.08950460334248,95.68279582030152,0.0,0.0939245000481605,0,0,0
8680,314170.71412738867,2010-12-03 01:50:25,1590.7829195262827,2,29,0.550297200679779,3.90906834602356,25.969581264983315,26.3914901394584,104.10742962886448,95.68279582030152,6.47544875391759e-05,0.0939245000481605,0,0,0
8681,314200.7291937819,2010-12-03 01:50:55,1620.7979859195768,2,29,0.5501165986061096,3.910687208175659,25.974167975760796,26.3914901394584,104.125362738425,95.68279582030152,6.47544875391759e-05,0.0939245000481605,0,0,0
8682,314230.7445357059,2010-12-03 01:51:25,1650.8133279537926,2,29,0.5499359965324402,3.911982297897339,25.978754761265897,26.3914901394584,104.14330298863192,95.68279582030152,3.237724376958795e-05,0.0939245000481605,0,0,0
8683,314260.7594733688,2010-12-03 01:51:55,1680.828265501459,2,29,0.5501165986061096,3.913439273834229,25.983341438275357,26.3914901394584,104.16124969321386,95.68279582030152,0.0,0.0939245000481605,0,0,0
8684,314290.7743937036,2010-12-03 01:52:25,1710.8431858413053,2,29,0.550297200679779,3.915219783782959,25.98792818216489,26.3914901394584,104.17920357566798,95.68279582030152,6.47544875391759e-05,0.0939245000481605,0,0,0
8685,314320.7895318054,2010-12-03 01:52:55,1740.85832399818,2,29,0.5501165986061096,3.916514873504639,25.99251495804418,26.3914901394584,104.1971643069875,95.68279582030152,3.237724376958795e-05,0.0939245000481605,0,0,0
8686,314350.8045731313,2010-12-03 01:53:25,1770.8733653591823,2,29,0.5499359965324402,3.9178099632263184,25.997101676595843,26.3914901394584,104.21513173287546,95.68279582030152,0.0,0.0939245000481605,0,0,0
8687,314380.8196160562,2010-12-03 01:53:55,1800.888408188839,2,29,0.550297200679779,3.919590711593628,26.00168838168856,26.3914901394584,104.23310600975418,95.68279582030152,3.237724376958795e-05,0.0939245000481605,0,0,0
8688,314410.8346729709,2010-12-03 01:54:25,1830.903465103546,2,29,0.5501165986061096,3.920885801315308,26.00627509308159,26.3914901394584,104.25108729745132,95.68279582030152,0.0,0.0939245000481605,0,0,0
8689,314440.8497896844,2010-12-03 01:54:55,1860.91858183711,2,29,0.5501165986061096,3.9225046634674072,26.01086175037772,26.3914901394584,104.26907531522993,95.68279582030152,3.237724376958795e-05,0.0939245000481605,0,0,0
8690,314470.8651580742,2010-12-03 01:55:25,1890.9339502970856,2,29,0.550297200679779,3.924123525619507,26.01544853078924,26.3914901394584,104.2870707915116,95.68279582030152,3.237724376958795e-05,0.0939245000481605,0,0,0
8691,314500.8798812735,2010-12-03 01:55:55,1920.948673421167,2,29,0.5499359965324402,3.925580501556397,26.020035205679367,26.3914901394584,104.30507294267804,95.68279582030152,3.237724376958795e-05,0.0939245000481605,0,0,0
8692,314530.8949897114,2010-12-03 01:56:25,1950.9637819342747,2,29,0.5501165986061096,3.927199363708496,26.0246219749326,26.3914901394584,104.32308233656748,95.68279582030152,3.237724376958795e-05,0.0939245000481605,0,0,0
8693,314560.9100347315,2010-12-03 01:56:55,1980.978826864158,2,29,0.5501165986061096,3.9286563396453857,26.02920864724393,26.3914901394584,104.3410984207178,95.68279582030152,3.237724376958795e-05,0.0939245000481605,0,0,0
8694,314590.9251367434,2010-12-03 01:57:25,2010.993928876088,2,29,0.550297200679779,3.930275201797485,26.03379538709464,26.3914901394584,104.3591218557224,95.68279582030152,6.47544875391759e-05,0.0939245000481605,0,0,0
8695,314620.9401609017,2010-12-03 01:57:55,2041.0089530994435,2,29,0.5501165986061096,3.931732177734375,26.03838213182621,26.3914901394584,104.377152413805,95.68279582030152,3.237724376958795e-05,0.0939245000481605,0,0,0
8696,314650.95523241267,2010-12-03 01:58:25,2071.0240245503232,2,29,0.5501165986061096,3.933512926101685,26.04296889768395,26.3914901394584,104.3951902592177,95.68279582030152,6.47544875391759e-05,0.0939245000481605,0,0,0
8697,314680.9703159336,2010-12-03 01:58:55,2101.0391080662266,2,29,0.5501165986061096,3.934969902038574,26.047555625664064,26.3914901394584,104.41323512066836,95.68279582030152,3.237724376958795e-05,0.0939245000481605,0,0,0
8698,314710.98537949484,2010-12-03 01:59:25,2131.0541716324856,2,29,0.550297200679779,3.936588764190674,26.05214240255927,26.3914901394584,104.43128742968828,95.68279582030152,6.47544875391759e-05,0.0939245000481605,0,0,0
8699,314741.0023587532,2010-12-03 01:59:55,2161.0711509760827,2,29,0.5501165986061096,3.938045740127564,26.05672950564965,26.3914901394584,104.4493482298244,95.68279582030152,3.237724376958795e-05,0.0939245000481605,0,0,0
8700,314771.01551529893,2010-12-03 02:00:25,2191.0843074315703,2,29,0.5501165986061096,3.939826488494873,26.06131603496853,26.3914901394584,104.46741409629765,95.68279582030152,6.47544875391759e-05,0.0939245000481605,0,0,0
8701,314801.030703781,2010-12-03 02:00:55,2221.0994959136774,2,29,0.5501165986061096,3.9411215782165527,26.065902788884504,26.3914901394584,104.48548821546945,95.68279582030152,3.237724376958795e-05,0.0939245000481605,0,0,0
8702,314831.0456560203,2010-12-03 02:01:25,2251.114448157916,2,29,0.550297200679779,3.943064212799072,26.070489504515457,26.3914901394584,104.50356946973297,95.68279582030152,6.47544875391759e-05,0.0939245000481605,0,0,0
8703,314861.061111587,2010-12-03 02:01:55,2281.129903794828,2,29,0.5499359965324402,3.944521188735962,26.07507630180809,26.3914901394584,104.5216584932152,95.68279582030152,6.47544875391759e-05,0.0939245000481605,0,0,0
8704,314891.0759346498,2010-12-03 02:02:25,2311.144726877653,2,29,0.5501165986061096,3.9461400508880615,26.079662983768447,26.3914901394584,104.5397545645058,95.68279582030152,6.47544875391759e-05,0.0939245000481605,0,0,0
8705,314921.090846684,2010-12-03 02:02:55,2341.159638821606,2,29,0.550297200679779,3.947758913040161,26.084249699404552,26.3914901394584,104.55785819340775,95.68279582030152,3.237724376958795e-05,0.0939245000481605,0,0,0
8706,314951.10590677155,2010-12-03 02:03:25,2371.1746989292587,2,29,0.550297200679779,3.9493777751922607,26.088836377626265,26.3914901394584,104.57596917442008,95.68279582030152,3.237724376958795e-05,0.0939245000481605,0,0,0
8707,314981.12106310367,2010-12-03 02:03:55,2401.1898552463244,2,29,0.5501165986061096,3.9511585235595694,26.09342308371365,26.3914901394584,104.5940878369603,95.68279582030152,3.237724376958795e-05,0.0939245000481605,0,0,0
8708,315011.13603639026,2010-12-03 02:04:25,2431.2048286231507,2,29,0.5499359965324402,3.95261549949646,26.09800980073862,26.3914901394584,104.61221411525057,95.68279582030152,3.237724376958795e-05,0.0939245000481605,0,0,0
8709,315041.1510821773,2010-12-03 02:04:55,2461.2198743199424,2,29,0.5501165986061096,3.9543962478637695,26.10259643188645,26.3914901394584,104.63034766111107,95.68279582030152,0.0,0.0939245000481605,0,0,0
8710,315071.1661620842,2010-12-03 02:05:25,2491.23495421684,2,29,0.5501165986061096,3.956015110015869,26.107182418860244,26.3914901394584,104.64848620411406,95.68279582030152,3.237724376958795e-05,0.0939245000481605,0,0,0
8711,315101.18135241594,2010-12-03 02:05:55,2521.2501445686,2,29,0.5501165986061096,3.9577958583831783,26.111768305028345,26.3914901394584,104.66663193853852,95.68279582030152,6.47544875391759e-05,0.0939245000481605,0,0,0
8712,315131.1963074571,2010-12-03 02:06:25,2551.265099619823,2,29,0.5501165986061096,3.9594147205352783,26.11635411618717,26.3914901394584,104.68478513243468,95.68279582030152,6.47544875391759e-05,0.0939245000481605,0,0,0
8713,315161.21136224654,2010-12-03 02:06:55,2581.2801543841792,2,29,0.5501165986061096,3.961033582687378,26.1209400100082,26.3914901394584,104.70294638629426,95.68279582030152,6.47544875391759e-05,0.0939245000481605,0,0,0
8714,315191.2264449153,2010-12-03 02:07:25,2611.2952370479616,2,29,0.5501165986061096,3.9626524448394775,26.12552665577622,26.3914901394584,104.72111858871207,95.68279582030152,0.0,0.0939245000481605,0,0,0
8715,315221.2414790283,2010-12-03 02:07:55,2641.3102711709525,2,29,0.5501165986061096,3.964595079421997,26.130113384837937,26.3914901394584,104.7392990018658,95.68279582030152,3.237724376958795e-05,0.0939245000481605,0,0,0
8716,315251.2565556821,2010-12-03 02:08:25,2671.325347839817,2,29,0.5501165986061096,3.9662139415740967,26.134700186807404,26.3914901394584,104.75748768621496,95.68279582030152,3.237724376958795e-05,0.0939245000481605,0,0,0
8717,315281.2716211381,2010-12-03 02:08:55,2701.340413270716,2,29,0.5499359965324402,3.9679946899414062,26.13928705268167,26.3914901394584,104.77568463403324,95.68279582030152,6.47544875391759e-05,0.0939245000481605,0,0,0
8718,315311.28671533056,2010-12-03 02:09:25,2731.355507473212,2,29,0.5501165986061096,3.969775438308716,26.143873821249105,26.3914901394584,104.79388927332604,95.68279582030152,0.0,0.0939245000481605,0,0,0
8719,315341.3035195835,2010-12-03 02:09:55,2761.372311811315,2,29,0.550297200679779,3.971879959106445,26.14846078732375,26.3914901394584,104.81210284304788,95.68279582030152,9.713172767078504e-05,0.0939245000481605,0,0,0
8720,315371.3169125876,2010-12-03 02:10:25,2791.3857047803576,2,29,0.550297200679779,3.973498821258545,26.153047350592477,26.3914901394584,104.83032308593394,95.68279582030152,3.237724376958795e-05,0.0939245000481605,0,0,0
8721,315401.33190668595,2010-12-03 02:10:55,2821.400698813586,2,29,0.550297200679779,3.9752795696258554,26.157634092927232,26.3914901394584,104.84855232864967,95.68279582030152,3.237724376958795e-05,0.0939245000481605,0,0,0
8722,315431.34929117776,2010-12-03 02:11:25,2851.4180834306912,2,29,0.550297200679779,3.977060317993164,26.162221234771625,26.3914901394584,104.8667915171148,95.68279582030152,3.237724376958795e-05,0.0939245000481605,0,0,0
8723,315461.362094309,2010-12-03 02:11:55,2881.43088653187,2,29,0.5501165986061096,3.979002952575684,26.166807680376827,26.3914901394584,104.88503599645644,95.68279582030152,3.237724376958795e-05,0.0939245000481605,0,0,0
8724,315491.377245368,2010-12-03 02:12:25,2911.446037550751,2,29,0.5504778623580933,3.980783700942993,26.171394402670337,26.3914901394584,104.90329059406388,95.68279582030152,6.47544875391759e-05,0.0939245000481605,0,0,0
8725,315521.39220501564,2010-12-03 02:12:55,2941.460997158313,2,29,0.5501165986061096,3.982888221740722,26.17598110356555,26.3914901394584,104.92155376804811,95.68279582030152,6.47544875391759e-05,0.0939245000481605,0,0,0
8726,315551.4072762259,2010-12-03 02:13:25,2971.4760683585696,2,29,0.550297200679779,3.984668970108032,26.180567814915484,26.3914901394584,104.93982558962676,95.68279582030152,6.47544875391759e-05,0.0939245000481605,0,0,0
8727,315581.42240155087,2010-12-03 02:13:55,3001.4911937787497,2,29,0.5501165986061096,3.986611604690552,26.18515453009173,26.3914901394584,104.95810621272746,95.68279582030152,9.713172767078504e-05,0.0939245000481605,0,0,0
8728,315611.4375253821,2010-12-03 02:14:25,3031.5063175147384,2,29,0.5501165986061096,3.988392353057861,26.189741206501186,26.3914901394584,104.9763955081807,95.68279582030152,3.237724376958795e-05,0.0939245000481605,0,0,0
8729,315641.45249727526,2010-12-03 02:14:55,3061.5212894178976,2,29,0.5499359965324402,3.990334987640381,26.19432786611999,26.3914901394584,104.9946936938819,95.68279582030152,3.237724376958795e-05,0.0939245000481605,0,0,0
8730,315671.4676866596,2010-12-03 02:15:26,3091.536478797238,2,29,0.5501165986061096,3.9924395084381104,26.198914584807373,26.3914901394584,105.01300117527,95.68279582030152,6.47544875391759e-05,0.0939245000481605,0,0,0
8731,315701.4849648769,2010-12-03 02:15:56,3121.553757094771,2,29,0.5501165986061096,3.994381904602051,26.20350165625204,26.3914901394584,105.03131928804484,95.68279582030152,3.237724376958795e-05,0.0939245000481605,0,0,0
8732,315731.4977233972,2010-12-03 02:16:26,3151.5665155297997,2,29,0.550297200679779,3.99648642539978,26.208087995673147,26.3914901394584,105.04964375994928,95.68279582030152,6.47544875391759e-05,0.0939245000481605,0,0,0
8733,315761.51287602,2010-12-03 02:16:56,3181.581668152672,2,29,0.5501165986061096,3.9984290599823,26.212674753139577,26.3914901394584,105.06797937609288,95.68279582030152,3.237724376958795e-05,0.0939245000481605,0,0,0
8734,315791.5278521838,2010-12-03 02:17:26,3211.596644401646,2,29,0.550297200679779,4.000695705413818,26.21726148073934,26.3914901394584,105.08632435374824,95.68279582030152,6.47544875391759e-05,0.0939245000481605,0,0,0
8735,315821.5430192176,2010-12-03 02:17:56,3241.611811350168,2,29,0.5499359965324402,4.002638339996338,26.221848200986365,26.3914901394584,105.10467898327416,95.68279582030152,0.0,0.0939245000481605,0,0,0
8736,315851.55809528986,2010-12-03 02:18:26,3271.6268874726725,2,29,0.5499359965324402,4.004742622375488,26.22643487316622,26.3914901394584,105.12304317821835,95.68279582030152,3.23295607813634e-05,0.0939245000481605,0,0,0
8737,315881.5730371633,2010-12-03 02:18:56,3301.641829295979,2,29,0.5499359965324402,4.007009029388428,26.231021588754636,26.3914901394584,105.14141747086244,95.68279582030152,6.47544875391759e-05,0.0939245000481605,0,0,0
8738,315911.588119356,2010-12-03 02:19:26,3331.656911493601,2,29,0.5501165986061096,4.009275436401367,26.235608339191693,26.3914901394584,105.15980191871166,95.68279582030152,9.70840483205393e-05,0.0939245000481605,0,0,0
8739,315941.6050110414,2010-12-03 02:19:56,3361.673803294352,2,29,0.5501165986061096,4.011541843414307,26.24019539754328,26.3914901394584,105.17819770277592,95.68279582030152,6.47544875391759e-05,0.0939245000481605,0,0,0
8740,315971.6182672702,2010-12-03 02:20:26,3391.687059402821,2,29,0.5501165986061096,4.013646602630615,26.244781866950877,26.3914901394584,105.19660134556231,95.68279582030152,3.24249267578125e-05,0.0939245000481605,0,0,0
8741,316001.63333315216,2010-12-03 02:20:56,3421.7021252848435,2,29,0.5499359965324402,4.015913009643555,26.249368620073824,26.3914901394584,105.2150164441404,95.68279582030152,3.24249267578125e-05,0.0939245000481605,0,0,0
8742,316031.64841207163,2010-12-03 02:21:26,3451.717204199296,2,29,0.5501165986061096,4.018179416656494,26.253955374219856,26.3914901394584,105.23344205636091,95.68279582030152,0.0,0.0939245000481605,0,0,0
8743,316061.6634739437,2010-12-03 02:21:56,3481.732266071339,2,29,0.5501165986061096,4.0206074714660645,26.2585420618574,26.3914901394584,105.25187786974192,95.68279582030152,6.47544875391759e-05,0.0939245000481605,0,0,0
8744,316091.67866006494,2010-12-03 02:22:26,3511.747452197584,2,29,0.5501165986061096,4.022873878479004,26.263128738717185,26.3914901394584,105.270324243929,95.68279582030152,6.47544875391759e-05,0.0939245000481605,0,0,0
8745,316121.6935786956,2010-12-03 02:22:56,3541.7623708532387,2,29,0.5501165986061096,4.025302410125732,26.26771539945832,26.3914901394584,105.28878125888552,95.68279582030152,9.71794142969884e-05,0.0939245000481605,0,0,0
8746,316151.70867609594,2010-12-03 02:23:26,3571.7774682386557,2,29,0.5501165986061096,4.027730464935303,26.272302033370607,26.3914901394584,105.30724904481966,95.68279582030152,6.47544875391759e-05,0.0939245000481605,0,0,0
8747,316181.7237271561,2010-12-03 02:23:56,3601.7925192887687,2,29,0.550297200679779,4.030158996582031,26.276888685386623,26.3914901394584,105.32572786592569,95.68279582030152,9.71794142969884e-05,0.0939245000481605,0,0,0
8748,316211.73879803054,2010-12-03 02:24:26,3631.8075901582015,2,29,0.5499359965324402,4.032263278961182,26.28147532994841,26.3914901394584,105.34421768647913,95.68279582030152,3.23295607813634e-05,0.0939245000481605,0,0,0
8749,316241.754032437,2010-12-03 02:24:56,3661.8228245796254,2,29,0.550297200679779,4.035177230834961,26.28606191114473,26.3914901394584,105.36271847580204,95.68279582030152,9.71794142969884e-05,0.0939245000481605,0,0,0
8750,316271.7689592028,2010-12-03 02:25:26,3691.8377513354394,2,29,0.5499359965324402,4.037281513214111,26.29064861285977,26.3914901394584,105.38123105987864,95.68279582030152,3.23295607813634e-05,0.0939245000481605,0,0,0
8751,316301.7840206588,2010-12-03 02:25:56,3721.852812791446,2,29,0.550297200679779,4.03971004486084,26.2952353856232,26.3914901394584,105.39975532718536,95.68279582030152,6.47544875391759e-05,0.0939245000481605,0,0,0
8752,316331.79909450066,2010-12-03 02:26:26,3751.867886633276,2,29,0.5501165986061096,4.042300224304199,26.29982209061954,26.3914901394584,105.41829065236897,95.68279582030152,6.47544875391759e-05,0.0939245000481605,0,0,0
8753,316361.81418276334,2010-12-03 02:26:56,3781.882974895991,2,29,0.5501165986061096,4.044890403747559,26.30440881074371,26.3914901394584,105.43683761969795,95.68279582030152,6.47544875391759e-05,0.0939245000481605,0,0,0
8754,316391.829608977,2010-12-03 02:27:26,3811.898401209934,2,29,0.5501165986061096,4.047318458557129,26.30899559507752,26.3914901394584,105.4553965041007,95.68279582030152,3.23295607813634e-05,0.0939245000481605,0,0,0
8755,316421.8443213694,2010-12-03 02:27:56,3841.913113522111,2,29,0.5501165986061096,4.050070762634277,26.31358231660744,26.3914901394584,105.47396696674636,95.68279582030152,9.71794142969884e-05,0.0939245000481605,0,0,0
8756,316451.8593804094,2010-12-03 02:28:26,3871.9281725470687,2,29,0.5501165986061096,4.052660942077637,26.31816909226845,26.3914901394584,105.49254952217912,95.68279582030152,9.71794142969884e-05,0.0939245000481605,0,0,0
8757,316481.8745730719,2010-12-03 02:28:56,3901.9433652045664,2,29,0.5501165986061096,4.055251121520996,26.322755792985664,26.3914901394584,105.51114386040112,95.68279582030152,6.47544875391759e-05,0.0939245000481605,0,0,0
8758,316511.8895548998,2010-12-03 02:29:26,3931.9583470324233,2,29,0.5499359965324402,4.057841300964356,26.32734255254213,26.3914901394584,105.52975057923128,95.68279582030152,3.24249267578125e-05,0.0939245000481605,0,0,0
8759,316541.9065629548,2010-12-03 02:29:56,3961.975355177692,2,29,0.550297200679779,4.060593128204346,26.33192963503945,26.3914901394584,105.54837091288678,95.68279582030152,6.47544875391759e-05,0.0939245000481605,0,0,0
8760,316571.91971457325,2010-12-03 02:30:26,3991.988506715943,2,29,0.5499359965324402,4.063183307647705,26.336516060182618,26.3914901394584,105.56700039259194,95.68279582030152,6.47544875391759e-05,0.0939245000481605,0,0,0
8761,316601.93473196967,2010-12-03 02:30:56,4022.0035241022856,2,29,0.550297200679779,4.0659356117248535,26.34110283116523,26.3914901394584,105.5856438539578,95.68279582030152,3.24249267578125e-05,0.0939245000481605,0,0,0
8762,316631.9498232048,2010-12-03 02:31:26,4052.0186153373975,2,29,0.550297200679779,4.068687438964844,26.34568954739655,26.3914901394584,105.60429962351576,95.68279582030152,6.47544875391759e-05,0.0939245000481605,0,0,0
8763,316661.965002479,2010-12-03 02:31:56,4082.033794641666,2,29,0.5501165986061096,4.071439743041992,26.35027629671265,26.3914901394584,105.6229682101154,95.68279582030152,6.47544875391759e-05,0.0939245000481605,0,0,0
8764,316691.979953054,2010-12-03 02:32:26,4112.048745186677,2,29,0.550297200679779,4.074353694915772,26.35486300010332,26.3914901394584,105.64164940505064,95.68279582030152,6.47544875391759e-05,0.0939245000481605,0,0,0
8765,316721.9950203546,2010-12-03 02:32:56,4142.063812487228,2,29,0.550297200679779,4.077267646789551,26.35944970866662,26.3914901394584,105.66034354023432,95.68279582030152,0.0001295089750783,0.0939245000481605,0,0,0
8766,316752.0101216146,2010-12-03 02:33:26,4172.078913747287,2,29,0.5501165986061096,4.080019474029541,26.36403649516262,26.3914901394584,105.67905103787986,95.68279582030152,9.70840483205393e-05,0.0939245000481605,0,0,0
8767,316782.0254603456,2010-12-03 02:33:56,4202.094252553469,2,29,0.550297200679779,4.08293342590332,26.36862330338844,26.3914901394584,105.6977717476373,95.68279582030152,9.70840483205393e-05,0.0939245000481605,0,0,0
8768,316812.0402464665,2010-12-03 02:34:26,4232.10903859913,2,29,0.5504778623580933,4.0858473777771,26.373209991011663,26.3914901394584,105.71650527404844,95.68279582030152,9.70840483205393e-05,0.0939245000481605,0,0,0
8769,316842.055309712,2010-12-03 02:34:56,4262.124101839578,2,29,0.5501165986061096,4.088761329650879,26.37779675202994,26.3914901394584,105.7352524432064,95.68279582030152,9.70840483205393e-05,0.0939245000481605,0,0,0
8770,316872.0703998092,2010-12-03 02:35:26,4292.13919194187,2,29,0.5499359965324402,4.091513633728027,26.38238350242092,26.3914901394584,105.7540130259374,95.68279582030152,3.24249267578125e-05,0.0939245000481605,0,0,0
8771,316902.08547581645,2010-12-03 02:35:56,4322.1542679490885,2,29,0.5501165986061096,4.0945892333984375,26.386970202465363,26.3914901394584,105.77278686301294,95.68279582030152,3.23295607813634e-05,0.0939245000481605,0,0,0
8772,316932.1005577283,2010-12-03 02:36:26,4352.169349861,2,29,0.5499359965324402,4.097503185272217,26.391556952317803,26.3914901394584,105.79157471908212,95.68279582030152,6.47544875391759e-05,0.0939245000481605,0,0,0
8773,316962.1156042923,2010-12-03 02:36:56,4382.184396434975,2,29,0.550297200679779,4.100740909576416,26.396143629183804,26.3914901394584,105.81037610432364,95.68279582030152,9.70840483205393e-05,0.0939245000481605,0,0,0
8774,316992.1307036827,2010-12-03 02:37:26,4412.199495845431,2,29,0.550297200679779,4.103654861450195,26.400730455000293,26.3914901394584,105.8291919738284,95.68279582030152,9.70840483205393e-05,0.0939245000481605,0,0,0
8775,317022.1457409636,2010-12-03 02:37:56,4442.214533121268,2,29,0.5501165986061096,4.1068925857543945,26.405317386487024,26.3914901394584,105.84802241782415,95.68279582030152,0.0001295089750783,0.0939245000481605,0,0,0
8776,317052.1608150309,2010-12-03 02:38:26,4472.229607188658,2,29,0.550297200679779,4.109806537628174,26.409904829529136,26.3914901394584,105.86686908524524,95.68279582030152,6.47544875391759e-05,0.0939245000481605,0,0,0
8777,317082.17588294303,2010-12-03 02:38:56,4502.244675075669,2,29,0.5501165986061096,4.112882614135742,26.4144922506456,26.3914901394584,105.8857299280066,95.68279582030152,9.71794142969884e-05,0.0939245000481605,0,0,0
8778,317112.1909843835,2010-12-03 02:39:26,4532.259776541239,2,29,0.550297200679779,4.116119861602783,26.419079602667843,26.3914901394584,105.90460483514636,95.68279582030152,9.70840483205393e-05,0.0939245000481605,0,0,0
8779,317142.2079913058,2010-12-03 02:39:56,4562.27678355369,2,29,0.5501165986061096,4.119357585906982,26.42366710411449,26.3914901394584,105.92349487926656,95.68279582030152,9.70840483205393e-05,0.0939245000481605,0,0,0
8780,317172.2211232653,2010-12-03 02:40:26,4592.289915407958,2,29,0.550297200679779,4.122595310211182,26.42825348309933,26.3914901394584,105.94239498357572,95.68279582030152,9.70840483205393e-05,0.0939245000481605,0,0,0
8781,317202.2362085907,2010-12-03 02:40:56,4622.305000723339,2,29,0.5501165986061096,4.12567138671875,26.432840166031216,26.3914901394584,105.96131100478256,95.68279582030152,9.71794142969884e-05,0.0939245000481605,0,0,0
8782,317232.25134486787,2010-12-03 02:41:26,4652.320137100785,2,29,0.5501165986061096,4.128909111022949,26.43742690280933,26.3914901394584,105.98024211324302,95.68279582030152,9.71794142969884e-05,0.0939245000481605,0,0,0
8783,317262.2663208161,2010-12-03 02:41:56,4682.335112943749,2,29,0.5501165986061096,4.132308483123779,26.44201359136741,26.3914901394584,105.999187942967,95.68279582030152,9.70840483205393e-05,0.0939245000481605,0,0,0
8784,317292.2814077355,2010-12-03 02:42:26,4712.350199943321,2,29,0.5501165986061096,4.1355462074279785,26.44660028185023,26.3914901394584,106.01814878373656,95.68279582030152,9.70840483205393e-05,0.0939245000481605,0,0,0
8785,317322.296468189,2010-12-03 02:42:56,4742.365260346709,2,29,0.550297200679779,4.138946056365967,26.45118702380357,26.3914901394584,106.03712499233828,95.68279582030152,0.0001295089750783,0.0939245000481605,0,0,0
8786,317352.31391892064,2010-12-03 02:43:26,4772.382711143499,2,29,0.550297200679779,4.142183780670166,26.45577411572104,26.3914901394584,106.05611786735795,95.68279582030152,9.71794142969884e-05,0.0939245000481605,0,0,0
8787,317382.3266250505,2010-12-03 02:43:56,4802.395417178132,2,29,0.5501165986061096,4.145583152770996,26.46036053065304,26.3914901394584,106.07512336259032,95.68279582030152,9.70840483205393e-05,0.0939245000481605,0,0,0
8788,317412.3417138947,2010-12-03 02:44:26,4832.410506032319,2,29,0.5501165986061096,4.148820877075195,26.464947241563166,26.3914901394584,106.09414584363395,95.68279582030152,6.47544875391759e-05,0.0939245000481605,0,0,0
8789,317442.35675734584,2010-12-03 02:44:56,4862.425549503572,2,29,0.5501165986061096,4.152382373809815,26.4695339142642,26.3914901394584,106.11318384100088,95.68279582030152,9.70840483205393e-05,0.0939245000481605,0,0,0
8790,317472.3718487815,2010-12-03 02:45:26,4892.440640939183,2,29,0.5501165986061096,4.155943870544434,26.474120538964662,26.3914901394584,106.13223727799316,95.68279582030152,9.70840483205393e-05,0.0939245000481605,0,0,0
8791,317502.38687975163,2010-12-03 02:45:56,4922.45567189429,2,29,0.550297200679779,4.159343719482422,26.47870705908572,26.3914901394584,106.15130616027372,95.68279582030152,9.71794142969884e-05,0.0939245000481605,0,0,0
8792,317532.4019546861,2010-12-03 02:46:26,4952.470746828839,2,29,0.5501165986061096,4.162743091583252,26.4832937030154,26.3914901394584,106.17039156875244,95.68279582030152,9.70840483205393e-05,0.0939245000481605,0,0,0
8793,317562.4171060008,2010-12-03 02:46:56,4982.485898153482,2,29,0.5501165986061096,4.16614294052124,26.48788036051237,26.3914901394584,106.18949301536315,95.68279582030152,3.24249267578125e-05,0.0939245000481605,0,0,0
8794,317592.4322865331,2010-12-03 02:47:27,5012.501078675781,2,29,0.5497553944587708,4.16986608505249,26.49246697870099,26.3914901394584,106.20861039751328,95.68279582030152,9.70840483205393e-05,0.0939245000481605,0,0,0
8795,317622.4495363899,2010-12-03 02:47:57,5042.518328622765,2,29,0.5499359965324402,4.173265933990479,26.497053867778902,26.3914901394584,106.2277451895748,95.68279582030152,3.24249267578125e-05,0.0939245000481605,0,0,0
8796,317652.46239450795,2010-12-03 02:48:27,5072.531186665665,2,29,0.5501165986061096,4.1769890785217285,26.501640054528124,26.3914901394584,106.24689337284184,95.68279582030152,9.70840483205393e-05,0.0939245000481605,0,0,0
8797,317682.4773618498,2010-12-03 02:48:57,5102.54615398241,2,29,0.5499359965324402,4.180550575256348,26.506225856425257,26.3914901394584,106.26605625861292,95.68279582030152,9.70840483205393e-05,0.0939245000481605,0,0,0
8798,317712.4924108347,2010-12-03 02:49:27,5132.561202972396,2,29,0.5499359965324402,4.184112071990967,26.51081168514169,26.3914901394584,106.285235858618,95.68279582030152,9.70840483205393e-05,0.0939245000481605,0,0,0
8799,317742.5075388965,2010-12-03 02:49:57,5162.576331054201,2,29,0.5501165986061096,4.187835693359375,26.515398315146843,26.3914901394584,106.30443554892626,95.68279582030152,0.0001295089750783,0.0939245000481605,0,0,0
8800,317772.50887080707,2010-12-03 02:50:27,5192.577663090075,2,29,0.5499359965324402,4.191397190093994,26.51998277034503,26.3914901394584,106.32364290209432,95.68279582030152,6.47544875391759e-05,0.0939245000481605,0,0,0
8801,317802.52229446743,2010-12-03 02:50:57,5222.591086730441,2,29,0.5501165986061096,4.195120334625244,26.524569118112836,26.3914901394584,106.34287511674646,95.68279582030152,9.70840483205393e-05,0.0939245000481605,0,0,0
8802,317832.537127069,2010-12-03 02:51:27,5252.605919226691,2,29,0.5501165986061096,4.199005603790283,26.52915563291745,26.3914901394584,106.362124913432,95.68279582030152,9.71794142969884e-05,0.0939245000481605,0,0,0
8803,317840.33391844947,2010-12-03 02:51:34,5260.402710697389,2,29,0.550297200679779,4.200138568878174,26.530347052199243,26.3914901394584,106.36712817876966,95.68279582030152,0.0001618385285837,0.0939245000481605,0,0,0
8804,317870.36109874287,2010-12-03 02:52:05,30.012042628772367,3,29,0.0,4.112396717071533,26.530347052199243,26.3914901394584,106.36712817876966,95.68279582030152,-0.0003561973571777,0.0939245000481605,0,0,0
8805,317900.37614851474,2010-12-03 02:52:35,60.02709231048031,3,29,0.0,4.101550579071045,26.530347052199243,26.3914901394584,106.36712817876966,95.68279582030152,-0.0001295089750783,0.0939245000481605,0,0,0
8806,317930.3912105572,2010-12-03 02:53:05,90.04215432287268,3,29,0.0,4.094913005828857,26.530347052199243,26.3914901394584,106.36712817876966,95.68279582030152,-9.71794142969884e-05,0.0939245000481605,0,0,0
8807,317960.35957039805,2010-12-03 02:53:35,120.010514329119,3,29,0.0,4.090542316436768,26.530347052199243,26.3914901394584,106.36712817876966,95.68279582030152,-9.70840483205393e-05,0.0939245000481605,0,0,0
8808,317960.374948855,2010-12-03 02:53:35,0.029403208754092,4,29,0.9895389676094056,4.199653148651123,26.53035515072012,26.3914901394584,106.36716219005788,95.68279582030152,-3.23295607813634e-05,0.0939245000481605,0,0,0
8809,317961.3906998724,2010-12-03 02:53:36,1.045154296268021,4,29,0.9393296241760254,4.199814796447754,26.530625793480112,26.3914901394584,106.36829881099013,95.68279582030152,0.0,0.0939245000481605,0,0,0
8810,317963.56238804985,2010-12-03 02:53:38,3.216842403596642,4,29,0.888939619064331,4.199653148651123,26.531176178308986,26.3914901394584,106.370610256292,95.68279582030152,-3.23295607813634e-05,0.0939245000481605,0,0,0
8811,317966.82809448976,2010-12-03 02:53:41,6.482548848480642,4,29,0.8389108777046204,4.199814796447754,26.53195878095684,26.3914901394584,106.37389694691149,95.68279582030152,3.23295607813634e-05,0.0939245000481605,0,0,0
8812,317971.28285103006,2010-12-03 02:53:46,10.937305484031416,4,29,0.7888820767402649,4.199814796447754,26.53296458277745,26.3914901394584,106.37812101793632,95.68279582030152,3.23295607813634e-05,0.0939245000481605,0,0,0
8813,317977.1405362845,2010-12-03 02:53:52,16.794990743504027,4,29,0.73867267370224,4.199653148651123,26.5342057918696,26.3914901394584,106.38333373999598,95.68279582030152,0.0,0.0939245000481605,0,0,0
8814,317984.780759446,2010-12-03 02:53:59,24.43521381476212,4,29,0.6884633302688599,4.199653148651123,26.535718326990352,26.3914901394584,106.38968596441804,95.68279582030152,0.0,0.0939245000481605,0,0,0
8815,317995.1578639715,2010-12-03 02:54:10,34.812318450528814,4,29,0.638253927230835,4.199653148651123,26.537627427597872,26.3914901394584,106.39770364845376,95.68279582030152,-3.23295607813634e-05,0.0939245000481605,0,0,0
8816,318009.780322868,2010-12-03 02:54:24,49.43477723681623,4,29,0.5882251858711243,4.199814796447754,26.54011213802108,26.3914901394584,106.40813873278624,95.68279582030152,0.0,0.0939245000481605,0,0,0
8817,318032.436291269,2010-12-03 02:54:47,72.09074573303567,4,29,0.5381963849067688,4.199653148651123,26.543644351006368,26.3914901394584,106.42297306411304,95.68279582030152,0.0,0.0939245000481605,0,0,0
8818,318072.20104526496,2010-12-03 02:55:27,111.85549963370389,4,29,0.4879870116710663,4.199653148651123,26.54928797525778,26.3914901394584,106.44667479834992,95.68279582030152,-3.23295607813634e-05,0.0939245000481605,0,0,0
8819,318145.41842822643,2010-12-03 02:56:40,185.07288257510035,4,29,0.4379582405090332,4.199653148651123,26.55866900723149,26.3914901394584,106.48607263241104,95.68279582030152,-3.23295607813634e-05,0.0939245000481605,0,0,0
8820,318252.6510607631,2010-12-03 02:58:27,292.3055151168485,4,29,0.3879294693470001,4.199653148651123,26.570946402910938,26.3914901394584,106.53763447418866,95.68279582030152,0.0,0.0939245000481605,0,0,0
8821,318383.3984298624,2010-12-03 03:00:38,423.052884226132,4,29,0.3379007279872894,4.199653148651123,26.58411174226482,26.3914901394584,106.59292546641376,95.68279582030152,-3.23295607813634e-05,0.0939245000481605,0,0,0
8822,318541.3798981751,2010-12-03 03:03:16,581.0343525438302,4,29,0.2878719568252563,4.199653148651123,26.59782276939004,26.3914901394584,106.65050827567757,95.68279582030152,0.0,0.0939245000481605,0,0,0
8823,318730.2514239076,2010-12-03 03:06:25,769.9058782813386,4,29,0.2376625686883926,4.199653148651123,26.61158144441444,26.3914901394584,106.70829120811422,95.68279582030152,-3.23295607813634e-05,0.0939245000481605,0,0,0
8824,318967.7158036683,2010-12-03 03:10:22,1007.370258042128,4,29,0.1876337975263595,4.199814796447754,26.62556382238271,26.3914901394584,106.76701348614404,95.68279582030152,0.0,0.0939245000481605,0,0,0
8825,319290.85049912473,2010-12-03 03:15:45,1330.504953493501,4,29,0.1374244093894958,4.199653148651123,26.64005310493485,26.3914901394584,106.82786466844982,95.68279582030152,-3.23295607813634e-05,0.0939245000481605,0,0,0
8826,319802.5598559831,2010-12-03 03:24:17,1842.214310336877,4,29,0.0873956456780433,4.199653148651123,26.65576777275727,26.3914901394584,106.89386214289613,95.68279582030152,0.0,0.0939245000481605,0,0,0
8827,320510.3125240263,2010-12-03 03:36:05,2549.9669783650083,4,29,0.0498289167881011,4.199653148651123,26.6689528749056,26.3914901394584,106.94923611196836,95.68279582030152,-3.23295607813634e-05,0.0939245000481605,0,0,0
8828,320540.329268858,2010-12-03 03:36:35,30.015033040296423,5,29,0.0,4.191558837890625,26.6689528749056,26.3914901394584,106.94923611196836,95.68279582030152,-3.24249267578125e-05,0.0939245000481605,0,0,0
8829,320570.32871142204,2010-12-03 03:37:05,60.0144756093047,5,29,0.0,4.190425872802734,26.6689528749056,26.3914901394584,106.94923611196836,95.68279582030152,-3.23295607813634e-05,0.0939245000481605,0,0,0
8830,320570.51907050214,2010-12-03 03:37:05,0.187509029006798,6,29,-1.9243103452026844e-05,4.190263748168945,26.6689528749056,26.391490140460693,106.94923611196836,95.68279582450135,0.0,0.0955438911914825,0,0,0
8831,320575.3490457247,2010-12-03 03:37:10,5.01748426160484,6,29,0.0007031940040178,4.190263748168945,26.66895367957105,26.391490140627617,106.94923948383384,95.68279582520084,-3.24249267578125e-05,0.0955438911914825,0,0,0
8832,320605.3494666768,2010-12-03 03:37:40,30.015074002228623,7,29,-1.0997490882873535,4.009599208831787,26.66895367957105,26.40065916980864,106.94923948383384,95.71976067476528,-0.0009065627818927,0.0955438911914825,0,0,0
8833,320635.3646212696,2010-12-03 03:38:10,60.0302286752033,7,29,-1.0997490882873535,3.982240676879883,26.66895367957105,26.409828150596944,106.94923948383384,95.75638915824284,-0.0005504131549969,0.0955438911914825,0,0,0
8834,320665.3796333878,2010-12-03 03:38:40,90.04524067814909,7,29,-1.099568486213684,3.9631381034851074,26.66895367957105,26.418996950589488,106.94923948383384,95.7928089744336,-0.0004532813909463,0.0955438911914825,0,0,0
8835,320695.3947203373,2010-12-03 03:39:10,120.06032772283336,7,29,-1.0997490882873535,3.948406457901001,26.66895367957105,26.428165750168905,106.94923948383384,95.82907623315955,-0.0003237724304199,0.0955438911914825,0,0,0
8836,320725.4097825,2010-12-03 03:39:40,150.0753897953754,7,29,-1.0997490882873535,3.935941219329834,26.66895367957105,26.43733462176628,106.94923948383384,95.86521919092048,-0.0002590179501567,0.0955438911914825,0,0,0
8837,320755.4248826674,2010-12-03 03:40:10,180.09048995770243,7,29,-1.099568486213684,3.924447298049927,26.66895367957105,26.446503428038767,106.94923948383384,95.90125244372685,-0.0002913951757363,0.0955438911914825,0,0,0
8838,320785.4399229958,2010-12-03 03:40:40,210.1055302911476,7,29,-1.0993878841400146,3.9136011600494394,26.66895367957105,26.45567224980816,106.94923948383384,95.93718407371664,-0.0002589702489785,0.0955438911914825,0,0,0
8839,320815.45504546363,2010-12-03 03:41:10,240.1206527639935,7,29,-1.0997490882873535,3.903402328491211,26.66895367957105,26.464841073492263,106.94923948383384,95.97302024521012,-0.0002913951757363,0.0955438911914825,0,0,0
8840,320845.47010633314,2010-12-03 03:41:40,270.13571366862925,7,29,-1.0997490882873535,3.893689155578613,26.66895367957105,26.47400984026877,106.94923948383384,96.0087644497452,-0.0002266406954731,0.0955438911914825,0,0,0
8841,320875.48515205504,2010-12-03 03:42:10,300.150759345371,7,29,-1.099568486213684,3.884299755096436,26.66895367957105,26.48317860954579,106.94923948383384,96.04442137955934,-0.0002590179501567,0.0955438911914825,0,0,0
8842,320905.50022163126,2010-12-03 03:42:40,330.1658289215856,7,29,-1.099568486213684,3.8752341270446777,26.66895367957105,26.492347415163017,106.94923948383384,96.07999358686804,-0.0001942634553415,0.0955438911914825,0,0,0
8843,320935.51530092664,2010-12-03 03:43:10,360.1809082169861,7,29,-1.0997490882873535,3.86600661277771,26.66895367957105,26.50151618314636,106.94923948383384,96.1154822954432,-0.0002590179501567,0.0955438911914825,0,0,0
8844,320965.5303750592,2010-12-03 03:43:40,390.19598237460144,7,29,-1.0997490882873535,3.857426643371582,26.66895367957105,26.510684956347905,106.94923948383384,96.15088978755226,-0.0002266406954731,0.0955438911914825,0,0,0
8845,320995.5454633269,2010-12-03 03:44:10,420.2110706222793,7,29,-1.0997490882873535,3.848684787750244,26.66895367957105,26.51985372359159,106.94923948383384,96.18621821258516,-0.0002590179501567,0.0955438911914825,0,0,0
8846,321025.5623794683,2010-12-03 03:44:40,450.2279868588372,7,29,-1.0997490882873535,3.840590476989746,26.66895367957105,26.529023189654698,106.94923948383384,96.22147181596117,-0.0001942634553415,0.0955438911914825,0,0,0
8847,321055.5757561668,2010-12-03 03:45:10,480.2413634872162,7,29,-1.099568486213684,3.832496404647827,26.66895367957105,26.53819147852664,106.94923948383384,96.2566451847332,-0.0001618385285837,0.0955438911914825,0,0,0
8848,321085.5906733939,2010-12-03 03:45:40,510.2562806892536,7,29,-1.0997490882873535,3.824240207672119,26.66895367957105,26.547360161369525,106.94923948383384,96.29174580778157,-0.0002266406954731,0.0955438911914825,0,0,0
8849,321115.60806880787,2010-12-03 03:46:10,540.2736762185131,7,29,-1.0997490882873535,3.816307783126831,26.66895367957105,26.55652962077705,106.94923948383384,96.32677665698432,-0.0002590179501567,0.0955438911914825,0,0,0
8850,321145.62084483664,2010-12-03 03:46:40,570.2864521370487,7,29,-1.099568486213684,3.808699131011963,26.66895367957105,26.565697687901103,106.94923948383384,96.36173066198296,-0.0001942634553415,0.0955438911914825,0,0,0
8851,321175.63592582126,2010-12-03 03:47:10,600.3015331216528,7,29,-1.099568486213684,3.8012523651123047,26.66895367957105,26.574866428596124,106.94923948383384,96.396617065226,-0.0001618862152099,0.0955438911914825,0,0,0
8852,321205.65097544785,2010-12-03 03:47:40,630.3165827482235,7,29,-1.099929690361023,3.793643712997437,26.66895367957105,26.58403522839762,106.94923948383384,96.43143487082152,-0.0001942634553415,0.0955438911914825,0,0,0
8853,321235.66609421145,2010-12-03 03:48:10,660.3317015018142,7,29,-1.0997490882873535,3.7865207195281982,26.66895367957105,26.593204095293903,106.94923948383384,96.46618629623578,-0.0001942634553415,0.0955438911914825,0,0,0
8854,321265.6812588943,2010-12-03 03:48:40,690.346866214773,7,29,-1.0997490882873535,3.77955961227417,26.66895367957105,26.602372943042027,106.94923948383384,96.5008723463288,-0.0001942634553415,0.0955438911914825,0,0,0
8855,321295.69620533416,2010-12-03 03:49:10,720.3618126295049,7,29,-1.099929690361023,3.7725985050201416,26.66895367957105,26.611541768162848,106.94923948383384,96.53549489768976,-0.0001942634553415,0.0955438911914825,0,0,0
8856,321325.71142436226,2010-12-03 03:49:40,750.3770317077496,7,29,-1.0997490882873535,3.765961170196533,26.66895367957105,26.620710627608847,106.94923948383384,96.57005525626552,-0.0001942634553415,0.0955438911914825,0,0,0
8857,321355.72636718303,2010-12-03 03:50:11,780.3919744734011,7,29,-1.0997490882873535,3.759323835372925,26.66895367957105,26.62987945020723,106.94923948383384,96.604554119947,-0.0001618862152099,0.0955438911914825,0,0,0
8858,321385.7438181653,2010-12-03 03:50:41,810.4094255759525,7,29,-1.099929690361023,3.7528486251831055,26.66895367957105,26.639049047010584,106.94923948383384,96.63899604674756,-0.0001942157687153,0.0955438911914825,0,0,0
8859,321415.75653135777,2010-12-03 03:51:11,840.4221386480974,7,29,-1.0997490882873535,3.746535062789917,26.66895367957105,26.648217165080425,106.94923948383384,96.6733738433727,-0.0001618862152099,0.0955438911914825,0,0,0
8860,321445.77158228256,2010-12-03 03:51:41,870.4371895728988,7,29,-1.099929690361023,3.740221500396729,26.66895367957105,26.65738599879164,106.94923948383384,96.7076969582107,-0.0001942634553415,0.0955438911914825,0,0,0
8861,321475.7868143782,2010-12-03 03:52:11,900.452421703624,7,29,-1.0997490882873535,3.73406982421875,26.66895367957105,26.66655489603092,106.94923948383384,96.74196367819876,-0.0001942634553415,0.0955438911914825,0,0,0
8862,321505.8017314198,2010-12-03 03:52:41,930.4673387101748,7,29,-1.099568486213684,3.728241920471192,26.66895367957105,26.675723669733884,106.94923948383384,96.77617462448325,-0.0001618862152099,0.0955438911914825,0,0,0
8863,321535.8168110962,2010-12-03 03:53:11,960.482418391536,7,29,-1.099568486213684,3.722414016723633,26.66895367957105,26.684892412950425,106.94923948383384,96.81033134346607,-0.0001942634553415,0.0955438911914825,0,0,0
8864,321565.8318930382,2010-12-03 03:53:41,990.49750032851,7,29,-1.099568486213684,3.716586112976074,26.66895367957105,26.694061264386228,106.94923948383384,96.84443462272633,-0.0001295089750783,0.0955438911914825,0,0,0
8865,321595.8469778774,2010-12-03 03:54:11,1020.5125851677058,7,29,-1.099568486213684,3.7109200954437256,26.66895367957105,26.703230167403103,106.94923948383384,96.87848512946914,-0.0001295089750783,0.0955438911914825,0,0,0
8866,321625.8639074371,2010-12-03 03:54:41,1050.5295148076175,7,29,-1.0997490882873535,3.705254077911377,26.66895367957105,26.71239959636736,106.94923948383384,96.9124854132293,-0.0001295089750783,0.0955438911914825,0,0,0
8867,321655.87711817265,2010-12-03 03:55:11,1080.542725483029,7,29,-1.099568486213684,3.699588060379028,26.66895367957105,26.72156792378156,106.94923948383384,96.94642996565824,-0.0001618862152099,0.0955438911914825,0,0,0
8868,321685.892220345,2010-12-03 03:55:41,1110.55782766037,7,29,-1.099568486213684,3.6940839290618896,26.66895367957105,26.730736819035744,106.94923948383384,96.98032606528552,-0.0001618862152099,0.0955438911914825,0,0,0
8869,321715.9072819764,2010-12-03 03:56:11,1140.5728892717648,7,29,-1.099568486213684,3.688903570175171,26.66895367957105,26.73990567713798,106.94923948383384,97.01417210146812,-9.713172767078504e-05,0.0955438911914825,0,0,0
8870,321745.9223325704,2010-12-03 03:56:41,1170.5879398857928,7,29,-1.0997490882873535,3.683399438858032,26.66895367957105,26.74907448361859,106.94923948383384,97.04796885881896,-0.0001295089750783,0.0955438911914825,0,0,0
8871,321775.9375379094,2010-12-03 03:57:11,1200.6031451997858,7,29,-1.099929690361023,3.678057193756104,26.66895367957105,26.758243339396003,106.94923948383384,97.08171707726515,-0.0001295089750783,0.0955438911914825,0,0,0
8872,321805.9524949206,2010-12-03 03:57:41,1230.6181022158987,7,29,-1.0997490882873535,3.6730387210845943,26.66895367957105,26.767412210953395,106.94923948383384,97.11541776142144,-0.0001295089750783,0.0955438911914825,0,0,0
8873,321835.96759392,2010-12-03 03:58:11,1260.6332012203443,7,29,-1.0997490882873535,3.667858600616455,26.66895367957105,26.776581089629587,106.94923948383384,97.14907136720213,-0.0001618862152099,0.0955438911914825,0,0,0
8874,321865.98266882944,2010-12-03 03:58:41,1290.64827625013,7,29,-1.0997490882873535,3.6628401279449454,26.66895367957105,26.785749966551357,106.94923948383384,97.1826789497038,-0.0001618862152099,0.0955438911914825,0,0,0
8875,321895.9978475022,2010-12-03 03:59:11,1320.6634549027772,7,29,-1.099929690361023,3.657983541488648,26.66895367957105,26.794918859175777,106.94923948383384,97.21624139559536,-0.0001295089750783,0.0955438911914825,0,0,0
8876,321926.01290963485,2010-12-03 03:59:41,1350.6785170154192,7,29,-1.0997490882873535,3.653288841247559,26.66895367957105,26.804087818597488,106.94923948383384,97.24975953484709,-9.713172767078504e-05,0.0955438911914825,0,0,0
8877,321956.02789140254,2010-12-03 04:00:11,1380.693498702926,7,29,-1.0997490882873535,3.64843225479126,26.66895367957105,26.81325673310571,106.94923948383384,97.28323333288856,-9.713172767078504e-05,0.0955438911914825,0,0,0
8878,321986.04294087377,2010-12-03 04:00:41,1410.7085481741103,7,29,-1.099568486213684,3.643575668334961,26.66895367957105,26.82242557013188,106.94923948383384,97.31666290112716,-0.0001618862152099,0.0955438911914825,0,0,0
8879,322016.0580236879,2010-12-03 04:01:11,1440.723630968217,7,29,-1.0993878841400146,3.639204740524292,26.66895367957105,26.83159438935402,106.94923948383384,97.35004964044302,-9.713172767078504e-05,0.0955438911914825,0,0,0
8880,322046.0730922566,2010-12-03 04:01:41,1470.7386995469494,7,29,-1.0997490882873535,3.634510040283203,26.66895367957105,26.840763314898396,106.94923948383384,97.38339490370744,-0.0001618862152099,0.0955438911914825,0,0,0
8881,322076.0885391317,2010-12-03 04:02:11,1500.7541464922326,7,29,-1.099568486213684,3.630139112472534,26.66895367957105,26.849932323268018,106.94923948383384,97.41669945544572,-9.713172767078504e-05,0.0955438911914825,0,0,0
8882,322106.1032711629,2010-12-03 04:02:41,1530.76887846333,7,29,-1.099568486213684,3.625930070877075,26.66895367957105,26.859101066604303,106.94923948383384,97.44996284922708,-6.47544875391759e-05,0.0955438911914825,0,0,0
8883,322136.1183231654,2010-12-03 04:03:11,1560.783930455788,7,29,-1.0997490882873535,3.621397256851196,26.66895367957105,26.868269952154737,106.94923948383384,97.48318724515912,-0.0001618862152099,0.0955438911914825,0,0,0
8884,322166.1334078041,2010-12-03 04:03:41,1590.7990151095223,7,29,-1.0997490882873535,3.6173501014709473,26.66895367957105,26.877438852173764,106.94923948383384,97.51637264509434,-9.713172767078504e-05,0.0955438911914825,0,0,0
8885,322196.1486218448,2010-12-03 04:04:11,1620.814229145219,7,29,-1.0997490882873535,3.613141059875488,26.66895367957105,26.886607783126337,106.94923948383384,97.54952052104414,-0.0001295089750783,0.0955438911914825,0,0,0
8886,322226.1655255352,2010-12-03 04:04:41,1650.831132930793,7,29,-1.0997490882873535,3.609255790710449,26.66895367957105,26.8957772407128,106.94923948383384,97.58263325304954,-9.713172767078504e-05,0.0955438911914825,0,0,0
8887,322256.1786305226,2010-12-03 04:05:11,1680.844237812942,7,29,-1.099568486213684,3.60537052154541,26.66895367957105,26.904945551884538,106.94923948383384,97.61570568926491,-6.47544875391759e-05,0.0955438911914825,0,0,0
8888,322286.1936948056,2010-12-03 04:05:41,1710.8593021009974,7,29,-1.0997490882873535,3.601485252380371,26.66895367957105,26.91411445398914,106.94923948383384,97.64874503003898,-0.0001295089750783,0.0955438911914825,0,0,0
8889,322316.2088029378,2010-12-03 04:06:11,1740.8744102532069,7,29,-1.099568486213684,3.597923755645752,26.66895367957105,26.92328344331609,106.94923948383384,97.68175057594722,-6.47544875391759e-05,0.0955438911914825,0,0,0
8890,322346.2239840415,2010-12-03 04:06:41,1770.8895914070783,7,29,-1.0997490882873535,3.594200372695923,26.66895367957105,26.93245238352364,106.94923948383384,97.7147224828146,-9.713172767078504e-05,0.0955438911914825,0,0,0
8891,322376.2389220704,2010-12-03 04:07:11,1800.904529365768,7,29,-1.099568486213684,3.5908010005950928,26.66895367957105,26.941621249709083,106.94923948383384,97.74766165361925,-9.713172767078504e-05,0.0955438911914825,0,0,0
8892,322406.25400572165,2010-12-03 04:07:41,1830.9196130119951,7,29,-1.0997490882873535,3.587401390075684,26.66895367957105,26.95079023376039,106.94923948383384,97.78056965530224,-9.713172767078504e-05,0.0955438911914825,0,0,0
8893,322436.2691033978,2010-12-03 04:08:11,1860.9347106881355,7,29,-1.099568486213684,3.5840017795562744,26.66895367957105,26.959959176041423,106.94923948383384,97.81344681676512,-9.713172767078504e-05,0.0955438911914825,0,0,0
8894,322466.28442238463,2010-12-03 04:08:41,1890.9500297752484,7,29,-1.0997490882873535,3.580764055252075,26.66895367957105,26.969128144244497,106.94923948383384,97.84629419611554,-9.713172767078504e-05,0.0955438911914825,0,0,0
8895,322496.2992275579,2010-12-03 04:09:11,1920.9648348532696,7,29,-1.099568486213684,3.577688217163086,26.66895367957105,26.97829702183637,106.94923948383384,97.87911177851969,-3.237724376958795e-05,0.0955438911914825,0,0,0
8896,322526.3144483303,2010-12-03 04:09:41,1950.9800556307423,7,29,-1.0997490882873535,3.5744504928588867,26.66895367957105,26.987466039466224,106.94923948383384,97.91190095332148,-9.713172767078504e-05,0.0955438911914825,0,0,0
8897,322556.3293850911,2010-12-03 04:10:11,1980.994992391451,7,29,-1.099568486213684,3.5716984272003174,26.66895367957105,26.99663490156541,106.94923948383384,97.94466107738631,-3.237724376958795e-05,0.0955438911914825,0,0,0
8898,322586.3444615745,2010-12-03 04:10:41,2011.0100688698417,7,29,-1.0997490882873535,3.568298816680908,26.66895367957105,27.005803829714168,106.94923948383384,97.97739287565314,-9.713172767078504e-05,0.0955438911914825,0,0,0
8899,322616.35955336096,2010-12-03 04:11:11,2041.025160661338,7,29,-1.0997490882873535,3.565222978591919,26.66895367957105,27.01497274588788,106.94923948383384,98.01009646758148,-6.47544875391759e-05,0.0955438911914825,0,0,0
8900,322646.3746029424,2010-12-03 04:11:41,2071.040210232772,7,29,-1.099568486213684,3.5624709129333496,26.66895367957105,27.024141563750018,106.94923948383384,98.04277191714768,-3.237724376958795e-05,0.0955438911914825,0,0,0
8901,322676.38969498954,2010-12-03 04:12:11,2101.055302279904,7,29,-1.099929690361023,3.5590713024139404,26.66895367957105,27.0333104656704,106.94923948383384,98.07541993967035,-9.713172767078504e-05,0.0955438911914825,0,0,0
8902,322706.4047560646,2010-12-03 04:12:41,2131.0703633599765,7,29,-1.0997490882873535,3.556157350540161,26.66895367957105,27.042479375924927,106.94923948383384,98.10803979614026,-9.713172767078504e-05,0.0955438911914825,0,0,0
8903,322736.4198654298,2010-12-03 04:13:11,2161.085472720192,7,29,-1.099568486213684,3.553081512451172,26.66895367957105,27.05164829973192,106.94923948383384,98.14063165070635,-6.47544875391759e-05,0.0955438911914825,0,0,0
8904,322766.4349075127,2010-12-03 04:13:41,2191.1005148029903,7,29,-1.099568486213684,3.5501675605773926,26.66895367957105,27.060817238680897,106.94923948383384,98.17319538208872,-3.237724376958795e-05,0.0955438911914825,0,0,0
8905,322796.4499968781,2010-12-03 04:14:11,2221.11560416845,7,29,-1.0997490882873535,3.5467679500579834,26.66895367957105,27.06998617942807,106.94923948383384,98.20573039203994,-6.47544875391759e-05,0.0955438911914825,0,0,0
8906,322826.4650690858,2010-12-03 04:14:41,2251.130676401276,7,29,-1.0997490882873535,3.543692111968994,26.66895367957105,27.07915517982365,106.94923948383384,98.2382365781654,-9.713172767078504e-05,0.0955438911914825,0,0,0
8907,322856.46625833143,2010-12-03 04:15:11,2281.131865711983,7,29,-1.099568486213684,3.540454387664795,26.66895367957105,27.08831980803241,106.94923948383384,98.27069768520226,-6.47544875391759e-05,0.0955438911914825,0,0,0
8908,322886.47964317526,2010-12-03 04:15:41,2311.145250575856,7,29,-1.099929690361023,3.536892890930176,26.66895367957105,27.097488250697204,106.94923948383384,98.30314251984836,-0.0001295089750783,0.0955438911914825,0,0,0
8909,322916.49467095744,2010-12-03 04:16:11,2341.1602782528066,7,29,-1.0997490882873535,3.533655166625977,26.66895367957105,27.106657171205924,106.94923948383384,98.33555844367756,-9.713172767078504e-05,0.0955438911914825,0,0,0
8910,322946.5097828038,2010-12-03 04:16:41,2371.175390189433,7,29,-1.0997490882873535,3.5302555561065674,26.66895367957105,27.115826137409552,106.94923948383384,98.36794333803536,-9.713172767078504e-05,0.0955438911914825,0,0,0
8911,322976.5248291522,2010-12-03 04:17:11,2401.190436452634,7,29,-1.0997490882873535,3.526855945587158,26.66895367957105,27.12499511487606,106.94923948383384,98.40029670456424,-6.47544875391759e-05,0.0955438911914825,0,0,0
8912,323006.5398990843,2010-12-03 04:17:41,2431.2055063797216,7,29,-1.099568486213684,3.523132562637329,26.66895367957105,27.13416407091753,106.94923948383384,98.43261739186352,-9.713172767078504e-05,0.0955438911914825,0,0,0
8913,323036.554970049,2010-12-03 04:18:11,2461.220577339379,7,29,-1.0997490882873535,3.5194091796875,26.66895367957105,27.143333012021017,106.94923948383384,98.4649041707483,-0.0001295089750783,0.0955438911914825,0,0,0
8914,323066.5723775781,2010-12-03 04:18:41,2491.237984988799,7,29,-1.099929690361023,3.515523910522461,26.66895367957105,27.152502745094253,106.94923948383384,98.49715855915684,-9.713172767078504e-05,0.0955438911914825,0,0,0
8915,323096.5851709802,2010-12-03 04:19:11,2521.250778295605,7,29,-1.099929690361023,3.511315107345581,26.66895367957105,27.161671034043813,106.94923948383384,98.5293709318051,-9.70840483205393e-05,0.0955438911914825,0,0,0
8916,323126.6002022862,2010-12-03 04:19:41,2551.265809581535,7,29,-1.099929690361023,3.506944179534912,26.66895367957105,27.17084007944236,106.94923948383384,98.56154728581664,-0.0001295089750783,0.0955438911914825,0,0,0
8917,323156.6152707396,2010-12-03 04:20:11,2581.2808780349565,7,29,-1.0997490882873535,3.502411365509033,26.66895367957105,27.18000907215232,106.94923948383384,98.59368197947684,-0.0001295089750783,0.0955438911914825,0,0,0
8918,323186.6303930069,2010-12-03 04:20:41,2611.2960002972786,7,29,-1.0997490882873535,3.4972310066223145,26.66895367957105,27.189178032576304,106.94923948383384,98.6257720951948,-0.0001942634553415,0.0955438911914825,0,0,0
8919,323216.6454336412,2010-12-03 04:21:11,2641.311040931472,7,29,-1.0997490882873535,3.4918887615203857,26.66895367957105,27.198347032148543,106.94923948383384,98.65781427771692,-0.0001618862152099,0.0955438911914825,0,0,0
8920,323246.6605089716,2010-12-03 04:21:41,2671.3261162620056,7,29,-1.099568486213684,3.4857370853424072,26.66895367957105,27.20751597595692,106.94923948383384,98.6898037389699,-0.0001618862152099,0.0955438911914825,0,0,0
8921,323276.6755785879,2010-12-03 04:22:11,2701.341185888345,7,29,-1.0997490882873535,3.478937864303589,26.66895367957105,27.216684931002625,106.94923948383384,98.72173495059386,-0.0002266406954731,0.0955438911914825,0,0,0
8922,323306.6906992313,2010-12-03 04:22:42,2731.3563065316384,7,29,-1.0997490882873535,3.4714910984039307,26.66895367957105,27.225853892238685,106.94923948383384,98.75360068793714,-0.0001942634553415,0.0955438911914825,0,0,0
8923,323336.7080694525,2010-12-03 04:23:12,2761.373676838132,7,29,-1.099568486213684,3.4629111289978027,26.66895367957105,27.23502359322172,106.94923948383384,98.78539512530458,-0.0002266406954731,0.0955438911914825,0,0,0
8924,323366.72086234833,2010-12-03 04:23:42,2791.386469733915,7,29,-1.0997490882873535,3.452550411224365,26.66895367957105,27.24419185049465,106.94923948383384,98.817098582435,-0.0003237724304199,0.0955438911914825,0,0,0
8925,323396.7359139047,2010-12-03 04:24:12,2821.4015212852755,7,29,-1.099568486213684,3.440408945083618,26.66895367957105,27.25336080803108,106.94923948383384,98.84870144973956,-0.0003237724304199,0.0955438911914825,0,0,0
8926,323426.751004398,2010-12-03 04:24:42,2851.416611778541,7,29,-1.099929690361023,3.424706220626831,26.66895367957105,27.262529771073712,106.94923948383384,98.88017743235712,-0.0005180359003134,0.0955438911914825,0,0,0
8927,323456.76783304656,2010-12-03 04:25:12,2881.43344042714,7,29,-1.0997490882873535,3.404956102371216,26.66895367957105,27.271699271711064,106.94923948383384,98.9114946945733,-0.0005827903514727,0.0955438911914825,0,0,0
8928,323486.7811033002,2010-12-03 04:25:42,2911.4467105955973,7,29,-1.0997490882873535,3.378892421722412,26.66895367957105,27.280867689353173,106.94923948383384,98.9425990364876,-0.0007770538213662,0.0955438911914825,0,0,0
8929,323516.79619280604,2010-12-03 04:26:12,2941.461800131481,7,29,-1.0997490882873535,3.3434395790100098,26.66895367957105,27.29003669404353,106.94923948383384,98.97342566784133,-0.0011008263099938,0.0955438911914825,0,0,0
8930,323546.81143669604,2010-12-03 04:26:42,2971.4770439964063,7,29,-1.1001102924346924,3.294873714447021,26.66895367957105,27.29920570548796,106.94923948383384,99.0038722843168,-0.0015217304462566,0.0955438911914825,0,0,0
8931,323576.8263746848,2010-12-03 04:27:12,3001.4919820653704,7,29,-1.0997490882873535,3.2281768321990967,26.66895367957105,27.308374640162636,106.94923948383384,99.03379566241152,-0.0020721436012536,0.0955438911914825,0,0,0
8932,323606.8415683899,2010-12-03 04:27:42,3031.507175690276,7,29,-1.099568486213684,3.131369113922119,26.66895367957105,27.31754362971326,106.94923948383384,99.06298079045126,-0.0030758380889892,0.0955438911914825,0,0,0
8933,323636.8565075115,2010-12-03 04:28:12,3061.5221148319088,7,29,-1.099929690361023,2.9736924171447754,26.66895367957105,27.326712585849176,106.94923948383384,99.09104368854716,-0.0055688857100903,0.0955438911914825,0,0,0
8934,323657.4342657715,2010-12-03 04:28:32,3082.099873066824,7,29,-1.099929690361023,2.773277997970581,26.66895367957105,27.33299866045125,106.94923948383384,99.10915988285898,-0.0093245981261134,0.0955438911914825,0,0,0
8935,323663.51226147,2010-12-03 04:28:38,3088.177868780388,7,29,-1.099568486213684,2.699943780899048,26.66895367957105,27.334855351410365,106.94923948383384,99.11424141955352,-0.0096483705565333,0.0955438911914825,0,0,0
8936,323723.5376268047,2010-12-03 04:29:38,60.01279488187914,8,29,0.0,3.3513717651367188,26.66895367957105,27.334855351410365,106.94923948383384,99.11424141955352,0.0012950419913977,0.0955438911914825,0,0,0
8937,323723.72323903244,2010-12-03 04:29:39,0.187608982737813,9,29,-1.9243103452026844e-05,3.3516955375671387,26.66895367957105,27.334855352413197,106.94923948383384,99.11424142291467,0.0,0.0940094217658042,0,0,0
8938,323728.55122278427,2010-12-03 04:29:44,5.015592654413097,9,29,0.0005225847125984,3.359466075897217,26.66895445725025,27.33485535257969,106.94924209385884,99.1142414234734,0.0011332035064697,0.0940094217658042,0,0,0
