Data_Point,Test_Time(s),Date_Time,Step_Time(s),Step_Index,Cycle_Index,Current(A),Voltage(V),Charge_Capacity(Ah),Discharge_Capacity(Ah),Charge_Energy(Wh),Discharge_Energy(Wh),dV/dt(V/s),Internal_Resistance(Ohm),Is_FC_Data,AC_Impedance(Ohm),ACI_Phase_Angle(Deg)
1753,63319.457429426526,2010-11-30 04:09:05,30.015111460441947,1,7,0.0,3.3720932006835938,5.01873973093994,5.688385372050773,20.149110276435483,20.65985161119759,0.0008094310760498,0.0939245000481605,0,0,0
1754,63349.47246288787,2010-11-30 04:09:35,60.03014492679861,1,7,0.0,3.3971855640411377,5.01873973093994,5.688385372050773,20.149110276435483,20.65985161119759,0.0006151676061563,0.0939245000481605,0,0,0
1755,63379.487494980815,2010-11-30 04:10:05,90.04517702976251,1,7,0.0,3.415964365005493,5.01873973093994,5.688385372050773,20.149110276435483,20.65985161119759,0.0004209041653666,0.0939245000481605,0,0,0
1756,63409.45566952554,2010-11-30 04:10:35,120.013351574495,1,7,0.0,3.4313435554504395,5.01873973093994,5.688385372050773,20.149110276435483,20.65985161119759,0.0003885269106831,0.0939245000481605,0,0,0
1757,63439.47244653865,2010-11-30 04:11:05,30.015165535004417,2,7,0.5501165986061096,3.5911247730255127,5.023326145745269,5.688385372050773,20.165411070636512,20.65985161119759,0.0016836166614666,0.0939245000481605,0,0,0
1758,63469.48740635173,2010-11-30 04:11:35,60.03012527790309,2,7,0.5501165986061096,3.6409854888916016,5.027912593092736,5.688385372050773,20.182002552213465,20.65985161119759,0.0011008263099938,0.0939245000481605,0,0,0
1759,63499.50256779655,2010-11-30 04:12:05,90.04528674779162,2,7,0.5501165986061096,3.6772477626800537,5.032499055894772,5.688385372050773,20.198788245237868,20.65985161119759,0.0009065627818927,0.0939245000481605,0,0,0
1760,63529.51750862739,2010-11-30 04:12:35,120.06022756359091,2,7,0.5499359965324402,3.705254077911377,5.037085388319385,5.688385372050773,20.215720139622167,20.65985161119759,0.0006151676061563,0.0939245000481605,0,0,0
1761,63559.53256311606,2010-11-30 04:13:05,150.07528204223587,2,7,0.5501165986061096,3.728727579116821,5.041671758955808,5.688385372050773,20.23276971761291,20.65985161119759,0.0005504131549969,0.0939245000481605,0,0,0
1762,63589.54761877263,2010-11-30 04:13:35,180.09033769881205,2,7,0.550297200679779,3.7476682662963863,5.046258122817713,5.688385372050773,20.249915568966543,20.65985161119759,0.0004856586456298,0.0939245000481605,0,0,0
1763,63619.56269692018,2010-11-30 04:14:05,210.1054158513686,2,7,0.5501165986061096,3.762075901031494,5.050844459318665,5.688385372050773,20.26713858073976,20.65985161119759,0.0003237724304199,0.0939245000481605,0,0,0
1764,63649.57773466719,2010-11-30 04:14:35,240.12045358835252,2,7,0.5501165986061096,3.771303415298462,5.055430837000691,5.688385372050773,20.284415755601422,20.65985161119759,0.0001942634553415,0.0939245000481605,0,0,0
1765,63679.59279195783,2010-11-30 04:15:05,270.1355108940325,2,7,0.5499359965324402,3.7768075466156006,5.060017205887008,5.688385372050773,20.301725501457057,20.65985161119759,0.0001295089750783,0.0939245000481605,0,0,0
1766,63709.60789487201,2010-11-30 04:15:35,300.1506137981824,2,7,0.5499359965324402,3.7808547019958496,5.064603615366853,5.688385372050773,20.31905710767896,20.65985161119759,6.47544875391759e-05,0.0939245000481605,0,0,0
1767,63739.62293876431,2010-11-30 04:16:05,330.1656576854712,2,7,0.5501165986061096,3.784578084945679,5.069190021045961,5.688385372050773,20.336406814037097,20.65985161119759,6.47544875391759e-05,0.0939245000481605,0,0,0
1768,63769.638143331445,2010-11-30 04:16:35,360.180862257618,2,7,0.5501165986061096,3.788625240325928,5.073776367910502,5.688385372050773,20.35377342676648,20.65985161119759,0.0001295089750783,0.0939245000481605,0,0,0
1769,63799.65305771647,2010-11-30 04:17:05,390.1957766626952,2,7,0.5501165986061096,3.791862964630127,5.078362762645501,5.688385372050773,20.37115670911304,20.65985161119759,9.713172767078504e-05,0.0939245000481605,0,0,0
1770,63829.66851264663,2010-11-30 04:17:35,420.2112316529981,2,7,0.5501165986061096,3.795424461364746,5.082949173417989,5.688385372050773,20.38855604658703,20.65985161119759,9.713172767078504e-05,0.0939245000481605,0,0,0
1771,63859.684990346905,2010-11-30 04:18:05,450.227709413425,2,7,0.5499359965324402,3.798662185668945,5.087535806911678,5.688385372050773,20.40597189764459,20.65985161119759,9.713172767078504e-05,0.0939245000481605,0,0,0
1772,63889.6987589507,2010-11-30 04:18:35,480.241477967095,2,7,0.5501165986061096,3.8020617961883545,5.092122066053317,5.688385372050773,20.423401581236625,20.65985161119759,9.713172767078504e-05,0.0939245000481605,0,0,0
1773,63919.71330472344,2010-11-30 04:19:05,510.2560236496204,2,7,0.5501165986061096,3.8052995204925537,5.096708407108879,5.688385372050773,20.44084646583406,20.65985161119759,9.713172767078504e-05,0.0939245000481605,0,0,0
1774,63949.72836048027,2010-11-30 04:19:35,540.2710794264959,2,7,0.5501165986061096,3.808375358581543,5.101294808988937,5.688385372050773,20.45830629778037,20.65985161119759,9.713172767078504e-05,0.0939245000481605,0,0,0
1775,63979.74338655323,2010-11-30 04:20:05,570.2861054844169,2,7,0.5499359965324402,3.811451196670532,5.105881191191492,5.688385372050773,20.475780516878284,20.65985161119759,6.47544875391759e-05,0.0939245000481605,0,0,0
1776,64009.758711535,2010-11-30 04:20:35,600.3014305113109,2,7,0.5499359965324402,3.814688920974731,5.110466791077163,5.688385372050773,20.49326614850807,20.65985161119759,6.47544875391759e-05,0.0939245000481605,0,0,0
1777,64039.77351682355,2010-11-30 04:21:05,630.3162357447186,2,7,0.5501165986061096,3.81792664527893,5.115052397057534,5.688385372050773,20.51076629237022,20.65985161119759,9.713172767078504e-05,0.0939245000481605,0,0,0
1778,64069.788610113785,2010-11-30 04:21:35,660.331329060007,2,7,0.5501165986061096,3.82116436958313,5.119638721297946,5.688385372050773,20.52828370593863,20.65985161119759,9.713172767078504e-05,0.0939245000481605,0,0,0
1779,64099.80370704306,2010-11-30 04:22:05,690.346426054451,2,7,0.5499359965324402,3.824402093887329,5.124225087847165,5.688385372050773,20.54581591133321,20.65985161119759,0.0001295089750783,0.0939245000481605,0,0,0
1780,64129.81874775244,2010-11-30 04:22:35,720.3614666986693,2,7,0.5501165986061096,3.8274779319763184,5.128811458636654,5.688385372050773,20.563363144809447,20.65985161119759,9.713172767078504e-05,0.0939245000481605,0,0,0
1781,64159.8359821758,2010-11-30 04:23:05,750.378701187185,2,7,0.5501165986061096,3.830877542495728,5.133398223308256,5.688385372050773,20.58092726306958,20.65985161119759,3.237724376958795e-05,0.0939245000481605,0,0,0
1782,64189.84886752163,2010-11-30 04:23:35,780.3915864478143,2,7,0.5499359965324402,3.8346006870269775,5.137984276089394,5.688385372050773,20.59850434033186,20.65985161119759,0.0001295089750783,0.0939245000481605,0,0,0
1783,64219.86391745898,2010-11-30 04:24:05,810.4066363851584,2,7,0.5501165986061096,3.8380002975463863,5.142570659156812,5.688385372050773,20.61609877274641,20.65985161119759,9.713172767078504e-05,0.0939245000481605,0,0,0
1784,64249.881213250046,2010-11-30 04:24:35,840.4239322664477,2,7,0.5499359965324402,3.841561794281006,5.147157454225419,5.688385372050773,20.63371102637907,20.65985161119759,0.0001295089750783,0.0939245000481605,0,0,0
1785,64279.894036937454,2010-11-30 04:25:05,870.43675586363,2,7,0.5499359965324402,3.845123291015625,5.151743511130886,5.688385372050773,20.651336602530407,20.65985161119759,9.713172767078504e-05,0.0939245000481605,0,0,0
1786,64309.911206724966,2010-11-30 04:25:35,900.4539257614139,2,7,0.5501165986061096,3.848522901535034,5.156330200139855,5.688385372050773,20.668980756008445,20.65985161119759,6.47544875391759e-05,0.0939245000481605,0,0,0
1787,64339.92415735828,2010-11-30 04:26:05,930.4668762794338,2,7,0.5501165986061096,3.852084398269653,5.160916318988329,5.688385372050773,20.6866388166496,20.65985161119759,9.713172767078504e-05,0.0939245000481605,0,0,0
1788,64369.93923291437,2010-11-30 04:26:35,960.4819518605916,2,7,0.550297200679779,3.8554840087890634,5.16550268895719,5.688385372050773,20.704313669363057,20.65985161119759,9.713172767078504e-05,0.0939245000481605,0,0,0
1789,64399.95427446585,2010-11-30 04:27:05,990.4969934120678,2,7,0.5501165986061096,3.858883619308472,5.170089039890973,5.688385372050773,20.722004180004937,20.65985161119759,9.713172767078504e-05,0.0939245000481605,0,0,0
1790,64429.96932381672,2010-11-30 04:27:35,1020.51204273789,2,7,0.5501165986061096,3.862283229827881,5.174675418566485,5.688385372050773,20.739710197351624,20.65985161119759,9.713172767078504e-05,0.0939245000481605,0,0,0
1791,64459.98451787772,2010-11-30 04:28:05,1050.52723681893,2,7,0.5501165986061096,3.86535906791687,5.179261833472507,5.688385372050773,20.757431386613533,20.65985161119759,6.47544875391759e-05,0.0939245000481605,0,0,0
1792,64489.9857468421,2010-11-30 04:28:35,1080.528465808377,2,7,0.5501165986061096,3.868596792221069,5.183846139724769,5.688385372050773,20.77515909894713,20.65985161119759,6.47544875391759e-05,0.0939245000481605,0,0,0
1793,64519.99890240036,2010-11-30 04:29:05,1110.5416213215194,2,7,0.5499359965324402,3.8715107440948486,5.188432286982834,5.688385372050773,20.79290808277961,20.65985161119759,6.47544875391759e-05,0.0939245000481605,0,0,0
1794,64550.01394546059,2010-11-30 04:29:35,1140.5566643967873,2,7,0.5501165986061096,3.874586582183838,5.193018720150459,5.688385372050773,20.81067183265005,20.65985161119759,9.713172767078504e-05,0.0939245000481605,0,0,0
1795,64580.02899615983,2010-11-30 04:30:05,1170.571715111065,2,7,0.550297200679779,3.8773386478424072,5.197605003320874,5.688385372050773,20.828448008642827,20.65985161119759,3.237724376958795e-05,0.0939245000481605,0,0,0
1796,64610.04406505434,2010-11-30 04:30:35,1200.5867839805207,2,7,0.5501165986061096,3.880090713500977,5.202191399658109,5.688385372050773,20.846237146911243,20.65985161119759,0.0001295089750783,0.0939245000481605,0,0,0
1797,64640.05912960806,2010-11-30 04:31:05,1230.6018485392494,2,7,0.5499359965324402,3.882519006729126,5.206777812485024,5.688385372050773,20.864038097038108,20.65985161119759,6.47544875391759e-05,0.0939245000481605,0,0,0
1798,64670.074199635405,2010-11-30 04:31:35,1260.6169185615745,2,7,0.5501165986061096,3.8847854137420654,5.211364479735202,5.688385372050773,20.881851146350243,20.65985161119759,6.47544875391759e-05,0.0939245000481605,0,0,0
1799,64700.08923091632,2010-11-30 04:32:05,1290.6319498374803,2,7,0.550297200679779,3.887051820755005,5.215951664159335,5.688385372050773,20.89967660953548,20.65985161119759,6.47544875391759e-05,0.0939245000481605,0,0,0
1800,64730.10432103365,2010-11-30 04:32:36,1320.647039954811,2,7,0.5499359965324402,3.888994455337525,5.22053867439868,5.688385372050773,20.91751107600341,20.65985161119759,3.237724376958795e-05,0.0939245000481605,0,0,0
1801,64760.11963866714,2010-11-30 04:33:06,1350.6623577737678,2,7,0.5501165986061096,3.891098976135254,5.225125124532744,5.688385372050773,20.93535238674953,20.65985161119759,6.47544875391759e-05,0.0939245000481605,0,0,0
1802,64790.13443618135,2010-11-30 04:33:36,1380.6771551025051,2,7,0.5501165986061096,3.8927178382873535,5.229711501728152,5.688385372050773,20.953201971941738,20.65985161119759,3.237724376958795e-05,0.0939245000481605,0,0,0
1803,64820.1496237211,2010-11-30 04:34:06,1410.6923426522924,2,7,0.5501165986061096,3.894498586654663,5.234297920900519,5.688385372050773,20.971059743123497,20.65985161119759,6.47544875391759e-05,0.0939245000481605,0,0,0
1804,64850.16455830139,2010-11-30 04:34:36,1440.70727722255,2,7,0.5501165986061096,3.8959555625915527,5.238884312005705,5.688385372050773,20.988924590044025,20.65985161119759,3.237724376958795e-05,0.0939245000481605,0,0,0
1805,64880.179749400006,2010-11-30 04:35:06,1470.7224684063804,2,7,0.5501165986061096,3.897574424743652,5.243470594447384,5.688385372050773,21.00679635817868,20.65985161119759,3.237724376958795e-05,0.0939245000481605,0,0,0
1806,64910.1946556147,2010-11-30 04:35:36,1500.7373745358643,2,7,0.5501165986061096,3.899193286895752,5.248056847182922,5.688385372050773,21.02467506150279,20.65985161119759,9.713172767078504e-05,0.0939245000481605,0,0,0
1807,64940.2097527144,2010-11-30 04:36:06,1530.7524717257943,2,7,0.5501165986061096,3.900488376617432,5.252643134628138,5.688385372050773,21.042560745558404,20.65985161119759,0.0,0.0939245000481605,0,0,0
1808,64970.2248927259,2010-11-30 04:36:36,1560.7676116470602,2,7,0.5501165986061096,3.901945352554321,5.257229392026223,5.688385372050773,21.060453061271048,20.65985161119759,0.0,0.0939245000481605,0,0,0
1809,65000.23983669956,2010-11-30 04:37:06,1590.782555620718,2,7,0.550297200679779,3.903564214706421,5.261815607159276,5.688385372050773,21.07835182536502,20.65985161119759,3.237724376958795e-05,0.0939245000481605,0,0,0
1810,65030.25489162933,2010-11-30 04:37:36,1620.7976105605103,2,7,0.550297200679779,3.9048593044281006,5.266401916558881,5.688385372050773,21.096257491970977,20.65985161119759,3.237724376958795e-05,0.0939245000481605,0,0,0
1811,65060.269977486045,2010-11-30 04:38:06,1650.8126964072133,2,7,0.5501165986061096,3.9063162803649902,5.27098828537879,5.688385372050773,21.114169766402604,20.65985161119759,3.237724376958795e-05,0.0939245000481605,0,0,0
1812,65090.28700024268,2010-11-30 04:38:36,1680.8297192640916,2,7,0.550297200679779,3.90761137008667,5.275574914717049,5.688385372050773,21.13208955584536,20.65985161119759,3.237724376958795e-05,0.0939245000481605,0,0,0
1813,65120.30012447798,2010-11-30 04:39:06,1710.8428434893754,2,7,0.5501165986061096,3.90906834602356,5.280160996074778,5.688385372050773,21.150013621408803,20.65985161119759,3.237724376958795e-05,0.0939245000481605,0,0,0
1814,65150.31513452106,2010-11-30 04:39:36,1740.8578534422195,2,7,0.5501165986061096,3.910525321960449,5.284747391132187,5.688385372050773,21.16794537611182,20.65985161119759,6.47544875391759e-05,0.0939245000481605,0,0,0
1815,65180.3301959069,2010-11-30 04:40:06,1770.872914828053,2,7,0.5501165986061096,3.911820411682129,5.289333734333232,5.688385372050773,21.185883299722004,20.65985161119759,3.237724376958795e-05,0.0939245000481605,0,0,0
1816,65210.34527447047,2010-11-30 04:40:36,1800.8879933916323,2,7,0.5501165986061096,3.9132773876190186,5.293920124968794,5.688385372050773,21.203827962673227,20.65985161119759,3.237724376958795e-05,0.0939245000481605,0,0,0
1817,65240.360357034006,2010-11-30 04:41:06,1830.9030760504024,2,7,0.5501165986061096,3.914734125137329,5.298506491035968,5.688385372050773,21.221779043064476,20.65985161119759,3.237724376958795e-05,0.0939245000481605,0,0,0
1818,65270.37539673588,2010-11-30 04:41:36,1860.918115722201,2,7,0.5501165986061096,3.9161911010742183,5.303092885210185,5.688385372050773,21.23973668638311,20.65985161119759,3.237724376958795e-05,0.0939245000481605,0,0,0
1819,65300.3904954496,2010-11-30 04:42:06,1890.9332144609857,2,7,0.550297200679779,3.917648077011109,5.307679253857939,5.688385372050773,21.257700849097187,20.65985161119759,6.47544875391759e-05,0.0939245000481605,0,0,0
1820,65330.4054964652,2010-11-30 04:42:36,1920.9482154014024,2,7,0.5501165986061096,3.919105052947998,5.312265554969806,5.688385372050773,21.275671314188955,20.65985161119759,3.237724376958795e-05,0.0939245000481605,0,0,0
1821,65360.42057426187,2010-11-30 04:43:06,1950.963293183036,2,7,0.5499359965324402,3.9204001426696777,5.316851879623689,5.688385372050773,21.29364854535126,20.65985161119759,3.237724376958795e-05,0.0939245000481605,0,0,0
1822,65390.43561200387,2010-11-30 04:43:36,1980.9783309250329,2,7,0.5499359965324402,3.921857118606568,5.321438272628918,5.688385372050773,21.31163263515777,20.65985161119759,0.0,0.0939245000481605,0,0,0
1823,65420.45069085316,2010-11-30 04:44:06,2010.993409774323,2,7,0.5499359965324402,3.923475980758667,5.326024624636523,5.688385372050773,21.329623338338244,20.65985161119759,3.237724376958795e-05,0.0939245000481605,0,0,0
1824,65450.46585666385,2010-11-30 04:44:36,2041.0085755850137,2,7,0.5499359965324402,3.9247710704803462,5.330611016949081,5.688385372050773,21.34762097941856,20.65985161119759,3.237724376958795e-05,0.0939245000481605,0,0,0
1825,65480.48121364527,2010-11-30 04:45:06,2071.0239325664247,2,7,0.5501165986061096,3.926228046417236,5.335197474395479,5.688385372050773,21.36562569471872,20.65985161119759,3.237724376958795e-05,0.0939245000481605,0,0,0
1826,65510.49590260433,2010-11-30 04:45:36,2101.038621540526,2,7,0.5499359965324402,3.927846908569336,5.339783787822227,5.688385372050773,21.38363670155568,20.65985161119759,3.237724376958795e-05,0.0939245000481605,0,0,0
1827,65540.51105385879,2010-11-30 04:46:06,2131.0537728651684,2,7,0.5501165986061096,3.929465770721436,5.344370124617369,5.688385372050773,21.40165467383915,20.65985161119759,6.47544875391759e-05,0.0939245000481605,0,0,0
1828,65570.5259768753,2010-11-30 04:46:36,2161.068695881675,2,7,0.5501165986061096,3.930922746658325,5.34895645288507,5.688385372050773,21.4196795954362,20.65985161119759,0.0,0.0939245000481605,0,0,0
1829,65600.54104737382,2010-11-30 04:47:06,2191.0837662949725,2,7,0.5499359965324402,3.932379722595215,5.353542822115696,5.688385372050773,21.437711604684587,20.65985161119759,3.237724376958795e-05,0.0939245000481605,0,0,0
1830,65630.55609627858,2010-11-30 04:47:36,2221.098815209772,2,7,0.5501165986061096,3.9339985847473145,5.358129203319944,5.688385372050773,21.45575073521685,20.65985161119759,6.47544875391759e-05,0.0939245000481605,0,0,0
1831,65660.57126803907,2010-11-30 04:48:06,2251.113986960243,2,7,0.5499359965324402,3.935455560684204,5.362715613539722,5.688385372050773,21.473797069262467,20.65985161119759,0.0,0.0939245000481605,0,0,0
1832,65690.58801215231,2010-11-30 04:48:36,2281.130731188766,2,7,0.5499359965324402,3.937074422836304,5.367302307208139,5.688385372050773,21.49185155692987,20.65985161119759,6.47544875391759e-05,0.0939245000481605,0,0,0
1833,65720.60152278918,2010-11-30 04:49:06,2311.144241740408,2,7,0.5504778623580933,3.938855171203613,5.371888417922016,5.688385372050773,21.509910982083284,20.65985161119759,9.713172767078504e-05,0.0939245000481605,0,0,0
1834,65750.61638178135,2010-11-30 04:49:36,2341.159100772692,2,7,0.5501165986061096,3.940312147140503,5.376474780280497,5.688385372050773,21.527978591424777,20.65985161119759,3.237724376958795e-05,0.0939245000481605,0,0,0
1835,65780.63139708251,2010-11-30 04:50:06,2371.174116003671,2,7,0.5501165986061096,3.9417691230773926,5.381061241836558,5.688385372050773,21.546053894633115,20.65985161119759,3.237724376958795e-05,0.0939245000481605,0,0,0
1836,65810.6466031183,2010-11-30 04:50:36,2401.18932203946,2,7,0.5501165986061096,3.943387985229492,5.38564769494979,5.688385372050773,21.564136455652907,20.65985161119759,9.713172767078504e-05,0.0939245000481605,0,0,0
1837,65840.6620091668,2010-11-30 04:51:06,2431.204728168172,2,7,0.5501165986061096,3.945006847381592,5.390234176143416,5.688385372050773,21.582226463582906,20.65985161119759,3.237724376958795e-05,0.0939245000481605,0,0,0
1838,65870.67662072826,2010-11-30 04:51:36,2461.219339714597,2,7,0.5499359965324402,3.9466257095336914,5.39482055200314,5.688385372050773,21.60032351458567,20.65985161119759,3.237724376958795e-05,0.0939245000481605,0,0,0
1839,65900.6916484303,2010-11-30 04:52:06,2491.23436735646,2,7,0.5499359965324402,3.948244571685791,5.399406948580391,5.688385372050773,21.61842795753167,20.65985161119759,6.47544875391759e-05,0.0939245000481605,0,0,0
1840,65930.70672558536,2010-11-30 04:52:36,2521.2494445065217,2,7,0.5501165986061096,3.94986343383789,5.403993372443637,5.688385372050773,21.63654002083386,20.65985161119759,3.237724376958795e-05,0.0939245000481605,0,0,0
1841,65960.72195976117,2010-11-30 04:53:06,2551.2646787474982,2,7,0.5501165986061096,3.9514822959899902,5.408579832131751,5.688385372050773,21.65465979180203,20.65985161119759,3.237724376958795e-05,0.0939245000481605,0,0,0
1842,65990.73697032554,2010-11-30 04:53:36,2581.2796893118643,2,7,0.5501165986061096,3.9532630443573,5.41316621244748,5.688385372050773,21.67278681462632,20.65985161119759,6.47544875391759e-05,0.0939245000481605,0,0,0
1843,66020.75188925187,2010-11-30 04:54:06,2611.2946081730306,2,7,0.5501165986061096,3.9548819065094,5.417752546571917,5.688385372050773,21.69092137470005,20.65985161119759,3.237724376958795e-05,0.0939245000481605,0,0,0
1844,66050.76695001616,2010-11-30 04:54:36,2641.309668937317,2,7,0.5501165986061096,3.956662654876709,5.422338946603873,5.688385372050773,21.70906391893947,20.65985161119759,3.237724376958795e-05,0.0939245000481605,0,0,0
1845,66080.78214819239,2010-11-30 04:55:06,2671.324867113548,2,7,0.5501165986061096,3.958119630813599,5.426925398351471,5.688385372050773,21.72721429909627,20.65985161119759,0.0,0.0939245000481605,0,0,0
1846,66110.79924012616,2010-11-30 04:55:36,2701.341959137546,2,7,0.5501165986061096,3.960062265396118,5.431512111791323,5.688385372050773,21.745373609691555,20.65985161119759,6.47544875391759e-05,0.0939245000481605,0,0,0
1847,66140.81216535124,2010-11-30 04:56:06,2731.354884277413,2,7,0.5501165986061096,3.9616811275482178,5.436098165475484,5.688385372050773,21.76353818241957,20.65985161119759,6.47544875391759e-05,0.0939245000481605,0,0,0
1848,66170.8271967324,2010-11-30 04:56:36,2761.369915653569,2,7,0.5499359965324402,3.963299989700317,5.440684571993566,5.688385372050773,21.781712045020804,20.65985161119759,3.237724376958795e-05,0.0939245000481605,0,0,0
1849,66200.84399000798,2010-11-30 04:57:06,2791.386709019368,2,7,0.5501165986061096,3.965242624282837,5.445271299449364,5.688385372050773,21.79989520870255,20.65985161119759,6.47544875391759e-05,0.0939245000481605,0,0,0
1850,66230.85734764911,2010-11-30 04:57:36,2821.4000666655097,2,7,0.5499359965324402,3.966861486434937,5.449857455585999,5.688385372050773,21.818084182466148,20.65985161119759,3.237724376958795e-05,0.0939245000481605,0,0,0
1851,66260.87452569217,2010-11-30 04:58:06,2851.4172447035508,2,7,0.5501165986061096,3.968642234802246,5.454444215032402,5.688385372050773,21.836283608858736,20.65985161119759,3.237724376958795e-05,0.0939245000481605,0,0,0
1852,66290.88911645186,2010-11-30 04:58:36,2881.431835463249,2,7,0.5501165986061096,3.970422983169556,5.459030646119814,5.688385372050773,21.85448994227552,20.65985161119759,3.237724376958795e-05,0.0939245000481605,0,0,0
1853,66320.90253023269,2010-11-30 04:59:06,2911.445249153856,2,7,0.5499359965324402,3.972203731536865,5.463616867754415,5.688385372050773,21.872703719324576,20.65985161119759,3.237724376958795e-05,0.0939245000481605,0,0,0
1854,66350.91759342302,2010-11-30 04:59:36,2941.460312349192,2,7,0.5501165986061096,3.9741463661193848,5.468203312980838,5.688385372050773,21.89092664956153,20.65985161119759,9.713172767078504e-05,0.0939245000481605,0,0,0
1855,66380.93263420758,2010-11-30 05:00:06,2971.475353148797,2,7,0.5501165986061096,3.976089000701904,5.472789827383831,5.688385372050773,21.909158392278357,20.65985161119759,9.713172767078504e-05,0.0939245000481605,0,0,0
1856,66410.94767476158,2010-11-30 05:00:36,3001.490393687754,2,7,0.5501165986061096,3.977869749069214,5.477376242961261,5.688385372050773,21.92739845543916,20.65985161119759,6.47544875391759e-05,0.0939245000481605,0,0,0
1857,66440.96286641157,2010-11-30 05:01:06,3031.505585342757,2,7,0.5501165986061096,3.979812383651733,5.481962614529072,5.688385372050773,21.94564712883983,20.65985161119759,3.237724376958795e-05,0.0939245000481605,0,0,0
1858,66470.97778433541,2010-11-30 05:01:36,3061.520503281628,2,7,0.5501165986061096,3.982078790664673,5.486548896089498,5.688385372050773,21.963904900664925,20.65985161119759,9.713172767078504e-05,0.0939245000481605,0,0,0
1859,66500.99282631795,2010-11-30 05:02:06,3091.535545239114,2,7,0.5501165986061096,3.984021425247192,5.491135162557322,5.688385372050773,21.982171868342785,20.65985161119759,6.47544875391759e-05,0.0939245000481605,0,0,0
1860,66531.00788955338,2010-11-30 05:02:36,3121.5506084745502,2,7,0.5501165986061096,3.986125946044922,5.495721493507836,5.688385372050773,22.000448555569125,20.65985161119759,6.47544875391759e-05,0.0939245000481605,0,0,0
1861,66561.02296603177,2010-11-30 05:03:06,3151.565684952941,2,7,0.550297200679779,3.9880685806274414,5.500307786035636,5.688385372050773,22.018734670523376,20.65985161119759,3.237724376958795e-05,0.0939245000481605,0,0,0
1862,66591.03798880152,2010-11-30 05:03:36,3181.580707732704,2,7,0.5501165986061096,3.990173101425171,5.504894056193372,5.688385372050773,22.037030254352565,20.65985161119759,6.47544875391759e-05,0.0939245000481605,0,0,0
1863,66621.0531745418,2010-11-30 05:04:06,3211.595893462963,2,7,0.5501165986061096,3.9924395084381104,5.509480327046827,5.688385372050773,22.055335668667468,20.65985161119759,6.47544875391759e-05,0.0939245000481605,0,0,0
1864,66651.06810106202,2010-11-30 05:04:37,3241.610819988201,2,7,0.5499359965324402,3.9945437908172607,5.514066598231168,5.688385372050773,22.07365102544169,20.65985161119759,6.47544875391759e-05,0.0939245000481605,0,0,0
1865,66681.08328870704,2010-11-30 05:05:07,3271.6260076282133,2,7,0.550297200679779,3.99697208404541,5.518652879355829,5.688385372050773,22.091976550794808,20.65985161119759,6.47544875391759e-05,0.0939245000481605,0,0,0
1866,66711.09819532777,2010-11-30 05:05:37,3301.640914253932,2,7,0.5501165986061096,3.99907660484314,5.523239160230233,5.688385372050773,22.11031224073699,20.65985161119759,6.47544875391759e-05,0.0939245000481605,0,0,0
1867,66741.11324428265,2010-11-30 05:06:07,3331.655963213844,2,7,0.5501165986061096,4.001181125640869,5.527825310362227,5.688385372050773,22.12865764321083,20.65985161119759,0.0,0.0939245000481605,0,0,0
1868,66771.12832163823,2010-11-30 05:06:37,3361.671040589467,2,7,0.5501165986061096,4.003609657287598,5.532411504141826,5.688385372050773,22.147013732683327,20.65985161119759,9.71794142969884e-05,0.0939245000481605,0,0,0
1869,66801.14353434563,2010-11-30 05:07:07,3391.6862533369576,2,7,0.5501165986061096,4.005876064300537,5.536997739259545,5.688385372050773,22.165380422226885,20.65985161119759,6.47544875391759e-05,0.0939245000481605,0,0,0
1870,66831.15838154346,2010-11-30 05:07:37,3421.701100464618,2,7,0.5501165986061096,4.008304119110107,5.541583887808773,5.688385372050773,22.183757437004928,20.65985161119759,9.70840483205393e-05,0.0939245000481605,0,0,0
1871,66861.1734492049,2010-11-30 05:08:07,3451.716168126068,2,7,0.5499359965324402,4.010570526123047,5.54617001907021,5.688385372050773,22.20214504352352,20.65985161119759,6.47544875391759e-05,0.0939245000481605,0,0,0
1872,66891.19025448535,2010-11-30 05:08:37,3481.7329735117773,2,7,0.5501165986061096,4.012999057769775,5.550756443216758,5.688385372050773,22.220544661452184,20.65985161119759,9.71794142969884e-05,0.0939245000481605,0,0,0
1873,66921.20353139057,2010-11-30 05:09:07,3511.7462503117376,2,7,0.5501165986061096,4.015265464782715,5.555342367489862,5.688385372050773,22.238953172315657,20.65985161119759,6.47544875391759e-05,0.0939245000481605,0,0,0
1874,66951.21869008355,2010-11-30 05:09:37,3541.761409004716,2,7,0.5501165986061096,4.017855644226074,5.559928554219093,5.688385372050773,22.25737374980973,20.65985161119759,6.47544875391759e-05,0.0939245000481605,0,0,0
1875,66981.23363236299,2010-11-30 05:10:07,3571.7763513092195,2,7,0.5499359965324402,4.020122051239014,5.564514752749991,5.688385372050773,22.27580539152637,20.65985161119759,3.24249267578125e-05,0.0939245000481605,0,0,0
1876,67011.24863396004,2010-11-30 05:10:37,3601.791352881208,2,7,0.5501165986061096,4.022712230682373,5.569100849774465,5.688385372050773,22.29424788020327,20.65985161119759,9.71794142969884e-05,0.0939245000481605,0,0,0
1877,67041.26369023316,2010-11-30 05:11:07,3631.8064091543183,2,7,0.5501165986061096,4.025140285491943,5.573687043954019,5.688385372050773,22.31270207384468,20.65985161119759,6.47544875391759e-05,0.0939245000481605,0,0,0
1878,67071.27871685749,2010-11-30 05:11:37,3661.821435783661,2,7,0.5499359965324402,4.027568817138672,5.578273147992173,5.688385372050773,22.331167264505208,20.65985161119759,6.47544875391759e-05,0.0939245000481605,0,0,0
1879,67101.29374697049,2010-11-30 05:12:07,3691.8364658916607,2,7,0.5499359965324402,4.029996871948242,5.582859234575746,5.688385372050773,22.34964383969355,20.65985161119759,9.70840483205393e-05,0.0939245000481605,0,0,0
1880,67131.30897271032,2010-11-30 05:12:37,3721.851691711682,2,7,0.5499359965324402,4.032587051391602,5.587445340184329,5.688385372050773,22.368132058083848,20.65985161119759,6.47544875391759e-05,0.0939245000481605,0,0,0
1881,67161.32384438405,2010-11-30 05:13:07,3751.8665633052246,2,7,0.5501165986061096,4.035338878631592,5.592031420771553,5.688385372050773,22.38663177925794,20.65985161119759,9.70840483205393e-05,0.0939245000481605,0,0,0
1882,67191.33888220626,2010-11-30 05:13:37,3781.8816011324334,2,7,0.5499359965324402,4.03776741027832,5.596617524997691,5.688385372050773,22.40514335233628,20.65985161119759,9.71794142969884e-05,0.0939245000481605,0,0,0
1883,67221.35389708134,2010-11-30 05:14:07,3811.8966160927394,2,7,0.5501165986061096,4.04035758972168,5.601203676486521,5.688385372050773,22.4236669251844,20.65985161119759,9.71794142969884e-05,0.0939245000481605,0,0,0
1884,67251.36893551005,2010-11-30 05:14:37,3841.911654431219,2,7,0.550297200679779,4.04310941696167,5.605789755564227,5.688385372050773,22.44220208103345,20.65985161119759,9.70840483205393e-05,0.0939245000481605,0,0,0
1885,67281.38398102639,2010-11-30 05:15:07,3871.9266999475617,2,7,0.5501165986061096,4.045537948608398,5.610375862821129,5.688385372050773,22.460749436364537,20.65985161119759,9.71794142969884e-05,0.0939245000481605,0,0,0
1886,67311.39900021222,2010-11-30 05:15:37,3901.941719133381,2,7,0.5499359965324402,4.048289775848389,5.614962035629682,5.688385372050773,22.47930919138082,20.65985161119759,6.47544875391759e-05,0.0939245000481605,0,0,0
1887,67341.41405455553,2010-11-30 05:16:07,3931.956773571927,2,7,0.5501165986061096,4.051042079925537,5.619548184559433,5.688385372050773,22.49788106700561,20.65985161119759,0.0001295089750783,0.0939245000481605,0,0,0
1888,67371.42918998562,2010-11-30 05:16:37,3961.971908916804,2,7,0.5501165986061096,4.0536322593688965,5.624134360774933,5.688385372050773,22.516465343789047,20.65985161119759,9.71794142969884e-05,0.0939245000481605,0,0,0
1889,67401.44416483611,2010-11-30 05:17:07,3991.986883822435,2,7,0.5501165986061096,4.056384086608887,5.628720471778401,5.688385372050773,22.53506174476233,20.65985161119759,6.47544875391759e-05,0.0939245000481605,0,0,0
1890,67431.45913065913,2010-11-30 05:17:37,4022.001849580302,2,7,0.550297200679779,4.059136390686035,5.633306607184754,5.688385372050773,22.55367074084008,20.65985161119759,9.71794142969884e-05,0.0939245000481605,0,0,0
1891,67461.47416479215,2010-11-30 05:18:07,4052.016883713317,2,7,0.5501165986061096,4.0615644454956055,5.637892747597149,5.688385372050773,22.572292078022013,20.65985161119759,3.23295607813634e-05,0.0939245000481605,0,0,0
1892,67491.49105587612,2010-11-30 05:18:37,4082.033774887509,2,7,0.5501165986061096,4.064478397369385,5.642479146977765,5.688385372050773,22.590927008700813,20.65985161119759,9.70840483205393e-05,0.0939245000481605,0,0,0
1893,67521.50424205558,2010-11-30 05:19:07,4112.046960976739,2,7,0.5497553944587708,4.067068576812744,5.647064986258822,5.688385372050773,22.6095723942636,20.65985161119759,3.23295607813634e-05,0.0939245000481605,0,0,0
1894,67551.51925499084,2010-11-30 05:19:37,4142.061973912004,2,7,0.5499359965324402,4.069982528686523,5.651651101414326,5.688385372050773,22.628231862671345,20.65985161119759,6.47544875391759e-05,0.0939245000481605,0,0,0
1895,67581.53428349987,2010-11-30 05:20:07,4172.077002421025,2,7,0.5501165986061096,4.072896480560303,5.656237233522178,5.688385372050773,22.6469044453318,20.65985161119759,6.47544875391759e-05,0.0939245000481605,0,0,0
1896,67611.54933549231,2010-11-30 05:20:37,4202.092054438545,2,7,0.5499359965324402,4.075972557067871,5.660823309176393,5.688385372050773,22.665589971816203,20.65985161119759,9.71794142969884e-05,0.0939245000481605,0,0,0
1897,67641.56460568275,2010-11-30 05:21:07,4232.107324669081,2,7,0.5501165986061096,4.078724384307861,5.665409469958225,5.688385372050773,22.68428910680923,20.65985161119759,9.70840483205393e-05,0.0939245000481605,0,0,0
1898,67671.57936881641,2010-11-30 05:21:37,4262.122087737562,2,7,0.5501165986061096,4.081638336181641,5.669995610140711,5.688385372050773,22.703001469525137,20.65985161119759,6.47544875391759e-05,0.0939245000481605,0,0,0
1899,67701.59440136548,2010-11-30 05:22:07,4292.137120291648,2,7,0.5497553944587708,4.084390640258789,5.674581681937025,5.688385372050773,22.72172693748763,20.65985161119759,0.0,0.0939245000481605,0,0,0
1900,67731.60942170415,2010-11-30 05:22:37,4322.152140650388,2,7,0.5499359965324402,4.087628364562988,5.679167740986238,5.688385372050773,22.74046593447533,20.65985161119759,9.71794142969884e-05,0.0939245000481605,0,0,0
1901,67761.62494282905,2010-11-30 05:23:07,4352.167661765239,2,7,0.5501165986061096,4.090703964233398,5.683753849305602,5.688385372050773,22.759218848164085,20.65985161119759,0.0001295089750783,0.0939245000481605,0,0,0
1902,67791.63948673214,2010-11-30 05:23:37,4382.182205653298,2,7,0.5501165986061096,4.093617916107178,5.688339896577217,5.688385372050773,22.77798521502732,20.65985161119759,9.70840483205393e-05,0.0939245000481605,0,0,0
1903,67821.65454249899,2010-11-30 05:24:07,4412.1972614201495,2,7,0.5499359965324402,4.096531867980957,5.692926030318661,5.688385372050773,22.79676576403773,20.65985161119759,6.47544875391759e-05,0.0939245000481605,0,0,0
1904,67851.66955632648,2010-11-30 05:24:37,4442.212275247635,2,7,0.550297200679779,4.099607944488525,5.697512125093931,5.688385372050773,22.815560131692543,20.65985161119759,9.71794142969884e-05,0.0939245000481605,0,0,0
1905,67881.6849395933,2010-11-30 05:25:07,4472.227658614706,2,7,0.5501165986061096,4.102845668792725,5.702098380317398,5.688385372050773,22.834369249813392,20.65985161119759,9.71794142969884e-05,0.0939245000481605,0,0,0
1906,67911.69959514923,2010-11-30 05:25:37,4502.242314160622,2,7,0.5499359965324402,4.105597496032715,5.706684461928459,5.688385372050773,22.85319188056364,20.65985161119759,3.23295607813634e-05,0.0939245000481605,0,0,0
1907,67941.71465094616,2010-11-30 05:26:07,4532.257369957549,2,7,0.5501165986061096,4.108997344970703,5.711270624270066,5.688385372050773,22.872029146026293,20.65985161119759,6.47544875391759e-05,0.0939245000481605,0,0,0
1908,67971.72964490419,2010-11-30 05:26:37,4562.272363830379,2,7,0.5501165986061096,4.112235069274902,5.715856804541796,5.688385372050773,22.890880976898003,20.65985161119759,0.0001295089750783,0.0939245000481605,0,0,0
1909,68001.74480719614,2010-11-30 05:27:07,4592.287526137349,2,7,0.550297200679779,4.1153106689453125,5.720442952700012,5.688385372050773,22.90974712618151,20.65985161119759,9.71794142969884e-05,0.0939245000481605,0,0,0
1910,68031.76203588521,2010-11-30 05:27:37,4622.304754906633,2,7,0.5499359965324402,4.118548393249512,5.725029401841368,5.688385372050773,22.9286291839438,20.65985161119759,9.71794142969884e-05,0.0939245000481605,0,0,0
1911,68061.77472410552,2010-11-30 05:28:07,4652.317443026686,2,7,0.5499359965324402,4.121623992919922,5.729615150589889,5.688385372050773,22.94752312979471,20.65985161119759,6.47544875391759e-05,0.0939245000481605,0,0,0
1912,68091.79144218897,2010-11-30 05:28:37,4682.334161210396,2,7,0.5501165986061096,4.12502384185791,5.734201482425259,5.688385372050773,22.96643429821108,20.65985161119759,0.0001295089750783,0.0939245000481605,0,0,0
1913,68121.80646829201,2010-11-30 05:29:07,4712.349187348517,2,7,0.5501165986061096,4.12809944152832,5.738787579906337,5.688385372050773,22.985359456505325,20.65985161119759,6.47544875391759e-05,0.0939245000481605,0,0,0
1914,68151.81984619357,2010-11-30 05:29:37,4742.362565209965,2,7,0.5499359965324402,4.13166093826294,5.743373362744964,5.688385372050773,23.00429837107482,20.65985161119759,9.70840483205393e-05,0.0939245000481605,0,0,0
1915,68181.83691194719,2010-11-30 05:30:07,4772.379630968602,2,7,0.5499359965324402,4.134737014770508,5.747959685190226,5.688385372050773,23.02325464073775,20.65985161119759,9.71794142969884e-05,0.0939245000481605,0,0,0
1916,68211.8498791317,2010-11-30 05:30:37,4802.392598052848,2,7,0.5499359965324402,4.138136386871338,5.752545406193567,5.688385372050773,23.04222373862256,20.65985161119759,9.70840483205393e-05,0.0939245000481605,0,0,0
1917,68241.86506941829,2010-11-30 05:31:07,4832.40778836952,2,7,0.5499359965324402,4.141536235809326,5.757131480700545,5.688385372050773,23.06120972493292,20.65985161119759,6.47544875391759e-05,0.0939245000481605,0,0,0
1918,68271.87992736786,2010-11-30 05:31:37,4862.422646349184,2,7,0.5499359965324402,4.145097732543945,5.761717538814944,5.688385372050773,23.08021130881031,20.65985161119759,9.71794142969884e-05,0.0939245000481605,0,0,0
1919,68301.89494391713,2010-11-30 05:32:07,4892.437662838294,2,7,0.5497553944587708,4.148497104644775,5.766303631497729,5.688385372050773,23.09922900380572,20.65985161119759,6.47544875391759e-05,0.0939245000481605,0,0,0
1920,68331.90997443114,2010-11-30 05:32:37,4922.452693352304,2,7,0.5501165986061096,4.151896953582764,5.770889686254588,5.688385372050773,23.11826224984082,20.65985161119759,3.24249267578125e-05,0.0939245000481605,0,0,0
1921,68361.92507656838,2010-11-30 05:33:07,4952.467795494557,2,7,0.5499359965324402,4.155458450317383,5.775475716827408,5.688385372050773,23.137311308157887,20.65985161119759,0.0001295089750783,0.0939245000481605,0,0,0
1922,68391.94005475217,2010-11-30 05:33:37,4982.482773683358,2,7,0.5499359965324402,4.158857822418213,5.780061711775146,5.688385372050773,23.15637628835564,20.65985161119759,3.23295607813634e-05,0.0939245000481605,0,0,0
1923,68421.9550684744,2010-11-30 05:34:07,5012.497787410594,2,7,0.5501165986061096,4.162581443786621,5.784647777666668,5.688385372050773,23.17545757407744,20.65985161119759,0.0001295089750783,0.0939245000481605,0,0,0
1924,68451.97011384538,2010-11-30 05:34:37,5042.512832771551,2,7,0.5501165986061096,4.165980815887451,5.789233844124494,5.688385372050773,23.194555018538605,20.65985161119759,9.70840483205393e-05,0.0939245000481605,0,0,0
1925,68481.98510795881,2010-11-30 05:35:07,5072.527826975204,2,7,0.550297200679779,4.16954231262207,5.793819908402331,5.688385372050773,23.21366880045235,20.65985161119759,9.70840483205393e-05,0.0939245000481605,0,0,0
1926,68512.00023879747,2010-11-30 05:35:37,5102.542957813867,2,7,0.5499359965324402,4.1731038093566895,5.798405986949993,5.688385372050773,23.23279911501791,20.65985161119759,0.0001295089750783,0.0939245000481605,0,0,0
1927,68542.01513991949,2010-11-30 05:36:07,5132.557858840653,2,7,0.5501165986061096,4.176827430725098,5.802992026128441,5.688385372050773,23.251945812655716,20.65985161119759,9.71794142969884e-05,0.0939245000481605,0,0,0
1928,68572.03028806121,2010-11-30 05:36:38,5162.5730069924,2,7,0.5499359965324402,4.180226802825928,5.807578100680714,5.688385372050773,23.271109133766977,20.65985161119759,6.47544875391759e-05,0.0939245000481605,0,0,0
1929,68602.04532642977,2010-11-30 05:37:08,5192.588045355943,2,7,0.5501165986061096,4.183788299560547,5.812164113351154,5.688385372050773,23.29028889838638,20.65985161119759,3.23295607813634e-05,0.0939245000481605,0,0,0
1930,68632.06034393139,2010-11-30 05:37:38,5222.603062862585,2,7,0.5501165986061096,4.187673568725586,5.816750189895282,5.688385372050773,23.30948575344624,20.65985161119759,9.70840483205393e-05,0.0939245000481605,0,0,0
1931,68662.07526561958,2010-11-30 05:38:08,5252.617984625973,2,7,0.5501165986061096,4.191397190093994,5.821336206071924,5.688385372050773,23.328699439496457,20.65985161119759,6.47544875391759e-05,0.0939245000481605,0,0,0
1932,68692.0920470858,2010-11-30 05:38:38,5282.634766107198,2,7,0.5501165986061096,4.195281982421875,5.825922517304997,5.688385372050773,23.34793153370009,20.65985161119759,9.70840483205393e-05,0.0939245000481605,0,0,0
1933,68722.10561668937,2010-11-30 05:39:08,5312.648335680713,2,7,0.5497553944587708,4.199005603790283,5.830508359910936,5.688385372050773,23.36717883413584,20.65985161119759,9.71794142969884e-05,0.0939245000481605,0,0,0
1934,68729.68325426905,2010-11-30 05:39:15,5320.225973190208,2,7,0.5501165986061096,4.200138568878174,5.831666149983412,5.688385372050773,23.37204095250241,20.65985161119759,0.0001295089750783,0.0939245000481605,0,0,0
1935,68759.70284401887,2010-11-30 05:39:45,30.017403965251997,3,7,0.0,4.109806537628174,5.831666149983412,5.688385372050773,23.37204095250241,20.65985161119759,-0.0004209518374409,0.0939245000481605,0,0,0
1936,68789.71546049564,2010-11-30 05:40:15,60.0300203167112,3,7,0.0,4.0987982749938965,5.831666149983412,5.688385372050773,23.37204095250241,20.65985161119759,-0.0001942634553415,0.0939245000481605,0,0,0
1937,68819.7326588743,2010-11-30 05:40:45,90.04721879561833,3,7,0.0,4.091837406158447,5.831666149983412,5.688385372050773,23.37204095250241,20.65985161119759,-0.0001618385285837,0.0939245000481605,0,0,0
1938,68849.69877527743,2010-11-30 05:41:15,120.01333516365725,3,7,0.0,4.087628364562988,5.831666149983412,5.688385372050773,23.37204095250241,20.65985161119759,-6.47544875391759e-05,0.0939245000481605,0,0,0
1939,68849.71125521805,2010-11-30 05:41:15,0.015842859346142,4,7,0.9868298172950744,4.199814796447754,5.831670492818532,5.688385372050773,23.3720591916056,20.65985161119759,0.0,0.0939245000481605,0,0,0
1940,68850.55488220637,2010-11-30 05:41:16,0.859469757434847,4,7,0.9366204738616944,4.199814796447754,5.831894012798233,5.688385372050773,23.37299791617829,20.65985161119759,0.0,0.0939245000481605,0,0,0
1941,68852.77358821091,2010-11-30 05:41:19,3.078175761992342,4,7,0.8864110708236694,4.199653148651123,5.832454506877612,5.688385372050773,23.375351868200603,20.65985161119759,-3.23295607813634e-05,0.0939245000481605,0,0,0
1942,68856.08600474706,2010-11-30 05:41:22,6.390592293129441,4,7,0.8363823294639587,4.199814796447754,5.833245820142261,5.688385372050773,23.37867522560136,20.65985161119759,0.0,0.0939245000481605,0,0,0
1943,68860.63266047498,2010-11-30 05:41:26,10.937248021036964,4,7,0.7861729264259338,4.199814796447754,5.834269353500712,5.688385372050773,23.38297384656017,20.65985161119759,0.0,0.0939245000481605,0,0,0
1944,68866.67956702434,2010-11-30 05:41:32,16.984154575424228,4,7,0.7359635829925537,4.199814796447754,5.835546408412407,5.688385372050773,23.388337222018304,20.65985161119759,3.23295607813634e-05,0.0939245000481605,0,0,0
1945,68874.55429725767,2010-11-30 05:41:40,24.85888479871064,4,7,0.6857541799545288,4.199653148651123,5.837099350971434,5.688385372050773,23.394859280886127,20.65985161119759,-3.23295607813634e-05,0.0939245000481605,0,0,0
1946,68885.14792941384,2010-11-30 05:41:51,35.45251695488388,4,7,0.6357254385948181,4.199976921081543,5.839040428481328,5.688385372050773,23.40301146717101,20.65985161119759,3.24249267578125e-05,0.0939245000481605,0,0,0
1947,68900.10065084099,2010-11-30 05:42:06,50.40523838205072,4,7,0.5855160355567932,4.199814796447754,5.84157088561186,5.688385372050773,23.413638920292783,20.65985161119759,-3.24249267578125e-05,0.0939245000481605,0,0,0
1948,68923.45953722634,2010-11-30 05:42:29,73.76412476740195,4,7,0.5354872345924377,4.199653148651123,5.845195427267279,5.688385372050773,23.42886135512905,20.65985161119759,-3.23295607813634e-05,0.0939245000481605,0,0,0
1949,68964.74008041537,2010-11-30 05:43:10,115.04466798648946,4,7,0.485458493232727,4.199653148651123,5.851022477186759,5.688385372050773,23.453333831756563,20.65985161119759,-6.47544875391759e-05,0.0939245000481605,0,0,0
1950,69042.53705304455,2010-11-30 05:44:28,192.84164067583563,4,7,0.4354297220706939,4.199814796447754,5.860934539982302,5.688385372050773,23.49496271228403,20.65985161119759,0.0,0.0939245000481605,0,0,0
1951,69154.84571737619,2010-11-30 05:46:21,305.1503049422988,4,7,0.3854009509086609,4.199814796447754,5.873713891339983,5.688385372050773,23.54863369288726,20.65985161119759,0.0,0.0939245000481605,0,0,0
1952,69292.35838767227,2010-11-30 05:48:38,442.6629752283568,4,7,0.3351915776729584,4.199653148651123,5.887464311085956,5.688385372050773,23.60638303755671,20.65985161119759,-3.23295607813634e-05,0.0939245000481605,0,0,0
1953,69459.44875621283,2010-11-30 05:51:25,609.7533437538799,4,7,0.2851628065109253,4.199653148651123,5.90184591635483,5.688385372050773,23.666783254277966,20.65985161119759,-3.23295607813634e-05,0.0939245000481605,0,0,0
1954,69661.63232037597,2010-11-30 05:54:47,811.9369079270339,4,7,0.2349534332752227,4.199814796447754,5.916425827803676,5.688385372050773,23.728016370454306,20.65985161119759,3.23295607813634e-05,0.0939245000481605,0,0,0
1955,69910.59594181739,2010-11-30 05:58:56,1060.900529368467,4,7,0.1849246621131897,4.199653148651123,5.930920350424369,5.688385372050773,23.78889090882273,20.65985161119759,-3.23295607813634e-05,0.0939245000481605,0,0,0
1956,70249.46641680592,2010-11-30 06:04:35,1399.7710044371956,4,7,0.1348958909511566,4.199814796447754,5.945900773607196,5.688385372050773,23.85180616950269,20.65985161119759,3.23295607813634e-05,0.0939245000481605,0,0,0
1957,70766.87555083561,2010-11-30 06:13:13,1917.1801383766528,4,7,0.0846865102648735,4.199814796447754,5.961419361890765,5.688385372050773,23.9169812512295,20.65985161119759,0.0,0.0939245000481605,0,0,0
1958,71420.86235626256,2010-11-30 06:24:07,2571.166943888831,4,7,0.0498289167881011,4.199814796447754,5.973397135321264,5.688385372050773,23.967285992822465,20.65985161119759,0.0,0.0939245000481605,0,0,0
1959,71450.8792608887,2010-11-30 06:24:37,30.01521094300047,5,7,0.0,4.191397190093994,5.973397135321264,5.688385372050773,23.967285992822465,20.65985161119759,-3.23295607813634e-05,0.0939245000481605,0,0,0
1960,71480.87858498287,2010-11-30 06:25:07,60.01453502215128,5,7,0.0,4.189939975738525,5.973397135321264,5.688385372050773,23.967285992822465,20.65985161119759,-3.24249267578125e-05,0.0939245000481605,0,0,0
1961,71481.06932512844,2010-11-30 06:25:07,0.187898578385444,6,7,-1.9243103452026844e-05,4.189939975738525,5.973397153170591,5.688385372050773,23.96728606761441,20.65985161119759,-9.71794142969884e-05,0.0965279787778854,0,0,0
1962,71485.89685628403,2010-11-30 06:25:12,5.015429658804795,6,7,0.0010644125286489,4.1901021003723145,5.973398085372616,5.688385372215227,23.967289973662137,20.659851611886644,0.0,0.0965279787778854,0,0,0
1963,71515.91509236374,2010-11-30 06:25:42,30.015152146688106,7,7,-1.0997490882873535,4.000695705413818,5.973398085372616,5.697553170118108,23.967289973662137,20.69673802399556,-0.0009713172912597,0.0965279787778854,0,0,0
1964,71545.9301123666,2010-11-30 06:26:12,60.03017215455383,7,7,-1.099568486213684,3.971879959106445,5.973398085372616,5.706720809841255,23.967289973662137,20.733273237973755,-0.0006151676061563,0.0965279787778854,0,0,0
1965,71575.944979885,2010-11-30 06:26:42,90.04503966293045,7,7,-1.099568486213684,3.95180606842041,5.973398085372616,5.715888372269054,23.967289973662137,20.76958836157916,-0.0004532813909463,0.0965279787778854,0,0,0
1966,71605.9600008302,2010-11-30 06:27:12,120.06006070336568,7,7,-1.0993878841400146,3.936103105545044,5.973398085372616,5.725056022829832,23.967289973662137,20.805742537569884,-0.0003561496851034,0.0965279787778854,0,0,0
1967,71635.97501156498,2010-11-30 06:27:42,150.07507133289377,7,7,-1.0997490882873535,3.923152208328247,5.973398085372616,5.734223673121476,23.967289973662137,20.841767400515785,-0.0003561496851034,0.0965279787778854,0,0,0
1968,71665.99054924605,2010-11-30 06:28:12,180.0906091392812,7,7,-1.099568486213684,3.911820411682129,5.973398085372616,5.743391489046647,23.967289973662137,20.87768226620347,-0.0003237724304199,0.0965279787778854,0,0,0
1969,71696.0050602974,2010-11-30 06:28:42,210.10512007534132,7,7,-1.0993878841400146,3.901621580123901,5.973398085372616,5.752558968806884,23.967289973662137,20.91349619585425,-0.0002266406954731,0.0965279787778854,0,0,0
1970,71726.02007933786,2010-11-30 06:29:12,240.1201391157997,7,7,-1.0997490882873535,3.891584634780884,5.973398085372616,5.761726582923065,23.967289973662137,20.949217881581653,-0.0002266406954731,0.0965279787778854,0,0,0
1971,71756.03509083454,2010-11-30 06:29:42,270.1351506124857,7,7,-1.099568486213684,3.882357120513916,5.973398085372616,5.770894180443372,23.967289973662137,20.984851563308585,-0.0002266406954731,0.0965279787778854,0,0,0
1972,71786.05012223075,2010-11-30 06:30:12,300.1501820086908,7,7,-1.099568486213684,3.873129606246948,5.973398085372616,5.780061724191667,23.967289973662137,21.02040007041869,-0.0002266406954731,0.0965279787778854,0,0,0
1973,71816.06513191291,2010-11-30 06:30:42,330.1651916908615,7,7,-1.099568486213684,3.8642258644104,5.973398085372616,5.789229333143688,23.967289973662137,21.055866586578077,-0.0002266406954731,0.0965279787778854,0,0,0
1974,71846.08014321412,2010-11-30 06:31:12,360.180202992061,7,7,-1.099568486213684,3.855645895004273,5.973398085372616,5.798396917044244,23.967289973662137,21.0912528002271,-0.0002266406954731,0.0965279787778854,0,0,0
1975,71876.09517624439,2010-11-30 06:31:42,390.1952360323575,7,7,-1.0993878841400146,3.847065925598145,5.973398085372616,5.807564505818178,23.967289973662137,21.126560316545064,-0.0002266406954731,0.0965279787778854,0,0,0
1976,71906.11018522982,2010-11-30 06:32:12,420.2102450127818,7,7,-1.099568486213684,3.8389716148376474,5.973398085372616,5.816732083446939,23.967289973662137,21.161791841446888,-0.0002266406954731,0.0965279787778854,0,0,0
1977,71936.12737293693,2010-11-30 06:32:42,450.2274328000833,7,7,-1.099568486213684,3.8310394287109375,5.973398085372616,5.825900303871212,23.967289973662137,21.19695187824741,-0.0002266406954731,0.0965279787778854,0,0,0
1978,71966.14023723039,2010-11-30 06:33:12,480.2402970033121,7,7,-1.099568486213684,3.82294511795044,5.973398085372616,5.83506723112247,23.967289973662137,21.23203321532113,-0.0001942634553415,0.0965279787778854,0,0,0
1979,71996.15696770468,2010-11-30 06:33:42,510.2570275728448,7,7,-1.099568486213684,3.815012693405152,5.973398085372616,5.844235310406121,23.967289973662137,21.26704649299605,-0.0002590179501567,0.0965279787778854,0,0,0
1980,72026.17198092566,2010-11-30 06:34:12,540.272040788809,7,7,-1.099568486213684,3.807242155075073,5.973398085372616,5.85340288426437,23.967289973662137,21.30198593718492,-0.0002266406954731,0.0965279787778854,0,0,0
1981,72056.18529479786,2010-11-30 06:34:42,570.285354640972,7,7,-1.0997490882873535,3.799633502960205,5.973398085372616,5.862569918743754,23.967289973662137,21.336852345076466,-0.0002266406954731,0.0965279787778854,0,0,0
1982,72086.2023610778,2010-11-30 06:35:12,600.3024209459694,7,7,-1.0997490882873535,3.792024850845337,5.973398085372616,5.871738131139942,23.967289973662137,21.37165374514508,-0.0002266406954731,0.0965279787778854,0,0,0
1983,72116.21531775114,2010-11-30 06:35:42,630.3153775240695,7,7,-1.099568486213684,3.784901857376098,5.973398085372616,5.880905132430523,23.967289973662137,21.4063829564278,-0.0001942634553415,0.0965279787778854,0,0,0
1984,72146.23034355343,2010-11-30 06:36:12,660.3304033313669,7,7,-1.099568486213684,3.777778863906861,5.973398085372616,5.890072760664178,23.967289973662137,21.44104880719221,-0.0001942634553415,0.0965279787778854,0,0,0
1985,72176.24534859405,2010-11-30 06:36:42,690.3454083769997,7,7,-1.0997490882873535,3.770655870437622,5.973398085372616,5.899240463113228,23.967289973662137,21.475650797693227,-0.0002266406954731,0.0965279787778854,0,0,0
1986,72206.26036449168,2010-11-30 06:37:12,720.3604242746372,7,7,-1.099568486213684,3.7640185356140137,5.973398085372616,5.908408084507528,23.967289973662137,21.51018883898932,-0.0002266406954731,0.0965279787778854,0,0,0
1987,72236.27531345274,2010-11-30 06:37:42,750.3753732457308,7,7,-1.099568486213684,3.757381200790405,5.973398085372616,5.917575656582414,23.967289973662137,21.544664458405943,-0.0001618862152099,0.0965279787778854,0,0,0
1988,72266.29038859783,2010-11-30 06:38:12,780.3904483807784,7,7,-1.0997490882873535,3.750582218170166,5.973398085372616,5.926743319567143,23.967289973662137,21.579079146693672,-0.0001618862152099,0.0965279787778854,0,0,0
1989,72296.30541106682,2010-11-30 06:38:42,810.4054708497684,7,7,-1.099568486213684,3.744106769561768,5.973398085372616,5.935911020988449,23.967289973662137,21.61343440419009,-0.0001942634553415,0.0965279787778854,0,0,0
1990,72326.320410704,2010-11-30 06:39:12,840.4204704819301,7,7,-1.099568486213684,3.737793207168579,5.973398085372616,5.945078720977079,23.967289973662137,21.647731132908145,-0.0001942634553415,0.0965279787778854,0,0,0
1991,72356.33536248207,2010-11-30 06:39:42,870.4354222600085,7,7,-1.099568486213684,3.7316415309906006,5.973398085372616,5.954246418468967,23.967289973662137,21.681970573978816,-0.0001618862152099,0.0965279787778854,0,0,0
1992,72386.35047648384,2010-11-30 06:40:12,900.450536266787,7,7,-1.099568486213684,3.725489854812622,5.973398085372616,5.963414050844956,23.967289973662137,21.716153131830687,-0.0001618862152099,0.0965279787778854,0,0,0
1993,72416.36550833118,2010-11-30 06:40:42,930.4655681842894,7,7,-1.0993878841400146,3.719661951065064,5.973398085372616,5.972581684002571,23.967289973662137,21.750280088264123,-0.0001295089750783,0.0965279787778854,0,0,0
1994,72446.38060865388,2010-11-30 06:41:12,960.4806684318283,7,7,-1.099568486213684,3.713672161102295,5.973398085372616,5.981749321633117,23.967289973662137,21.78435278377884,-0.0001618862152099,0.0965279787778854,0,0,0
1995,72476.39549753045,2010-11-30 06:41:43,990.495557308379,7,7,-1.099568486213684,3.7076823711395264,5.973398085372616,5.990916935797345,23.967289973662137,21.818371094993704,-0.0001295089750783,0.0965279787778854,0,0,0
1996,72506.41067422823,2010-11-30 06:42:13,1020.510734011174,7,7,-1.099568486213684,3.7020163536071777,5.973398085372616,6.000084662580382,23.967289973662137,21.852336132195475,-0.0001618862152099,0.0965279787778854,0,0,0
1997,72536.425541095,2010-11-30 06:42:43,1050.5256008829665,7,7,-1.099568486213684,3.696188449859619,5.973398085372616,6.00925233879916,23.967289973662137,21.886248293282392,-0.0001618862152099,0.0965279787778854,0,0,0
1998,72566.44056173945,2010-11-30 06:43:13,1080.5406215173914,7,7,-1.099568486213684,3.6908462047576895,5.973398085372616,6.018420061129117,23.967289973662137,21.920109074134828,-0.0001618862152099,0.0965279787778854,0,0,0
1999,72596.4574201872,2010-11-30 06:43:43,1110.5574800503562,7,7,-1.099568486213684,3.685180187225342,5.973398085372616,6.027588274038394,23.967289973662137,21.953920799934835,-0.0001295089750783,0.0965279787778854,0,0,0
2000,72626.470948077,2010-11-30 06:44:13,1140.5710078549314,7,7,-1.099568486213684,3.679676055908203,5.973398085372616,6.036755452528976,23.967289973662137,21.98767829432459,-0.0001618862152099,0.0965279787778854,0,0,0
2001,72656.4856198984,2010-11-30 06:44:43,1170.585679671336,7,7,-1.0993878841400146,3.6743338108062735,5.973398085372616,6.045923070360581,23.967289973662137,22.021387645753737,-0.0001295089750783,0.0965279787778854,0,0,0
2002,72686.50063181113,2010-11-30 06:45:13,1200.6006915840571,7,7,-1.099568486213684,3.668829917907715,5.973398085372616,6.055090734086184,23.967289973662137,22.05504711075461,-0.0001618862152099,0.0965279787778854,0,0,0
2003,72716.51567218968,2010-11-30 06:45:43,1230.6157319726397,7,7,-1.099568486213684,3.663649559020996,5.973398085372616,6.064258409572252,23.967289973662137,22.088657636356004,-9.713172767078504e-05,0.0965279787778854,0,0,0
2004,72746.53068412245,2010-11-30 06:46:13,1260.6307439003983,7,7,-1.099568486213684,3.658469200134277,5.973398085372616,6.073426112227661,23.967289973662137,22.1222201903105,-0.0001295089750783,0.0965279787778854,0,0,0
2005,72776.54569868177,2010-11-30 06:46:43,1290.6457584597051,7,7,-1.0993878841400146,3.653288841247559,5.973398085372616,6.082593769080383,23.967289973662137,22.155735015064906,-0.0001295089750783,0.0965279787778854,0,0,0
2006,72806.56089963992,2010-11-30 06:47:13,1320.6609594128463,7,7,-1.0993878841400146,3.64827036857605,5.973398085372616,6.091761522513397,23.967289973662137,22.189203426703468,-0.0001295089750783,0.0965279787778854,0,0,0
2007,72836.57572080298,2010-11-30 06:47:43,1350.675780580907,7,7,-1.0993878841400146,3.643251895904541,5.973398085372616,6.100929059065367,23.967289973662137,22.222624412568397,-9.713172767078504e-05,0.0965279787778854,0,0,0
2008,72866.59075767781,2010-11-30 06:48:13,1380.6908174557454,7,7,-1.099568486213684,3.6380715370178223,5.973398085372616,6.110096705553823,23.967289973662137,22.256000341897305,-0.0001618862152099,0.0965279787778854,0,0,0
2009,72896.60576406177,2010-11-30 06:48:43,1410.7058238346965,7,7,-1.099568486213684,3.633214950561523,5.973398085372616,6.119264266682222,23.967289973662137,22.289330907450395,-0.0001295089750783,0.0965279787778854,0,0,0
2010,72926.62080320726,2010-11-30 06:49:13,1440.7208630052476,7,7,-1.0993878841400146,3.628682136535645,5.973398085372616,6.128431902847782,23.967289973662137,22.32261759707142,-9.713172767078504e-05,0.0965279787778854,0,0,0
2011,72956.6358193906,2010-11-30 06:49:43,1470.7358791735587,7,7,-1.099568486213684,3.6238255500793457,5.973398085372616,6.137599470300888,23.967289973662137,22.35586035018488,-0.0001295089750783,0.0965279787778854,0,0,0
2012,72986.65083098253,2010-11-30 06:50:13,1500.7508907554568,7,7,-1.0997490882873535,3.619130849838257,5.973398085372616,6.146767043421749,23.967289973662137,22.389060474234217,-0.0001295089750783,0.0965279787778854,0,0,0
2013,73016.66584108575,2010-11-30 06:50:43,1530.7659008636876,7,7,-1.099568486213684,3.614598035812378,5.973398085372616,6.155934703249265,23.967289973662137,22.42221898298672,-0.0001295089750783,0.0965279787778854,0,0,0
2014,73046.68085486311,2010-11-30 06:51:13,1560.780914766361,7,7,-1.099568486213684,3.610227108001709,5.973398085372616,6.165102311952534,23.967289973662137,22.455337035017703,-0.0001618862152099,0.0965279787778854,0,0,0
2015,73076.69586617935,2010-11-30 06:51:43,1590.7959259622985,7,7,-1.0997490882873535,3.60585618019104,5.973398085372616,6.17426997009713,23.967289973662137,22.48841515692692,-9.713172767078504e-05,0.0965279787778854,0,0,0
2016,73106.71089441769,2010-11-30 06:52:13,1620.810954195633,7,7,-1.099568486213684,3.601809024810791,5.973398085372616,6.18343762467678,23.967289973662137,22.52145356807345,-6.47544875391759e-05,0.0965279787778854,0,0,0
2017,73136.72591990419,2010-11-30 06:52:43,1650.8259796971695,7,7,-1.099568486213684,3.597438097000122,5.973398085372616,6.192605302610338,23.967289973662137,22.554453539764378,-0.0001295089750783,0.0965279787778854,0,0,0
2018,73166.74092372679,2010-11-30 06:53:13,1680.8409835548462,7,7,-1.099568486213684,3.593390941619873,5.973398085372616,6.201772964934572,23.967289973662137,22.58741585528301,-0.0001295089750783,0.0965279787778854,0,0,0
2019,73196.7579117169,2010-11-30 06:53:43,1710.8579716151346,7,7,-1.099568486213684,3.589505910873413,5.973398085372616,6.210941175599555,23.967289973662137,22.620343867264125,-9.713172767078504e-05,0.0965279787778854,0,0,0
2020,73226.77117471251,2010-11-30 06:54:13,1740.8712345556055,7,7,-1.099568486213684,3.585782527923584,5.973398085372616,6.220108330652611,23.967289973662137,22.65323233375461,-9.713172767078504e-05,0.0965279787778854,0,0,0
2021,73256.78597126431,2010-11-30 06:54:43,1770.8860310422476,7,7,-1.099568486213684,3.582059144973755,5.973398085372616,6.229275840431908,23.967289973662137,22.686087509333856,-9.713172767078504e-05,0.0965279787778854,0,0,0
2022,73286.80099007921,2010-11-30 06:55:13,1800.9010498571445,7,7,-1.099568486213684,3.578335762023926,5.973398085372616,6.238443501803404,23.967289973662137,22.718909303486072,-9.713172767078504e-05,0.0965279787778854,0,0,0
2023,73316.81602715956,2010-11-30 06:55:43,1830.9160870227065,7,7,-1.099568486213684,3.574774265289306,5.973398085372616,6.247611217998425,23.967289973662137,22.75169805024977,-9.713172767078504e-05,0.0965279787778854,0,0,0
2024,73346.83106371861,2010-11-30 06:56:13,1860.931123491535,7,7,-1.099568486213684,3.5715365409851074,5.973398085372616,6.25677888027362,23.967289973662137,22.78445453161805,-3.237724376958795e-05,0.0965279787778854,0,0,0
2025,73376.8460430252,2010-11-30 06:56:43,1890.9461028031287,7,7,-1.099568486213684,3.5679750442504883,5.973398085372616,6.265946517278112,23.967289973662137,22.817179614165607,-9.713172767078504e-05,0.0965279787778854,0,0,0
2026,73406.86108534859,2010-11-30 06:57:13,1920.961145121514,7,7,-1.099568486213684,3.564737319946289,5.973398085372616,6.27511423964652,23.967289973662137,22.849874711649267,-6.47544875391759e-05,0.0965279787778854,0,0,0
2027,73436.87608020887,2010-11-30 06:57:43,1950.9761399868128,7,7,-1.0997490882873535,3.56149959564209,5.973398085372616,6.284281860713489,23.967289973662137,22.882539847248676,-9.713172767078504e-05,0.0965279787778854,0,0,0
2028,73466.89133525161,2010-11-30 06:58:13,1980.9913950295545,7,7,-1.0993878841400146,3.5584237575531006,5.973398085372616,6.293449597127354,23.967289973662137,22.915176239440516,-9.713172767078504e-05,0.0965279787778854,0,0,0
2029,73496.90609199936,2010-11-30 06:58:43,2011.00615180237,7,7,-1.099568486213684,3.5553479194641118,5.973398085372616,6.302617181916427,23.967289973662137,22.947782789662583,-3.237724376958795e-05,0.0965279787778854,0,0,0
2030,73526.92115777613,2010-11-30 06:59:13,2041.021217554067,7,7,-1.099568486213684,3.552110195159912,5.973398085372616,6.311784840524119,23.967289973662137,22.98036049010896,-6.47544875391759e-05,0.0965279787778854,0,0,0
2031,73556.9362105756,2010-11-30 06:59:43,2071.036270378596,7,7,-1.099568486213684,3.548872470855713,5.973398085372616,6.320952487510833,23.967289973662137,23.012909360928127,-9.713172767078504e-05,0.0965279787778854,0,0,0
2032,73586.95150629956,2010-11-30 07:00:13,2101.051566172745,7,7,-1.099568486213684,3.545796632766724,5.973398085372616,6.330120262664427,23.967289973662137,23.04543010186128,-9.713172767078504e-05,0.0965279787778854,0,0,0
2033,73616.96621990998,2010-11-30 07:00:43,2131.066279687916,7,7,-1.0993878841400146,3.5427207946777344,5.973398085372616,6.339287805748271,23.967289973662137,23.077921376739297,-3.237724376958795e-05,0.0965279787778854,0,0,0
2034,73646.98123302568,2010-11-30 07:01:13,2161.0812928036307,7,7,-1.0997490882873535,3.539483070373535,5.973398085372616,6.348455441868786,23.967289973662137,23.110384936264296,-9.713172767078504e-05,0.0965279787778854,0,0,0
2035,73676.99623949487,2010-11-30 07:01:43,2191.096299272806,7,7,-1.099568486213684,3.536407232284546,5.973398085372616,6.357623046002538,23.967289973662137,23.1428201012852,-0.0001295089750783,0.0965279787778854,0,0,0
2036,73707.01127116678,2010-11-30 07:02:13,2221.111330944697,7,7,-1.099568486213684,3.5333313941955566,5.973398085372616,6.366790813291962,23.967289973662137,23.175227422042767,-9.713172767078504e-05,0.0965279787778854,0,0,0
2037,73737.02627331017,2010-11-30 07:02:43,2251.126333088108,7,7,-1.099568486213684,3.5300936698913574,5.973398085372616,6.375958471268008,23.967289973662137,23.20760538993553,-9.713172767078504e-05,0.0965279787778854,0,0,0
2038,73767.0413120346,2010-11-30 07:03:13,2281.141371812549,7,7,-1.099568486213684,3.526694059371948,5.973398085372616,6.38512616327209,23.967289973662137,23.23995330825485,-9.713172767078504e-05,0.0965279787778854,0,0,0
2039,73797.05814311927,2010-11-30 07:03:43,2311.1582029924466,7,7,-1.0997490882873535,3.523456335067749,5.973398085372616,6.394294387391019,23.967289973662137,23.27227228749675,-6.47544875391759e-05,0.0965279787778854,0,0,0
2040,73827.07147321687,2010-11-30 07:04:13,2341.171533004824,7,7,-1.099568486213684,3.52005672454834,5.973398085372616,6.403461509626837,23.967289973662137,23.304556134662285,-6.47544875391759e-05,0.0965279787778854,0,0,0
2041,73857.08847796367,2010-11-30 07:04:43,2371.188537831836,7,7,-1.099568486213684,3.5164952278137207,5.973398085372616,6.412629705645517,23.967289973662137,23.33681236528932,-6.47544875391759e-05,0.0965279787778854,0,0,0
2042,73887.1013712643,2010-11-30 07:05:13,2401.201431042248,7,7,-1.099568486213684,3.5129337310791016,5.973398085372616,6.42179667356035,23.967289973662137,23.369031595059177,-9.713172767078504e-05,0.0965279787778854,0,0,0
2043,73917.11637965326,2010-11-30 07:05:43,2431.2164394312,7,7,-1.0997490882873535,3.5090487003326416,5.973398085372616,6.430964233796787,23.967289973662137,23.40121932247995,-0.0001295089750783,0.0965279787778854,0,0,0
2044,73947.13315373106,2010-11-30 07:06:13,2461.233213599226,7,7,-1.099929690361023,3.5053253173828125,5.973398085372616,6.440132405292567,23.967289973662137,23.433374685873588,-6.47544875391759e-05,0.0965279787778854,0,0,0
2045,73977.14647128744,2010-11-30 07:06:43,2491.2465311606197,7,7,-1.0997490882873535,3.501116275787353,5.973398085372616,6.449299481859069,23.967289973662137,23.465490128197644,-0.0001618862152099,0.0965279787778854,0,0,0
2046,74007.16364781673,2010-11-30 07:07:13,2521.2637077149675,7,7,-1.0997490882873535,3.4970691204071045,5.973398085372616,6.458467791421716,23.967289973662137,23.497572289110423,-0.0001295089750783,0.0965279787778854,0,0,0
2047,74037.17644679766,2010-11-30 07:07:43,2551.276506605669,7,7,-1.099568486213684,3.4926981925964355,5.973398085372616,6.467634732869271,23.967289973662137,23.52961031358785,-0.0001295089750783,0.0965279787778854,0,0,0
2048,74067.19161226248,2010-11-30 07:08:13,2581.2916720504486,7,7,-1.0997490882873535,3.4880034923553467,5.973398085372616,6.476802431637195,23.967289973662137,23.561609655233283,-0.0001295089750783,0.0965279787778854,0,0,0
2049,74097.206485054,2010-11-30 07:08:43,2611.306544841972,7,7,-1.099568486213684,3.482823133468628,5.973398085372616,6.485969968428914,23.967289973662137,23.593563484318977,-0.0001295089750783,0.0965279787778854,0,0,0
2050,74127.22149440536,2010-11-30 07:09:13,2641.3215541832947,7,7,-1.099568486213684,3.4773190021514893,5.973398085372616,6.495137524085939,23.967289973662137,23.62546794239994,-0.0001295089750783,0.0965279787778854,0,0,0
2051,74157.23655165591,2010-11-30 07:09:43,2671.336611433837,7,7,-1.099568486213684,3.4713292121887207,5.973398085372616,6.504305121740457,23.967289973662137,23.657319529870257,-0.0001942634553415,0.0965279787778854,0,0,0
2052,74187.25167396835,2010-11-30 07:10:13,2701.3517337763587,7,7,-1.099568486213684,3.4646918773651123,5.973398085372616,6.513472701973254,23.967289973662137,23.689113558876464,-0.0001942634553415,0.0965279787778854,0,0,0
2053,74217.26652320624,2010-11-30 07:10:43,2731.36658299422,7,7,-1.099568486213684,3.457245111465454,5.973398085372616,6.522640134561652,23.967289973662137,23.72084296367941,-0.0001942634553415,0.0965279787778854,0,0,0
2054,74247.28155849714,2010-11-30 07:11:13,2761.3816182801047,7,7,-1.099568486213684,3.449150800704956,5.973398085372616,6.531807552498631,23.967289973662137,23.752500849371955,-0.0002266406954731,0.0965279787778854,0,0,0
2055,74277.29661693565,2010-11-30 07:11:43,2791.3966767135908,7,7,-1.099568486213684,3.4394376277923584,5.973398085372616,6.540975179056288,23.967289973662137,23.784077485956225,-0.0002913951757363,0.0965279787778854,0,0,0
2056,74307.31163631195,2010-11-30 07:12:13,2821.411696089885,7,7,-1.099568486213684,3.4276201725006104,5.973398085372616,6.550142724382744,23.967289973662137,23.81555639436025,-0.0003237724304199,0.0965279787778854,0,0,0
2057,74337.32666436983,2010-11-30 07:12:43,2851.4267242129454,7,7,-1.0993878841400146,3.413374185562134,5.973398085372616,6.559310324243193,23.967289973662137,23.846916934347306,-0.0004209041653666,0.0965279787778854,0,0,0
2058,74367.34165504471,2010-11-30 07:13:13,2881.441714822655,7,7,-1.099568486213684,3.395242929458618,5.973398085372616,6.568477876500072,23.967289973662137,23.878129425480108,-0.0005180359003134,0.0965279787778854,0,0,0
2059,74397.35847366336,2010-11-30 07:13:44,2911.458533566606,7,7,-1.0993878841400146,3.371607542037964,5.973398085372616,6.57764598507277,23.967289973662137,23.909153586654423,-0.0006799221155233,0.0965279787778854,0,0,0
2060,74427.37183736458,2010-11-30 07:14:14,2941.471897157542,7,7,-1.099568486213684,3.3403637409210205,5.973398085372616,6.586813069384392,23.967289973662137,23.93992459275324,-0.0009389400365762,0.0965279787778854,0,0,0
2061,74457.38683303686,2010-11-30 07:14:44,2971.486892819825,7,7,-1.099568486213684,3.2985970973968506,5.973398085372616,6.59598067234844,23.967289973662137,23.970365358324088,-0.0012627125252038,0.0965279787778854,0,0,0
2062,74487.40171713152,2010-11-30 07:15:14,3001.501776909463,7,7,-1.099568486213684,3.2416133880615234,5.973398085372616,6.605148163860293,23.967289973662137,24.00035696863059,-0.0017159938579425,0.0965279787778854,0,0,0
2063,74517.41686025576,2010-11-30 07:15:44,3031.516920043724,7,7,-1.0993878841400146,3.161318063735962,5.973398085372616,6.614315759064689,23.967289973662137,24.0297283399238,-0.0024930476211011,0.0965279787778854,0,0,0
2064,74547.43196413734,2010-11-30 07:16:14,3061.5320239854564,7,7,-1.099568486213684,3.0402274131774902,5.973398085372616,6.623483359299352,23.967289973662137,24.058197035472315,-0.0039176465943455,0.0965279787778854,0,0,0
2065,74574.38445593655,2010-11-30 07:16:41,3088.4845157245145,7,7,-1.099568486213684,2.839974880218506,5.973398085372616,6.631715528646066,23.967289973662137,24.082497870707343,-0.0078999996185302,0.0965279787778854,0,0,0
2066,74586.57161186033,2010-11-30 07:16:53,3100.671671638269,7,7,-1.0997490882873535,2.699296236038208,5.973398085372616,6.635437877038863,23.967289973662137,24.092815680676228,-0.0097455028444528,0.0965279787778854,0,0,0
2067,74646.58926112618,2010-11-30 07:17:53,60.014376131758645,8,7,0.0,3.3696649074554443,5.973398085372616,6.635437877038863,23.967289973662137,24.092815680676228,0.0013274669181555,0.0965279787778854,0,0,0
2068,74646.7733645795,2010-11-30 07:17:53,0.187395586710005,9,7,-1.9243103452026844e-05,3.3699886798858643,5.973398085372616,6.635437878040549,23.967289973662137,24.0928156840519,0.0,0.0947341993451118,0,0,0
2069,74651.60150568796,2010-11-30 07:17:58,5.015536705185596,9,7,0.0008838032954372,3.3779211044311523,5.973399001828923,6.635437878135131,23.96729306641653,24.09281568437064,0.0011008263099938,0.0947341993451118,0,0,0
