Data_Point,Test_Time(s),Date_Time,Step_Time(s),Step_Index,Cycle_Index,Current(A),Voltage(V),Charge_Capacity(Ah),Discharge_Capacity(Ah),Charge_Energy(Wh),Discharge_Energy(Wh),dV/dt(V/s),Internal_Resistance(Ohm),Is_FC_Data,AC_Impedance(Ohm),ACI_Phase_Angle(Deg)
14177,508920.301129792,2010-12-05 07:56:37,30.015076959587898,1,47,0.0,3.397023677825928,42.3223877995479,42.98849252020146,169.58957062450503,155.93490511595144,0.0007446765666827,0.0939245000481605,0,0,0
14178,508950.316493901,2010-12-05 07:57:07,60.03044112387365,1,47,0.0,3.421306610107422,42.3223877995479,42.98849252020146,169.58957062450503,155.93490511595144,0.0005827903514727,0.0939245000481605,0,0,0
14179,508980.3313291943,2010-12-05 07:57:37,90.04527636695931,1,47,0.0,3.4399232864379883,42.3223877995479,42.98849252020146,169.58957062450503,155.93490511595144,0.0004532813909463,0.0939245000481605,0,0,0
14180,509010.2995540793,2010-12-05 07:58:07,120.01350123692418,1,47,0.0,3.4548168182373047,42.3223877995479,42.98849252020146,169.58957062450503,155.93490511595144,0.0003561496851034,0.0939245000481605,0,0,0
14181,509040.29897754354,2010-12-05 07:58:37,30.01327035391917,2,47,0.5499359965324402,3.612817287445069,42.32697434856069,42.98849252020146,169.605980659121,155.93490511595144,0.0015541076427325,0.0939245000481605,0,0,0
14182,509070.3140329495,2010-12-05 07:59:07,60.0283257398218,2,47,0.5501165986061096,3.658469200134277,42.33156117806745,42.98849252020146,169.62266387822132,155.93490511595144,0.0009713172912597,0.0939245000481605,0,0,0
14183,509100.32929939067,2010-12-05 07:59:37,90.04359217591467,2,47,0.5501165986061096,3.69181752204895,42.336148009861176,42.98849252020146,169.63952475832158,155.93490511595144,0.0008094310760498,0.0939245000481605,0,0,0
14184,509130.34425552445,2010-12-05 08:00:07,120.05854830983256,2,47,0.5501165986061096,3.717557430267334,42.34073480508009,42.98849252020146,169.65651936443285,155.93490511595144,0.0006475448608398,0.0939245000481605,0,0,0
14185,509160.3593362886,2010-12-05 08:00:37,150.0736290738877,2,47,0.5501165986061096,3.738440752029419,42.34532161493225,42.98849252020146,169.67362055107944,155.93490511595144,0.0004856586456298,0.0939245000481605,0,0,0
14186,509190.3744257392,2010-12-05 08:01:07,180.0887185245592,2,47,0.550297200679779,3.754791021347046,42.349908389221696,42.98849252020146,169.6908068587647,155.93490511595144,0.0004208564641885,0.0939245000481605,0,0,0
14187,509220.3895569338,2010-12-05 08:01:37,210.1038497842709,2,47,0.5501165986061096,3.766123056411743,42.35449511740942,42.98849252020146,169.70805678779527,155.93490511595144,0.0002266406954731,0.0939245000481605,0,0,0
14188,509250.404674329,2010-12-05 08:02:07,240.1189671143191,2,47,0.5501165986061096,3.773569822311402,42.359081943249,42.98849252020146,169.72534949397536,155.93490511595144,0.0001942634553415,0.0939245000481605,0,0,0
14189,509280.41988063545,2010-12-05 08:02:37,270.13417342078174,2,47,0.5501165986061096,3.77875018119812,42.36366874630554,42.98849252020146,169.74267055519255,155.93490511595144,0.0001295089750783,0.0939245000481605,0,0,0
14190,509310.4348252658,2010-12-05 08:03:07,300.14911805107323,2,47,0.5499359965324402,3.783444881439209,42.368255557270246,42.98849252020146,169.76001418747404,155.93490511595144,0.0001295089750783,0.0939245000481605,0,0,0
14191,509340.4522616918,2010-12-05 08:03:37,330.1665545923895,2,47,0.5501165986061096,3.787653923034668,42.37284274122794,42.98849252020146,169.77737955710126,155.93490511595144,0.0001618862152099,0.0939245000481605,0,0,0
14192,509370.4650301717,2010-12-05 08:04:07,360.1793229621404,2,47,0.5501165986061096,3.791701078414917,42.37742924772562,42.98849252020146,169.7947614034302,155.93490511595144,9.713172767078504e-05,0.0939245000481605,0,0,0
14193,509400.4650440626,2010-12-05 08:04:37,390.1793369480978,2,47,0.5499359965324402,3.795748233795166,42.38201370964144,42.98849252020146,169.81215363283536,155.93490511595144,9.713172767078504e-05,0.0939245000481605,0,0,0
14194,509430.4796038151,2010-12-05 08:05:07,420.1938966053988,2,47,0.5501165986061096,3.799309730529785,42.38660043919183,42.98849252020146,169.82957194499443,155.93490511595144,9.713172767078504e-05,0.0939245000481605,0,0,0
14195,509460.4948165475,2010-12-05 08:05:37,450.2091093328398,2,47,0.550297200679779,3.8030331134796143,42.39118723184292,42.98849252020146,169.84700733699168,155.93490511595144,9.713172767078504e-05,0.0939245000481605,0,0,0
14196,509490.509817122,2010-12-05 08:06:07,480.2241099073464,2,47,0.5501165986061096,3.806432723999024,42.39577408860573,42.98849252020146,169.86445951316162,155.93490511595144,6.47544875391759e-05,0.0939245000481605,0,0,0
14197,509520.5248928685,2010-12-05 08:06:37,510.2391856539157,2,47,0.5501165986061096,3.8099942207336426,42.40036089476284,42.98849252020146,169.88192751978934,155.93490511595144,9.713172767078504e-05,0.0939245000481605,0,0,0
14198,509550.5399899332,2010-12-05 08:07:07,540.2542827285591,2,47,0.5501165986061096,3.8135557174682617,42.40494773537243,42.98849252020146,169.89941157888896,155.93490511595144,9.713172767078504e-05,0.0939245000481605,0,0,0
14199,509580.5550890028,2010-12-05 08:07:37,570.269381788142,2,47,0.550297200679779,3.817117214202881,42.40953459207074,42.98849252020146,169.9169117296931,155.93490511595144,0.0001295089750783,0.0939245000481605,0,0,0
14200,509610.570204729,2010-12-05 08:08:08,600.2844976294857,2,47,0.5501165986061096,3.82035493850708,42.41412144600616,42.98849252020146,169.93442748968204,155.93490511595144,9.713172767078504e-05,0.0939245000481605,0,0,0
14201,509640.5876843725,2010-12-05 08:08:38,630.3019772580229,2,47,0.5501165986061096,3.823916435241699,42.41870861101625,42.98849252020146,169.9519601302196,155.93490511595144,0.0001618862152099,0.0939245000481605,0,0,0
14202,509670.6003840011,2010-12-05 08:09:08,660.3146768115271,2,47,0.5501165986061096,3.827316045761109,42.42329506409234,42.98849252020146,169.96950591993564,155.93490511595144,9.713172767078504e-05,0.0939245000481605,0,0,0
14203,509700.61562288366,2010-12-05 08:09:38,690.3299156689916,2,47,0.5499359965324402,3.8307156562805176,42.42788189304368,42.98849252020146,169.98706916075673,155.93490511595144,3.237724376958795e-05,0.0939245000481605,0,0,0
14204,509730.630601288,2010-12-05 08:10:08,720.3448940733285,2,47,0.5501165986061096,3.8346006870269775,42.43246873286698,42.98849252020146,170.00464874277665,155.93490511595144,0.0001295089750783,0.0939245000481605,0,0,0
14205,509760.64568736026,2010-12-05 08:10:38,750.3599801706554,2,47,0.550297200679779,3.8380002975463863,42.43705563562614,42.98849252020146,170.02224507660782,155.93490511595144,9.713172767078504e-05,0.0939245000481605,0,0,0
14206,509790.6607719439,2010-12-05 08:11:08,780.375064729153,2,47,0.550297200679779,3.841723680496216,42.441642497062496,42.98849252020146,170.03985786243345,155.93490511595144,9.713172767078504e-05,0.0939245000481605,0,0,0
14207,509820.67596492206,2010-12-05 08:11:38,810.3902578076984,2,47,0.550297200679779,3.845447063446045,42.44622934256592,42.98849252020146,170.05748717248807,155.93490511595144,0.0001295089750783,0.0939245000481605,0,0,0
14208,509850.690976093,2010-12-05 08:12:08,840.4052688783241,2,47,0.5499359965324402,3.848684787750244,42.45081617387887,42.98849252020146,170.07513295091218,155.93490511595144,6.47544875391759e-05,0.0939245000481605,0,0,0
14209,509880.70606210514,2010-12-05 08:12:38,870.4203549856759,2,47,0.5501165986061096,3.8522462844848633,42.45540304084533,42.98849252020146,170.09279525114354,155.93490511595144,6.47544875391759e-05,0.0939245000481605,0,0,0
14210,509910.72116179625,2010-12-05 08:13:08,900.4354545815935,2,47,0.5501165986061096,3.8558077812194815,42.4599898952672,42.98849252020146,170.11047361462357,155.93490511595144,6.47544875391759e-05,0.0939245000481605,0,0,0
14211,509940.73628870014,2010-12-05 08:13:38,930.4505814854656,2,47,0.550297200679779,3.8593692779541016,42.46457675893808,42.98849252020146,170.12816788124093,155.93490511595144,0.0001295089750783,0.0939245000481605,0,0,0
14212,509970.75136383023,2010-12-05 08:14:08,960.465656615501,2,47,0.5501165986061096,3.862607002258301,42.46916361052256,42.98849252020146,170.14587761329255,155.93490511595144,9.713172767078504e-05,0.0939245000481605,0,0,0
14213,510000.76645873947,2010-12-05 08:14:38,990.4807516300176,2,47,0.5501165986061096,3.86568284034729,42.47375045443307,42.98849252020146,170.16360219585252,155.93490511595144,6.47544875391759e-05,0.0939245000481605,0,0,0
14214,510030.78156754834,2010-12-05 08:15:08,1020.4958603586616,2,47,0.550297200679779,3.868920564651489,42.47833730619202,42.98849252020146,170.18134135849044,155.93490511595144,6.47544875391759e-05,0.0939245000481605,0,0,0
14215,510060.7966516106,2010-12-05 08:15:38,1050.510944395862,2,47,0.550297200679779,3.8719964027404794,42.48292415014112,42.98849252020146,170.19909446023726,155.93490511595144,9.713172767078504e-05,0.0939245000481605,0,0,0
14216,510090.81179400295,2010-12-05 08:16:08,1080.526086883514,2,47,0.550297200679779,3.874910354614258,42.48751105377068,42.98849252020146,170.21686119083597,155.93490511595144,9.713172767078504e-05,0.0939245000481605,0,0,0
14217,510120.8268534139,2010-12-05 08:16:38,1110.5411462944328,2,47,0.5501165986061096,3.877500534057617,42.49209797854172,42.98849252020146,170.23464078934518,155.93490511595144,6.47544875391759e-05,0.0939245000481605,0,0,0
14218,510150.8419501627,2010-12-05 08:17:08,1140.5562429480285,2,47,0.5501165986061096,3.879928827285767,42.49668483557204,42.98849252020146,170.25243224163492,155.93490511595144,3.237724376958795e-05,0.0939245000481605,0,0,0
14219,510180.8570405909,2010-12-05 08:17:38,1170.571333376132,2,47,0.5501165986061096,3.882519006729126,42.50127165062075,42.98849252020146,170.27023491722778,155.93490511595144,6.47544875391759e-05,0.0939245000481605,0,0,0
14220,510210.8721681363,2010-12-05 08:18:08,1200.5864609867633,2,47,0.5501165986061096,3.884623527526856,42.50585851530901,42.98849252020146,170.2880485735527,155.93490511595144,3.237724376958795e-05,0.0939245000481605,0,0,0
14221,510240.8890905332,2010-12-05 08:18:38,1230.603383438788,2,47,0.5501165986061096,3.886889934539795,42.51044566703101,42.98849252020146,170.30587336964464,155.93490511595144,3.237724376958795e-05,0.0939245000481605,0,0,0
14222,510270.9023541353,2010-12-05 08:19:08,1260.6166469206062,2,47,0.5501165986061096,3.8888325691223145,42.51503220201772,42.98849252020146,170.32370519786676,155.93490511595144,6.47544875391759e-05,0.0939245000481605,0,0,0
14223,510300.91744509473,2010-12-05 08:19:38,1290.6317378800322,2,47,0.550297200679779,3.890937089920044,42.51961910454302,42.98849252020146,170.34154746250528,155.93490511595144,9.713172767078504e-05,0.0939245000481605,0,0,0
14224,510330.9328965011,2010-12-05 08:20:08,1320.647189311479,2,47,0.5501165986061096,3.892555952072144,42.52420597171223,42.98849252020146,170.3593981320335,155.93490511595144,6.47544875391759e-05,0.0939245000481605,0,0,0
14225,510360.9476481461,2010-12-05 08:20:38,1350.6619409314717,2,47,0.5501165986061096,3.894336700439453,42.52879281592531,42.98849252020146,170.37725693554685,155.93490511595144,9.713172767078504e-05,0.0939245000481605,0,0,0
14226,510390.9627391156,2010-12-05 08:21:08,1380.6770319009229,2,47,0.550297200679779,3.8961174488067623,42.53337980808245,42.98849252020146,170.3951238377146,155.93490511595144,0.0001295089750783,0.0939245000481605,0,0,0
14227,510420.97784062126,2010-12-05 08:21:38,1410.6921334065926,2,47,0.5501165986061096,3.897574424743652,42.53796671930407,42.98849252020146,170.41299807997396,155.93490511595144,3.237724376958795e-05,0.0939245000481605,0,0,0
14228,510450.99297183583,2010-12-05 08:22:08,1440.7072646462543,2,47,0.550297200679779,3.899355173110962,42.54255361102208,42.98849252020146,170.43087970082635,155.93490511595144,3.237724376958795e-05,0.0939245000481605,0,0,0
14229,510481.0080393069,2010-12-05 08:22:38,1470.7223320921678,2,47,0.5501165986061096,3.900812149047852,42.54714054079704,42.98849252020146,170.44876876467524,155.93490511595144,3.237724376958795e-05,0.0939245000481605,0,0,0
14230,510511.0231324468,2010-12-05 08:23:08,1500.7374252320196,2,47,0.5501165986061096,3.902269124984741,42.551727415732266,42.98849252020146,170.46666481199102,155.93490511595144,0.0,0.0939245000481605,0,0,0
14231,510541.0382301229,2010-12-05 08:23:38,1530.75252290816,2,47,0.5501165986061096,3.903887987136841,42.55631425380096,42.98849252020146,170.48456785989077,155.93490511595144,6.47544875391759e-05,0.0939245000481605,0,0,0
14232,510571.05335019977,2010-12-05 08:24:08,1560.767642990056,2,47,0.5501165986061096,3.9053449630737305,42.560901142804525,42.98849252020146,170.50247814216684,155.93490511595144,3.237724376958795e-05,0.0939245000481605,0,0,0
14233,510601.06856600987,2010-12-05 08:24:38,1590.7828588753553,2,47,0.5499359965324402,3.90680193901062,42.56548803432823,42.98849252020146,170.52039539383853,155.93490511595144,0.0,0.0939245000481605,0,0,0
14234,510631.0835287703,2010-12-05 08:25:08,1620.7978215605756,2,47,0.5501165986061096,3.9085826873779297,42.57007491774436,42.98849252020146,170.53831961685438,155.93490511595144,3.237724376958795e-05,0.0939245000481605,0,0,0
14235,510661.0986209778,2010-12-05 08:25:38,1650.8129137881574,2,47,0.5501165986061096,3.90987777709961,42.5746617250261,42.98849252020146,170.55625049614,155.93490511595144,0.0,0.0939245000481605,0,0,0
14236,510691.1137370346,2010-12-05 08:26:08,1680.8280298199752,2,47,0.550297200679779,3.911658525466919,42.57924857471155,42.98849252020146,170.57418844934435,155.93490511595144,6.47544875391759e-05,0.0939245000481605,0,0,0
14237,510721.129112041,2010-12-05 08:26:38,1710.8434048362656,2,47,0.550297200679779,3.9131155014038086,42.58383546539284,42.98849252020146,170.59213354257923,155.93490511595144,6.47544875391759e-05,0.0939245000481605,0,0,0
14238,510751.1440684756,2010-12-05 08:27:08,1740.8583613260691,2,47,0.550297200679779,3.914572238922119,42.58842233715546,42.98849252020146,170.61008551983474,155.93490511595144,6.47544875391759e-05,0.0939245000481605,0,0,0
14239,510781.1590471557,2010-12-05 08:27:38,1770.8733399509547,2,47,0.5501165986061096,3.916029214859009,42.59300922402189,42.98849252020146,170.6280444840771,155.93490511595144,6.47544875391759e-05,0.0939245000481605,0,0,0
14240,510811.174150155,2010-12-05 08:28:08,1800.888442940317,2,47,0.550297200679779,3.917648077011109,42.59759609994251,42.98849252020146,170.64601040204423,155.93490511595144,6.47544875391759e-05,0.0939245000481605,0,0,0
14241,510841.191074602,2010-12-05 08:28:38,1830.9053674624936,2,47,0.5501165986061096,3.918943166732788,42.60218323376436,42.98849252020146,170.66398434546807,155.93490511595144,0.0,0.0939245000481605,0,0,0
14242,510871.20438580256,2010-12-05 08:29:08,1860.9186787031576,2,47,0.5501165986061096,3.920562028884888,42.60676984677652,42.98849252020146,170.68196336070716,155.93490511595144,-3.237724376958795e-05,0.0939245000481605,0,0,0
14243,510901.2194357499,2010-12-05 08:29:38,1890.933728540252,2,47,0.5499359965324402,3.9221808910369873,42.61135666806598,42.98849252020146,170.69995013572432,155.93490511595144,3.237724376958795e-05,0.0939245000481605,0,0,0
14244,510931.234565967,2010-12-05 08:30:08,1920.9488588475936,2,47,0.5501165986061096,3.923637866973877,42.615943491184304,42.98849252020146,170.7179441004156,155.93490511595144,3.237724376958795e-05,0.0939245000481605,0,0,0
14245,510961.2496050073,2010-12-05 08:30:38,1950.9638977975965,2,47,0.550297200679779,3.9254186153411865,42.62053033588212,42.98849252020146,170.7359453274044,155.93490511595144,3.237724376958795e-05,0.0939245000481605,0,0,0
14246,510991.2647299613,2010-12-05 08:31:08,1980.9790228117663,2,47,0.5501165986061096,3.926875591278076,42.62511716319106,42.98849252020146,170.75395348229074,155.93490511595144,3.237724376958795e-05,0.0939245000481605,0,0,0
14247,511021.2798026703,2010-12-05 08:31:38,2010.9940954556143,2,47,0.5501165986061096,3.928332567214966,42.62970392384614,42.98849252020146,170.77196855475438,155.93490511595144,6.47544875391759e-05,0.0939245000481605,0,0,0
14248,511051.2949128976,2010-12-05 08:32:08,2041.009205682988,2,47,0.5501165986061096,3.9299514293670654,42.63429075523991,42.98849252020146,170.7899910886162,155.93490511595144,3.237724376958795e-05,0.0939245000481605,0,0,0
14249,511081.3100236564,2010-12-05 08:32:38,2071.0243164667463,2,47,0.5501165986061096,3.931732177734375,42.638877700955696,42.98849252020146,170.8080213629877,155.93490511595144,9.713172767078504e-05,0.0939245000481605,0,0,0
14250,511111.3251272421,2010-12-05 08:33:08,2101.039420042568,2,47,0.5501165986061096,3.9331891536712646,42.64346465632527,42.98849252020146,170.82605891803033,155.93490511595144,3.237724376958795e-05,0.0939245000481605,0,0,0
14251,511141.3402038359,2010-12-05 08:33:38,2131.054496621208,2,47,0.5501165986061096,3.934808015823364,42.6480515454138,42.98849252020146,170.8441035200874,155.93490511595144,3.237724376958795e-05,0.0939245000481605,0,0,0
14252,511171.3553079179,2010-12-05 08:34:08,2161.0696007032884,2,47,0.5501165986061096,3.936264991760254,42.65263847876511,42.98849252020146,170.86215566391127,155.93490511595144,6.47544875391759e-05,0.0939245000481605,0,0,0
14253,511201.3703979701,2010-12-05 08:34:38,2191.084690755457,2,47,0.550297200679779,3.938045740127564,42.65722543905899,42.98849252020146,170.8802151736678,155.93490511595144,6.47544875391759e-05,0.0939245000481605,0,0,0
14254,511231.38551521,2010-12-05 08:35:08,2221.099808005305,2,47,0.5499359965324402,3.939502716064453,42.66181243526926,42.98849252020146,170.89828228927078,155.93490511595144,0.0,0.0939245000481605,0,0,0
14255,511261.40060810925,2010-12-05 08:35:38,2251.1149009847586,2,47,0.5501165986061096,3.9411215782165527,42.666399287719706,42.98849252020146,170.9163563021043,155.93490511595144,0.0,0.0939245000481605,0,0,0
14256,511291.418138469,2010-12-05 08:36:08,2281.1324323319955,2,47,0.5501165986061096,3.942740440368652,42.67098667034794,42.98849252020146,170.934439810095,155.93490511595144,3.237724376958795e-05,0.0939245000481605,0,0,0
14257,511321.4307786147,2010-12-05 08:36:38,2311.1450714250464,2,47,0.550297200679779,3.944521188735962,42.67557328899823,42.98849252020146,170.9525278486661,155.93490511595144,6.47544875391759e-05,0.0939245000481605,0,0,0
14258,511351.44588150375,2010-12-05 08:37:08,2341.160174289096,2,47,0.5501165986061096,3.9461400508880615,42.68016029793534,42.98849252020146,170.97062504274496,155.93490511595144,6.47544875391759e-05,0.0939245000481605,0,0,0
14259,511381.4610577104,2010-12-05 08:37:38,2371.175350595906,2,47,0.5501165986061096,3.947758913040161,42.684747278685386,42.98849252020146,170.98872961148476,155.93490511595144,6.47544875391759e-05,0.0939245000481605,0,0,0
14260,511411.476092886,2010-12-05 08:38:08,2401.190385676279,2,47,0.5501165986061096,3.9493777751922607,42.689334137814086,42.98849252020146,171.0068413487554,155.93490511595144,3.237724376958795e-05,0.0939245000481605,0,0,0
14261,511441.4929236849,2010-12-05 08:38:38,2431.2072165454038,2,47,0.5501165986061096,3.95099663734436,42.69392127436223,42.98849252020146,171.02496184596745,155.93490511595144,0.0,0.0939245000481605,0,0,0
14262,511471.50627567695,2010-12-05 08:39:08,2461.220568462289,2,47,0.5501165986061096,3.95293927192688,42.698507922152125,42.98849252020146,171.04308809280857,155.93490511595144,9.713172767078504e-05,0.0939245000481605,0,0,0
14263,511501.5215248451,2010-12-05 08:39:38,2491.2358176604857,2,47,0.5499359965324402,3.95423436164856,42.70309485533276,42.98849252020146,171.06122325420233,155.93490511595144,0.0,0.0939245000481605,0,0,0
14264,511531.53647728486,2010-12-05 08:40:09,2521.2507700801607,2,47,0.5499359965324402,3.956015110015869,42.70768171146995,42.98849252020146,171.07936588890942,155.93490511595144,0.0,0.0939245000481605,0,0,0
14265,511561.5538990895,2010-12-05 08:40:39,2551.268191965006,2,47,0.5501165986061096,3.9579577445983887,42.71226900390924,42.98849252020146,171.09751805106964,155.93490511595144,3.237724376958795e-05,0.0939245000481605,0,0,0
14266,511591.5666736446,2010-12-05 08:41:09,2581.280966429924,2,47,0.5501165986061096,3.959576606750488,42.716855603223735,42.98849252020146,171.1156754517735,155.93490511595144,0.0,0.0939245000481605,0,0,0
14267,511621.5817746591,2010-12-05 08:41:39,2611.296067449384,2,47,0.5501165986061096,3.961357355117798,42.72144257272584,42.98849252020146,171.13384226234658,155.93490511595144,3.237724376958795e-05,0.0939245000481605,0,0,0
14268,511651.59687428,2010-12-05 08:42:09,2641.311167065351,2,47,0.550297200679779,3.963299989700317,42.72602954432198,42.98849252020146,171.15201715449564,155.93490511595144,6.47544875391759e-05,0.0939245000481605,0,0,0
14269,511681.61198133446,2010-12-05 08:42:39,2671.3262741248413,2,47,0.5499359965324402,3.964756965637207,42.730616434031255,42.98849252020146,171.1701998379461,155.93490511595144,3.237724376958795e-05,0.0939245000481605,0,0,0
14270,511711.6270826497,2010-12-05 08:43:09,2701.341375470112,2,47,0.5501165986061096,3.966699600219727,42.735203432145866,42.98849252020146,171.18839115810914,155.93490511595144,6.47544875391759e-05,0.0939245000481605,0,0,0
14271,511741.6422831016,2010-12-05 08:43:39,2731.3565758969435,2,47,0.5501165986061096,3.968480348587036,42.73979040367632,42.98849252020146,171.20659051055057,155.93490511595144,3.237724376958795e-05,0.0939245000481605,0,0,0
14272,511771.6572639971,2010-12-05 08:44:09,2761.371556787467,2,47,0.550297200679779,3.9702610969543457,42.74437727894817,42.98849252020146,171.22479779380168,155.93490511595144,3.237724376958795e-05,0.0939245000481605,0,0,0
14273,511801.6724816318,2010-12-05 08:44:39,2791.3867745674816,2,47,0.5501165986061096,3.972203731536865,42.748964233160784,42.98849252020146,171.2430137451609,155.93490511595144,3.237724376958795e-05,0.0939245000481605,0,0,0
14274,511831.68745164527,2010-12-05 08:45:09,2821.401744430564,2,47,0.550297200679779,3.973984479904175,42.75355116926502,42.98849252020146,171.26123807190947,155.93490511595144,6.47544875391759e-05,0.0939245000481605,0,0,0
14275,511861.702676954,2010-12-05 08:45:39,2851.416969749338,2,47,0.5501165986061096,3.9759271144866943,42.75813818738919,42.98849252020146,171.27947131442906,155.93490511595144,6.47544875391759e-05,0.0939245000481605,0,0,0
14276,511891.7176519599,2010-12-05 08:46:09,2881.4319447451926,2,47,0.5501165986061096,3.977707862854004,42.76272512195085,42.98849252020146,171.2977128333415,155.93490511595144,3.237724376958795e-05,0.0939245000481605,0,0,0
14277,511921.7327635757,2010-12-05 08:46:39,2911.4470563910963,2,47,0.5499359965324402,3.979650497436523,42.76731206359072,42.98849252020146,171.3159627277138,155.93490511595144,3.237724376958795e-05,0.0939245000481605,0,0,0
14278,511951.7479656115,2010-12-05 08:47:09,2941.462258396857,2,47,0.5501165986061096,3.981593132019043,42.77189897107898,42.98849252020146,171.3342216729516,155.93490511595144,3.237724376958795e-05,0.0939245000481605,0,0,0
14279,511981.7629394946,2010-12-05 08:47:39,2971.4772322799427,2,47,0.550297200679779,3.983697652816773,42.77648589832846,42.98849252020146,171.35248958057898,155.93490511595144,9.713172767078504e-05,0.0939245000481605,0,0,0
14280,512011.7780496669,2010-12-05 08:48:09,3001.492342472229,2,47,0.5499359965324402,3.985640287399292,42.78107206810587,42.98849252020146,171.370763289219,155.93490511595144,6.47544875391759e-05,0.0939245000481605,0,0,0
14281,512041.79489811976,2010-12-05 08:48:39,3031.5091909952844,2,47,0.5501165986061096,3.9877448081970215,42.78565833258703,42.98849252020146,171.3890464916245,155.93490511595144,9.713172767078504e-05,0.0939245000481605,0,0,0
14282,512071.8082484978,2010-12-05 08:49:09,3061.5225412881287,2,47,0.5501165986061096,3.989525556564331,42.790244067647485,42.98849252020146,171.40733671128402,155.93490511595144,3.237724376958795e-05,0.0939245000481605,0,0,0
14283,512101.8233525799,2010-12-05 08:49:39,3091.5376453902595,2,47,0.5499359965324402,3.991630077362061,42.7948300707392,42.98849252020146,171.42563736327023,155.93490511595144,9.713172767078504e-05,0.0939245000481605,0,0,0
14284,512131.8385332074,2010-12-05 08:50:09,3121.5528261331083,2,47,0.550297200679779,3.99373459815979,42.7994167847836,42.98849252020146,171.4439503885343,155.93490511595144,9.713172767078504e-05,0.0939245000481605,0,0,0
14285,512161.8535365389,2010-12-05 08:50:39,3151.567829324126,2,47,0.550297200679779,3.995838880538941,42.80400372630767,42.98849252020146,171.46227391749042,155.93490511595144,6.47544875391759e-05,0.0939245000481605,0,0,0
14286,512191.8686321799,2010-12-05 08:51:09,3181.582924965202,2,47,0.5501165986061096,3.99778151512146,42.80859061701353,42.98849252020146,171.48060687634208,155.93490511595144,3.237724376958795e-05,0.0939245000481605,0,0,0
14287,512221.88373656775,2010-12-05 08:51:39,3211.598029353044,2,47,0.5501165986061096,4.0000481605529785,42.81317750771424,42.98849252020146,171.49894945649714,155.93490511595144,6.480216688942164e-05,0.0939245000481605,0,0,0
14288,512251.8993216969,2010-12-05 08:52:09,3241.613614562392,2,47,0.5501165986061096,4.002314567565918,42.81776439903286,42.98849252020146,171.51730190051148,155.93490511595144,6.47544875391759e-05,0.0939245000481605,0,0,0
14289,512281.9139366268,2010-12-05 08:52:39,3271.628229412037,2,47,0.5501165986061096,4.004418849945068,42.822351172925565,42.98849252020146,171.5356638102451,155.93490511595144,6.47544875391759e-05,0.0939245000481605,0,0,0
14290,512311.92902726034,2010-12-05 08:53:09,3301.643320050665,2,47,0.5501165986061096,4.006523609161377,42.82693797964597,42.98849252020146,171.5540359059902,155.93490511595144,6.47544875391759e-05,0.0939245000481605,0,0,0
14291,512341.94414505153,2010-12-05 08:53:39,3331.65843784186,2,47,0.550297200679779,4.008790016174316,42.831524857815175,42.98849252020146,171.5724184892563,155.93490511595144,3.24249267578125e-05,0.0939245000481605,0,0,0
14292,512371.9592446776,2010-12-05 08:54:09,3361.67353746284,2,47,0.550297200679779,4.011218070983887,42.8361117335222,42.98849252020146,171.59081123302184,155.93490511595144,9.70840483205393e-05,0.0939245000481605,0,0,0
14293,512401.9743204392,2010-12-05 08:54:39,3391.6886132244467,2,47,0.5501165986061096,4.013322830200195,42.84069859515231,42.98849252020146,171.60921432430214,155.93490511595144,3.24249267578125e-05,0.0939245000481605,0,0,0
14294,512431.9894222406,2010-12-05 08:55:09,3421.703715025853,2,47,0.5501165986061096,4.015589237213135,42.84528545619997,42.98849252020146,171.62762791478053,155.93490511595144,6.47544875391759e-05,0.0939245000481605,0,0,0
14295,512462.0046515242,2010-12-05 08:55:39,3451.7189443145057,2,47,0.5499359965324402,4.017855644226074,42.84987231881933,42.98849252020146,171.64605205677552,155.93490511595144,6.47544875391759e-05,0.0939245000481605,0,0,0
14296,512492.01977773634,2010-12-05 08:56:09,3481.7340705968318,2,47,0.5501165986061096,4.020122051239014,42.854459176429415,42.98849252020146,171.66448681630405,155.93490511595144,3.24249267578125e-05,0.0939245000481605,0,0,0
14297,512522.03484874615,2010-12-05 08:56:39,3511.749141541451,2,47,0.5501165986061096,4.022388458251953,42.85904602776554,42.98849252020146,171.68293239453268,155.93490511595144,0.0,0.0939245000481605,0,0,0
14298,512552.04984245857,2010-12-05 08:57:09,3541.7641352739315,2,47,0.550297200679779,4.025140285491943,42.86363283629244,42.98849252020146,171.70138871891604,155.93490511595144,6.47544875391759e-05,0.0939245000481605,0,0,0
14299,512582.0649184307,2010-12-05 08:57:39,3571.7792112159877,2,47,0.550297200679779,4.027568817138672,42.86821961854239,42.98849252020146,171.71985597205764,155.93490511595144,0.0001295089750783,0.0939245000481605,0,0,0
14300,512612.0800239313,2010-12-05 08:58:09,3601.7943167216117,2,47,0.5501165986061096,4.029835224151611,42.87280647491168,42.98849252020146,171.73833461154825,155.93490511595144,9.71794142969884e-05,0.0939245000481605,0,0,0
14301,512642.097250816,2010-12-05 08:58:39,3631.8115436663534,2,47,0.5499359965324402,4.032101631164551,42.87739358998459,42.98849252020146,171.75682542994065,155.93490511595144,6.47544875391759e-05,0.0939245000481605,0,0,0
14302,512672.11024274194,2010-12-05 08:59:09,3661.8245355272543,2,47,0.5501165986061096,4.034691333770752,42.8819800961245,42.98849252020146,171.77532512619194,155.93490511595144,6.47544875391759e-05,0.0939245000481605,0,0,0
14303,512702.12531061895,2010-12-05 08:59:39,3691.839603409253,2,47,0.550297200679779,4.037281513214111,42.88656688920244,42.98849252020146,171.7938373555815,155.93490511595144,6.47544875391759e-05,0.0939245000481605,0,0,0
14304,512732.14042294153,2010-12-05 09:00:09,3721.854715726827,2,47,0.5501165986061096,4.03971004486084,42.89115374949175,42.98849252020146,171.81236136793302,155.93490511595144,6.47544875391759e-05,0.0939245000481605,0,0,0
14305,512762.15553502354,2010-12-05 09:00:39,3751.8698278188417,2,47,0.5501165986061096,4.042300224304199,42.89574056170889,42.98849252020146,171.8308967401361,155.93490511595144,9.71794142969884e-05,0.0939245000481605,0,0,0
14306,512792.17060516606,2010-12-05 09:01:09,3781.884897951441,2,47,0.5499359965324402,4.044890403747559,42.900327418624805,42.98849252020146,171.84944410211887,155.93490511595144,9.71794142969884e-05,0.0939245000481605,0,0,0
14307,512822.18570782966,2010-12-05 09:01:39,3811.900000614992,2,47,0.5501165986061096,4.047480583190918,42.904914204759855,42.98849252020146,171.86800297537624,155.93490511595144,6.47544875391759e-05,0.0939245000481605,0,0,0
14308,512852.2008343826,2010-12-05 09:02:09,3841.915127263228,2,47,0.5499359965324402,4.050070762634277,42.90950101647094,42.98849252020146,171.8865739518441,155.93490511595144,6.47544875391759e-05,0.0939245000481605,0,0,0
14309,512882.215921703,2010-12-05 09:02:39,3871.930214493374,2,47,0.5501165986061096,4.052822589874268,42.91408781531101,42.98849252020146,171.9051568720087,155.93490511595144,6.47544875391759e-05,0.0939245000481605,0,0,0
14310,512912.2310106224,2010-12-05 09:03:09,3901.945303407711,2,47,0.5499359965324402,4.055251121520996,42.9186746133641,42.98849252020146,171.92375198645075,155.93490511595144,6.47544875391759e-05,0.0939245000481605,0,0,0
14311,512942.2461066444,2010-12-05 09:03:39,3931.960399429736,2,47,0.5501165986061096,4.058002948760986,42.923261432047454,42.98849252020146,171.94235941542902,155.93490511595144,6.47544875391759e-05,0.0939245000481605,0,0,0
14312,512972.2612409467,2010-12-05 09:04:09,3961.9755337420434,2,47,0.5501165986061096,4.060593128204346,42.92784833305629,42.98849252020146,171.96097955251565,155.93490511595144,3.23295607813634e-05,0.0939245000481605,0,0,0
14313,513002.2762991045,2010-12-05 09:04:39,3991.990591889818,2,47,0.5501165986061096,4.063345432281494,42.93243519233394,42.98849252020146,171.97961155733577,155.93490511595144,6.47544875391759e-05,0.0939245000481605,0,0,0
14314,513032.2914038282,2010-12-05 09:05:09,4022.005696613496,2,47,0.5501165986061096,4.066259384155273,42.93702204221885,42.98849252020146,171.99825625465894,155.93490511595144,9.71794142969884e-05,0.0939245000481605,0,0,0
14315,513062.3065019003,2010-12-05 09:05:39,4052.0207946906335,2,47,0.5501165986061096,4.069011211395264,42.9416088635218,42.98849252020146,172.0169135906165,155.93490511595144,9.70840483205393e-05,0.0939245000481605,0,0,0
14316,513092.3216283881,2010-12-05 09:06:09,4082.0359211784703,2,47,0.5501165986061096,4.071763515472412,42.94619569968818,42.98849252020146,172.0355838743396,155.93490511595144,6.47544875391759e-05,0.0939245000481605,0,0,0
14317,513122.3367117086,2010-12-05 09:06:39,4112.051004518938,2,47,0.5501165986061096,4.074515342712402,42.95078245353909,42.98849252020146,172.05426673173966,155.93490511595144,3.23295607813634e-05,0.0939245000481605,0,0,0
14318,513152.3520814217,2010-12-05 09:07:09,4142.066374307218,2,47,0.5501165986061096,4.077429294586182,42.95536926718835,42.98849252020146,172.0729629537952,155.93490511595144,6.47544875391759e-05,0.0939245000481605,0,0,0
14319,513182.3670597408,2010-12-05 09:07:39,4172.081352526094,2,47,0.5501165986061096,4.08050537109375,42.95995605503276,42.98849252020146,172.0916722769464,155.93490511595144,9.71794142969884e-05,0.0939245000481605,0,0,0
14320,513212.38434298063,2010-12-05 09:08:09,4202.098635881212,2,47,0.550297200679779,4.083419322967529,42.96454320904065,42.98849252020146,172.11039632259673,155.93490511595144,9.71794142969884e-05,0.0939245000481605,0,0,0
14321,513242.3988715606,2010-12-05 09:08:39,4232.1131643559165,2,47,0.550297200679779,4.086333274841309,42.96912996061265,42.98849252020146,172.1291321575767,155.93490511595144,9.71794142969884e-05,0.0939245000481605,0,0,0
14322,513272.41221225454,2010-12-05 09:09:09,4262.12650503985,2,47,0.5501165986061096,4.089085102081299,42.9737164894589,42.98849252020146,172.14788058263068,155.93490511595144,6.47544875391759e-05,0.0939245000481605,0,0,0
14323,513302.427621105,2010-12-05 09:09:39,4292.141914000609,2,47,0.5501165986061096,4.092161178588867,42.97830339384288,42.98849252020146,172.16664417184725,155.93490511595144,6.47544875391759e-05,0.0939245000481605,0,0,0
14324,513332.44241273456,2010-12-05 09:10:09,4322.156705615126,2,47,0.550297200679779,4.095236778259277,42.98289012246947,42.98849252020146,172.18542076436935,155.93490511595144,9.70840483205393e-05,0.0939245000481605,0,0,0
14325,513362.4574893583,2010-12-05 09:10:39,4352.171782143642,2,47,0.550297200679779,4.098312854766846,42.98747701527874,42.98849252020146,172.2042119280948,155.93490511595144,0.0001295089750783,0.0939245000481605,0,0,0
14326,513392.4726124527,2010-12-05 09:11:09,4382.18690524806,2,47,0.550297200679779,4.101388454437256,42.99206387191073,42.98849252020146,172.22301694607714,155.93490511595144,9.70840483205393e-05,0.0939245000481605,0,0,0
14327,513422.4876842795,2010-12-05 09:11:39,4412.201977064849,2,47,0.5501165986061096,4.104302406311035,42.99665073964502,42.98849252020146,172.24183600484304,155.93490511595144,6.47544875391759e-05,0.0939245000481605,0,0,0
14328,513452.50280694285,2010-12-05 09:12:10,4442.21709972817,2,47,0.550297200679779,4.107540130615234,43.00123753122315,42.98849252020146,172.26066895532213,155.93490511595144,9.70840483205393e-05,0.0939245000481605,0,0,0
14329,513482.5201819812,2010-12-05 09:12:40,4472.234474856663,2,47,0.550297200679779,4.110616207122803,43.00582476756701,42.98849252020146,172.27951801682914,155.93490511595144,9.71794142969884e-05,0.0939245000481605,0,0,0
14330,513512.533119181,2010-12-05 09:13:10,4502.247412031478,2,47,0.5501165986061096,4.113691806793213,43.01041126282736,42.98849252020146,172.298378349124,155.93490511595144,9.70840483205393e-05,0.0939245000481605,0,0,0
14331,513542.54808415193,2010-12-05 09:13:40,4532.262376937225,2,47,0.5501165986061096,4.116929531097412,43.01499809045479,42.98849252020146,172.3172545704095,155.93490511595144,9.71794142969884e-05,0.0939245000481605,0,0,0
14332,513572.5632029456,2010-12-05 09:14:10,4562.277495730915,2,47,0.5504778623580933,4.120167255401611,43.01958496658144,42.98849252020146,172.33614572286822,155.93490511595144,6.47544875391759e-05,0.0939245000481605,0,0,0
14333,513602.5783035541,2010-12-05 09:14:40,4592.292596339353,2,47,0.5501165986061096,4.1234049797058105,43.0241718292344,42.98849252020146,172.35505158321084,155.93490511595144,9.71794142969884e-05,0.0939245000481605,0,0,0
14334,513632.59337993216,2010-12-05 09:15:10,4622.307672717493,2,47,0.550297200679779,4.126804351806641,43.028758714459165,42.98849252020146,172.37397247251684,155.93490511595144,9.70840483205393e-05,0.0939245000481605,0,0,0
14335,513662.6084987309,2010-12-05 09:15:40,4652.322791516196,2,47,0.5501165986061096,4.129880428314209,43.03334558003993,42.98849252020146,172.39290827710246,155.93490511595144,6.47544875391759e-05,0.0939245000481605,0,0,0
14336,513692.6235854248,2010-12-05 09:16:10,4682.337878210007,2,47,0.5501165986061096,4.133279800415039,43.03793284475746,42.98849252020146,172.41186088605227,155.93490511595144,9.70840483205393e-05,0.0939245000481605,0,0,0
14337,513722.6387200228,2010-12-05 09:16:40,4712.353012903262,2,47,0.550297200679779,4.136517524719238,43.042520360996186,42.98849252020146,172.43082969365744,155.93490511595144,9.70840483205393e-05,0.0939245000481605,0,0,0
14338,513752.65376929846,2010-12-05 09:17:10,4742.368062088736,2,47,0.550297200679779,4.139917373657227,43.04710786587785,42.98849252020146,172.449813840175,155.93490511595144,9.71794142969884e-05,0.0939245000481605,0,0,0
14339,513782.6688875007,2010-12-05 09:17:40,4772.383180290955,2,47,0.550297200679779,4.142992973327637,43.051695406389086,42.98849252020146,172.4688135775497,155.93490511595144,3.23295607813634e-05,0.0939245000481605,0,0,0
14340,513812.6839967656,2010-12-05 09:18:10,4802.398289555933,2,47,0.5501165986061096,4.146554470062256,43.056282431411965,42.98849252020146,172.48782681865652,155.93490511595144,6.47544875391759e-05,0.0939245000481605,0,0,0
14341,513842.7009025462,2010-12-05 09:18:40,4832.415195436722,2,47,0.5501165986061096,4.150278091430664,43.06086951744602,42.98849252020146,172.50685612699863,155.93490511595144,0.0001295089750783,0.0939245000481605,0,0,0
14342,513872.71417211805,2010-12-05 09:19:10,4862.4284649034325,2,47,0.5501165986061096,4.153515815734863,43.06545609913463,42.98849252020146,172.52589913426914,155.93490511595144,6.47544875391759e-05,0.0939245000481605,0,0,0
14343,513902.7292657191,2010-12-05 09:19:40,4892.443558534506,2,47,0.550297200679779,4.157077312469482,43.07004282965312,42.98849252020146,172.54495850501138,155.93490511595144,9.71794142969884e-05,0.0939245000481605,0,0,0
14344,513932.744482261,2010-12-05 09:20:10,4922.458775046365,2,47,0.5501165986061096,4.160638809204102,43.07462955996624,42.98849252020146,172.56403385589712,155.93490511595144,9.71794142969884e-05,0.0939245000481605,0,0,0
14345,513962.75944130216,2010-12-05 09:20:40,4952.473734087517,2,47,0.5499359965324402,4.164038181304932,43.07921625495288,42.98849252020146,172.5831251278461,155.93490511595144,9.70840483205393e-05,0.0939245000481605,0,0,0
14346,513992.7745869326,2010-12-05 09:21:10,4982.488879803203,2,47,0.5501165986061096,4.16776180267334,43.08380293977646,42.98849252020146,172.60223242472856,155.93490511595144,0.0001295089750783,0.0939245000481605,0,0,0
14347,514022.7897085785,2010-12-05 09:21:40,5012.504001363778,2,47,0.5501165986061096,4.17116117477417,43.08838963578129,42.98849252020146,172.62135612323388,155.93490511595144,9.70840483205393e-05,0.0939245000481605,0,0,0
14348,514052.8047902698,2010-12-05 09:22:10,5042.519083075191,2,47,0.550297200679779,4.174722671508789,43.09297637097005,42.98849252020146,172.6404963835055,155.93490511595144,9.70840483205393e-05,0.0939245000481605,0,0,0
14349,514082.8198739311,2010-12-05 09:22:40,5072.534166736456,2,47,0.550297200679779,4.178446292877197,43.0975631518389,42.98849252020146,172.65965331874438,155.93490511595144,9.71794142969884e-05,0.0939245000481605,0,0,0
14350,514112.8351019666,2010-12-05 09:23:10,5102.549394771991,2,47,0.5501165986061096,4.182007789611816,43.1021499824152,42.98849252020146,172.6788271324993,155.93490511595144,6.47544875391759e-05,0.0939245000481605,0,0,0
14351,514142.85009419033,2010-12-05 09:23:40,5132.564387070904,2,47,0.550297200679779,4.185730934143066,43.106736836144506,42.98849252020146,172.69801767689282,155.93490511595144,0.0001295089750783,0.0939245000481605,0,0,0
14352,514172.86550667486,2010-12-05 09:24:10,5162.579799525358,2,47,0.550297200679779,4.189454555511475,43.11132355402117,42.98849252020146,172.71722450096794,155.93490511595144,0.0001295089750783,0.0939245000481605,0,0,0
14353,514202.88028984336,2010-12-05 09:24:40,5192.594582628695,2,47,0.5501165986061096,4.193016052246094,43.11591023514676,42.98849252020146,172.73644814655023,155.93490511595144,9.71794142969884e-05,0.0939245000481605,0,0,0
14354,514232.8953979555,2010-12-05 09:25:10,5222.609690760854,2,47,0.5499359965324402,4.196739196777344,43.12049702046132,42.98849252020146,172.75568926150427,155.93490511595144,6.47544875391759e-05,0.0939245000481605,0,0,0
14355,514258.06707486033,2010-12-05 09:25:35,5247.781367740878,2,47,0.550297200679779,4.200138568878174,43.12434362945067,42.98849252020146,172.77183863037385,155.93490511595144,0.0001618385285837,0.0939245000481605,0,0,0
14356,514288.0821012549,2010-12-05 09:26:05,30.015223449121468,3,47,0.0,4.113691806793213,43.12434362945067,42.98849252020146,172.77183863037385,155.93490511595144,-0.0003885269106831,0.0939245000481605,0,0,0
14357,514318.0970472836,2010-12-05 09:26:35,60.03016947288059,3,47,0.0,4.1031694412231445,43.12434362945067,42.98849252020146,172.77183863037385,155.93490511595144,-0.0001942634553415,0.0939245000481605,0,0,0
14358,514348.112164764,2010-12-05 09:27:05,90.04528695330303,3,47,0.0,4.096370220184326,43.12434362945067,42.98849252020146,172.77183863037385,155.93490511595144,-0.0001618385285837,0.0939245000481605,0,0,0
14359,514378.080394897,2010-12-05 09:27:35,120.01351714150212,3,47,0.0,4.092322826385498,43.12434362945067,42.98849252020146,172.77183863037385,155.93490511595144,-0.0001295089750783,0.0939245000481605,0,0,0
14360,514378.0849440297,2010-12-05 09:27:35,0.018018047217499,4,47,0.9938735961914062,4.199814796447754,43.12434863092377,42.98849252020146,172.77185963563457,155.93490511595144,0.0,0.0939245000481605,0,0,0
14361,514379.03565821546,2010-12-05 09:27:36,0.968732162728019,4,47,0.943483591079712,4.199653148651123,43.12460304156886,42.98849252020146,172.77292808251212,155.93490511595144,-3.23295607813634e-05,0.0939245000481605,0,0,0
14362,514381.12936789147,2010-12-05 09:27:38,3.062441878829241,4,47,0.8930936455726624,4.199814796447754,43.12513595727203,42.98849252020146,172.77516616054515,155.93490511595144,0.0,0.0939245000481605,0,0,0
14363,514384.2253822992,2010-12-05 09:27:42,6.158456316680355,4,47,0.8430648446083069,4.199653148651123,43.12588130251376,42.98849252020146,172.77829639281356,155.93490511595144,0.0,0.0939245000481605,0,0,0
14364,514388.5511044975,2010-12-05 09:27:46,10.48417844983478,4,47,0.7928555011749268,4.199814796447754,43.12686285604169,42.98849252020146,172.78241863643825,155.93490511595144,0.0,0.0939245000481605,0,0,0
14365,514394.2072593313,2010-12-05 09:27:52,16.140333283594174,4,47,0.7428267002105713,4.199653148651123,43.12806753651142,42.98849252020146,172.78747797202513,155.93490511595144,0.0,0.0939245000481605,0,0,0
14366,514401.5665160937,2010-12-05 09:27:59,23.49959012118618,4,47,0.6927979588508606,4.199653148651123,43.12953274227522,42.98849252020146,172.79363145194193,155.93490511595144,0.0,0.0939245000481605,0,0,0
14367,514411.4257059786,2010-12-05 09:28:09,33.35877991077797,4,47,0.6427691578865051,4.199814796447754,43.13135850067783,42.98849252020146,172.80129917163472,155.93490511595144,0.0,0.0939245000481605,0,0,0
14368,514425.3785786856,2010-12-05 09:28:23,47.31165263791049,4,47,0.592559814453125,4.199653148651123,43.13374710449877,42.98849252020146,172.8113306821338,155.93490511595144,-3.23295607813634e-05,0.0939245000481605,0,0,0
14369,514446.846965726,2010-12-05 09:28:44,68.78003965830355,4,47,0.5423504114151001,4.199814796447754,43.13711969012636,42.98849252020146,172.8254946478185,155.93490511595144,0.0,0.0939245000481605,0,0,0
14370,514483.84632158,2010-12-05 09:29:21,105.77939552733147,4,47,0.492321640253067,4.199653148651123,43.142413206149335,42.98849252020146,172.84772605598462,155.93490511595144,-3.23295607813634e-05,0.0939245000481605,0,0,0
14371,514550.9701329328,2010-12-05 09:30:28,172.9032068651606,4,47,0.4422928690910339,4.199491024017334,43.151088364917165,42.98849252020146,172.8841591090802,155.93490511595144,0.0,0.0939245000481605,0,0,0
14372,514652.29656948807,2010-12-05 09:32:10,274.22964348050726,4,47,0.3922640979290008,4.199814796447754,43.162810144746125,42.98849252020146,172.93338746113784,155.93490511595144,3.23295607813634e-05,0.0939245000481605,0,0,0
14373,514777.6380646831,2010-12-05 09:34:15,399.57113864038587,4,47,0.3420547246932983,4.199814796447754,43.17558025899432,42.98849252020146,172.98701876349085,155.93490511595144,3.23295607813634e-05,0.0939245000481605,0,0,0
14374,514927.22922517743,2010-12-05 09:36:45,549.1622991999321,4,47,0.2918453514575958,4.199653148651123,43.18873863593864,42.98849252020146,173.04228063457222,155.93490511595144,-3.23295607813634e-05,0.0939245000481605,0,0,0
14375,515107.03876220447,2010-12-05 09:39:44,728.9718362020104,4,47,0.2418165802955627,4.199653148651123,43.20204626005267,42.98849252020146,173.09816931431718,155.93490511595144,-3.23295607813634e-05,0.0939245000481605,0,0,0
14376,515331.3939645816,2010-12-05 09:43:29,953.3270385089048,4,47,0.1917878091335296,4.199653148651123,43.215517423017175,42.98849252020146,173.15474475140076,155.93490511595144,-3.23295607813634e-05,0.0939245000481605,0,0,0
14377,515638.68550290586,2010-12-05 09:48:36,1260.6185768331193,4,47,0.1417590379714965,4.199814796447754,43.22966384501284,42.98849252020146,173.21415607666302,155.93490511595144,0.0,0.0939245000481605,0,0,0
14378,516120.89576567314,2010-12-05 09:56:38,1742.8288396255298,4,47,0.0917302668094635,4.199653148651123,43.24505160012509,42.98849252020146,173.27878063697338,155.93490511595144,-6.47544875391759e-05,0.0939245000481605,0,0,0
14379,516886.6794661536,2010-12-05 10:09:24,2508.6125401310187,4,47,0.0498289167881011,4.199653148651123,43.25967115624845,42.98849252020146,173.34017895121775,155.93490511595144,-3.23295607813634e-05,0.0939245000481605,0,0,0
14380,516916.7091696722,2010-12-05 10:09:54,30.015087676255916,5,47,0.0,4.191720962524414,43.25967115624845,42.98849252020146,173.34017895121775,155.93490511595144,-6.47544875391759e-05,0.0939245000481605,0,0,0
14381,516946.7086515891,2010-12-05 10:10:24,60.01456959819242,5,47,0.0,4.190587520599365,43.25967115624845,42.98849252020146,173.34017895121775,155.93490511595144,-3.24249267578125e-05,0.0939245000481605,0,0,0
14382,516946.9120727904,2010-12-05 10:10:24,0.187521209317031,6,47,-1.9243103452026844e-05,4.190587520599365,43.25967115995006,42.98849252020146,173.34017896672967,155.93490511595144,0.0,0.0955438911914825,0,0,0
14383,516951.74009794527,2010-12-05 10:10:29,5.015546394296576,6,47,0.0008838032954372,4.190587520599365,43.25967220851084,42.98849252038379,173.3401833608387,155.9349051167155,-3.24249267578125e-05,0.0955438911914825,0,0,0
14384,516981.741274858,2010-12-05 10:10:59,30.000810257448343,7,47,-1.099568486213684,4.012999057769775,43.25967220851084,42.99765685008615,173.3401833608387,155.9718802155652,-0.0009713172912597,0.0955438911914825,0,0,0
14385,517011.7533728194,2010-12-05 10:11:29,60.01290817881421,7,47,-1.0997490882873535,3.986287832260132,43.25967220851084,43.00682510267622,173.3401833608387,156.0085403566625,-0.0005827903514727,0.0955438911914825,0,0,0
14386,517041.7684408017,2010-12-05 10:11:59,90.0279760908877,7,47,-1.0997490882873535,3.967832803726196,43.25967220851084,43.01599439703223,173.3401833608387,156.0450015256393,-0.0004209041653666,0.0955438911914825,0,0,0
14387,517071.7835786628,2010-12-05 10:12:29,120.04311403222636,7,47,-1.099568486213684,3.9532630443573,43.25967220851084,43.025163660398974,173.3401833608387,156.0813134855539,-0.0003561496851034,0.0955438911914825,0,0,0
14388,517101.7987372956,2010-12-05 10:12:59,150.0582726399926,7,47,-1.0997490882873535,3.940797805786133,43.25967220851084,43.03433292749657,173.3401833608387,156.11750283829986,-0.0003237724304199,0.0955438911914825,0,0,0
14389,517131.8136026136,2010-12-05 10:13:29,180.07313788273123,7,47,-1.099929690361023,3.929141998291016,43.25967220851084,43.04350213445559,173.3401833608387,156.15358211491167,-0.0003237724304199,0.0955438911914825,0,0,0
14390,517161.8289085279,2010-12-05 10:13:59,210.08844382713903,7,47,-1.099929690361023,3.9181337356567374,43.25967220851084,43.05267148984466,173.3401833608387,156.18955942701342,-0.0003237724304199,0.0955438911914825,0,0,0
14391,517191.8438066725,2010-12-05 10:14:30,240.1033419466904,7,47,-1.099568486213684,3.90793514251709,43.25967220851084,43.06184073325991,173.3401833608387,156.22543979655205,-0.0002913951757363,0.0955438911914825,0,0,0
14392,517221.8613321953,2010-12-05 10:15:00,270.12086756467056,7,47,-1.099929690361023,3.897898197174072,43.25967220851084,43.07101082604476,173.3401833608387,156.26123066085773,-0.0003237724304199,0.0955438911914825,0,0,0
14393,517251.87400346337,2010-12-05 10:15:30,300.13353873755074,7,47,-1.0997490882873535,3.8885087966918954,43.25967220851084,43.080179403018825,173.3401833608387,156.2969266772112,-0.0002590179501567,0.0955438911914825,0,0,0
14394,517281.8891562617,2010-12-05 10:16:00,330.1486915659352,7,47,-1.099929690361023,3.879281282424927,43.25967220851084,43.08934872184926,173.3401833608387,156.33253950657115,-0.0002590179501567,0.0955438911914825,0,0,0
14395,517311.90426489006,2010-12-05 10:16:30,360.16380018931727,7,47,-1.0997490882873535,3.870053768157959,43.25967220851084,43.09851805234431,173.3401833608387,156.3680680456153,-0.0002913951757363,0.0955438911914825,0,0,0
14396,517341.9193546215,2010-12-05 10:17:00,390.1788898956249,7,47,-1.0997490882873535,3.861311912536621,43.25967220851084,43.1076873996059,173.3401833608387,156.4035145333065,-0.0002266406954731,0.0955438911914825,0,0,0
14397,517371.9345870078,2010-12-05 10:17:30,420.1941222869988,7,47,-1.0997490882873535,3.852570056915283,43.25967220851084,43.11685677569162,173.3401833608387,156.4388810056003,-0.0002266406954731,0.0955438911914825,0,0,0
14398,517401.9495497783,2010-12-05 10:18:00,450.20908505241886,7,47,-1.0997490882873535,3.844151973724365,43.25967220851084,43.12602599347512,173.3401833608387,156.47416797933363,-0.0002266406954731,0.0955438911914825,0,0,0
14399,517431.9646651585,2010-12-05 10:18:30,480.22420042760245,7,47,-1.099929690361023,3.8357338905334473,43.25967220851084,43.135195371476506,173.3401833608387,156.5093785330431,-0.0002913951757363,0.0955438911914825,0,0,0
14400,517461.97977604246,2010-12-05 10:19:00,510.23931134168487,7,47,-1.099929690361023,3.827639818191528,43.25967220851084,43.14436474011748,173.3401833608387,156.54451400330052,-0.0002590179501567,0.0955438911914825,0,0,0
14401,517491.99485026026,2010-12-05 10:19:30,540.2543855293751,7,47,-1.099568486213684,3.81970739364624,43.25967220851084,43.1535340803562,173.3401833608387,156.57957504386513,-0.0002590179501567,0.0955438911914825,0,0,0
14402,517522.0103675656,2010-12-05 10:20:00,570.2699029149461,7,47,-1.099929690361023,3.811613082885742,43.25967220851084,43.162703466988965,173.3401833608387,156.61456331771845,-0.0002590179501567,0.0955438911914825,0,0,0
14403,517552.02517190174,2010-12-05 10:20:30,600.2847072009963,7,47,-1.0997490882873535,3.804166316986084,43.25967220851084,43.17187269873159,173.3401833608387,156.64947955204835,-0.0002266406954731,0.0955438911914825,0,0,0
14404,517582.0418839352,2010-12-05 10:21:00,630.301419324627,7,47,-1.099929690361023,3.796719551086426,43.25967220851084,43.18104260752314,173.3401833608387,156.68432909885354,-0.0002266406954731,0.0955438911914825,0,0,0
14405,517612.0552915356,2010-12-05 10:21:30,660.3148268047796,7,47,-1.0997490882873535,3.7894346714019775,43.25967220851084,43.190211478450166,173.3401833608387,156.71910719818015,-0.0001942634553415,0.0955438911914825,0,0,0
14406,517642.0703693523,2010-12-05 10:22:00,690.3299046515752,7,47,-1.1001102924346924,3.782149791717529,43.25967220851084,43.19938094483061,173.3401833608387,156.7538210210955,-0.0001618862152099,0.0955438911914825,0,0,0
14407,517672.0855085168,2010-12-05 10:22:30,720.3450437858826,7,47,-1.0997490882873535,3.775188684463501,43.25967220851084,43.20855035606429,173.3401833608387,156.78846950754647,-0.0001942634553415,0.0955438911914825,0,0,0
14408,517702.1005671909,2010-12-05 10:23:00,750.3601024599677,7,47,-1.0997490882873535,3.7683894634246826,43.25967220851084,43.217719817455,173.3401833608387,156.8230544901086,-0.0001942634553415,0.0955438911914825,0,0,0
14409,517732.115665704,2010-12-05 10:23:30,780.3752009782036,7,47,-1.099929690361023,3.761590242385864,43.25967220851084,43.22688925280624,173.3401833608387,156.8575772796896,-0.0001942634553415,0.0955438911914825,0,0,0
14410,517762.1307694954,2010-12-05 10:24:00,810.3903047695611,7,47,-1.099929690361023,3.754952907562256,43.25967220851084,43.23605871137718,173.3401833608387,156.8920392315144,-0.0001942634553415,0.0955438911914825,0,0,0
14411,517792.1459985434,2010-12-05 10:24:30,840.4055338226278,7,47,-1.0997490882873535,3.748801469802856,43.25967220851084,43.2452282795395,173.3401833608387,156.92644192541616,-0.0001295089750783,0.0955438911914825,0,0,0
14412,517822.1610921144,2010-12-05 10:25:00,870.4206273935525,7,47,-1.099568486213684,3.742326021194458,43.25967220851084,43.2543978234683,173.3401833608387,156.9607863672901,-0.0001618862152099,0.0955438911914825,0,0,0
14413,517852.17615515937,2010-12-05 10:25:30,900.4356905538011,7,47,-1.099568486213684,3.73617434501648,43.25967220851084,43.26356730757273,173.3401833608387,156.99507350159718,-0.0001618862152099,0.0955438911914825,0,0,0
14414,517882.191315326,2010-12-05 10:26:00,930.4508506252096,7,47,-1.099929690361023,3.730022668838501,43.25967220851084,43.27273673491873,173.3401833608387,157.02930466338785,-0.0001618862152099,0.0955438911914825,0,0,0
14415,517912.2065188355,2010-12-05 10:26:30,960.4660541146624,7,47,-1.0997490882873535,3.7241947650909424,43.25967220851084,43.2819062122887,173.3401833608387,157.06348127633248,-0.0001618862152099,0.0955438911914825,0,0,0
14416,517942.22136886034,2010-12-05 10:27:00,990.4809041545692,7,47,-1.099929690361023,3.718366861343384,43.25967220851084,43.29107558662542,173.3401833608387,157.0976034317022,-0.0001942634553415,0.0955438911914825,0,0,0
14417,517972.2364573637,2010-12-05 10:27:30,1020.4959926378332,7,47,-1.0997490882873535,3.712700843811035,43.25967220851084,43.30024501133232,173.3401833608387,157.13167285952358,-0.0001295089750783,0.0955438911914825,0,0,0
14418,518002.2515601776,2010-12-05 10:28:00,1050.5110954467464,7,47,-1.0997490882873535,3.7070348262786874,43.25967220851084,43.30941455961334,173.3401833608387,157.16569056346438,-0.0001618862152099,0.0955438911914825,0,0,0
14419,518032.2666688461,2010-12-05 10:28:30,1080.5262041202527,7,47,-1.0997490882873535,3.701530694961548,43.25967220851084,43.31858409995946,173.3401833608387,157.1996567577288,-9.713172767078504e-05,0.0955438911914825,0,0,0
14420,518062.2817726926,2010-12-05 10:29:00,1110.541307966748,7,47,-1.099929690361023,3.695864677429199,43.25967220851084,43.3277535953245,173.3401833608387,157.23357172734538,-0.0001295089750783,0.0955438911914825,0,0,0
14421,518092.2969007343,2010-12-05 10:29:30,1140.5564361036888,7,47,-1.0997490882873535,3.6905224323272714,43.25967220851084,43.33692309632422,173.3401833608387,157.26743675613653,-0.0001295089750783,0.0955438911914825,0,0,0
14422,518122.31208377786,2010-12-05 10:30:00,1170.571619057038,7,47,-1.099568486213684,3.685342073440552,43.25967220851084,43.34609262583147,173.3401833608387,157.30125247765986,-9.713172767078504e-05,0.0955438911914825,0,0,0
14423,518152.3270624679,2010-12-05 10:30:30,1200.5865977370613,7,47,-1.099568486213684,3.679999828338623,43.25967220851084,43.3552620396277,173.3401833608387,157.3350193476374,-0.0001295089750783,0.0955438911914825,0,0,0
14424,518182.344651248,2010-12-05 10:31:00,1230.6041865974173,7,47,-1.099929690361023,3.6746575832366943,43.25967220851084,43.3644322943181,173.3401833608387,157.3687415750933,-0.0001618862152099,0.0955438911914825,0,0,0
14425,518212.35728450667,2010-12-05 10:31:30,1260.616819906074,7,47,-1.0997490882873535,3.669801235198975,43.25967220851084,43.37360108071036,173.3401833608387,157.40241158905408,-9.713172767078504e-05,0.0955438911914825,0,0,0
14426,518242.3724724624,2010-12-05 10:32:00,1290.6320077465848,7,47,-1.099568486213684,3.664620876312256,43.25967220851084,43.382770631212566,173.3401833608387,157.4360378811948,-0.0001618862152099,0.0955438911914825,0,0,0
14427,518272.3874601348,2010-12-05 10:32:30,1320.6469954039476,7,47,-1.0997490882873535,3.659602403640747,43.25967220851084,43.39194012934371,173.3401833608387,157.46961837813086,-0.0001618862152099,0.0955438911914825,0,0,0
14428,518302.40283578273,2010-12-05 10:33:00,1350.6623710568222,7,47,-1.099929690361023,3.654745817184448,43.25967220851084,43.40110974020198,173.3401833608387,157.5031544742761,-0.0001295089750783,0.0955438911914825,0,0,0
14429,518332.41778832267,2010-12-05 10:33:30,1380.6773236619588,7,47,-1.0997490882873535,3.65005111694336,43.25967220851084,43.41027918473292,173.3401833608387,157.53664578186468,-0.0001295089750783,0.0955438911914825,0,0,0
14430,518362.43273473735,2010-12-05 10:34:00,1410.6922700215537,7,47,-1.099568486213684,3.6453564167022714,43.25967220851084,43.4194486518967,173.3401833608387,157.57009317584806,-9.713172767078504e-05,0.0955438911914825,0,0,0
14431,518392.4478484685,2010-12-05 10:34:30,1440.7073837476337,7,47,-1.0997490882873535,3.6406617164611816,43.25967220851084,43.42861810926488,173.3401833608387,157.60349763209106,-0.0001618862152099,0.0955438911914825,0,0,0
14432,518422.4629358339,2010-12-05 10:35:00,1470.7224711081035,7,47,-1.099568486213684,3.636128902435303,43.25967220851084,43.43778755711296,173.3401833608387,157.63686020562847,-9.713172767078504e-05,0.0955438911914825,0,0,0
14433,518452.4780380263,2010-12-05 10:35:30,1500.7375733004822,7,47,-1.099929690361023,3.631757974624634,43.25967220851084,43.44695711757189,173.3401833608387,157.67018208975966,-0.0001295089750783,0.0955438911914825,0,0,0
14434,518482.4931279382,2010-12-05 10:36:00,1530.7526632123015,7,47,-1.0997490882873535,3.627548933029175,43.25967220851084,43.45612658795184,173.3401833608387,157.70346327967303,-6.47544875391759e-05,0.0955438911914825,0,0,0
14435,518512.5082740046,2010-12-05 10:36:30,1560.7678093690838,7,47,-1.0997490882873535,3.623016119003296,43.25967220851084,43.46529607433395,173.3401833608387,157.73670490360425,-9.713172767078504e-05,0.0955438911914825,0,0,0
14436,518542.52333404217,2010-12-05 10:37:00,1590.7828693163372,7,47,-1.0997490882873535,3.618968963623047,43.25967220851084,43.47446557284501,173.3401833608387,157.76990770041863,-9.713172767078504e-05,0.0955438911914825,0,0,0
14437,518572.5384302848,2010-12-05 10:37:30,1620.79796555891,7,47,-1.0997490882873535,3.615083694458008,43.25967220851084,43.48363514253441,173.3401833608387,157.80307304066824,-6.47544875391759e-05,0.0955438911914825,0,0,0
14438,518602.553543259,2010-12-05 10:38:00,1650.813078533119,7,47,-1.099929690361023,3.610874652862549,43.25967220851084,43.49280465565944,173.3401833608387,157.83620143520693,-0.0001295089750783,0.0955438911914825,0,0,0
14439,518632.5687648835,2010-12-05 10:38:30,1680.8283002228625,7,47,-1.0997490882873535,3.60715126991272,43.25967220851084,43.50197420675901,173.3401833608387,157.8692939163887,-3.237724376958795e-05,0.0955438911914825,0,0,0
14440,518662.5837263106,2010-12-05 10:39:00,1710.8432615797774,7,47,-1.099929690361023,3.6032660007476807,43.25967220851084,43.511143695861726,173.3401833608387,157.90235125287643,-0.0001295089750783,0.0955438911914825,0,0,0
14441,518692.5988272298,2010-12-05 10:39:30,1740.8583625040003,7,47,-1.0997490882873535,3.599542617797852,43.25967220851084,43.52031316791684,173.3401833608387,157.93537454282605,-9.713172767078504e-05,0.0955438911914825,0,0,0
14442,518722.6140085942,2010-12-05 10:40:00,1770.8735439736574,7,47,-1.0997490882873535,3.5959811210632324,43.25967220851084,43.52948270778813,173.3401833608387,157.9683649755476,-6.47544875391759e-05,0.0955438911914825,0,0,0
14443,518752.6290373088,2010-12-05 10:40:30,1800.8885725779153,7,47,-1.0997490882873535,3.5925815105438232,43.25967220851084,43.53865222636757,173.3401833608387,158.0013227718451,-9.713172767078504e-05,0.0955438911914825,0,0,0
14444,518782.6459471695,2010-12-05 10:41:00,1830.9054825689311,7,47,-1.0997490882873535,3.589182138442993,43.25967220851084,43.54782231926105,173.3401833608387,158.0342508562325,-6.47544875391759e-05,0.0955438911914825,0,0,0
14445,518812.6592620642,2010-12-05 10:41:30,1860.9187973383769,7,47,-1.099568486213684,3.585944414138794,43.25967220851084,43.55699127644408,173.3401833608387,158.06714444350453,-9.713172767078504e-05,0.0955438911914825,0,0,0
14446,518842.6743453496,2010-12-05 10:42:00,1890.9338806287185,7,47,-1.099929690361023,3.5825448036193848,43.25967220851084,43.56616079463945,173.3401833608387,158.10000995743204,-0.0001295089750783,0.0955438911914825,0,0,0
14447,518872.6917684373,2010-12-05 10:42:30,1920.9513038268303,7,47,-1.099929690361023,3.579307079315185,43.25967220851084,43.57533102660278,173.3401833608387,158.13284859173132,-9.713172767078504e-05,0.0955438911914825,0,0,0
14448,518902.7045320052,2010-12-05 10:43:00,1950.9640672843573,7,47,-1.099929690361023,3.5762312412261963,43.25967220851084,43.58449983540251,173.3401833608387,158.16565333344047,-9.713172767078504e-05,0.0955438911914825,0,0,0
14449,518932.7197776094,2010-12-05 10:43:30,1980.9793128835988,7,47,-1.0997490882873535,3.573317289352417,43.25967220851084,43.59366938650163,173.3401833608387,158.19843212963477,-6.47544875391759e-05,0.0955438911914825,0,0,0
14450,518962.73471834,2010-12-05 10:44:00,2010.9942536091737,7,47,-1.099568486213684,3.5700795650482178,43.25967220851084,43.60283885829755,173.3401833608387,158.23118257723553,-9.713172767078504e-05,0.0955438911914825,0,0,0
14451,518992.7499659242,2010-12-05 10:44:30,2041.0095011983667,7,47,-1.0997490882873535,3.5671656131744385,43.25967220851084,43.61200844686618,173.3401833608387,158.26390535748607,-6.47544875391759e-05,0.0955438911914825,0,0,0
14452,519022.76491790777,2010-12-05 10:45:00,2071.024453186969,7,47,-1.099929690361023,3.564089775085449,43.25967220851084,43.62117799009642,173.3401833608387,158.2965998374739,-6.47544875391759e-05,0.0955438911914825,0,0,0
14453,519052.7800479645,2010-12-05 10:45:30,2101.0395832336626,7,47,-1.099929690361023,3.56101393699646,43.25967220851084,43.63034747163655,173.3401833608387,158.32926645061113,-6.47544875391759e-05,0.0955438911914825,0,0,0
14454,519082.7951354904,2010-12-05 10:46:00,2131.0546707645567,7,47,-1.0993878841400146,3.5580999851226807,43.25967220851084,43.63951700598621,173.3401833608387,158.3619050010151,-3.237724376958795e-05,0.0955438911914825,0,0,0
14455,519112.81038744544,2010-12-05 10:46:31,2161.0699228098383,7,47,-1.099929690361023,3.554862260818481,43.25967220851084,43.648686585843926,173.3401833608387,158.39451515537442,-6.47544875391759e-05,0.0955438911914825,0,0,0
14456,519142.82767602353,2010-12-05 10:47:01,2191.0872113829414,7,47,-1.0997490882873535,3.5516245365142822,43.25967220851084,43.657856818802834,173.3401833608387,158.42709838618595,-3.237724376958795e-05,0.0955438911914825,0,0,0
14457,519172.84042676445,2010-12-05 10:47:31,2221.0999620386115,7,47,-1.0997490882873535,3.548386812210083,43.25967220851084,43.66702568393932,173.3401833608387,158.45964770760602,-0.0001295089750783,0.0955438911914825,0,0,0
14458,519202.8555124457,2010-12-05 10:48:01,2251.115047719903,7,47,-1.099929690361023,3.544987201690674,43.25967220851084,43.6761952553557,173.3401833608387,158.4921699746598,-0.0001295089750783,0.0955438911914825,0,0,0
14459,519232.8707108325,2010-12-05 10:48:31,2281.130246196882,7,47,-1.099929690361023,3.5417494773864746,43.25967220851084,43.68536483036121,173.3401833608387,158.52466191821387,-9.713172767078504e-05,0.0955438911914825,0,0,0
14460,519262.88572396326,2010-12-05 10:49:01,2311.1452592323976,7,47,-1.0997490882873535,3.538349866867065,43.25967220851084,43.69453432427599,173.3401833608387,158.5571229615066,-9.713172767078504e-05,0.0955438911914825,0,0,0
14461,519292.9008155693,2010-12-05 10:49:31,2341.160350843445,7,47,-1.099568486213684,3.535112142562866,43.25967220851084,43.70370384527136,173.3401833608387,158.5895524793036,-6.47544875391759e-05,0.0955438911914825,0,0,0
14462,519322.9159068946,2010-12-05 10:50:01,2371.175442193844,7,47,-1.099929690361023,3.531388759613037,43.25967220851084,43.71287338674849,173.3401833608387,158.62194962699658,-6.47544875391759e-05,0.0955438911914825,0,0,0
14463,519352.93117181695,2010-12-05 10:50:31,2401.1907071011324,7,47,-1.099568486213684,3.527665376663208,43.25967220851084,43.722042997972615,173.3401833608387,158.6543138039432,-9.713172767078504e-05,0.0955438911914825,0,0,0
14464,519382.9479795736,2010-12-05 10:51:01,2431.20751491288,7,47,-1.099568486213684,3.523941993713379,43.25967220851084,43.73121305678932,173.3401833608387,158.6866454848355,-9.713172767078504e-05,0.0955438911914825,0,0,0
14465,519412.9611850159,2010-12-05 10:51:31,2461.220720290107,7,47,-1.099568486213684,3.52005672454834,43.25967220851084,43.74038204050007,173.3401833608387,158.71893759300784,-6.47544875391759e-05,0.0955438911914825,0,0,0
14466,519442.9764371364,2010-12-05 10:52:01,2491.2359724456637,7,47,-1.099929690361023,3.515685796737671,43.25967220851084,43.74955168551037,173.3401833608387,158.75119496124975,-0.0001295089750783,0.0955438911914825,0,0,0
14467,519472.9914326834,2010-12-05 10:52:31,2521.250968027746,7,47,-1.0997490882873535,3.511315107345581,43.25967220851084,43.75872122844627,173.3401833608387,158.78341309439693,-0.0001294612884521,0.0955438911914825,0,0,0
14468,519503.00652451,2010-12-05 10:53:01,2551.2660597841555,7,47,-1.0997490882873535,3.506782293319702,43.25967220851084,43.76789076586319,173.3401833608387,158.81559026718705,-0.0001295089750783,0.0955438911914825,0,0,0
14469,519533.0216212388,2010-12-05 10:53:31,2581.281156512938,7,47,-1.099929690361023,3.5017638206481934,43.25967220851084,43.77706039179655,173.3401833608387,158.84772404241298,-0.0001618862152099,0.0955438911914825,0,0,0
14470,519563.03673796734,2010-12-05 10:54:01,2611.296273246502,7,47,-1.0997490882873535,3.4965834617614746,43.25967220851084,43.78622998397583,173.3401833608387,158.8798109339749,-0.0001618862152099,0.0955438911914825,0,0,0
14471,519593.0519096828,2010-12-05 10:54:31,2641.3114450821854,7,47,-1.099568486213684,3.490755558013916,43.25967220851084,43.79539955222586,173.3401833608387,158.91184683082054,-0.0001942634553415,0.0955438911914825,0,0,0
14472,519623.0669127885,2010-12-05 10:55:01,2671.326448062679,7,47,-1.099929690361023,3.4842801094055176,43.25967220851084,43.80456912686883,173.3401833608387,158.9438265129743,-0.0001942634553415,0.0955438911914825,0,0,0
14473,519653.0820181037,2010-12-05 10:55:31,2701.3415533778284,7,47,-1.099568486213684,3.4769952297210693,43.25967220851084,43.81373868233443,173.3401833608387,158.97574266390544,-0.0001942634553415,0.0955438911914825,0,0,0
14474,519683.09710630623,2010-12-05 10:56:01,2731.3566415803944,7,47,-1.0997490882873535,3.468577146530152,43.25967220851084,43.822908224042266,173.3401833608387,159.00758708789814,-0.0002590179501567,0.0955438911914825,0,0,0
14475,519713.1123567376,2010-12-05 10:56:31,2761.37189201166,7,47,-1.0997490882873535,3.4588639736175537,43.25967220851084,43.832077879582016,173.3401833608387,159.03934875369185,-0.0002266406954731,0.0955438911914825,0,0,0
14476,519743.1272832527,2010-12-05 10:57:01,2791.3868185268725,7,47,-1.0997490882873535,3.4468843936920166,43.25967220851084,43.84124741442584,173.3401833608387,159.07101135888462,-0.0003561496851034,0.0955438911914825,0,0,0
14477,519773.1424044023,2010-12-05 10:57:31,2821.4019396764256,7,47,-1.0997490882873535,3.43215274810791,43.25967220851084,43.85041691500045,173.3401833608387,159.1025525700891,-0.0003885269106831,0.0955438911914825,0,0,0
14478,519803.1575244992,2010-12-05 10:58:01,2851.417059773359,7,47,-1.0997490882873535,3.413374185562134,43.25967220851084,43.85958648308185,173.3401833608387,159.13394173835474,-0.0005827903514727,0.0955438911914825,0,0,0
14479,519833.1729852338,2010-12-05 10:58:31,2881.432520578131,7,47,-1.099929690361023,3.3889293670654297,43.25967220851084,43.868756146320926,173.3401833608387,159.16513492500877,-0.0007446765666827,0.0955438911914825,0,0,0
14480,519863.1878513387,2010-12-05 10:59:01,2911.4473866128405,7,47,-1.099568486213684,3.3562283515930176,43.25967220851084,43.87792569269134,173.3401833608387,159.19606802774004,-0.0010360718006268,0.0955438911914825,0,0,0
14481,519893.20282773307,2010-12-05 10:59:31,2941.462363007176,7,47,-1.099929690361023,3.3118717670440674,43.25967220851084,43.88709528043618,173.3401833608387,159.22665091357,-0.0013598442310467,0.0955438911914825,0,0,0
14482,519923.21795903286,2010-12-05 11:00:01,2971.477494312,7,47,-1.099929690361023,3.250840902328491,43.25967220851084,43.89626478900668,173.3401833608387,159.25675469671424,-0.0018778800731524,0.0955438911914825,0,0,0
14483,519953.2330355764,2010-12-05 11:00:31,3001.49257085054,7,47,-1.099929690361023,3.1637463569641118,43.25967220851084,43.90543430285546,173.3401833608387,159.28618905853497,-0.0027196884620934,0.0955438911914825,0,0,0
14484,519983.2500142483,2010-12-05 11:01:01,3031.5095495976525,7,47,-1.0993878841400146,3.029219388961792,43.25967220851084,43.9146043939306,173.3401833608387,159.31463465589837,-0.004500389099121,0.0955438911914825,0,0,0
14485,520007.37296659744,2010-12-05 11:01:25,3055.632501966817,7,47,-1.0997490882873535,2.8289666175842285,43.25967220851084,43.92197388540431,173.3401833608387,159.33629974682037,-0.0084827896207571,0.0955438911914825,0,0,0
14486,520018.34125090606,2010-12-05 11:01:36,3066.600786180225,7,47,-1.0997490882873535,2.699781894683838,43.25967220851084,43.92532470532556,173.3401833608387,159.34556581278383,-0.0096159931272268,0.0955438911914825,0,0,0
14487,520078.3631500582,2010-12-05 11:02:36,60.01467280000617,8,47,0.0,3.354447603225708,43.25967220851084,43.92532470532556,173.3401833608387,159.34556581278383,0.0012950419913977,0.0955438911914825,0,0,0
14488,520078.5431045,2010-12-05 11:02:36,0.187422217980899,9,47,-1.9243103452026844e-05,3.354771375656128,43.259672212210496,43.92532470532556,173.3401833732499,159.34556581278383,3.237724376958795e-05,0.0946486890316009,0,0,0
14489,520083.3711559103,2010-12-05 11:02:41,5.015473623208522,9,47,0.0007031940040178,3.362703800201416,43.25967293903933,43.925324705579456,173.34018581502454,159.34556581363577,0.0011008263099938,0.0946486890316009,0,0,0
