Data_Point,Test_Time(s),Date_Time,Step_Time(s),Step_Index,Cycle_Index,Current(A),Voltage(V),Charge_Capacity(Ah),Discharge_Capacity(Ah),Charge_Energy(Wh),Discharge_Energy(Wh),dV/dt(V/s),Internal_Resistance(Ohm),Is_FC_Data,AC_Impedance(Ohm),ACI_Phase_Angle(Deg)
3948,142762.78960040447,2010-12-01 02:13:17,30.015091360423824,1,14,0.0,3.3848822116851807,11.639153479788032,12.308059751198185,46.69061228248564,44.65009967427238,0.0007446765666827,0.0931989923119545,0,0,0
3949,142792.80470380484,2010-12-01 02:13:47,60.03019467058411,1,14,0.0,3.408841371536255,11.639153479788032,12.308059751198185,46.69061228248564,44.65009967427238,0.0005504131549969,0.0931989923119545,0,0,0
3950,142822.8219210154,2010-12-01 02:14:17,90.04741197132864,1,14,0.0,3.4268107414245605,11.639153479788032,12.308059751198185,46.69061228248564,44.65009967427238,0.0004532813909463,0.0931989923119545,0,0,0
3951,142852.78795308364,2010-12-01 02:14:47,120.01344397944116,1,14,0.0,3.441380262374878,11.639153479788032,12.308059751198185,46.69061228248564,44.65009967427238,0.0004209041653666,0.0931989923119545,0,0,0
3952,142882.79798259598,2010-12-01 02:15:17,30.01502457422895,2,14,0.5501165986061096,3.601323366165161,11.64373999058252,12.308059751198185,46.706965571954015,44.65009967427238,0.0016188621520996,0.0931989923119545,0,0,0
3953,142912.8132009524,2010-12-01 02:15:47,60.03024299583964,2,14,0.5501165986061096,3.6490797996521,11.648326527031246,12.308059751198185,46.723599733757496,44.65009967427238,0.0011008263099938,0.0931989923119545,0,0,0
3954,142942.82811733743,2010-12-01 02:16:17,90.04515931568172,2,14,0.5501165986061096,3.683885097503662,11.652912938200712,12.308059751198185,46.7404195506788,44.65009967427238,0.0008094310760498,0.0931989923119545,0,0,0
3955,142972.8431957356,2010-12-01 02:16:47,120.0602377439243,2,14,0.5501165986061096,3.711081981658936,11.65749934405432,12.308059751198185,46.75737992480034,44.65009967427238,0.0006151676061563,0.0931989923119545,0,0,0
3956,143002.8582473972,2010-12-01 02:17:17,150.07528937548437,2,14,0.5501165986061096,3.7332603931427,11.662085850184928,12.308059751198185,46.77445364456238,44.65009967427238,0.0005504131549969,0.0931989923119545,0,0,0
3957,143032.87331658247,2010-12-01 02:17:47,180.09035856072612,2,14,0.5499359965324402,3.751229763031006,11.66667225035266,12.308059751198185,46.79161917122249,44.65009967427238,0.0004209041653666,0.0931989923119545,0,0,0
3958,143062.8884244891,2010-12-01 02:18:17,210.1054664923868,2,14,0.5501165986061096,3.7646660804748535,11.671258676985714,12.308059751198185,46.80885718978466,44.65009967427238,0.0002590179501567,0.0931989923119545,0,0,0
3959,143092.90358447024,2010-12-01 02:18:47,240.12062645352088,2,14,0.5501165986061096,3.773084163665772,11.675845167297403,12.308059751198185,46.82614483423724,44.65009967427238,0.0001618862152099,0.0931989923119545,0,0,0
3960,143122.91851551173,2010-12-01 02:19:17,270.13555748998465,2,14,0.5501165986061096,3.77858829498291,11.680431615173974,12.308059751198185,46.84346339105687,44.65009967427238,9.713172767078504e-05,0.0931989923119545,0,0,0
3961,143152.93358528343,2010-12-01 02:19:47,300.1506272666983,2,14,0.550297200679779,3.783121109008789,11.685018078938684,12.308059751198185,46.8608043151724,44.65009967427238,0.0001295089750783,0.0931989923119545,0,0,0
3962,143182.94865004264,2010-12-01 02:20:18,330.1656920259261,2,14,0.5499359965324402,3.787168264389038,11.689604567863524,12.308059751198185,46.87816472756803,44.65009967427238,9.713172767078504e-05,0.0931989923119545,0,0,0
3963,143212.96385480024,2010-12-01 02:20:48,360.1808968486966,2,14,0.5501165986061096,3.791215419769287,11.694191043640815,12.308059751198185,46.89554341843476,44.65009967427238,0.0001295089750783,0.0931989923119545,0,0,0
3964,143242.97877776163,2010-12-01 02:21:18,390.1958197449037,2,14,0.5501165986061096,3.794776916503906,11.698777456677728,12.308059751198185,46.91293922929388,44.65009967427238,9.713172767078504e-05,0.0931989923119545,0,0,0
3965,143272.99399325094,2010-12-01 02:21:48,420.21103523922994,2,14,0.5499359965324402,3.798176527023315,11.703363943813702,12.308059751198185,46.93035216907323,44.65009967427238,6.47544875391759e-05,0.0931989923119545,0,0,0
3966,143303.0107568978,2010-12-01 02:22:18,450.2277989662738,2,14,0.5501165986061096,3.801899909973145,11.707950707402574,12.308059751198185,46.94778250949671,44.65009967427238,6.47544875391759e-05,0.0931989923119545,0,0,0
3967,143333.02420271834,2010-12-01 02:22:48,480.2412447216728,2,14,0.5501165986061096,3.8052995204925537,11.7125369281829,12.308059751198185,46.96522663666594,44.65009967427238,9.713172767078504e-05,0.0931989923119545,0,0,0
3968,143363.03906071806,2010-12-01 02:23:18,510.2561027013376,2,14,0.5501165986061096,3.808699131011963,11.71712334951129,12.308059751198185,46.98268707528369,44.65009967427238,9.713172767078504e-05,0.0931989923119545,0,0,0
3969,143393.05410100138,2010-12-01 02:23:48,540.2711430047078,2,14,0.5499359965324402,3.811936855316162,11.72170984258736,12.308059751198185,47.000163106662605,44.65009967427238,0.0001295089750783,0.0931989923119545,0,0,0
3970,143423.069232632,2010-12-01 02:24:18,570.2862747105297,2,14,0.5501165986061096,3.8153364658355713,11.726296351820537,12.308059751198185,47.017654482348696,44.65009967427238,9.713172767078504e-05,0.0931989923119545,0,0,0
3971,143453.0842487502,2010-12-01 02:24:48,600.3012907384916,2,14,0.5501165986061096,3.818412303924561,11.730882746455574,12.308059751198185,47.0351604851538,44.65009967427238,6.47544875391759e-05,0.0931989923119545,0,0,0
3972,143483.09952513606,2010-12-01 02:25:18,630.316567114319,2,14,0.5501165986061096,3.8218119144439697,11.735469221294622,12.308059751198185,47.05268177312934,44.65009967427238,9.713172767078504e-05,0.0931989923119545,0,0,0
3973,143513.09974264348,2010-12-01 02:25:48,660.3167847219813,2,14,0.5499359965324402,3.824887752532959,11.74005335062638,12.308059751198185,47.07020908808724,44.65009967427238,3.237724376958795e-05,0.0931989923119545,0,0,0
3974,143543.11388464144,2010-12-01 02:26:18,690.3309266297287,2,14,0.5499359965324402,3.828449249267578,11.744639620162427,12.308059751198185,47.08775988896036,44.65009967427238,9.713172767078504e-05,0.0931989923119545,0,0,0
3975,143573.12892743602,2010-12-01 02:26:48,720.3459694192857,2,14,0.5499359965324402,3.832010746002197,11.749226057972972,12.308059751198185,47.105326969306745,44.65009967427238,9.713172767078504e-05,0.0931989923119545,0,0,0
3976,143603.1441378928,2010-12-01 02:27:18,750.3611798710639,2,14,0.5499359965324402,3.8352482318878174,11.753812512116502,12.308059751198185,47.12290996385662,44.65009967427238,6.47544875391759e-05,0.0931989923119545,0,0,0
3977,143633.15909917952,2010-12-01 02:27:48,780.376141187879,2,14,0.5499359965324402,3.8389716148376474,11.758398882291928,12.308059751198185,47.14050879693722,44.65009967427238,6.47544875391759e-05,0.0931989923119545,0,0,0
3978,143663.17414034507,2010-12-01 02:28:18,810.391182333345,2,14,0.5501165986061096,3.8425331115722656,11.762985337707754,12.308059751198185,47.15812439516542,44.65009967427238,6.47544875391759e-05,0.0931989923119545,0,0,0
3979,143693.18924985063,2010-12-01 02:28:48,840.4062918389222,2,14,0.5499359965324402,3.8460946083068848,11.767571729626445,12.308059751198185,47.17575607043906,44.65009967427238,9.713172767078504e-05,0.0931989923119545,0,0,0
3980,143723.20436737116,2010-12-01 02:29:18,870.4214094396442,2,14,0.5501165986061096,3.849656105041504,11.772158160924686,12.308059751198185,47.19340427751948,44.65009967427238,6.47544875391759e-05,0.0931989923119545,0,0,0
3981,143753.21946768384,2010-12-01 02:29:48,900.4365096621207,2,14,0.5501165986061096,3.853055715560913,11.77674473014878,12.308059751198185,47.21106929953648,44.65009967427238,6.47544875391759e-05,0.0931989923119545,0,0,0
3982,143783.2344320332,2010-12-01 02:30:18,930.4514741117318,2,14,0.5501165986061096,3.856779098510742,11.781331190813512,12.308059751198185,47.2287498404727,44.65009967427238,0.0001295089750783,0.0931989923119545,0,0,0
3983,143813.24949780997,2010-12-01 02:30:48,960.4665398534044,2,14,0.5501165986061096,3.860178709030152,11.785917649047729,12.308059751198185,47.24644625833531,44.65009967427238,0.0001295089750783,0.0931989923119545,0,0,0
3984,143843.26458839848,2010-12-01 02:31:18,990.4816303817576,2,14,0.5499359965324402,3.8632545471191406,11.790504123848365,12.308059751198185,47.26415830396675,44.65009967427238,3.237724376958795e-05,0.0931989923119545,0,0,0
3985,143873.27963457647,2010-12-01 02:31:48,1020.4966765647592,2,14,0.5499359965324402,3.86681604385376,11.795090545236176,12.308059751198185,47.28188525391096,44.65009967427238,9.713172767078504e-05,0.0931989923119545,0,0,0
3986,143903.29485154946,2010-12-01 02:32:18,1050.5118936179647,2,14,0.5501165986061096,3.870053768157959,11.799676963909144,12.308059751198185,47.299626948500205,44.65009967427238,9.713172767078504e-05,0.0931989923119545,0,0,0
3987,143933.3117289945,2010-12-01 02:32:48,1080.5287710780287,2,14,0.5499359965324402,3.8729677200317374,11.804263699149134,12.308059751198185,47.31738412970981,44.65009967427238,9.713172767078504e-05,0.0931989923119545,0,0,0
3988,143963.32485512953,2010-12-01 02:33:18,1110.5418971078027,2,14,0.5501165986061096,3.8758816719055176,11.8088498513331,12.308059751198185,47.335152709947465,44.65009967427238,6.47544875391759e-05,0.0931989923119545,0,0,0
3989,143993.33990525233,2010-12-01 02:33:48,1140.556947235621,2,14,0.5501165986061096,3.878471851348877,11.813436333057671,12.308059751198185,47.35293572047818,44.65009967427238,3.237724376958795e-05,0.0931989923119545,0,0,0
3990,144023.35511228562,2010-12-01 02:34:18,1170.5721542739043,2,14,0.5501165986061096,3.881385803222656,11.818022868618932,12.308059751198185,47.37073143615544,44.65009967427238,9.713172767078504e-05,0.0931989923119545,0,0,0
3991,144053.3700759934,2010-12-01 02:34:48,1200.5871180017198,2,14,0.5501165986061096,3.8838140964508057,11.822609335367828,12.308059751198185,47.388538750523885,44.65009967427238,6.47544875391759e-05,0.0931989923119545,0,0,0
3992,144083.3851541259,2010-12-01 02:35:18,1230.6021961041515,2,14,0.5501165986061096,3.886080503463745,11.8271957885693,12.308059751198185,47.406357040595886,44.65009967427238,6.47544875391759e-05,0.0931989923119545,0,0,0
3993,144113.4001869206,2010-12-01 02:35:48,1260.6172289289116,2,14,0.5501165986061096,3.888346910476685,11.8317822445603,12.308059751198185,47.424185804226845,44.65009967427238,9.713172767078504e-05,0.0931989923119545,0,0,0
3994,144143.41526295285,2010-12-01 02:36:18,1290.632304931117,2,14,0.5499359965324402,3.890451431274414,11.836368736026968,12.308059751198185,47.44202442677844,44.65009967427238,3.237724376958795e-05,0.0931989923119545,0,0,0
3995,144173.43032939627,2010-12-01 02:36:48,1320.6473713795483,2,14,0.5501165986061096,3.892232179641724,11.840955220510342,12.308059751198185,47.4598721519386,44.65009967427238,3.237724376958795e-05,0.0931989923119545,0,0,0
3996,144203.44554282547,2010-12-01 02:37:18,1350.6625848939475,2,14,0.5501165986061096,3.894336700439453,11.845541826551576,12.308059751198185,47.47772896093628,44.65009967427238,6.47544875391759e-05,0.0931989923119545,0,0,0
3997,144233.46047613758,2010-12-01 02:37:48,1380.67751811585,2,14,0.5501165986061096,3.895793676376343,11.850128443661266,12.308059751198185,47.49559360392237,44.65009967427238,3.237724376958795e-05,0.0931989923119545,0,0,0
3998,144263.47556482136,2010-12-01 02:38:18,1410.6926068196628,2,14,0.5501165986061096,3.8974125385284415,11.854714904641432,12.308059751198185,47.51346532434823,44.65009967427238,6.47544875391759e-05,0.0931989923119545,0,0,0
3999,144293.49066234712,2010-12-01 02:38:48,1440.7077043404165,2,14,0.550297200679779,3.899031400680542,11.859301369555755,12.308059751198185,47.53134447404572,44.65009967427238,3.237724376958795e-05,0.0931989923119545,0,0,0
4000,144323.50597573502,2010-12-01 02:39:18,1470.723017773459,2,14,0.5501165986061096,3.900812149047852,11.863887922113888,12.308059751198185,47.549231190572,44.65009967427238,3.237724376958795e-05,0.0931989923119545,0,0,0
4001,144353.52093921727,2010-12-01 02:39:48,1500.7379812907504,2,14,0.5501165986061096,3.9021072387695312,11.868474397555362,12.308059751198185,47.56712464286144,44.65009967427238,6.47544875391759e-05,0.0931989923119545,0,0,0
4002,144383.53583548722,2010-12-01 02:40:18,1530.752877465462,2,14,0.5499359965324402,3.903564214706421,11.87306084321551,12.308059751198185,47.58502487994548,44.65009967427238,3.237724376958795e-05,0.0931989923119545,0,0,0
4003,144413.55091999558,2010-12-01 02:40:48,1560.7679620790968,2,14,0.5501165986061096,3.905021190643311,11.877647331232762,12.308059751198185,47.602932131073445,44.65009967427238,3.237724376958795e-05,0.0931989923119545,0,0,0
4004,144443.56599907545,2010-12-01 02:41:18,1590.7830410536992,2,14,0.5501165986061096,3.9064781665802,11.88223383060628,12.308059751198185,47.62084602005125,44.65009967427238,6.47544875391759e-05,0.0931989923119545,0,0,0
4005,144473.58107976933,2010-12-01 02:41:48,1620.798121752592,2,14,0.5501165986061096,3.9080970287323,11.886820291807712,12.308059751198185,47.63876647003826,44.65009967427238,6.47544875391759e-05,0.0931989923119545,0,0,0
4006,144503.5961276616,2010-12-01 02:42:18,1650.8131696398343,2,14,0.5501165986061096,3.9095540046691895,11.891406741261122,12.308059751198185,47.65669351363384,44.65009967427238,6.47544875391759e-05,0.0931989923119545,0,0,0
4007,144533.6129821244,2010-12-01 02:42:48,1680.8300242029202,2,14,0.5501165986061096,3.910849094390869,11.895993542748789,12.308059751198185,47.67462860404255,44.65009967427238,3.237724376958795e-05,0.0931989923119545,0,0,0
4008,144563.6263028136,2010-12-01 02:43:18,1710.8433447968598,2,14,0.5501165986061096,3.9124679565429688,11.900579740323508,12.308059751198185,47.69256805054647,44.65009967427238,6.47544875391759e-05,0.0931989923119545,0,0,0
4009,144593.64345594466,2010-12-01 02:43:48,1740.8604980231578,2,14,0.5501165986061096,3.913762807846069,11.905166580889276,12.308059751198185,47.710516731756194,44.65009967427238,3.23295607813634e-05,0.0931989923119545,0,0,0
4010,144623.6564444121,2010-12-01 02:44:18,1770.8734863903635,2,14,0.5501165986061096,3.915381669998169,11.909752707703198,12.308059751198185,47.72846932522248,44.65009967427238,6.47544875391759e-05,0.0931989923119545,0,0,0
4011,144653.67150303608,2010-12-01 02:44:48,1800.888545024349,2,14,0.5501165986061096,3.9168386459350586,11.91433926079425,12.308059751198185,47.74643017766007,44.65009967427238,6.47544875391759e-05,0.0931989923119545,0,0,0
4012,144683.68846959283,2010-12-01 02:45:18,1830.9055116914008,2,14,0.5499359965324402,3.9181337356567374,11.918926003349132,12.308059751198185,47.76439855510292,44.65009967427238,3.237724376958795e-05,0.0931989923119545,0,0,0
4013,144713.7016473413,2010-12-01 02:45:48,1860.9186893496508,2,14,0.5501165986061096,3.919590711593628,11.923512187417456,12.308059751198185,47.7823714689856,44.65009967427238,3.237724376958795e-05,0.0931989923119545,0,0,0
4014,144743.71877506413,2010-12-01 02:46:18,1890.9358171727336,2,14,0.5501165986061096,3.9210476875305176,11.92809905262353,12.308059751198185,47.80035379353941,44.65009967427238,3.237724376958795e-05,0.0931989923119545,0,0,0
4015,144773.73182357603,2010-12-01 02:46:48,1920.9488656595447,2,14,0.5499359965324402,3.922666549682617,11.932685263105007,12.308059751198185,47.81834032642865,44.65009967427238,3.237724376958795e-05,0.0931989923119545,0,0,0
4016,144803.74690467594,2010-12-01 02:47:18,1950.963946714324,2,14,0.5501165986061096,3.924123525619507,11.937271728792542,12.308059751198185,47.83633464063151,44.65009967427238,6.47544875391759e-05,0.0931989923119545,0,0,0
4017,144833.76194388155,2010-12-01 02:47:48,1980.9789858648253,2,14,0.5499359965324402,3.9257423877716064,11.941858196275732,12.308059751198185,47.85433592666825,44.65009967427238,6.47544875391759e-05,0.0931989923119545,0,0,0
4018,144863.77714749632,2010-12-01 02:48:18,2010.9941894745773,2,14,0.5501165986061096,3.927037477493286,11.946444726305012,12.308059751198185,47.87234424384688,44.65009967427238,0.0,0.0931989923119545,0,0,0
4019,144893.792110357,2010-12-01 02:48:48,2041.0091523402464,2,14,0.5501165986061096,3.9286563396453857,11.951031165556346,12.308059751198185,47.89035911488661,44.65009967427238,6.47544875391759e-05,0.0931989923119545,0,0,0
4020,144923.80730959584,2010-12-01 02:49:18,2071.0243515841344,2,14,0.5501165986061096,3.9301133155822754,11.95561771861939,12.308059751198185,47.90838139738939,44.65009967427238,3.237724376958795e-05,0.0931989923119545,0,0,0
4021,144953.82225531383,2010-12-01 02:49:48,2101.0392973021326,2,14,0.5501165986061096,3.931732177734375,11.96020420669084,12.308059751198185,47.926410390762015,44.65009967427238,6.47544875391759e-05,0.0931989923119545,0,0,0
4022,144983.83731335137,2010-12-01 02:50:18,2131.0543553296084,2,14,0.5499359965324402,3.9331891536712646,11.96479074756463,12.308059751198185,47.94444661604574,44.65009967427238,3.237724376958795e-05,0.0931989923119545,0,0,0
4023,145013.85251907638,2010-12-01 02:50:48,2161.0695610546245,2,14,0.5497553944587708,3.9346461296081534,11.969377294489712,12.308059751198185,47.96248993729695,44.65009967427238,3.237724376958795e-05,0.0931989923119545,0,0,0
4024,145043.86747644335,2010-12-01 02:51:18,2191.084518421611,2,14,0.550297200679779,3.936264991760254,11.973963786600496,12.308059751198185,47.98054017252182,44.65009967427238,3.237724376958795e-05,0.0931989923119545,0,0,0
4025,145073.8827199975,2010-12-01 02:51:48,2221.0997619807754,2,14,0.5501165986061096,3.9378838539123535,11.978550290612356,12.308059751198185,47.998597499833,44.65009967427238,3.237724376958795e-05,0.0931989923119545,0,0,0
4026,145103.8976284227,2010-12-01 02:52:18,2251.114670426022,2,14,0.5499359965324402,3.939340829849243,11.983136833653418,12.308059751198185,48.01666232737388,44.65009967427238,0.0,0.0931989923119545,0,0,0
4027,145133.91445785828,2010-12-01 02:52:49,2281.1314999267406,2,14,0.5501165986061096,3.9411215782165527,11.98772363727003,12.308059751198185,48.03473544518361,44.65009967427238,6.47544875391759e-05,0.0931989923119545,0,0,0
4028,145163.92797841982,2010-12-01 02:53:19,2311.1450204782677,2,14,0.5501165986061096,3.9425785541534415,11.99230989642253,12.308059751198185,48.05281367070479,44.65009967427238,6.47544875391759e-05,0.0931989923119545,0,0,0
4029,145193.9428534018,2010-12-01 02:53:49,2341.159895445204,2,14,0.5501165986061096,3.944197416305542,11.996896326824386,12.308059751198185,48.0708999075263,44.65009967427238,6.47544875391759e-05,0.0931989923119545,0,0,0
4030,145223.95803634514,2010-12-01 02:54:19,2371.175078323366,2,14,0.5501165986061096,3.9458162784576416,12.001482863660154,12.308059751198185,48.08899399358806,44.65009967427238,3.237724376958795e-05,0.0931989923119545,0,0,0
4031,145253.97298726105,2010-12-01 02:54:49,2401.1900292443115,2,14,0.5501165986061096,3.947435140609741,12.006069419843882,12.308059751198185,48.10709551929346,44.65009967427238,3.237724376958795e-05,0.0931989923119545,0,0,0
4032,145283.9882936766,2010-12-01 02:55:19,2431.205335755129,2,14,0.550297200679779,3.949215888977051,12.010655963866922,12.308059751198185,48.125204498259656,44.65009967427238,9.713172767078504e-05,0.0931989923119545,0,0,0
4033,145314.00318355067,2010-12-01 02:55:49,2461.220225649211,2,14,0.5499359965324402,3.9505109786987305,12.015242401964748,12.308059751198185,48.14332051210568,44.65009967427238,0.0,0.0931989923119545,0,0,0
4034,145344.01821193437,2010-12-01 02:56:19,2491.2352539126214,2,14,0.550297200679779,3.95261549949646,12.019828932366558,12.308059751198185,48.1614444422209,44.65009967427238,9.713172767078504e-05,0.0931989923119545,0,0,0
4035,145374.03328366092,2010-12-01 02:56:49,2521.2503256692617,2,14,0.5501165986061096,3.95391058921814,12.024415431544409,12.308059751198185,48.17957580546021,44.65009967427238,3.237724376958795e-05,0.0931989923119545,0,0,0
4036,145404.04850313015,2010-12-01 02:57:19,2551.265545118429,2,14,0.5499359965324402,3.955691337585449,12.029002021860505,12.308059751198185,48.1977151281834,44.65009967427238,6.47544875391759e-05,0.0931989923119545,0,0,0
4037,145434.06335596202,2010-12-01 02:57:49,2581.280397970333,2,14,0.5501165986061096,3.957310199737549,12.033588514728882,12.308059751198185,48.21586167163774,44.65009967427238,6.47544875391759e-05,0.0931989923119545,0,0,0
4038,145464.0786440069,2010-12-01 02:58:19,2611.2956859951496,2,14,0.550297200679779,3.958929061889648,12.038175033322377,12.308059751198185,48.23401592910727,44.65009967427238,0.0,0.0931989923119545,0,0,0
4039,145494.09356458733,2010-12-01 02:58:49,2641.3106065655693,2,14,0.550297200679779,3.960709810256958,12.042761475100002,12.308059751198185,48.25217759396515,44.65009967427238,9.713172767078504e-05,0.0931989923119545,0,0,0
4040,145524.1087331348,2010-12-01 02:59:19,2671.3257751732194,2,14,0.5501165986061096,3.9623286724090576,12.047347979924089,12.308059751198185,48.27034729225485,44.65009967427238,3.237724376958795e-05,0.0931989923119545,0,0,0
4041,145554.12371428096,2010-12-01 02:59:49,2701.340756284292,2,14,0.550297200679779,3.964109420776367,12.051934445093227,12.308059751198185,48.2885246033866,44.65009967427238,3.237724376958795e-05,0.0931989923119545,0,0,0
4042,145584.1389272139,2010-12-01 03:00:19,2731.355969202207,2,14,0.550297200679779,3.9658901691436768,12.05652097624374,12.308059751198185,48.30671011570777,44.65009967427238,6.47544875391759e-05,0.0931989923119545,0,0,0
4043,145614.1538869568,2010-12-01 03:00:49,2761.370928935081,2,14,0.5501165986061096,3.9673471450805664,12.06110750169992,12.308059751198185,48.32490362326108,44.65009967427238,0.0,0.0931989923119545,0,0,0
4044,145644.1689595255,2010-12-01 03:01:19,2791.386001513767,2,14,0.550297200679779,3.969451665878296,12.06569403206048,12.308059751198185,48.34310506335933,44.65009967427238,6.47544875391759e-05,0.0931989923119545,0,0,0
4045,145674.184032826,2010-12-01 03:01:49,2821.401074809237,2,14,0.5501165986061096,3.971070528030396,12.07028066244154,12.308059751198185,48.361315041312594,44.65009967427238,3.237724376958795e-05,0.0931989923119545,0,0,0
4046,145704.19909973053,2010-12-01 03:02:19,2851.4161417087907,2,14,0.5499359965324402,3.972851276397705,12.074867254851751,12.308059751198185,48.3795330283791,44.65009967427238,6.47544875391759e-05,0.0931989923119545,0,0,0
4047,145734.2160119471,2010-12-01 03:02:49,2881.433054045644,2,14,0.550297200679779,3.9747939109802246,12.079454119488682,12.308059751198185,48.39776033350273,44.65009967427238,3.237724376958795e-05,0.0931989923119545,0,0,0
4048,145764.22927944388,2010-12-01 03:03:19,2911.4463214221546,2,14,0.5499359965324402,3.976574659347534,12.08404040914298,12.308059751198185,48.41599367174098,44.65009967427238,6.47544875391759e-05,0.0931989923119545,0,0,0
4049,145794.24443123973,2010-12-01 03:03:49,2941.4614732279942,2,14,0.5499359965324402,3.978031635284424,12.088627008615642,12.308059751198185,48.43423630031333,44.65009967427238,3.237724376958795e-05,0.0931989923119545,0,0,0
4050,145824.25940916786,2010-12-01 03:04:19,2971.4764512463707,2,14,0.5499359965324402,3.980136156082153,12.093213371610933,12.308059751198185,48.45248671718574,44.65009967427238,3.237724376958795e-05,0.0931989923119545,0,0,0
4051,145854.27460046197,2010-12-01 03:04:49,3001.491642450251,2,14,0.5501165986061096,3.982240676879883,12.097799869315908,12.308059751198185,48.47074629461101,44.65009967427238,6.47544875391759e-05,0.0931989923119545,0,0,0
4052,145884.28955293176,2010-12-01 03:05:19,3031.506594925064,2,14,0.5499359965324402,3.984021425247192,12.10238634328,12.308059751198185,48.48901435741016,44.65009967427238,6.47544875391759e-05,0.0931989923119545,0,0,0
4053,145914.30462213708,2010-12-01 03:05:49,3061.521664155417,2,14,0.5504778623580933,3.985964059829712,12.106972860234828,12.308059751198185,48.50729127510893,44.65009967427238,6.47544875391759e-05,0.0931989923119545,0,0,0
4054,145944.31971535712,2010-12-01 03:06:19,3091.536757355419,2,14,0.5501165986061096,3.987906694412232,12.111559432434523,12.308059751198185,48.525577289298425,44.65009967427238,6.47544875391759e-05,0.0931989923119545,0,0,0
4055,145974.33490397956,2010-12-01 03:06:49,3121.551945957826,2,14,0.5501165986061096,3.989849328994751,12.116145991332894,12.308059751198185,48.54387202867823,44.65009967427238,6.47544875391759e-05,0.0931989923119545,0,0,0
4056,146004.3498548053,2010-12-01 03:07:19,3151.5668967885467,2,14,0.5501165986061096,3.9917919635772714,12.120732471292998,12.308059751198185,48.56217552400038,44.65009967427238,6.47544875391759e-05,0.0931989923119545,0,0,0
4057,146034.36497700744,2010-12-01 03:07:49,3181.582018985707,2,14,0.5501165986061096,3.99373459815979,12.125318992007683,12.308059751198185,48.58048837695734,44.65009967427238,6.47544875391759e-05,0.0931989923119545,0,0,0
4058,146064.38002855377,2010-12-01 03:08:19,3211.597070637317,2,14,0.5499359965324402,3.9956769943237305,12.129905503909535,12.308059751198185,48.59881048108148,44.65009967427238,0.0,0.0931989923119545,0,0,0
4059,146094.39507210025,2010-12-01 03:08:49,3241.61211408852,2,14,0.5499359965324402,3.99778151512146,12.134492042188572,12.308059751198185,48.61714209605468,44.65009967427238,6.47544875391759e-05,0.0931989923119545,0,0,0
4060,146124.41030013576,2010-12-01 03:09:19,3271.6273421441047,2,14,0.5501165986061096,3.9998860359191895,12.139078554717289,12.308059751198185,48.635482919392565,44.65009967427238,6.47544875391759e-05,0.0931989923119545,0,0,0
4061,146154.42524532243,2010-12-01 03:09:49,3301.642287320756,2,14,0.5501165986061096,4.001990795135498,12.143664978295952,12.308059751198185,48.653833020986376,44.65009967427238,3.24249267578125e-05,0.0931989923119545,0,0,0
4062,146184.44043286223,2010-12-01 03:10:19,3331.6574748504936,2,14,0.5499359965324402,4.004095077514648,12.148251536508049,12.308059751198185,48.67219333837627,44.65009967427238,3.23295607813634e-05,0.0931989923119545,0,0,0
4063,146214.45538021927,2010-12-01 03:10:49,3361.672422212583,2,14,0.5499359965324402,4.006199836730957,12.152837980296368,12.308059751198185,48.69056297168336,44.65009967427238,3.24249267578125e-05,0.0931989923119545,0,0,0
4064,146244.4711142239,2010-12-01 03:11:19,3391.6881562823646,2,14,0.5501165986061096,4.0084662437438965,12.157424545585105,12.308059751198185,48.7089429781835,44.65009967427238,6.47544875391759e-05,0.0931989923119545,0,0,0
4065,146274.48557792243,2010-12-01 03:11:49,3421.702619905688,2,14,0.5501165986061096,4.010570526123047,12.162010946862594,12.308059751198185,48.72733215724645,44.65009967427238,6.47544875391759e-05,0.0931989923119545,0,0,0
4066,146304.5006183461,2010-12-01 03:12:19,3451.7176603443954,2,14,0.550297200679779,4.012836933135986,12.16659737240436,12.308059751198185,48.74573154906815,44.65009967427238,6.47544875391759e-05,0.0931989923119545,0,0,0
4067,146334.51751107417,2010-12-01 03:12:49,3481.734553152653,2,14,0.5501165986061096,4.014941692352295,12.171184193768088,12.308059751198185,48.76414269586409,44.65009967427238,3.24249267578125e-05,0.0931989923119545,0,0,0
4068,146364.53081267583,2010-12-01 03:13:19,3511.747854684156,2,14,0.5501165986061096,4.017208099365234,12.17577041995396,12.308059751198185,48.78256172958005,44.65009967427238,3.24249267578125e-05,0.0931989923119545,0,0,0
4069,146394.54584657325,2010-12-01 03:13:49,3541.762888551511,2,14,0.5501165986061096,4.019474506378174,12.18035696667538,12.308059751198185,48.80099247977633,44.65009967427238,6.47544875391759e-05,0.0931989923119545,0,0,0
4070,146424.56088982898,2010-12-01 03:14:19,3571.77793181224,2,14,0.5499359965324402,4.021902561187744,12.184943436672055,12.308059751198185,48.81943349997534,44.65009967427238,6.47544875391759e-05,0.0931989923119545,0,0,0
4071,146454.5759809037,2010-12-01 03:14:49,3601.793022907003,2,14,0.5501165986061096,4.024168968200684,12.189529928383887,12.308059751198185,48.83788527271778,44.65009967427238,3.23295607813634e-05,0.0931989923119545,0,0,0
4072,146484.5911873956,2010-12-01 03:15:19,3631.80822938389,2,14,0.5501165986061096,4.026597499847412,12.194116414791017,12.308059751198185,48.85634768690947,44.65009967427238,6.47544875391759e-05,0.0931989923119545,0,0,0
4073,146514.606135685,2010-12-01 03:15:49,3661.823177668274,2,14,0.5501165986061096,4.029025554656982,12.198702890767736,12.308059751198185,48.87482089517199,44.65009967427238,6.47544875391759e-05,0.0931989923119545,0,0,0
4074,146544.60771641976,2010-12-01 03:16:19,3691.824758503275,2,14,0.5501165986061096,4.031291961669922,12.203287248508538,12.308059751198185,48.89329640755549,44.65009967427238,6.47544875391759e-05,0.0931989923119545,0,0,0
4075,146574.62071097738,2010-12-01 03:16:49,3721.837753045849,2,14,0.5501165986061096,4.03372049331665,12.2078733652198,12.308059751198185,48.911790144570695,44.65009967427238,3.24249267578125e-05,0.0931989923119545,0,0,0
4076,146604.63574512542,2010-12-01 03:17:19,3751.8527871036767,2,14,0.5501165986061096,4.036148548126221,12.212459839733713,12.308059751198185,48.93029648854582,44.65009967427238,6.47544875391759e-05,0.0931989923119545,0,0,0
4077,146634.65257534292,2010-12-01 03:17:49,3781.8696174264414,2,14,0.550297200679779,4.03873872756958,12.217046549770409,12.308059751198185,48.94881504624522,44.65009967427238,6.47544875391759e-05,0.0931989923119545,0,0,0
4078,146664.6659023478,2010-12-01 03:18:19,3811.8829443310847,2,14,0.5501165986061096,4.04116678237915,12.221632790473732,12.308059751198185,48.96734300147143,44.65009967427238,9.70840483205393e-05,0.0931989923119545,0,0,0
4079,146694.68309734805,2010-12-01 03:18:49,3841.900139416548,2,14,0.5501165986061096,4.04375696182251,12.226219563304076,12.308059751198185,48.985884555864416,44.65009967427238,9.70840483205393e-05,0.0931989923119545,0,0,0
4080,146724.6960823519,2010-12-01 03:19:19,3871.913124360235,2,14,0.5501165986061096,4.046185493469238,12.230805794131657,12.308059751198185,49.004435446744175,44.65009967427238,9.71794142969884e-05,0.0931989923119545,0,0,0
4081,146754.71115763232,2010-12-01 03:19:49,3901.928199615581,2,14,0.5501165986061096,4.0489373207092285,12.235392285847212,12.308059751198185,49.02299902663874,44.65009967427238,9.70840483205393e-05,0.0931989923119545,0,0,0
4082,146784.7262093691,2010-12-01 03:20:19,3931.9432513724537,2,14,0.550297200679779,4.051365852355957,12.239978820396182,12.308059751198185,49.04157449095752,44.65009967427238,9.71794142969884e-05,0.0931989923119545,0,0,0
4083,146814.74141725953,2010-12-01 03:20:49,3961.958459247821,2,14,0.5499359965324402,4.053956031799316,12.24456532796074,12.308059751198185,49.06016165046293,44.65009967427238,9.71794142969884e-05,0.0931989923119545,0,0,0
4084,146844.75638235576,2010-12-01 03:21:19,3991.9734243540656,2,14,0.5501165986061096,4.056384086608887,12.249151871549136,12.308059751198185,49.07876090333465,44.65009967427238,6.47544875391759e-05,0.0931989923119545,0,0,0
4085,146874.7715933639,2010-12-01 03:21:49,4021.9886353421775,2,14,0.5501165986061096,4.059136390686035,12.253738388308433,12.308059751198185,49.09737208030933,44.65009967427238,9.71794142969884e-05,0.0931989923119545,0,0,0
4086,146904.78659422413,2010-12-01 03:22:19,4052.0036362926207,2,14,0.5501165986061096,4.0617265701293945,12.258324996985047,12.308059751198185,49.11599554090701,44.65009967427238,9.71794142969884e-05,0.0931989923119545,0,0,0
4087,146934.80163322427,2010-12-01 03:22:49,4082.018675232599,2,14,0.5501165986061096,4.064478397369385,12.262911459375347,12.308059751198185,49.13463055361514,44.65009967427238,6.47544875391759e-05,0.0931989923119545,0,0,0
4088,146964.81847793283,2010-12-01 03:23:19,4112.0355200163485,2,14,0.5501165986061096,4.067068576812744,12.267498267611394,12.308059751198185,49.15327945930667,44.65009967427238,6.47544875391759e-05,0.0931989923119545,0,0,0
4089,146994.83178159464,2010-12-01 03:23:49,4142.048823577904,2,14,0.5501165986061096,4.069982528686523,12.272084513203009,12.308059751198185,49.17193867106043,44.65009967427238,0.0001295089750783,0.0931989923119545,0,0,0
4090,147024.84697410677,2010-12-01 03:24:19,4172.064016095052,2,14,0.5499359965324402,4.072572708129883,12.276671062286049,12.308059751198185,49.19061168390125,44.65009967427238,6.47544875391759e-05,0.0931989923119545,0,0,0
4091,147054.86191640628,2010-12-01 03:24:49,4202.07895840958,2,14,0.550297200679779,4.075486660003662,12.281257545668035,12.308059751198185,49.20929725369738,44.65009967427238,9.70840483205393e-05,0.0931989923119545,0,0,0
4092,147084.87714121377,2010-12-01 03:25:20,4232.094183267207,2,14,0.5499359965324402,4.0782389640808105,12.285844080184292,12.308059751198185,49.227995891167,44.65009967427238,6.47544875391759e-05,0.0931989923119545,0,0,0
4093,147114.8922141734,2010-12-01 03:25:50,4262.10925616168,2,14,0.5501165986061096,4.08115291595459,12.290430589800875,12.308059751198185,49.24670739284347,44.65009967427238,9.71794142969884e-05,0.0931989923119545,0,0,0
4094,147144.9071834851,2010-12-01 03:26:20,4292.124225488427,2,14,0.5501165986061096,4.084066867828369,12.295017041495653,12.308059751198185,49.26543159263189,44.65009967427238,9.71794142969884e-05,0.0931989923119545,0,0,0
4095,147174.92224333712,2010-12-01 03:26:50,4322.139285320393,2,14,0.5501165986061096,4.086980819702148,12.299603580859786,12.308059751198185,49.28416936685748,44.65009967427238,9.71794142969884e-05,0.0931989923119545,0,0,0
4096,147204.9373091991,2010-12-01 03:27:20,4352.154351182366,2,14,0.5501165986061096,4.089732646942139,12.304190056258436,12.308059751198185,49.30292023691956,44.65009967427238,6.47544875391759e-05,0.0931989923119545,0,0,0
4097,147234.95261186533,2010-12-01 03:27:50,4382.16965393884,2,14,0.550297200679779,4.092646598815918,12.308776584122963,12.308059751198185,49.32168478372089,44.65009967427238,6.47544875391759e-05,0.0931989923119545,0,0,0
4098,147264.96747344898,2010-12-01 03:28:20,4412.184515427237,2,14,0.5501165986061096,4.095722675323486,12.31336306639396,12.308059751198185,49.34046272455109,44.65009967427238,6.47544875391759e-05,0.0931989923119545,0,0,0
4099,147294.98254791737,2010-12-01 03:28:50,4442.199589895625,2,14,0.5501165986061096,4.098636627197266,12.317949573729408,12.308059751198185,49.35925454668349,44.65009967427238,9.71794142969884e-05,0.0931989923119545,0,0,0
4100,147324.9976210374,2010-12-01 03:29:20,4472.214663025683,2,14,0.5501165986061096,4.101712226867676,12.322536172273768,12.308059751198185,49.37806056109367,44.65009967427238,6.47544875391759e-05,0.0931989923119545,0,0,0
4101,147355.0127320467,2010-12-01 03:29:50,4502.22977402999,2,14,0.5501165986061096,4.104788303375244,12.327122699856329,12.308059751198185,49.3968800665119,44.65009967427238,6.47544875391759e-05,0.0931989923119545,0,0,0
4102,147385.02792859392,2010-12-01 03:30:20,4532.244970572155,2,14,0.5501165986061096,4.107863903045654,12.331709252911525,12.308059751198185,49.41571379182903,44.65009967427238,9.70840483205393e-05,0.0931989923119545,0,0,0
4103,147415.0428986274,2010-12-01 03:30:50,4562.259940635736,2,14,0.5501165986061096,4.110939979553223,12.33629571102682,12.308059751198185,49.434561208881085,44.65009967427238,0.0001295089750783,0.0931989923119545,0,0,0
4104,147445.05810647772,2010-12-01 03:31:20,4592.275148531153,2,14,0.550297200679779,4.114015579223633,12.340882260025568,12.308059751198185,49.45342316079376,44.65009967427238,9.70840483205393e-05,0.0931989923119545,0,0,0
4105,147475.07302775487,2010-12-01 03:31:50,4622.290069748181,2,14,0.5501165986061096,4.117091178894043,12.34546873786936,12.308059751198185,49.47229913727998,44.65009967427238,6.47544875391759e-05,0.0931989923119545,0,0,0
4106,147505.0882213397,2010-12-01 03:32:20,4652.305263327974,2,14,0.5497553944587708,4.120167255401611,12.350055278733608,12.308059751198185,49.49118981164883,44.65009967427238,6.47544875391759e-05,0.0931989923119545,0,0,0
4107,147535.10318152868,2010-12-01 03:32:50,4682.320223511971,2,14,0.550297200679779,4.123566627502441,12.354641830549053,12.308059751198185,49.51009507633573,44.65009967427238,0.0001295089750783,0.0931989923119545,0,0,0
4108,147565.12005041743,2010-12-01 03:33:20,4712.337092495942,2,14,0.5501165986061096,4.12664270401001,12.35922859932829,12.308059751198185,49.529015913680354,44.65009967427238,6.47544875391759e-05,0.0931989923119545,0,0,0
4109,147595.133357999,2010-12-01 03:33:50,4742.350399977251,2,14,0.5501165986061096,4.129880428314209,12.36381484682644,12.308059751198185,49.54794945670506,44.65009967427238,3.24249267578125e-05,0.0931989923119545,0,0,0
4110,147625.14856132807,2010-12-01 03:34:20,4772.365603306304,2,14,0.5501165986061096,4.133279800415039,12.36840145160418,12.308059751198185,49.56689947555033,44.65009967427238,9.70840483205393e-05,0.0931989923119545,0,0,0
4111,147655.16349211388,2010-12-01 03:34:50,4802.380534097158,2,14,0.5499359965324402,4.136517524719238,12.372987993860548,12.308059751198185,49.58586430992227,44.65009967427238,6.47544875391759e-05,0.0931989923119545,0,0,0
4112,147685.1785923464,2010-12-01 03:35:20,4832.395634399833,2,14,0.5501165986061096,4.1397552490234375,12.377574580428591,12.308059751198185,49.60484449883931,44.65009967427238,6.47544875391759e-05,0.0931989923119545,0,0,0
4113,147715.1937909687,2010-12-01 03:35:50,4862.410832972049,2,14,0.5501165986061096,4.143155097961426,12.382161168243217,12.308059751198185,49.62383991286151,44.65009967427238,6.47544875391759e-05,0.0931989923119545,0,0,0
4114,147745.20872959908,2010-12-01 03:36:20,4892.425771597398,2,14,0.5501165986061096,4.146716594696045,12.386747661916068,12.308059751198185,49.64285046981915,44.65009967427238,0.0001295089750783,0.0931989923119545,0,0,0
4115,147775.22389728946,2010-12-01 03:36:50,4922.440939408066,2,14,0.5499359965324402,4.149792194366455,12.391334164121275,12.308059751198185,49.66187668545721,44.65009967427238,6.47544875391759e-05,0.0931989923119545,0,0,0
4116,147805.238995527,2010-12-01 03:37:20,4952.456037515278,2,14,0.5499359965324402,4.153353691101074,12.395920624034057,12.308059751198185,49.68091844773046,44.65009967427238,6.47544875391759e-05,0.0931989923119545,0,0,0
4117,147835.25412869648,2010-12-01 03:37:50,4982.471170674717,2,14,0.550297200679779,4.156915187835693,12.40050708908154,12.308059751198185,49.69997593875617,44.65009967427238,0.0001295089750783,0.0931989923119545,0,0,0
4118,147865.26909495555,2010-12-01 03:38:20,5012.486136933831,2,14,0.550297200679779,4.160315036773682,12.405093542729537,12.308059751198185,49.7190492760197,44.65009967427238,6.47544875391759e-05,0.0931989923119545,0,0,0
4119,147895.28427766834,2010-12-01 03:38:50,5042.501319646582,2,14,0.5499359965324402,4.163714408874512,12.409680057716782,12.308059751198185,49.73813894872006,44.65009967427238,6.47544875391759e-05,0.0931989923119545,0,0,0
4120,147925.2991866098,2010-12-01 03:39:20,5072.516228588063,2,14,0.5499359965324402,4.167275905609131,12.414266460250634,12.308059751198185,49.75724414564724,44.65009967427238,6.47544875391759e-05,0.0931989923119545,0,0,0
4121,147955.31432792955,2010-12-01 03:39:50,5102.5313699027965,2,14,0.5497553944587708,4.17083740234375,12.418851904571495,12.308059751198185,49.77636147742672,44.65009967427238,9.70840483205393e-05,0.0931989923119545,0,0,0
4122,147985.32941341033,2010-12-01 03:40:20,5132.546455383589,2,14,0.5499359965324402,4.174398899078369,12.42343742342406,12.308059751198185,49.795495539738255,44.65009967427238,6.47544875391759e-05,0.0931989923119545,0,0,0
4123,148015.34460671947,2010-12-01 03:40:50,5162.561648722784,2,14,0.5499359965324402,4.177960395812988,12.428022988146894,12.308059751198185,49.814646189836296,44.65009967427238,6.47544875391759e-05,0.0931989923119545,0,0,0
4124,148045.35949189682,2010-12-01 03:41:20,5192.576533880078,2,14,0.5501165986061096,4.1816840171813965,12.432608538968514,12.308059751198185,49.83381325528128,44.65009967427238,9.71794142969884e-05,0.0931989923119545,0,0,0
4125,148075.37477803192,2010-12-01 03:41:50,5222.591820060305,2,14,0.5499359965324402,4.185245513916016,12.437194988730432,12.308059751198185,49.85300067938252,44.65009967427238,9.71794142969884e-05,0.0931989923119545,0,0,0
4126,148105.3897092789,2010-12-01 03:42:20,5252.606751257167,2,14,0.5501165986061096,4.188968658447266,12.441781425821285,12.308059751198185,49.872204805188446,44.65009967427238,9.70840483205393e-05,0.0931989923119545,0,0,0
4127,148135.40479313064,2010-12-01 03:42:50,5282.621835118931,2,14,0.5501165986061096,4.192692279815674,12.446367894262512,12.308059751198185,49.89142588960923,44.65009967427238,9.71794142969884e-05,0.0931989923119545,0,0,0
4128,148165.42168475094,2010-12-01 03:43:20,5312.638726834469,2,14,0.5499359965324402,4.196253299713135,12.450954683501802,12.308059751198185,49.91066523607877,44.65009967427238,6.47544875391759e-05,0.0931989923119545,0,0,0
4129,148194.01314393748,2010-12-01 03:43:49,5341.230186000933,2,14,0.550297200679779,4.200138568878174,12.455323608939928,12.308059751198185,49.92900652747196,44.65009967427238,0.0001295089750783,0.0931989923119545,0,0,0
4130,148224.02740462802,2010-12-01 03:44:19,30.015092849128408,3,14,0.0,4.112558841705322,12.455323608939928,12.308059751198185,49.92900652747196,44.65009967427238,-0.0004208564641885,0.0931989923119545,0,0,0
4131,148254.0424619688,2010-12-01 03:44:49,60.03015018488316,3,14,0.0,4.101874351501465,12.455323608939928,12.308059751198185,49.92900652747196,44.65009967427238,-0.0002265930233988,0.0931989923119545,0,0,0
4132,148284.0575569282,2010-12-01 03:45:19,90.04524521944994,3,14,0.0,4.095560550689697,12.455323608939928,12.308059751198185,49.92900652747196,44.65009967427238,-0.0001295089750783,0.0931989923119545,0,0,0
4133,148314.02576576325,2010-12-01 03:45:49,120.01345398433794,3,14,0.0,4.091513633728027,12.455323608939928,12.308059751198185,49.92900652747196,44.65009967427238,-3.23295607813634e-05,0.0931989923119545,0,0,0
4134,148314.02715069946,2010-12-01 03:45:49,2.656610874e-06,4,14,0.9889971613883972,4.199814796447754,12.455323609669756,12.308059751198185,49.92900653053709,44.65009967427238,0.0,0.0931989923119545,0,0,0
4135,148314.99589023556,2010-12-01 03:45:50,0.968742307974074,4,14,0.9380653500556946,4.199814796447754,12.455581233714591,12.308059751198185,49.93008848742733,44.65009967427238,0.0,0.0931989923119545,0,0,0
4136,148317.1681919448,2010-12-01 03:45:52,3.141043997177592,4,14,0.8876753449440002,4.199814796447754,12.456130908575776,12.308059751198185,49.93239697295651,44.65009967427238,0.0,0.0931989923119545,0,0,0
4137,148320.43327437184,2010-12-01 03:45:55,6.40612633900514,4,14,0.8376466035842896,4.199653148651123,12.456912103300851,12.308059751198185,49.93567777841729,44.65009967427238,-3.23295607813634e-05,0.0931989923119545,0,0,0
4138,148324.9176006052,2010-12-01 03:46:00,10.890452662587284,4,14,0.7876178026199341,4.199814796447754,12.457922915488878,12.308059751198185,49.93992294917031,44.65009967427238,0.0,0.0931989923119545,0,0,0
4139,148330.8237084424,2010-12-01 03:46:06,16.796560414570102,4,14,0.7370471954345703,4.199814796447754,12.45917220739244,12.308059751198185,49.94516968041566,44.65009967427238,0.0,0.0931989923119545,0,0,0
4140,148338.6360197085,2010-12-01 03:46:14,24.608871680682316,4,14,0.6870184540748596,4.199653148651123,12.460715651827629,12.308059751198185,49.9516518112375,44.65009967427238,0.0,0.0931989923119545,0,0,0
4141,148349.07333521167,2010-12-01 03:46:24,35.046187208939166,4,14,0.6366284489631653,4.199814796447754,12.462631579613312,12.308059751198185,49.95969833872388,44.65009967427238,0.0,0.0931989923119545,0,0,0
4142,148363.91683399753,2010-12-01 03:46:39,49.88968599977637,4,14,0.5865997076034546,4.199814796447754,12.465147715250248,12.308059751198185,49.97026562391878,44.65009967427238,0.0,0.0931989923119545,0,0,0
4143,148386.9320258172,2010-12-01 03:47:02,72.90487781440739,4,14,0.5363903045654297,4.199653148651123,12.468725263732033,12.308059751198185,49.98529059742644,44.65009967427238,-3.23295607813634e-05,0.0931989923119545,0,0,0
4144,148427.4782270996,2010-12-01 03:47:42,113.45107907677952,4,14,0.4863615334033966,4.199814796447754,12.4744610811723,12.308059751198185,50.00937986050515,44.65009967427238,0.0,0.0931989923119545,0,0,0
4145,148502.13307554362,2010-12-01 03:48:57,188.10592752580465,4,14,0.4363327622413635,4.199653148651123,12.483991135433037,12.308059751198185,50.049404178579486,44.65009967427238,-3.23295607813634e-05,0.0931989923119545,0,0,0
4146,148609.45926194053,2010-12-01 03:50:44,295.4321139126981,4,14,0.386123389005661,4.199653148651123,12.49622832311518,12.308059751198185,50.10079759600891,44.65009967427238,-3.23295607813634e-05,0.0931989923119545,0,0,0
4147,148742.61309757922,2010-12-01 03:52:58,428.5859495513837,4,14,0.3360946178436279,4.199653148651123,12.509568693788832,12.308059751198185,50.15682420903201,44.65009967427238,-3.23295607813634e-05,0.0931989923119545,0,0,0
4148,148900.01653339024,2010-12-01 03:55:35,585.989385457658,4,14,0.2860658466815948,4.199653148651123,12.523151703753747,12.308059751198185,50.21386986838409,44.65009967427238,0.0,0.0931989923119545,0,0,0
4149,149090.54427886687,2010-12-01 03:58:45,776.517130834037,4,14,0.2360370755195617,4.199814796447754,12.536943092456015,12.308059751198185,50.27179062982468,44.65009967427238,0.0,0.0931989923119545,0,0,0
4150,149326.63376162935,2010-12-01 04:02:42,1012.6066136266016,4,14,0.1858277022838592,4.199491024017334,12.550743393101811,12.308059751198185,50.3297487147421,44.65009967427238,-6.47544875391759e-05,0.0931989923119545,0,0,0
4151,149645.9248388496,2010-12-01 04:08:01,1331.8976908217758,4,14,0.1357989311218261,4.199653148651123,12.56494321261112,12.308059751198185,50.38938477496318,44.65009967427238,0.0,0.0931989923119545,0,0,0
4152,150149.15012105956,2010-12-01 04:16:24,1835.1229730267244,4,14,0.085770159959793,4.199814796447754,12.580172147849362,12.308059751198185,50.45334286581638,44.65009967427238,0.0,0.0931989923119545,0,0,0
4153,150794.59160188492,2010-12-01 04:27:10,2480.564453857098,4,14,0.0498289167881011,4.199814796447754,12.59206178887452,12.308059751198185,50.50327658999722,44.65009967427238,3.23295607813634e-05,0.0931989923119545,0,0,0
4154,150824.60622910233,2010-12-01 04:27:40,30.015195364233303,5,14,0.0,4.191558837890625,12.59206178887452,12.308059751198185,50.50327658999722,44.65009967427238,-6.47544875391759e-05,0.0931989923119545,0,0,0
4155,150854.60558182275,2010-12-01 04:28:10,60.0145480696194,5,14,0.0,4.190425872802734,12.59206178887452,12.308059751198185,50.50327658999722,44.65009967427238,-3.23295607813634e-05,0.0931989923119545,0,0,0
4156,150854.7937014877,2010-12-01 04:28:10,0.187626892305082,6,14,-1.9243103452026844e-05,4.190425872802734,12.592061792578212,12.308059751198185,50.50327660551727,44.65009967427238,0.0,0.0940944999456405,0,0,0
4157,150859.62163496952,2010-12-01 04:28:15,5.015560323960008,6,14,0.0007031940040178,4.190263748168945,12.592062653572484,12.308059751365356,50.50328021353142,44.650099674972914,-6.47544875391759e-05,0.0940944999456405,0,0,0
4158,150889.63742491396,2010-12-01 04:28:45,30.01520770995516,7,14,-1.099568486213684,4.010732650756836,12.592062653572484,12.31722866699554,50.50328021353142,44.687073523162425,-0.0009388923645019,0.0940944999456405,0,0,0
4159,150919.65234205587,2010-12-01 04:29:15,60.03012484683038,7,14,-1.0997490882873535,3.983697652816773,12.592062653572484,12.326397466031365,50.50328021353142,44.72371359375269,-0.0005827903514727,0.0940944999456405,0,0,0
4160,150949.66749552084,2010-12-01 04:29:45,90.04527831681146,7,14,-1.0997490882873535,3.964756965637207,12.592062653572484,12.335566273966435,50.50328021353142,44.76014773025737,-0.0004532813909463,0.0940944999456405,0,0,0
4161,150979.68258086126,2010-12-01 04:30:15,120.06036365725478,7,14,-1.0997490882873535,3.9500253200531006,12.592062653572484,12.344734957215111,50.50328021353142,44.7964301066943,-0.0003561496851034,0.0940944999456405,0,0,0
4162,151009.69758700966,2010-12-01 04:30:45,150.07536980563168,7,14,-1.099929690361023,3.9378838539123535,12.592062653572484,12.353903737557136,50.50328021353142,44.83258981504294,-0.0002913951757363,0.0940944999456405,0,0,0
4163,151039.7127011568,2010-12-01 04:31:15,180.09048394273444,7,14,-1.0997490882873535,3.926551818847656,12.592062653572484,12.363072586687148,50.50328021353142,44.86864190097501,-0.0002590179501567,0.0940944999456405,0,0,0
4164,151069.72775960533,2010-12-01 04:31:45,210.10554239627072,7,14,-1.0997490882873535,3.915705442428589,12.592062653572484,12.37224141883278,50.50328021353142,44.90459432973475,-0.0003561496851034,0.0940944999456405,0,0,0
4165,151099.74284965248,2010-12-01 04:32:15,240.12063244342653,7,14,-1.0997490882873535,3.9059925079345694,12.592062653572484,12.381410172832307,50.50328021353142,44.94045245776934,-0.0002266406954731,0.0940944999456405,0,0,0
4166,151129.7579596242,2010-12-01 04:32:45,270.13574251541337,7,14,-1.0997490882873535,3.896441221237183,12.592062653572484,12.390579015920858,50.50328021353142,44.9762216375168,-0.0002590179501567,0.0940944999456405,0,0,0
4167,151159.77330163337,2010-12-01 04:33:15,300.15108451955444,7,14,-1.099568486213684,3.887375593185425,12.592062653572484,12.399747819313234,50.50328021353142,45.01190559144615,-0.0002266406954731,0.0940944999456405,0,0,0
4168,151189.78810922764,2010-12-01 04:33:45,330.1658920236126,7,14,-1.0997490882873535,3.878471851348877,12.592062653572484,12.408916521590116,50.50328021353142,45.047506455669925,-0.0001942634553415,0.0940944999456405,0,0,0
4169,151219.80319286886,2010-12-01 04:34:15,360.18097565981503,7,14,-1.0997490882873535,3.869729995727539,12.592062653572484,12.4180853612295,50.50328021353142,45.083027562886095,-0.0002266406954731,0.0940944999456405,0,0,0
4170,151249.8200445097,2010-12-01 04:34:45,390.19782739586594,7,14,-1.0997490882873535,3.861311912536621,12.592062653572484,12.427254709396887,50.50328021353142,45.11847265046287,-0.0002266406954731,0.0940944999456405,0,0,0
4171,151279.83401557727,2010-12-01 04:35:15,420.2117984233843,7,14,-1.099568486213684,3.853055715560913,12.592062653572484,12.43642314615554,50.50328021353142,45.153837056696005,-0.0002266406954731,0.0940944999456405,0,0,0
4172,151309.84844992778,2010-12-01 04:35:45,450.226232718727,7,14,-1.099568486213684,3.844799518585205,12.592062653572484,12.445591750181258,50.50328021353142,45.189125952054354,-0.0001942634553415,0.0940944999456405,0,0,0
4173,151339.8635234538,2010-12-01 04:36:15,480.2413062447706,7,14,-1.0997490882873535,3.836705207824707,12.592062653572484,12.454760514625436,50.50328021353142,45.22434118835027,-0.0002266406954731,0.0940944999456405,0,0,0
4174,151369.87863945556,2010-12-01 04:36:45,510.2564222465135,7,14,-1.0997490882873535,3.828934907913208,12.592062653572484,12.463929348891964,50.50328021353142,45.259483838968364,-0.0001942634553415,0.0940944999456405,0,0,0
4175,151399.89370645036,2010-12-01 04:37:15,540.2714892362918,7,14,-1.099568486213684,3.82116436958313,12.592062653572484,12.47309818378358,50.50328021353142,45.29455472342113,-0.0001942634553415,0.0940944999456405,0,0,0
4176,151429.90886977484,2010-12-01 04:37:45,570.286652585858,7,14,-1.099568486213684,3.813717603683472,12.592062653572484,12.482266742271054,50.50328021353142,45.3295543331321,-0.0001618862152099,0.0940944999456405,0,0,0
4177,151459.9238311418,2010-12-01 04:38:15,600.301613932748,7,14,-1.099568486213684,3.806108951568604,12.592062653572484,12.491435218668515,50.50328021353142,45.364483792937946,-0.0001942634553415,0.0940944999456405,0,0,0
4178,151489.93908830482,2010-12-01 04:38:45,630.3168710957652,7,14,-1.099568486213684,3.798662185668945,12.592062653572484,12.500603962492296,50.50328021353142,45.39934608805195,-0.0001618862152099,0.0940944999456405,0,0,0
4179,151519.95405695486,2010-12-01 04:39:15,660.331839745829,7,14,-1.0997490882873535,3.791377305984497,12.592062653572484,12.509772659366815,50.50328021353142,45.43414151785474,-0.0001942634553415,0.0940944999456405,0,0,0
4180,151549.97130466628,2010-12-01 04:39:45,690.3490875474739,7,14,-1.0992072820663452,3.784578084945679,12.592062653572484,12.51894209755764,50.50328021353142,45.468874611887856,-0.0001618862152099,0.0940944999456405,0,0,0
4181,151579.98424858286,2010-12-01 04:40:15,720.3620314339915,7,14,-1.099568486213684,3.77745509147644,12.592062653572484,12.528110364656689,50.50328021353142,45.50353911024592,-0.0001618862152099,0.0940944999456405,0,0,0
4182,151609.99929460045,2010-12-01 04:40:45,750.3770773914318,7,14,-1.099929690361023,3.770493984222412,12.592062653572484,12.53727918630482,50.50328021353142,45.53814300904689,-0.0002266406954731,0.0940944999456405,0,0,0
4183,151640.01447776434,2010-12-01 04:41:15,780.3922606605669,7,14,-1.099568486213684,3.764180421829224,12.592062653572484,12.546448095002242,50.50328021353142,45.57268612158116,-0.0001618862152099,0.0940944999456405,0,0,0
4184,151670.01608056904,2010-12-01 04:41:45,810.3938634752635,7,14,-1.0997490882873535,3.7575430870056152,12.592062653572484,12.555612849070751,50.50328021353142,45.60715344667631,-0.0001618862152099,0.0940944999456405,0,0,0
4185,151700.02897930317,2010-12-01 04:42:15,840.4067621893713,7,14,-1.099568486213684,3.751391649246216,12.592062653572484,12.564781045354882,50.50328021353142,45.64157515916703,-0.0001618862152099,0.0940944999456405,0,0,0
4186,151730.04610702602,2010-12-01 04:42:45,870.4238900024292,7,14,-1.1001102924346924,3.7450780868530273,12.592062653572484,12.573950511465007,50.50328021353142,45.67594479882336,-0.0001942634553415,0.0940944999456405,0,0,0
4187,151760.05909210502,2010-12-01 04:43:15,900.4368748959912,7,14,-1.0997490882873535,3.739088296890259,12.592062653572484,12.583118755032109,50.50328021353142,45.71025381329648,-0.0001295089750783,0.0940944999456405,0,0,0
4188,151790.07419239767,2010-12-01 04:43:45,930.45197518363,7,14,-1.0997490882873535,3.73309850692749,12.592062653572484,12.592287643641708,50.50328021353142,45.7445097069688,-0.0001942634553415,0.0940944999456405,0,0,0
4189,151820.0892614075,2010-12-01 04:44:15,960.4670441984476,7,14,-1.099568486213684,3.727270603179932,12.592062653572484,12.601456481759362,50.50328021353142,45.77871123866707,-0.0001618862152099,0.0940944999456405,0,0,0
4190,151850.10438208084,2010-12-01 04:44:45,990.4821649620402,7,14,-1.099929690361023,3.721442699432373,12.592062653572484,12.610625318827978,50.50328021353142,45.81285996113862,-0.0001618862152099,0.0940944999456405,0,0,0
4191,151880.12116217363,2010-12-01 04:45:15,1020.4989450949092,7,14,-1.099568486213684,3.716100454330444,12.592062653572484,12.6197946830366,50.50328021353142,45.8469580880925,-9.713172767078504e-05,0.0940944999456405,0,0,0
4192,151910.13453801002,2010-12-01 04:45:45,1050.512320831068,7,14,-1.099568486213684,3.7102725505828857,12.592062653572484,12.628963119347254,50.50328021353142,45.88100106939613,-0.0001295089750783,0.0940944999456405,0,0,0
4193,151940.14961779665,2010-12-01 04:46:15,1080.527400607666,7,14,-1.099568486213684,3.704930305480957,12.592062653572484,12.638132067291709,50.50328021353142,45.91499487259879,-0.0001295089750783,0.0940944999456405,0,0,0
4194,151970.16472919192,2010-12-01 04:46:45,1110.5425120530706,7,14,-1.099568486213684,3.6994261741638175,12.592062653572484,12.647301030755342,50.50328021353142,45.94893895248652,-0.0001295089750783,0.0940944999456405,0,0,0
4195,152000.17979040733,2010-12-01 04:47:15,1140.557573293542,7,14,-1.0997490882873535,3.69392204284668,12.592062653572484,12.656470036052086,50.50328021353142,45.9828336271821,-0.0001618862152099,0.0940944999456405,0,0,0
4196,152030.19500223256,2010-12-01 04:47:45,1170.5727850886633,7,14,-1.099568486213684,3.688741683959961,12.592062653572484,12.665639042316828,50.50328021353142,46.01667919454665,-0.0001295089750783,0.0940944999456405,0,0,0
4197,152060.20992916878,2010-12-01 04:48:15,1200.5877119597612,7,14,-1.0997490882873535,3.683399438858032,12.592062653572484,12.674807885932164,50.50328021353142,46.050475515047935,-0.0001295089750783,0.0940944999456405,0,0,0
4198,152090.22514494383,2010-12-01 04:48:45,1230.6029277548362,7,14,-1.0997490882873535,3.6782190799713135,12.592062653572484,12.683976895051153,50.50328021353142,46.08422457283656,-9.713172767078504e-05,0.0940944999456405,0,0,0
4199,152120.24009943366,2010-12-01 04:49:16,1260.6178822296251,7,14,-1.0997490882873535,3.6732006072998047,12.592062653572484,12.693145875521058,50.50328021353142,46.11792663808417,-9.713172767078504e-05,0.0940944999456405,0,0,0
4200,152150.25534637625,2010-12-01 04:49:46,1290.6331291722097,7,14,-1.0997490882873535,3.668182373046875,12.592062653572484,12.702314860926467,50.50328021353142,46.15158271219946,-0.0001295089750783,0.0940944999456405,0,0,0
4201,152180.27029587864,2010-12-01 04:50:16,1320.648078674625,7,14,-1.0997490882873535,3.663163900375366,12.592062653572484,12.711483732119056,50.50328021353142,46.185192460469565,-0.0001295089750783,0.0940944999456405,0,0,0
4202,152210.2857300622,2010-12-01 04:50:46,1350.6635129383506,7,14,-1.0997490882873535,3.6581454277038574,12.592062653572484,12.720652802444956,50.50328021353142,46.21875777854861,-0.0001618862152099,0.0940944999456405,0,0,0
4203,152240.30045928142,2010-12-01 04:51:16,1380.6782420723878,7,14,-1.0997490882873535,3.653450727462769,12.592062653572484,12.729821613074195,50.50328021353142,46.25227755977608,-0.0001295089750783,0.0940944999456405,0,0,0
4204,152270.31575342646,2010-12-01 04:51:46,1410.6935362174331,7,14,-1.0997490882873535,3.6485941410064697,12.592062653572484,12.73899056706892,50.50328021353142,46.28575366370352,-0.0001295089750783,0.0940944999456405,0,0,0
4205,152300.33061902507,2010-12-01 04:52:16,1440.7084018260823,7,14,-1.0997490882873535,3.644061326980591,12.592062653572484,12.748159327258277,50.50328021353142,46.3191854723171,-9.713172767078504e-05,0.0940944999456405,0,0,0
4206,152330.34569340327,2010-12-01 04:52:46,1470.7234761942218,7,14,-1.0997490882873535,3.639528512954712,12.592062653572484,12.757328187305378,50.50328021353142,46.35257514598674,-9.713172767078504e-05,0.0940944999456405,0,0,0
4207,152360.361041688,2010-12-01 04:53:16,1500.738824554179,7,14,-1.099568486213684,3.634995698928833,12.592062653572484,12.76649715424342,50.50328021353142,46.3859234887917,-9.713172767078504e-05,0.0940944999456405,0,0,0
4208,152390.37587618426,2010-12-01 04:53:46,1530.7536589752192,7,14,-1.0993878841400146,3.630624771118164,12.592062653572484,12.775665982050317,50.50328021353142,46.41923060518577,-6.47544875391759e-05,0.0940944999456405,0,0,0
4209,152420.39107222515,2010-12-01 04:54:16,1560.7688550161365,7,14,-1.0997490882873535,3.626091957092285,12.592062653572484,12.784834929189136,50.50328021353142,46.45249809622268,-0.0001295089750783,0.0940944999456405,0,0,0
4210,152450.4060771104,2010-12-01 04:54:46,1590.7838599514948,7,14,-1.0997490882873535,3.622044801712036,12.592062653572484,12.794003828280925,50.50328021353142,46.48572594876392,-9.713172767078504e-05,0.0940944999456405,0,0,0
4211,152480.42309053882,2010-12-01 04:55:16,1620.8008734200105,7,14,-1.0997490882873535,3.617673873901367,12.592062653572484,12.80317339516798,50.50328021353142,46.5189181743068,-0.0001618862152099,0.0940944999456405,0,0,0
4212,152510.4362213906,2010-12-01 04:55:46,1650.814004186572,7,14,-1.0997490882873535,3.613788604736328,12.592062653572484,12.812341730810918,50.50328021353142,46.55206861626742,-9.713172767078504e-05,0.0940944999456405,0,0,0
4213,152540.45129616975,2010-12-01 04:56:16,1680.829078965734,7,14,-1.0997490882873535,3.609741449356079,12.592062653572484,12.821510645806857,50.50328021353142,46.58518440393545,-0.0001295089750783,0.0940944999456405,0,0,0
4214,152570.46639975058,2010-12-01 04:56:46,1710.8441825766429,7,14,-1.099568486213684,3.60585618019104,12.592062653572484,12.830679533820664,50.50328021353142,46.61826399689988,-9.713172767078504e-05,0.0940944999456405,0,0,0
4215,152600.48145979308,2010-12-01 04:57:16,1740.859242589058,7,14,-1.099568486213684,3.602132797241211,12.592062653572484,12.839848436884544,50.50328021353142,46.65130872135279,-0.0001295089750783,0.0940944999456405,0,0,0
4216,152630.49655610582,2010-12-01 04:57:46,1770.874338896793,7,14,-1.099568486213684,3.598409414291382,12.592062653572484,12.849017327174009,50.50328021353142,46.68431961717428,-9.713172767078504e-05,0.0940944999456405,0,0,0
4217,152660.51162995267,2010-12-01 04:58:16,1800.8894127436347,7,14,-1.0997490882873535,3.5950098037719727,12.592062653572484,12.858186278990976,50.50328021353142,46.71729779503927,-9.713172767078504e-05,0.0940944999456405,0,0,0
4218,152690.52681373307,2010-12-01 04:58:46,1830.904596624292,7,14,-1.099929690361023,3.5914485454559326,12.592062653572484,12.867355203959288,50.50328021353142,46.750244033230736,-9.713172767078504e-05,0.0940944999456405,0,0,0
4219,152720.54198545348,2010-12-01 04:59:16,1860.919768339676,7,14,-1.0997490882873535,3.5882108211517334,12.592062653572484,12.876524131513564,50.50328021353142,46.78315915394958,-9.713172767078504e-05,0.0940944999456405,0,0,0
4220,152750.5569268457,2010-12-01 04:59:46,1890.9347097218847,7,14,-1.099929690361023,3.5846493244171143,12.592062653572484,12.885693027900931,50.50328021353142,46.81604352538509,-0.0001295089750783,0.0940944999456405,0,0,0
4221,152780.57206097757,2010-12-01 05:00:16,1920.949843858756,7,14,-1.0993878841400146,3.581735372543335,12.592062653572484,12.89486200029686,50.50328021353142,46.84889823970174,-6.47544875391759e-05,0.0940944999456405,0,0,0
4222,152810.58704699585,2010-12-01 05:00:46,1950.964829786816,7,14,-1.099568486213684,3.5786595344543457,12.592062653572484,12.904030892135452,50.50328021353142,46.88172327872207,-3.237724376958795e-05,0.0940944999456405,0,0,0
4223,152840.6022598787,2010-12-01 05:01:16,1980.980042674656,7,14,-1.099568486213684,3.5750980377197266,12.592062653572484,12.91319988330579,50.50328021353142,46.91451832229444,-9.713172767078504e-05,0.0940944999456405,0,0,0
4224,152870.6172294661,2010-12-01 05:01:46,2010.9950122670648,7,14,-1.0997490882873535,3.5715365409851074,12.592062653572484,12.922368700798074,50.50328021353142,46.94728124198596,-9.713172767078504e-05,0.0940944999456405,0,0,0
4225,152900.6322941852,2010-12-01 05:02:16,2041.0100769711555,7,14,-1.099568486213684,3.5681369304656982,12.592062653572484,12.931537533780787,50.50328021353142,46.98001312956667,-9.713172767078504e-05,0.0940944999456405,0,0,0
4226,152930.64749658195,2010-12-01 05:02:46,2071.0252793779136,7,14,-1.0997490882873535,3.564899206161499,12.592062653572484,12.940706346793014,50.50328021353142,47.01271364043522,-3.237724376958795e-05,0.0940944999456405,0,0,0
4227,152960.6624619839,2010-12-01 05:03:16,2101.04024476987,7,14,-1.099568486213684,3.56133770942688,12.592062653572484,12.949874999395757,50.50328021353142,47.045382178688456,-9.713172767078504e-05,0.0940944999456405,0,0,0
4228,152990.67768882646,2010-12-01 05:03:46,2131.055471627473,7,14,-1.099929690361023,3.5579380989074707,12.592062653572484,12.959043754113251,50.50328021353142,47.07801997085982,-9.713172767078504e-05,0.0940944999456405,0,0,0
4229,153020.69260950218,2010-12-01 05:04:16,2161.0703922931298,7,14,-1.099568486213684,3.554538488388061,12.592062653572484,12.968212383408945,50.50328021353142,47.11062596838524,-9.713172767078504e-05,0.0940944999456405,0,0,0
4230,153050.70768992035,2010-12-01 05:04:46,2191.085472711324,7,14,-1.0997490882873535,3.5511388778686523,12.592062653572484,12.977381087312375,50.50328021353142,47.14320013887474,-6.47544875391759e-05,0.0940944999456405,0,0,0
4231,153080.7227866341,2010-12-01 05:05:16,2221.1005694300816,7,14,-1.0997490882873535,3.547577381134033,12.592062653572484,12.986549759486447,50.50328021353142,47.17574242099947,-6.47544875391759e-05,0.0940944999456405,0,0,0
4232,153110.7240255633,2010-12-01 05:05:46,2251.101808429438,7,14,-1.099568486213684,3.544015884399414,12.592062653572484,12.99571422288331,50.50328021353142,47.20823792233635,-0.0001295089750783,0.0940944999456405,0,0,0
4233,153140.7374711132,2010-12-01 05:06:16,2281.1152539893505,7,14,-1.099929690361023,3.540454387664795,12.592062653572484,13.00488225527472,50.50328021353142,47.24071414418695,-0.0001295089750783,0.0940944999456405,0,0,0
4234,153170.75235598476,2010-12-01 05:06:46,2311.1301387757226,7,14,-1.099568486213684,3.536892890930176,12.592062653572484,13.014050701510287,50.50328021353142,47.273159542117405,-0.0001295089750783,0.0940944999456405,0,0,0
4235,153200.76743145063,2010-12-01 05:07:16,2341.145214246606,7,14,-1.0997490882873535,3.5333313941955566,12.592062653572484,13.02321925295504,50.50328021353142,47.30557242709168,-9.713172767078504e-05,0.0940944999456405,0,0,0
4236,153230.7825122197,2010-12-01 05:07:46,2371.160295115923,7,14,-1.099568486213684,3.5296080112457275,12.592062653572484,13.03238778388948,50.50328021353142,47.3379516880508,-0.0001295089750783,0.0940944999456405,0,0,0
4237,153260.79807729393,2010-12-01 05:08:16,2401.1758602052028,7,14,-1.0997490882873535,3.5258846282958984,12.592062653572484,13.04155645256434,50.50328021353142,47.37029748158309,-0.0001295089750783,0.0940944999456405,0,0,0
4238,153290.81263031974,2010-12-01 05:08:46,2431.19041310569,7,14,-1.0997490882873535,3.52199935913086,12.592062653572484,13.0507248526108,50.50328021353142,47.40260766055311,-9.713172767078504e-05,0.0940944999456405,0,0,0
4239,153320.8276791343,2010-12-01 05:09:16,2461.205461925252,7,14,-1.099568486213684,3.5181140899658203,12.592062653572484,13.059893306327517,50.50328021353142,47.434882498152376,-0.0001295089750783,0.0940944999456405,0,0,0
4240,153350.84277003357,2010-12-01 05:09:46,2491.220552829541,7,14,-1.0997490882873535,3.5140669345855717,12.592062653572484,13.069061778414463,50.50328021353142,47.46712034607822,-0.0001295089750783,0.0940944999456405,0,0,0
4241,153380.857826843,2010-12-01 05:10:16,2521.235609659036,7,14,-1.099568486213684,3.509696245193481,12.592062653572484,13.078230206515288,50.50328021353142,47.49931966422282,-0.0001618862152099,0.0940944999456405,0,0,0
4242,153410.87297684938,2010-12-01 05:10:46,2551.250759640336,7,14,-1.099568486213684,3.5053253173828125,12.592062653572484,13.087398625789223,50.50328021353142,47.531479405605424,-0.0001295089750783,0.0940944999456405,0,0,0
4243,153440.88790748484,2010-12-01 05:11:16,2581.2656902808144,7,14,-1.0997490882873535,3.5007925033569336,12.592062653572484,13.096566969130327,50.50328021353142,47.56359713906551,-9.713172767078504e-05,0.0940944999456405,0,0,0
4244,153470.90297199844,2010-12-01 05:11:46,2611.2807548144806,7,14,-1.099568486213684,3.495774030685425,12.592062653572484,13.105735257077695,50.50328021353142,47.595670347661056,-0.0001295089750783,0.0940944999456405,0,0,0
4245,153500.91803054223,2010-12-01 05:12:16,2641.2958133331795,7,14,-1.0997490882873535,3.490431785583496,12.592062653572484,13.114903629518448,50.50328021353142,47.62769650813122,-9.713172767078504e-05,0.0940944999456405,0,0,0
4246,153530.9352542088,2010-12-01 05:12:46,2671.313037125077,7,14,-1.099568486213684,3.484603881835937,12.592062653572484,13.124072548675093,50.50328021353142,47.65967361525373,-0.0001942634553415,0.0940944999456405,0,0,0
4247,153560.948140893,2010-12-01 05:13:16,2701.325923708999,7,14,-1.099568486213684,3.478290319442749,12.592062653572484,13.13324019741076,50.50328021353142,47.69159030117513,-0.0001295089750783,0.0940944999456405,0,0,0
4248,153590.96315752243,2010-12-01 05:13:46,2731.340940308383,7,14,-1.099568486213684,3.471005439758301,12.592062653572484,13.142408495336609,50.50328021353142,47.72344779880831,-0.0002266406954731,0.0940944999456405,0,0,0
4249,153620.97993868787,2010-12-01 05:14:16,2761.35772157407,7,14,-1.0997490882873535,3.4630730152130127,12.592062653572484,13.151577304645038,50.50328021353142,47.75523844494554,-0.0002590179501567,0.0940944999456405,0,0,0
4250,153650.99328571762,2010-12-01 05:14:46,2791.37106859377,7,14,-1.099568486213684,3.454007387161255,12.592062653572484,13.160745072548934,50.50328021353142,47.786947507775366,-0.0002590179501567,0.0940944999456405,0,0,0
4251,153681.01034468933,2010-12-01 05:15:16,2821.3881276056186,7,14,-1.099568486213684,3.4434847831726074,12.592062653572484,13.169913921232762,50.50328021353142,47.81857020989095,-0.0002590179501567,0.0940944999456405,0,0,0
4252,153711.02503832005,2010-12-01 05:15:46,2851.4028212062326,7,14,-1.099568486213684,3.4305341243743896,12.592062653572484,13.179082047486164,50.50328021353142,47.85008261789105,-0.0003561019839253,0.0940944999456405,0,0,0
4253,153741.0383834701,2010-12-01 05:16:16,2881.416166261042,7,14,-1.0997490882873535,3.414183616638184,12.592062653572484,13.188249836104912,50.50328021353142,47.88146061636923,-0.0004856586456298,0.0940944999456405,0,0,0
4254,153771.05341566828,2010-12-01 05:16:46,2911.431198464255,7,14,-1.099568486213684,3.393300294876098,12.592062653572484,13.197417583589631,50.50328021353142,47.912669760301085,-0.0006475448608398,0.0940944999456405,0,0,0
4255,153801.06843509973,2010-12-01 05:17:16,2941.4462178906742,7,14,-1.0993878841400146,3.3657796382904053,12.592062653572484,13.206585135547108,50.50328021353142,47.94365831233895,-0.0008418083307333,0.0940944999456405,0,0,0
4256,153831.08345911757,2010-12-01 05:17:46,2971.461241908519,7,14,-1.099568486213684,3.3288698196411133,12.592062653572484,13.21575267694536,50.50328021353142,47.97435339443396,-0.0011008263099938,0.0940944999456405,0,0,0
4257,153861.09858628208,2010-12-01 05:18:16,3001.476369133189,7,14,-1.099568486213684,3.2781994342803955,12.592062653572484,13.224920229137563,50.50328021353142,48.004651215674905,-0.0015864849556237,0.0940944999456405,0,0,0
4258,153891.11354171927,2010-12-01 05:18:46,3031.491324535286,7,14,-1.0997490882873535,3.207941055297852,12.592062653572484,13.234088184001523,50.50328021353142,48.0344025917957,-0.0021692751906812,0.0940944999456405,0,0,0
4259,153921.12857094506,2010-12-01 05:19:16,3061.50635382124,7,14,-1.0997490882873535,3.1048200130462646,12.592062653572484,13.24325638611636,50.50328021353142,48.063374434240814,-0.0033024311996996,0.0940944999456405,0,0,0
4260,153951.14371897653,2010-12-01 05:19:46,3091.5215017775004,7,14,-1.0997490882873535,2.9291739463806152,12.592062653572484,13.252424613956794,50.50328021353142,48.09113055641003,-0.0064106462523341,0.0940944999456405,0,0,0
4261,153969.83084445953,2010-12-01 05:20:05,3110.2086273256914,7,14,-1.099568486213684,2.728921175003052,12.592062653572484,13.258132660754775,50.50328021353142,48.10731927486688,-0.0099074365571141,0.0940944999456405,0,0,0
4262,153972.12755746653,2010-12-01 05:20:07,3112.5053402524745,7,14,-1.099568486213684,2.699620008468628,12.592062653572484,13.258834203340664,50.50328021353142,48.109223566425385,-0.0101016517728567,0.0940944999456405,0,0,0
4263,154032.1390662253,2010-12-01 05:21:08,60.01623774932236,8,14,0.0,3.355095148086548,12.592062653572484,13.258834203340664,50.50328021353142,48.109223566425385,0.0013597965007647,0.0940944999456405,0,0,0
4264,154032.32139246818,2010-12-01 05:21:08,0.187677252624801,9,14,0.0028705052100121,3.3559045791625977,12.592062803219294,13.258834203340664,50.50328071573183,48.109223566425385,0.0,0.0931989923119545,0,0,0
4265,154037.14918767588,2010-12-01 05:21:13,5.015472365077712,9,14,0.0005225847125984,3.363189458847046,12.592063658418208,13.258834203340664,50.503283589009165,48.109223566425385,0.0011655807029455,0.0931989923119545,0,0,0
