Data_Point,Test_Time(s),Date_Time,Step_Time(s),Step_Index,Cycle_Index,Current(A),Voltage(V),Charge_Capacity(Ah),Discharge_Capacity(Ah),Charge_Energy(Wh),Discharge_Energy(Wh),dV/dt(V/s),Internal_Resistance(Ohm),Is_FC_Data,AC_Impedance(Ohm),ACI_Phase_Angle(Deg)
11110,402511.6061545994,2010-12-04 02:22:56,30.015092443118068,1,37,0.0,3.399613857269287,33.20055339081253,33.86442550641532,133.13449806951718,122.7881654443149,0.0007770538213662,0.0938397273421287,0,0,0
11111,402541.6212668117,2010-12-04 02:23:26,60.0302046754809,1,37,0.0,3.4235730171203613,33.20055339081253,33.86442550641532,133.13449806951718,122.7881654443149,0.0005504131549969,0.0938397273421287,0,0,0
11112,402571.636347295,2010-12-04 02:23:56,90.04528515382509,1,37,0.0,3.441704034805298,33.20055339081253,33.86442550641532,133.13449806951718,122.7881654443149,0.0004532813909463,0.0938397273421287,0,0,0
11113,402601.6044814944,2010-12-04 02:24:26,120.0134193531596,1,37,0.0,3.4564356803894043,33.20055339081253,33.86442550641532,133.13449806951718,122.7881654443149,0.0003561496851034,0.0938397273421287,0,0,0
11114,402631.62654375104,2010-12-04 02:24:56,30.01519860229109,2,37,0.550297200679779,3.615083694458008,33.20514070900355,33.86442550641532,133.15092207406872,122.7881654443149,0.0015541076427325,0.0938397273421287,0,0,0
11115,402661.6433028014,2010-12-04 02:25:26,60.031957767984174,2,37,0.5501165986061096,3.660735607147217,33.209728073763245,33.86442550641532,133.16761717259632,122.7881654443149,0.0010360718006268,0.0938397273421287,0,0,0
11116,402691.6567250885,2010-12-04 02:25:56,90.04537993969609,2,37,0.5501165986061096,3.6937601566314697,33.21431500344778,33.86442550641532,133.18448763905906,122.7881654443149,0.0007770538213662,0.0938397273421287,0,0,0
11117,402721.67164279177,2010-12-04 02:26:26,120.0602976429808,2,37,0.5501165986061096,3.719338178634644,33.218902187667894,33.86442550641532,133.20149243320284,122.7881654443149,0.0005827903514727,0.0938397273421287,0,0,0
11118,402751.68673428753,2010-12-04 02:26:56,150.07538914375388,2,37,0.550297200679779,3.740221500396729,33.22348939766338,33.86442550641532,133.2186035595273,122.7881654443149,0.0004856586456298,0.0938397273421287,0,0,0
11119,402781.7020394199,2010-12-04 02:27:26,180.09069432626575,2,37,0.550297200679779,3.756571769714356,33.22807633347563,33.86442550641532,133.2357987865325,122.7881654443149,0.0003885269106831,0.0938397273421287,0,0,0
11120,402811.7170227866,2010-12-04 02:27:56,210.10567764282652,2,37,0.5499359965324402,3.7679038047790527,33.23266294895931,33.86442550641532,133.25305661198516,122.7881654443149,0.0002266406954731,0.0938397273421287,0,0,0
11121,402841.731950189,2010-12-04 02:28:26,240.1206050452472,2,37,0.550297200679779,3.775350570678711,33.23724947190235,33.86442550641532,133.27035641951136,122.7881654443149,0.0001942634553415,0.0938397273421287,0,0,0
11122,402871.7470511984,2010-12-04 02:28:56,270.1357060496697,2,37,0.550297200679779,3.78069281578064,33.241836024649785,33.86442550641532,133.28768476796935,122.7881654443149,0.0001618862152099,0.0938397273421287,0,0,0
11123,402901.761548255,2010-12-04 02:29:26,300.15020320142816,2,37,0.5501165986061096,3.785225629806519,33.24640370666943,33.86442550641532,133.30496420903688,122.7881654443149,9.713172767078504e-05,0.0938397273421287,0,0,0
11124,402931.7618416111,2010-12-04 02:29:56,330.1504965275127,2,37,0.550297200679779,3.7897584438323975,33.25100679021356,33.86442550641532,133.3223981341401,122.7881654443149,0.0001942634553415,0.0938397273421287,0,0,0
11125,402961.776637792,2010-12-04 02:30:26,360.1652926432314,2,37,0.5501165986061096,3.7938055992126474,33.25559338092961,33.86442550641532,133.33978888542748,122.7881654443149,0.0001295089750783,0.0938397273421287,0,0,0
11126,402991.7916769325,2010-12-04 02:30:56,390.1803317887204,2,37,0.5501165986061096,3.7976908683776855,33.26017996304281,33.86442550641532,133.357197942909,122.7881654443149,9.713172767078504e-05,0.0938397273421287,0,0,0
11127,403021.8067701176,2010-12-04 02:31:26,420.19542497368445,2,37,0.5499359965324402,3.801414251327514,33.26476659997914,33.86442550641532,133.37462493601612,122.7881654443149,9.713172767078504e-05,0.0938397273421287,0,0,0
11128,403051.82199664926,2010-12-04 02:31:56,450.2106515756517,2,37,0.5501165986061096,3.805137634277344,33.26935330058135,33.86442550641532,133.39206922913414,122.7881654443149,9.713172767078504e-05,0.0938397273421287,0,0,0
11129,403081.83691024233,2010-12-04 02:32:26,480.2255650935212,2,37,0.5501165986061096,3.808699131011963,33.273939925838306,33.86442550641532,133.40952993610222,122.7881654443149,9.713172767078504e-05,0.0938397273421287,0,0,0
11130,403111.8519849263,2010-12-04 02:32:56,510.2406397624088,2,37,0.5501165986061096,3.812098741531372,33.27852662875957,33.86442550641532,133.42700721885544,122.7881654443149,6.47544875391759e-05,0.0938397273421287,0,0,0
11131,403141.86707290827,2010-12-04 02:33:26,540.2557277594631,2,37,0.5501165986061096,3.815822124481201,33.28311333197868,33.86442550641532,133.44450083193917,122.7881654443149,9.713172767078504e-05,0.0938397273421287,0,0,0
11132,403171.8821489906,2010-12-04 02:33:56,570.2708038619179,2,37,0.550297200679779,3.8192217350006095,33.287699971538515,33.86442550641532,133.46201005522315,122.7881654443149,0.0001295089750783,0.0938397273421287,0,0,0
11133,403201.89733324223,2010-12-04 02:34:26,600.2859880934478,2,37,0.5499359965324402,3.8224594593048096,33.29228665854742,33.86442550641532,133.47953515397217,122.7881654443149,9.713172767078504e-05,0.0938397273421287,0,0,0
11134,403231.9122815216,2010-12-04 02:34:56,630.30093637282,2,37,0.5499359965324402,3.8260209560394287,33.296873302073244,33.86442550641532,133.49707586372463,122.7881654443149,9.713172767078504e-05,0.0938397273421287,0,0,0
11135,403261.927398205,2010-12-04 02:35:26,660.3160530612716,2,37,0.5501165986061096,3.829420566558838,33.30146002897228,33.86442550641532,133.51463287512274,122.7881654443149,6.47544875391759e-05,0.0938397273421287,0,0,0
11136,403291.9442574949,2010-12-04 02:35:56,690.3329124413444,2,37,0.5501165986061096,3.832982063293457,33.30604705149845,33.86442550641532,133.53220715655382,122.7881654443149,6.47544875391759e-05,0.0938397273421287,0,0,0
11137,403321.95751871605,2010-12-04 02:36:26,720.3461735673002,2,37,0.5499359965324402,3.836705207824707,33.310633376690426,33.86442550641532,133.54979512226254,122.7881654443149,6.47544875391759e-05,0.0938397273421287,0,0,0
11138,403351.9725847936,2010-12-04 02:36:56,750.3612396448085,2,37,0.5501165986061096,3.840266704559326,33.315219962060034,33.86442550641532,133.56740064382282,122.7881654443149,6.47544875391759e-05,0.0938397273421287,0,0,0
11139,403381.9876919583,2010-12-04 02:37:26,780.3763468095607,2,37,0.5501165986061096,3.843828201293945,33.31980657003949,33.86442550641532,133.58502283671595,122.7881654443149,6.47544875391759e-05,0.0938397273421287,0,0,0
11140,403412.0027341264,2010-12-04 02:37:56,810.391388987596,2,37,0.5501165986061096,3.8475515842437744,33.32439325732506,33.86442550641532,133.60266197277934,122.7881654443149,9.713172767078504e-05,0.0938397273421287,0,0,0
11141,403442.017855276,2010-12-04 02:38:26,840.4065101972988,2,37,0.5501165986061096,3.8511130809783936,33.32897993776092,33.86442550641532,133.62031760859483,122.7881654443149,9.713172767078504e-05,0.0938397273421287,0,0,0
11142,403472.0328861207,2010-12-04 02:38:56,870.4215409519073,2,37,0.5501165986061096,3.8546745777130127,33.333566644642126,33.86442550641532,133.63798969455462,122.7881654443149,6.47544875391759e-05,0.0938397273421287,0,0,0
11143,403502.0502753242,2010-12-04 02:39:26,900.438930290762,2,37,0.5501165986061096,3.858236074447632,33.338153660559925,33.86442550641532,133.65567924012697,122.7881654443149,9.713172767078504e-05,0.0938397273421287,0,0,0
11144,403532.0630639143,2010-12-04 02:39:56,930.451718770556,2,37,0.5501165986061096,3.861635684967041,33.34274000894515,33.86442550641532,133.67338207108082,122.7881654443149,9.713172767078504e-05,0.0938397273421287,0,0,0
11145,403562.07814322977,2010-12-04 02:40:26,960.4667981812432,2,37,0.5501165986061096,3.86487340927124,33.347326711172805,33.86442550641532,133.69110179197608,122.7881654443149,6.47544875391759e-05,0.0938397273421287,0,0,0
11146,403592.0932359887,2010-12-04 02:40:56,990.48189084491,2,37,0.5501165986061096,3.8682730197906494,33.351913442358594,33.86442550641532,133.70883666015894,122.7881654443149,9.713172767078504e-05,0.0938397273421287,0,0,0
11147,403622.10844020994,2010-12-04 02:41:26,1020.4970951263336,2,37,0.5499359965324402,3.871348857879639,33.35650016670959,33.86442550641532,133.72658615277572,122.7881654443149,9.713172767078504e-05,0.0938397273421287,0,0,0
11148,403652.1233523444,2010-12-04 02:41:56,1050.5120072056231,2,37,0.5501165986061096,3.874100923538208,33.36108678258166,33.86442550641532,133.74434927893446,122.7881654443149,6.47544875391759e-05,0.0938397273421287,0,0,0
11149,403682.1384111839,2010-12-04 02:42:26,1080.5270660350952,2,37,0.550297200679779,3.877176761627197,33.36567346779679,33.86442550641532,133.7621261052985,122.7881654443149,6.47544875391759e-05,0.0938397273421287,0,0,0
11150,403712.1536104528,2010-12-04 02:42:56,1110.5422652890077,2,37,0.5501165986061096,3.879928827285767,33.37026014062779,33.86442550641532,133.7799157719373,122.7881654443149,9.713172767078504e-05,0.0938397273421287,0,0,0
11151,403742.16872860485,2010-12-04 02:43:27,1140.557383466164,2,37,0.5499359965324402,3.882357120513916,33.37484684115064,33.86442550641532,133.7977177192768,122.7881654443149,3.237724376958795e-05,0.0938397273421287,0,0,0
11152,403772.1859482716,2010-12-04 02:43:57,1170.5746032280329,2,37,0.5501165986061096,3.8849472999572754,33.37943386150715,33.86442550641532,133.8155324002493,122.7881654443149,6.47544875391759e-05,0.0938397273421287,0,0,0
11153,403802.19881209393,2010-12-04 02:44:27,1200.5874670402886,2,37,0.5501165986061096,3.887375593185425,33.38402024552208,33.86442550641532,133.8333554638185,122.7881654443149,9.713172767078504e-05,0.0938397273421287,0,0,0
11154,403832.21379109466,2010-12-04 02:44:57,1230.6024459408604,2,37,0.550297200679779,3.8894801139831534,33.388606971823585,33.86442550641532,133.85119002527068,122.7881654443149,6.47544875391759e-05,0.0938397273421287,0,0,0
11155,403862.2289048458,2010-12-04 02:45:27,1260.6175596920027,2,37,0.550297200679779,3.891422748565674,33.393193696944614,33.86442550641532,133.86903411932414,122.7881654443149,6.47544875391759e-05,0.0938397273421287,0,0,0
11156,403892.2439470037,2010-12-04 02:45:57,1290.6326018550008,2,37,0.5501165986061096,3.893365383148194,33.39778042951343,33.86442550641532,133.8868872892192,122.7881654443149,9.713172767078504e-05,0.0938397273421287,0,0,0
11157,403922.2451535073,2010-12-04 02:46:27,1320.633808443704,2,37,0.5501165986061096,3.894984245300293,33.402365062925234,33.86442550641532,133.904740806383,122.7881654443149,3.237724376958795e-05,0.0938397273421287,0,0,0
11158,403952.2585228024,2010-12-04 02:46:57,1350.6471777588847,2,37,0.5501165986061096,3.896926879882813,33.40695156663541,33.86442550641532,133.9226093499092,122.7881654443149,6.47544875391759e-05,0.0938397273421287,0,0,0
11159,403982.2735468403,2010-12-04 02:47:27,1380.6622017115667,2,37,0.5501165986061096,3.898545742034912,33.411538324143194,33.86442550641532,133.9404868554976,122.7881654443149,3.237724376958795e-05,0.0938397273421287,0,0,0
11160,404012.2886279552,2010-12-04 02:47:57,1410.6772828064454,2,37,0.5501165986061096,3.9000027179718018,33.416125013598766,33.86442550641532,133.9583716544738,122.7881654443149,3.237724376958795e-05,0.0938397273421287,0,0,0
11161,404042.3036960527,2010-12-04 02:48:27,1440.6923509039802,2,37,0.5501165986061096,3.901621580123901,33.42071170847458,33.86442550641532,133.97626383217423,122.7881654443149,3.237724376958795e-05,0.0938397273421287,0,0,0
11162,404072.31878511247,2010-12-04 02:48:57,1470.7074399436287,2,37,0.5501165986061096,3.903240442276001,33.42529845220963,33.86442550641532,133.99416351818863,122.7881654443149,3.237724376958795e-05,0.0938397273421287,0,0,0
11163,404102.33385167614,2010-12-04 02:49:27,1500.7225065223845,2,37,0.5501165986061096,3.9048593044281006,33.4298851659827,33.86442550641532,134.0120702827317,122.7881654443149,3.237724376958795e-05,0.0938397273421287,0,0,0
11164,404132.3490429252,2010-12-04 02:49:57,1530.7376977763895,2,37,0.5501165986061096,3.9063162803649902,33.434471886955336,33.86442550641532,134.0299840211156,122.7881654443149,3.237724376958795e-05,0.0938397273421287,0,0,0
11165,404162.3639991142,2010-12-04 02:50:27,1560.7526540055444,2,37,0.5501165986061096,3.90793514251709,33.439058551963875,33.86442550641532,134.0479046263503,122.7881654443149,6.47544875391759e-05,0.0938397273421287,0,0,0
11166,404192.3790922641,2010-12-04 02:50:57,1590.7677471153218,2,37,0.5499359965324402,3.90939211845398,33.44364521035796,33.86442550641532,134.06583216546224,122.7881654443149,3.237724376958795e-05,0.0938397273421287,0,0,0
11167,404222.3941763665,2010-12-04 02:51:27,1620.782831217684,2,37,0.5501165986061096,3.910849094390869,33.44823193825295,33.86442550641532,134.08376698060005,122.7881654443149,3.237724376958795e-05,0.0938397273421287,0,0,0
11168,404252.4092300231,2010-12-04 02:51:57,1650.7978848792957,2,37,0.5501165986061096,3.9124679565429688,33.452818670131485,33.86442550641532,134.10170880410027,122.7881654443149,3.237724376958795e-05,0.0938397273421287,0,0,0
11169,404282.424295464,2010-12-04 02:52:27,1680.8129503152074,2,37,0.5501165986061096,3.9139246940612793,33.45740538503463,33.86442550641532,134.11965753328468,122.7881654443149,3.237724376958795e-05,0.0938397273421287,0,0,0
11170,404312.4394236811,2010-12-04 02:52:57,1710.8280785373604,2,37,0.5501165986061096,3.915543556213379,33.46199204283556,33.86442550641532,134.13761304096016,122.7881654443149,6.47544875391759e-05,0.0938397273421287,0,0,0
11171,404342.454497508,2010-12-04 02:53:27,1740.8431524192897,2,37,0.5499359965324402,3.917000532150269,33.46657879137479,33.86442550641532,134.1555757403509,122.7881654443149,3.237724376958795e-05,0.0938397273421287,0,0,0
11172,404372.4696062665,2010-12-04 02:53:57,1770.858261142921,2,37,0.5501165986061096,3.918457508087158,33.47116547579464,33.86442550641532,134.17354524717925,122.7881654443149,6.47544875391759e-05,0.0938397273421287,0,0,0
11173,404402.4846429911,2010-12-04 02:54:27,1800.8732978473354,2,37,0.550297200679779,3.920076370239258,33.47575215315995,33.86442550641532,134.19152174320342,122.7881654443149,3.237724376958795e-05,0.0938397273421287,0,0,0
11174,404432.4997273892,2010-12-04 02:54:57,1830.8883822404216,2,37,0.5501165986061096,3.921533346176148,33.48033887795808,33.86442550641532,134.20950543429825,122.7881654443149,0.0,0.0938397273421287,0,0,0
11175,404462.5147924592,2010-12-04 02:55:27,1860.903447315435,2,37,0.5501165986061096,3.923152208328247,33.48492554798311,33.86442550641532,134.22749593431118,122.7881654443149,3.237724376958795e-05,0.0938397273421287,0,0,0
11176,404492.5303350926,2010-12-04 02:55:57,1890.918989968884,2,37,0.5501165986061096,3.9246091842651367,33.48951236747988,33.86442550641532,134.24549404276996,122.7881654443149,3.237724376958795e-05,0.0938397273421287,0,0,0
11177,404522.5467287487,2010-12-04 02:56:27,1920.935383700208,2,37,0.5501165986061096,3.9260661602020255,33.49409926932724,33.86442550641532,134.26349951900147,122.7881654443149,3.237724376958795e-05,0.0938397273421287,0,0,0
11178,404552.5601831306,2010-12-04 02:56:57,1950.9488380770608,2,37,0.550297200679779,3.927846908569336,33.49868571832558,33.86442550641532,134.2815103112101,122.7881654443149,3.237724376958795e-05,0.0938397273421287,0,0,0
11179,404582.5751180166,2010-12-04 02:57:27,1980.963772897942,2,37,0.5501165986061096,3.9293038845062256,33.50327235755864,33.86442550641532,134.29952898839187,122.7881654443149,3.237724376958795e-05,0.0938397273421287,0,0,0
11180,404612.5902112066,2010-12-04 02:57:57,2010.978866057844,2,37,0.5501165986061096,3.930922746658325,33.50785907865356,33.86442550641532,134.31755517318234,122.7881654443149,6.47544875391759e-05,0.0938397273421287,0,0,0
11181,404642.6052465325,2010-12-04 02:58:27,2040.993901383828,2,37,0.5501165986061096,3.932379722595215,33.51244580269221,33.86442550641532,134.3355885162031,122.7881654443149,3.237724376958795e-05,0.0938397273421287,0,0,0
11182,404672.6203263192,2010-12-04 02:58:57,2071.008981175464,2,37,0.5501165986061096,3.933836698532105,33.51703250500929,33.86442550641532,134.35362900884104,122.7881654443149,3.237724376958795e-05,0.0938397273421287,0,0,0
11183,404702.6354020207,2010-12-04 02:59:27,2101.024056871908,2,37,0.550297200679779,3.935455560684204,33.52161928448576,33.86442550641532,134.37167709220816,122.7881654443149,3.237724376958795e-05,0.0938397273421287,0,0,0
11184,404732.65048876463,2010-12-04 02:59:57,2131.0391436208565,2,37,0.5499359965324402,3.937074422836304,33.52620601760252,33.86442550641532,134.38973216034182,122.7881654443149,0.0,0.0938397273421287,0,0,0
11185,404762.6656999684,2010-12-04 03:00:27,2161.0543548295186,2,37,0.5501165986061096,3.9386932849884033,33.53079278123733,33.86442550641532,134.40779479387456,122.7881654443149,3.237724376958795e-05,0.0938397273421287,0,0,0
11186,404792.6807880305,2010-12-04 03:00:57,2191.0694429117843,2,37,0.5501165986061096,3.940474033355713,33.535379484735124,33.86442550641532,134.42586453798833,122.7881654443149,3.237724376958795e-05,0.0938397273421287,0,0,0
11187,404822.6957219942,2010-12-04 03:01:27,2221.084376845457,2,37,0.5501165986061096,3.942092895507813,33.53996624516361,33.86442550641532,134.4439418972909,122.7881654443149,3.237724376958795e-05,0.0938397273421287,0,0,0
11188,404852.7107896908,2010-12-04 03:01:57,2251.099444541995,2,37,0.550297200679779,3.943549871444702,33.54455293767719,33.86442550641532,134.46202634473963,122.7881654443149,3.237724376958795e-05,0.0938397273421287,0,0,0
11189,404882.726247804,2010-12-04 03:02:27,2281.114902735268,2,37,0.5501165986061096,3.9451687335968018,33.549139780926616,33.86442550641532,134.480118843371,122.7881654443149,0.0,0.0938397273421287,0,0,0
11190,404912.7409545572,2010-12-04 03:02:57,2311.1296094836,2,37,0.550297200679779,3.9469494819641113,33.553726512463264,33.86442550641532,134.49821837913842,122.7881654443149,6.47544875391759e-05,0.0938397273421287,0,0,0
11191,404942.7560031862,2010-12-04 03:03:27,2341.144658042513,2,37,0.5501165986061096,3.948406457901001,33.55831326338375,33.86442550641532,134.51632542486075,122.7881654443149,0.0,0.0938397273421287,0,0,0
11192,404972.7710867523,2010-12-04 03:03:57,2371.159741608541,2,37,0.5501165986061096,3.950187206268311,33.56289999542146,33.86442550641532,134.53443999367684,122.7881654443149,6.47544875391759e-05,0.0938397273421287,0,0,0
11193,405002.786177827,2010-12-04 03:04:27,2401.1748327734786,2,37,0.5499359965324402,3.95180606842041,33.56748668373873,33.86442550641532,134.5525619981461,122.7881654443149,6.47544875391759e-05,0.0938397273421287,0,0,0
11194,405032.8012266616,2010-12-04 03:04:57,2431.1898815128416,2,37,0.5499359965324402,3.9534249305725098,33.572073407454205,33.86442550641532,134.57069172540145,122.7881654443149,0.0,0.0938397273421287,0,0,0
11195,405062.8164303967,2010-12-04 03:05:27,2461.205085252918,2,37,0.5501165986061096,3.95504379272461,33.576660214313904,33.86442550641532,134.58882949469273,122.7881654443149,0.0,0.0938397273421287,0,0,0
11196,405092.8313820895,2010-12-04 03:05:57,2491.2200369407715,2,37,0.550297200679779,3.956824541091919,33.58124689426261,33.86442550641532,134.60697447347104,122.7881654443149,6.47544875391759e-05,0.0938397273421287,0,0,0
11197,405122.84838071617,2010-12-04 03:06:27,2521.237035667604,2,37,0.5501165986061096,3.9584434032440186,33.585833907289384,33.86442550641532,134.62512836855203,122.7881654443149,3.237724376958795e-05,0.0938397273421287,0,0,0
11198,405152.86153044994,2010-12-04 03:06:57,2551.250185301115,2,37,0.5499359965324402,3.960062265396118,33.59042034490172,33.86442550641532,134.64328783409093,122.7881654443149,0.0,0.0938397273421287,0,0,0
11199,405182.8767278541,2010-12-04 03:07:27,2581.2653827054246,2,37,0.5501165986061096,3.961843013763428,33.59500715845832,33.86442550641532,134.66145669115664,122.7881654443149,3.237724376958795e-05,0.0938397273421287,0,0,0
11200,405212.8917189301,2010-12-04 03:07:57,2611.280373806356,2,37,0.550297200679779,3.9637856483459473,33.59959392068868,33.86442550641532,134.67963319965963,122.7881654443149,6.47544875391759e-05,0.0938397273421287,0,0,0
11201,405242.9067574841,2010-12-04 03:08:27,2641.295412340324,2,37,0.5501165986061096,3.965566396713257,33.604180638148314,33.86442550641532,134.69781759625985,122.7881654443149,6.47544875391759e-05,0.0938397273421287,0,0,0
11202,405272.9218392155,2010-12-04 03:08:57,2671.310494156998,2,37,0.550297200679779,3.967185258865357,33.60876737464591,33.86442550641532,134.71601018763047,122.7881654443149,3.237724376958795e-05,0.0938397273421287,0,0,0
11203,405302.93690423534,2010-12-04 03:09:27,2701.32555908665,2,37,0.5501165986061096,3.968966007232666,33.61335415957608,33.86442550641532,134.73421095730907,122.7881654443149,6.47544875391759e-05,0.0938397273421287,0,0,0
11204,405332.9519965532,2010-12-04 03:09:57,2731.340651404457,2,37,0.550297200679779,3.970746755599976,33.617940925492164,33.86442550641532,134.75241983916064,122.7881654443149,3.237724376958795e-05,0.0938397273421287,0,0,0
11205,405362.9670674778,2010-12-04 03:10:27,2761.355722329027,2,37,0.550297200679779,3.972689390182495,33.62252768666995,33.86442550641532,134.77063692370552,122.7881654443149,6.47544875391759e-05,0.0938397273421287,0,0,0
11206,405392.9821345026,2010-12-04 03:10:57,2791.370789383967,2,37,0.5501165986061096,3.9743082523345943,33.62711442240111,33.86442550641532,134.7888621702286,122.7881654443149,3.237724376958795e-05,0.0938397273421287,0,0,0
11207,405422.99723771255,2010-12-04 03:11:27,2821.3858925888653,2,37,0.5501165986061096,3.976250886917114,33.63170121604594,33.86442550641532,134.8070960187014,122.7881654443149,6.47544875391759e-05,0.0938397273421287,0,0,0
11208,405453.0145872825,2010-12-04 03:11:57,2851.4032422489813,2,37,0.5501165986061096,3.977707862854004,33.636288297440835,33.86442550641532,134.8253393988192,122.7881654443149,0.0,0.0938397273421287,0,0,0
11209,405483.02741936577,2010-12-04 03:12:27,2881.4160743372936,2,37,0.5501165986061096,3.979974269866944,33.640874645936215,33.86442550641532,134.84358827018028,122.7881654443149,6.47544875391759e-05,0.0938397273421287,0,0,0
11210,405513.0424488422,2010-12-04 03:12:57,2911.4311036934214,2,37,0.5499359965324402,3.981755018234253,33.64546128146454,33.86442550641532,134.8618472879853,122.7881654443149,6.47544875391759e-05,0.0938397273421287,0,0,0
11211,405543.05752446345,2010-12-04 03:13:27,2941.446179319692,2,37,0.5501165986061096,3.983697652816773,33.6500479988639,33.86442550641532,134.88011541375997,122.7881654443149,3.237724376958795e-05,0.0938397273421287,0,0,0
11212,405573.0726456782,2010-12-04 03:13:57,2971.4613005293945,2,37,0.5501165986061096,3.985802173614502,33.654634643800655,33.86442550641532,134.8983920781179,122.7881654443149,3.237724376958795e-05,0.0938397273421287,0,0,0
11213,405603.08767500427,2010-12-04 03:14:27,3001.476329855448,2,37,0.550297200679779,3.987906694412232,33.65922132308941,33.86442550641532,134.9166779008488,122.7881654443149,6.47544875391759e-05,0.0938397273421287,0,0,0
11214,405633.10277021927,2010-12-04 03:14:57,3031.491425100539,2,37,0.550297200679779,3.989687442779541,33.66380797395252,33.86442550641532,134.9349725198539,122.7881654443149,6.47544875391759e-05,0.0938397273421287,0,0,0
11215,405663.1178277004,2010-12-04 03:15:27,3061.5064826117296,2,37,0.5501165986061096,3.991630077362061,33.668394635652454,33.86442550641532,134.95327633552404,122.7881654443149,0.0,0.0938397273421287,0,0,0
11216,405693.1329391307,2010-12-04 03:15:58,3091.5215939819477,2,37,0.5501165986061096,3.99373459815979,33.6729813119752,33.86442550641532,134.97158945359635,122.7881654443149,3.237724376958795e-05,0.0938397273421287,0,0,0
11217,405723.15044588177,2010-12-04 03:16:28,3121.5391008232023,2,37,0.550297200679779,3.9960007667541504,33.677568417115374,33.86442550641532,134.98991368624075,122.7881654443149,9.713172767078504e-05,0.0938397273421287,0,0,0
11218,405753.163192738,2010-12-04 03:16:58,3151.551847589193,2,37,0.5501165986061096,3.99794340133667,33.68215484087913,33.86442550641532,135.0082446488869,122.7881654443149,3.237724376958795e-05,0.0938397273421287,0,0,0
11219,405783.1781502704,2010-12-04 03:17:28,3181.566805236878,2,37,0.5501165986061096,3.9998860359191895,33.68674148674387,33.86442550641532,135.02658592268102,122.7881654443149,3.237724376958795e-05,0.0938397273421287,0,0,0
11220,405813.1932771743,2010-12-04 03:17:58,3211.5819321257127,2,37,0.5501165986061096,4.001990795135498,33.69132812229782,33.86442550641532,135.04493686077413,122.7881654443149,9.71794142969884e-05,0.0938397273421287,0,0,0
11221,405843.2083087058,2010-12-04 03:18:28,3241.59696358708,2,37,0.550297200679779,4.0042572021484375,33.69591478504055,33.86442550641532,135.06329771831696,122.7881654443149,6.47544875391759e-05,0.0938397273421287,0,0,0
11222,405873.2233663574,2010-12-04 03:18:58,3271.6120212135584,2,37,0.5501165986061096,4.006361484527588,33.700501394947075,33.86442550641532,135.0816682915182,122.7881654443149,3.23295607813634e-05,0.0938397273421287,0,0,0
11223,405903.2384298734,2010-12-04 03:19:28,3301.62708472468,2,37,0.550297200679779,4.008627891540527,33.70508807147535,33.86442550641532,135.10004920952514,122.7881654443149,6.47544875391759e-05,0.0938397273421287,0,0,0
11224,405933.2535226976,2010-12-04 03:19:58,3331.642177548746,2,37,0.550297200679779,4.010894298553467,33.70967474532567,33.86442550641532,135.11844015016996,122.7881654443149,9.70840483205393e-05,0.0938397273421287,0,0,0
11225,405963.2685872713,2010-12-04 03:20:28,3361.657242127525,2,37,0.550297200679779,4.012999057769775,33.714261440616816,33.86442550641532,135.13684149904967,122.7881654443149,6.47544875391759e-05,0.0938397273421287,0,0,0
11226,405993.2836749225,2010-12-04 03:20:58,3391.6723297737058,2,37,0.5501165986061096,4.015265464782715,33.718848171468686,33.86442550641532,135.15525332834954,122.7881654443149,3.24249267578125e-05,0.0938397273421287,0,0,0
11227,406023.2987613406,2010-12-04 03:21:28,3421.6874161918317,2,37,0.5501165986061096,4.017531871795654,33.723434806785924,33.86442550641532,135.17367520429784,122.7881654443149,6.47544875391759e-05,0.0938397273421287,0,0,0
11228,406053.3138622698,2010-12-04 03:21:58,3451.70251712608,2,37,0.550297200679779,4.019959926605225,33.72802155592634,33.86442550641532,135.1921080112626,122.7881654443149,6.47544875391759e-05,0.0938397273421287,0,0,0
11229,406083.32888926513,2010-12-04 03:22:28,3481.71754411632,2,37,0.550297200679779,4.022226333618164,33.73260816586451,33.86442550641532,135.21055098198232,122.7881654443149,9.70840483205393e-05,0.0938397273421287,0,0,0
11230,406113.3440940378,2010-12-04 03:22:58,3511.732748888966,2,37,0.550297200679779,4.024492740631104,33.737194887663584,33.86442550641532,135.2290052611395,122.7881654443149,3.23295607813634e-05,0.0938397273421287,0,0,0
11231,406143.3590438359,2010-12-04 03:23:28,3541.747698687117,2,37,0.5501165986061096,4.027082920074463,33.74178148425193,33.86442550641532,135.24746986169094,122.7881654443149,6.47544875391759e-05,0.0938397273421287,0,0,0
11232,406173.37413129664,2010-12-04 03:23:58,3571.762786152849,2,37,0.550297200679779,4.029511451721191,33.74636822058317,33.86442550641532,135.26594607437926,122.7881654443149,9.71794142969884e-05,0.0938397273421287,0,0,0
11233,406203.389204577,2010-12-04 03:24:28,3601.77785942827,2,37,0.5501165986061096,4.031939506530762,33.75095493027818,33.86442550641532,135.2844332057867,122.7881654443149,9.70840483205393e-05,0.0938397273421287,0,0,0
11234,406233.4042680832,2010-12-04 03:24:58,3631.792922934379,2,37,0.550297200679779,4.034367561340332,33.75554160855997,33.86442550641532,135.3029314058669,122.7881654443149,6.46591215627268e-05,0.0938397273421287,0,0,0
11235,406263.4193639398,2010-12-04 03:25:28,3661.8080188210665,2,37,0.5501165986061096,4.0367960929870605,33.76012835557848,33.86442550641532,135.32144114420365,122.7881654443149,6.47544875391759e-05,0.0938397273421287,0,0,0
11236,406293.4344403279,2010-12-04 03:25:58,3691.8230951841697,2,37,0.5501165986061096,4.039224147796631,33.764715023227474,33.86442550641532,135.3399619452745,122.7881654443149,6.47544875391759e-05,0.0938397273421287,0,0,0
11237,406323.4513331412,2010-12-04 03:26:28,3721.839988097689,2,37,0.5501165986061096,4.04181432723999,33.76930187782211,33.86442550641532,135.35849491143438,122.7881654443149,6.47544875391759e-05,0.0938397273421287,0,0,0
11238,406353.46459652274,2010-12-04 03:26:58,3751.853251373996,2,37,0.5501165986061096,4.044242858886719,33.773888220512255,33.86442550641532,135.37703746572248,122.7881654443149,6.47544875391759e-05,0.0938397273421287,0,0,0
11239,406383.4797355167,2010-12-04 03:27:28,3781.868390463191,2,37,0.550297200679779,4.046994686126709,33.77847492661654,33.86442550641532,135.3955932010917,122.7881654443149,9.70840483205393e-05,0.0938397273421287,0,0,0
11240,406413.4950834106,2010-12-04 03:27:58,3811.883738356989,2,37,0.550297200679779,4.0494232177734375,33.78306170214339,33.86442550641532,135.4141610931167,122.7881654443149,6.47544875391759e-05,0.0938397273421287,0,0,0
11241,406443.5098075722,2010-12-04 03:28:28,3841.898462428427,2,37,0.5499359965324402,4.051851272583008,33.78764847618018,33.86442550641532,135.43274089165465,122.7881654443149,6.47544875391759e-05,0.0938397273421287,0,0,0
11242,406473.52503048495,2010-12-04 03:28:58,3871.9136853462273,2,37,0.5501165986061096,4.054603576660156,33.7922352183683,33.86442550641532,135.45133261434532,122.7881654443149,6.47544875391759e-05,0.0938397273421287,0,0,0
11243,406503.540081896,2010-12-04 03:29:28,3901.928736777288,2,37,0.5501165986061096,4.0573554039001465,33.79682196959665,33.86442550641532,135.46993654167602,122.7881654443149,9.70840483205393e-05,0.0938397273421287,0,0,0
11244,406533.555067428,2010-12-04 03:29:58,3931.943722289312,2,37,0.5501165986061096,4.059945583343506,33.801408734632055,33.86442550641532,135.48855283153836,122.7881654443149,6.47544875391759e-05,0.0938397273421287,0,0,0
11245,406563.5701157614,2010-12-04 03:30:28,3961.958770617652,2,37,0.550297200679779,4.062697887420654,33.80599550412,33.86442550641532,135.5071812157137,122.7881654443149,6.47544875391759e-05,0.0938397273421287,0,0,0
11246,406593.5851950268,2010-12-04 03:30:58,3991.9738498779657,2,37,0.5499359965324402,4.0654497146606445,33.810582194841906,33.86442550641532,135.5258218036601,122.7881654443149,6.47544875391759e-05,0.0938397273421287,0,0,0
11247,406623.6002651644,2010-12-04 03:31:28,4021.9889200155776,2,37,0.5501165986061096,4.068039894104004,33.815168877207604,33.86442550641532,135.54447494253063,122.7881654443149,6.47544875391759e-05,0.0938397273421287,0,0,0
11248,406653.6153582891,2010-12-04 03:31:58,4052.004013145404,2,37,0.550297200679779,4.070953845977783,33.819755620749724,33.86442550641532,135.56314107996437,122.7881654443149,9.70840483205393e-05,0.0938397273421287,0,0,0
11249,406683.6305706056,2010-12-04 03:32:28,4082.0192254618223,2,37,0.5501165986061096,4.073706150054932,33.82434233776221,33.86442550641532,135.5818198653268,122.7881654443149,6.47544875391759e-05,0.0938397273421287,0,0,0
11250,406713.6454994515,2010-12-04 03:32:58,4112.034154307836,2,37,0.5501165986061096,4.076620101928711,33.82892897552078,33.86442550641532,135.60051128187732,122.7881654443149,6.47544875391759e-05,0.0938397273421287,0,0,0
11251,406743.66063747817,2010-12-04 03:33:28,4142.04929242461,2,37,0.5501165986061096,4.07953405380249,33.833515685342924,33.86442550641532,135.6192160372335,122.7881654443149,6.47544875391759e-05,0.0938397273421287,0,0,0
11252,406773.6756737615,2010-12-04 03:33:58,4172.064328617753,2,37,0.5499359965324402,4.08212423324585,33.838102396599275,33.86442550641532,135.63793391774672,122.7881654443149,3.24249267578125e-05,0.0938397273421287,0,0,0
11253,406803.6909714704,2010-12-04 03:34:28,4202.079626426917,2,37,0.5501165986061096,4.085361957550049,33.842689064689736,33.86442550641532,135.65666486993698,122.7881654443149,9.71794142969884e-05,0.0938397273421287,0,0,0
11254,406833.70580798166,2010-12-04 03:34:58,4232.094462832896,2,37,0.5501165986061096,4.088275909423828,33.84727573905865,33.86442550641532,135.6754092569357,122.7881654443149,9.71794142969884e-05,0.0938397273421287,0,0,0
11255,406863.7208969111,2010-12-04 03:35:28,4262.109551772294,2,37,0.5501165986061096,4.091027736663818,33.851862472987136,33.86442550641532,135.69416736345764,122.7881654443149,6.47544875391759e-05,0.0938397273421287,0,0,0
11256,406893.7359998051,2010-12-04 03:35:58,4292.1246546864695,2,37,0.550297200679779,4.094103813171387,33.85644916497164,33.86442550641532,135.71293880350044,122.7881654443149,9.71794142969884e-05,0.0938397273421287,0,0,0
11257,406923.75285911007,2010-12-04 03:36:28,4322.141514096617,2,37,0.5501165986061096,4.097017765045166,33.86103615059581,33.86442550641532,135.73172516381572,122.7881654443149,6.47544875391759e-05,0.0938397273421287,0,0,0
11258,406953.76612001046,2010-12-04 03:36:58,4352.154774861675,2,37,0.5501165986061096,4.100093364715576,33.86562261048392,33.86442550641532,135.7505231370108,122.7881654443149,6.47544875391759e-05,0.0938397273421287,0,0,0
11259,406983.78119507525,2010-12-04 03:37:28,4382.169849931561,2,37,0.5501165986061096,4.103331089019775,33.87020936390216,33.86442550641532,135.76933627010592,122.7881654443149,0.0001295089750783,0.0938397273421287,0,0,0
11260,407013.796387407,2010-12-04 03:37:58,4412.185042268259,2,37,0.5501165986061096,4.106407165527344,33.87479602486812,33.86442550641532,135.78816308884367,122.7881654443149,0.0001295089750783,0.0938397273421287,0,0,0
11261,407043.8113165488,2010-12-04 03:38:28,4442.199971410009,2,37,0.550297200679779,4.109321117401123,33.87938268007782,33.86442550641532,135.80700400061363,122.7881654443149,6.47544875391759e-05,0.0938397273421287,0,0,0
11262,407073.82642091153,2010-12-04 03:38:58,4472.215075762763,2,37,0.5499359965324402,4.112396717071533,33.88396941350992,33.86442550641532,135.8258595292098,122.7881654443149,6.47544875391759e-05,0.0938397273421287,0,0,0
11263,407103.8415441413,2010-12-04 03:39:28,4502.230199002517,2,37,0.550297200679779,4.115634441375732,33.888556124602964,33.86442550641532,135.84472926491517,122.7881654443149,9.71794142969884e-05,0.0938397273421287,0,0,0
11264,407133.8566056775,2010-12-04 03:39:58,4532.245260533713,2,37,0.5501165986061096,4.118710041046143,33.89314286399516,33.86442550641532,135.8636135992375,122.7881654443149,6.47544875391759e-05,0.0938397273421287,0,0,0
11265,407163.8716558153,2010-12-04 03:40:28,4562.260310726693,2,37,0.5501165986061096,4.122109889984131,33.897729593778884,33.86442550641532,135.88251258011974,122.7881654443149,9.71794142969884e-05,0.0938397273421287,0,0,0
11266,407193.8867279228,2010-12-04 03:40:58,4592.275382774057,2,37,0.5501165986061096,4.12534761428833,33.902316299943834,33.86442550641532,135.9014261685223,122.7881654443149,0.0001295089750783,0.0938397273421287,0,0,0
11267,407223.9017989527,2010-12-04 03:41:28,4622.2904538089015,2,37,0.550297200679779,4.12842321395874,33.90690295515285,33.86442550641532,135.92035433555557,122.7881654443149,9.70840483205393e-05,0.0938397273421287,0,0,0
11268,407253.916856504,2010-12-04 03:41:58,4652.30551135518,2,37,0.550297200679779,4.13166093826294,33.91148962566289,33.86442550641532,135.93929755237846,122.7881654443149,9.70840483205393e-05,0.0938397273421287,0,0,0
11269,407283.931931243,2010-12-04 03:42:28,4682.320586094243,2,37,0.5499359965324402,4.134898662567139,33.91607636849767,33.86442550641532,135.9582560737808,122.7881654443149,6.47544875391759e-05,0.0938397273421287,0,0,0
11270,407313.9471522512,2010-12-04 03:42:58,4712.335807102289,2,37,0.5499359965324402,4.138136386871338,33.92066309104442,33.86442550641532,135.97722968626525,122.7881654443149,3.23295607813634e-05,0.0938397273421287,0,0,0
11271,407343.9620968262,2010-12-04 03:43:28,4742.350751792731,2,37,0.550297200679779,4.141536235809326,33.92524985223989,33.86442550641532,135.9962187325564,122.7881654443149,3.24249267578125e-05,0.0938397273421287,0,0,0
11272,407373.9794985509,2010-12-04 03:43:58,4772.368153492344,2,37,0.5501165986061096,4.145097732543945,33.92983698169622,33.86442550641532,136.0152248181085,122.7881654443149,6.47544875391759e-05,0.0938397273421287,0,0,0
11273,407403.9922587052,2010-12-04 03:44:28,4802.380913556427,2,37,0.5499359965324402,4.1483354568481445,33.93442337893171,33.86442550641532,136.0342437930088,122.7881654443149,3.24249267578125e-05,0.0938397273421287,0,0,0
11274,407434.0074539892,2010-12-04 03:44:58,4832.396108840461,2,37,0.5501165986061096,4.1520586013793945,33.939010140718146,33.86442550641532,136.0532799341373,122.7881654443149,0.0001295089750783,0.0938397273421287,0,0,0
11275,407464.0225290691,2010-12-04 03:45:28,4862.411183925384,2,37,0.550297200679779,4.155458450317383,33.94359683765926,33.86442550641532,136.07233158598336,122.7881654443149,0.0001295089750783,0.0938397273421287,0,0,0
11276,407494.0375009824,2010-12-04 03:45:58,4892.42615584358,2,37,0.5501165986061096,4.158857822418213,33.9481836241175,33.86442550641532,136.09139953013923,122.7881654443149,0.0001295089750783,0.0938397273421287,0,0,0
11277,407524.0543475756,2010-12-04 03:46:28,4922.443002501996,2,37,0.550297200679779,4.162419319152832,33.95277058928476,33.86442550641532,136.11048418544067,122.7881654443149,9.70840483205393e-05,0.0938397273421287,0,0,0
11278,407554.0676884049,2010-12-04 03:46:58,4952.456343261115,2,37,0.5497553944587708,4.16581916809082,33.95735702737864,33.86442550641532,136.12958269984878,122.7881654443149,9.71794142969884e-05,0.0938397273421287,0,0,0
11279,407584.0827277308,2010-12-04 03:47:28,4982.471382657228,2,37,0.5499359965324402,4.16938066482544,33.9619437282059,33.86442550641532,136.14869844166898,122.7881654443149,6.47544875391759e-05,0.0938397273421287,0,0,0
11280,407614.0979102782,2010-12-04 03:47:59,5012.486565199554,2,37,0.5499359965324402,4.172942161560059,33.96653053535969,33.86442550641532,136.16783083411727,122.7881654443149,9.71794142969884e-05,0.0938397273421287,0,0,0
11281,407644.1152194826,2010-12-04 03:48:29,5042.503874434073,2,37,0.550297200679779,4.176503658294678,33.971117630811115,33.86442550641532,136.18698087943045,122.7881654443149,6.47544875391759e-05,0.0938397273421287,0,0,0
11282,407674.12816449685,2010-12-04 03:48:59,5072.516819373209,2,37,0.550297200679779,4.180226802825928,33.97570410619053,33.86442550641532,136.2061448810123,122.7881654443149,0.0001295089750783,0.0938397273421287,0,0,0
11283,407704.14301819593,2010-12-04 03:49:29,5102.531673052172,2,37,0.550297200679779,4.183788299560547,33.98029074429503,33.86442550641532,136.22532615543494,122.7881654443149,9.70840483205393e-05,0.0938397273421287,0,0,0
11284,407734.15827475744,2010-12-04 03:49:59,5132.54692960868,2,37,0.5499359965324402,4.187511920928955,33.98487755321056,33.86442550641532,136.24452486918315,122.7881654443149,9.71794142969884e-05,0.0938397273421287,0,0,0
11285,407764.1731750474,2010-12-04 03:50:29,5162.561829903644,2,37,0.5501165986061096,4.191073417663574,33.989464293689885,33.86442550641532,136.26374019848808,122.7881654443149,9.71794142969884e-05,0.0938397273421287,0,0,0
11286,407794.1882682975,2010-12-04 03:50:59,5192.576923153772,2,37,0.5501165986061096,4.194958209991455,33.99405101160797,33.86442550641532,136.28297242269215,122.7881654443149,9.70840483205393e-05,0.0938397273421287,0,0,0
11287,407824.20333223976,2010-12-04 03:51:29,5222.591987100978,2,37,0.5501165986061096,4.198681831359863,33.998637761923185,33.86442550641532,136.30222181928727,122.7881654443149,9.71794142969884e-05,0.0938397273421287,0,0,0
11288,407833.93764558405,2010-12-04 03:51:38,5232.326300445338,2,37,0.550297200679779,4.200138568878174,34.00012526747697,33.86442550641532,136.3084681555307,122.7881654443149,0.0001618385285837,0.0938397273421287,0,0,0
11289,407863.9440246941,2010-12-04 03:52:08,30.01333958118857,3,37,0.0,4.112235069274902,34.00012526747697,33.86442550641532,136.3084681555307,122.7881654443149,-0.0004208564641885,0.0938397273421287,0,0,0
11290,407893.9590810473,2010-12-04 03:52:38,60.02839593951101,3,37,0.0,4.101388454437256,34.00012526747697,33.86442550641532,136.3084681555307,122.7881654443149,-0.0001619339018361,0.0938397273421287,0,0,0
11291,407923.9742189787,2010-12-04 03:53:09,90.0435338708247,3,37,0.0,4.094913005828857,34.00012526747697,33.86442550641532,136.3084681555307,122.7881654443149,-0.0001295089750783,0.0938397273421287,0,0,0
11292,407953.9423978442,2010-12-04 03:53:38,120.01171287665844,3,37,0.0,4.090542316436768,34.00012526747697,33.86442550641532,136.3084681555307,122.7881654443149,-6.47544875391759e-05,0.0938397273421287,0,0,0
11293,407953.9534895244,2010-12-04 03:53:39,0.015773762401052,4,37,0.9962215423583984,4.199814796447754,34.00012963252188,33.86442550641532,136.3084864879109,122.7881654443149,0.0,0.0938397273421287,0,0,0
11294,407954.8752191432,2010-12-04 03:53:40,0.937503386118533,4,37,0.9454703330993652,4.199653148651123,34.000376665505584,33.86442550641532,136.30952396263632,122.7881654443149,-3.23295607813634e-05,0.0938397273421287,0,0,0
11295,407956.9534863311,2010-12-04 03:53:42,3.015770544007588,4,37,0.8952609300613403,4.199653148651123,34.00090690638234,33.86442550641532,136.31175083415474,122.7881654443149,-3.23295607813634e-05,0.0938397273421287,0,0,0
11296,407960.0939600392,2010-12-04 03:53:45,6.156244347279577,4,37,0.8450515866279602,4.199653148651123,34.00166484276183,33.86442550641532,136.31493397776737,122.7881654443149,-3.23295607813634e-05,0.0938397273421287,0,0,0
11297,407964.40632718895,2010-12-04 03:53:49,10.468611416871983,4,37,0.7948421835899353,4.199653148651123,34.00264587322547,33.86442550641532,136.31905406579418,122.7881654443149,-3.23295607813634e-05,0.0938397273421287,0,0,0
11298,407970.14056289394,2010-12-04 03:53:55,16.20284710683894,4,37,0.7448134422302246,4.199814796447754,34.00387046729019,33.86442550641532,136.32419708433636,122.7881654443149,0.0,0.0938397273421287,0,0,0
11299,407977.4998141527,2010-12-04 03:54:02,23.56209839061048,4,37,0.6947846412658691,4.199653148651123,34.005339392586144,33.86442550641532,136.33036621449816,122.7881654443149,0.0,0.0938397273421287,0,0,0
11300,407987.3902479418,2010-12-04 03:54:12,33.4525322197931,4,37,0.6443946361541748,4.199653148651123,34.00717603751372,33.86442550641532,136.3380796570685,122.7881654443149,-3.23295607813634e-05,0.0938397273421287,0,0,0
11301,408001.37440372055,2010-12-04 03:54:26,47.43668793343436,4,37,0.5943658947944641,4.199814796447754,34.00957689832728,33.86442550641532,136.3481626874029,122.7881654443149,0.0,0.0938397273421287,0,0,0
11302,408022.90523326176,2010-12-04 03:54:48,68.96751747965129,4,37,0.5443370938301086,4.199814796447754,34.01297000557898,33.86442550641532,136.36241288116463,122.7881654443149,3.23295607813634e-05,0.0938397273421287,0,0,0
11303,408060.1548764661,2010-12-04 03:55:25,106.21716068408692,4,37,0.4943083524703979,4.199653148651123,34.018318035115215,33.86442550641532,136.38487328272396,122.7881654443149,0.0,0.0938397273421287,0,0,0
11304,408128.4346870586,2010-12-04 03:56:33,174.49697127659985,4,37,0.4442795813083648,4.199653148651123,34.027177524172465,33.86442550641532,136.42208087435816,122.7881654443149,-3.23295607813634e-05,0.0938397273421287,0,0,0
11305,408231.2922032066,2010-12-04 03:58:16,277.35448749966264,4,37,0.3940702080726623,4.199491024017334,34.03912757103062,33.86442550641532,136.47226795571677,122.7881654443149,-6.47544875391759e-05,0.0938397273421287,0,0,0
11306,408359.52422324143,2010-12-04 04:00:24,405.5865074793814,4,37,0.3440414369106293,4.199653148651123,34.05225681581991,33.86442550641532,136.52740737362072,122.7881654443149,-6.47544875391759e-05,0.0938397273421287,0,0,0
11307,408511.3963377772,2010-12-04 04:02:56,557.4586219951187,4,37,0.2940126657485962,4.199653148651123,34.06569090685819,33.86442550641532,136.5838262973145,122.7881654443149,-3.23295607813634e-05,0.0938397273421287,0,0,0
11308,408695.4866864846,2010-12-04 04:06:00,741.5489706974664,4,37,0.2439838945865631,4.199653148651123,34.07942170330694,33.86442550641532,136.6414918779779,122.7881654443149,0.0,0.0938397273421287,0,0,0
11309,408923.9981511906,2010-12-04 04:09:49,970.0604354335596,4,37,0.19395512342453,4.199814796447754,34.09327253137302,33.86442550641532,136.69966171756525,122.7881654443149,3.23295607813634e-05,0.0938397273421287,0,0,0
11310,409231.5256178784,2010-12-04 04:14:56,1277.587902186595,4,37,0.1439263522624969,4.199653148651123,34.107602626025134,33.86442550641532,136.7598443455591,122.7881654443149,-3.23295607813634e-05,0.0938397273421287,0,0,0
11311,409707.5775975653,2010-12-04 04:22:52,1753.6398818031794,4,37,0.0938975811004638,4.199653148651123,34.12308770407703,33.86442550641532,136.82487760193297,122.7881654443149,-3.23295607813634e-05,0.0938397273421287,0,0,0
11312,410510.42233508086,2010-12-04 04:36:15,2556.484619318843,4,37,0.0498289167881011,4.199653148651123,34.13861350356605,33.86442550641532,136.89008190336529,122.7881654443149,0.0,0.0938397273421287,0,0,0
11313,410540.44834191713,2010-12-04 04:36:45,30.01523971960995,5,37,0.0,4.191720962524414,34.13861350356605,33.86442550641532,136.89008190336529,122.7881654443149,-3.23295607813634e-05,0.0938397273421287,0,0,0
11314,410570.4476817455,2010-12-04 04:37:15,60.01457957301439,5,37,0.0,4.190263748168945,34.13861350356605,33.86442550641532,136.89008190336529,122.7881654443149,-3.24249267578125e-05,0.0938397273421287,0,0,0
11315,410570.6489727318,2010-12-04 04:37:16,0.18947564786218,6,37,-1.9243103452026844e-05,4.190263748168945,34.13861350356605,33.86442550742812,136.89008190336529,122.78816544855884,0.0,0.0971632748842239,0,0,0
11316,410575.47503070143,2010-12-04 04:37:20,5.015533497202654,6,37,0.0003419754502829,4.190263748168945,34.13861440787445,33.86442550750141,136.8900856928263,122.78816544886593,-3.24249267578125e-05,0.0971632748842239,0,0,0
11317,410605.5022349815,2010-12-04 04:37:51,30.0152394288865,7,37,-1.0997490882873535,4.009599208831787,34.13861440787445,33.87359444637272,136.8900856928263,122.82513127262504,-0.0009389877086505,0.0971632748842239,0,0,0
11318,410635.5171457425,2010-12-04 04:38:21,60.03015020994552,7,37,-1.0997490882873535,3.982240676879883,34.13861440787445,33.88276321088067,136.8900856928263,122.8617596201229,-0.0006151676061563,0.0971632748842239,0,0,0
11319,410665.5322203011,2010-12-04 04:38:51,90.04522474850879,7,37,-1.0997490882873535,3.9631381034851074,34.13861440787445,33.89193191569837,136.8900856928263,122.89818042479348,-0.0004532813909463,0.0971632748842239,0,0,0
11320,410695.5472949098,2010-12-04 04:39:21,120.0602993772966,7,37,-1.0997490882873535,3.948568344116211,34.13861440787445,33.90110064010783,136.8900856928263,122.9344493357157,-0.0003885269106831,0.0971632748842239,0,0,0
11321,410725.5624222598,2010-12-04 04:39:51,150.0754267172541,7,37,-1.0997490882873535,3.935617446899414,34.13861440787445,33.910269398863456,136.8900856928263,122.97059367266422,-0.0003885269106831,0.0971632748842239,0,0,0
11322,410755.5792984768,2010-12-04 04:40:21,180.09230301442437,7,37,-1.099568486213684,3.924285411834717,34.13861440787445,33.9194386251435,136.8900856928263,123.0066290059448,-0.0003237724304199,0.0971632748842239,0,0,0
11323,410785.59254639485,2010-12-04 04:40:51,210.10555083727584,7,37,-1.099568486213684,3.913439273834229,34.13861440787445,33.92860678149173,136.8900856928263,123.0425572516504,-0.0002589702489785,0.0971632748842239,0,0,0
11324,410815.6076434244,2010-12-04 04:41:21,240.12064786179457,7,37,-1.0997490882873535,3.903078556060791,34.13861440787445,33.93777548605796,136.8900856928263,123.078390810828,-0.0002913951757363,0.0971632748842239,0,0,0
11325,410845.62283453305,2010-12-04 04:41:51,270.135838970438,7,37,-1.0997490882873535,3.893203496932984,34.13861440787445,33.9469442575155,136.8900856928263,123.114132125012,-0.0002913951757363,0.0971632748842239,0,0,0
11326,410875.6377758902,2010-12-04 04:42:21,300.1507804178089,7,37,-1.0997490882873535,3.8838140964508057,34.13861440787445,33.956112995393816,136.8900856928263,123.14978451844138,-0.0002266406954731,0.0971632748842239,0,0,0
11327,410905.65284909547,2010-12-04 04:42:51,330.1658535378422,7,37,-1.0997490882873535,3.874586582183838,34.13861440787445,33.9652817370345,136.8900856928263,123.18535134561291,-0.0002913951757363,0.0971632748842239,0,0,0
11328,410935.6679452077,2010-12-04 04:43:21,360.1809497653777,7,37,-1.099929690361023,3.86552095413208,34.13861440787445,33.97445050319892,136.8900856928263,123.22083521705002,-0.0002590179501567,0.0971632748842239,0,0,0
11329,410965.6830126236,2010-12-04 04:43:51,390.1960170659294,7,37,-1.0997490882873535,3.856779098510742,34.13861440787445,33.98361928436438,136.8900856928263,123.25623815786356,-0.0002590179501567,0.0971632748842239,0,0,0
11330,410995.6980794579,2010-12-04 04:44:21,420.2110839203711,7,37,-1.099568486213684,3.848361015319824,34.13861440787445,33.99278798589398,136.8900856928263,123.29156139501232,-0.0002266406954731,0.0971632748842239,0,0,0
11331,411025.7131609237,2010-12-04 04:44:51,450.22616539118496,7,37,-1.099568486213684,3.839942932128906,34.13861440787445,34.0019567381093,136.8900856928263,123.32680707199282,-0.0001942634553415,0.0971632748842239,0,0,0
11332,411055.7282382543,2010-12-04 04:45:21,480.2412426966335,7,37,-1.0997490882873535,3.831686973571777,34.13861440787445,34.01112554794709,136.8900856928263,123.36197644130138,-0.0001942634553415,0.0971632748842239,0,0,0
11333,411085.7433263415,2010-12-04 04:45:51,510.2563308039622,7,37,-1.099568486213684,3.823754549026489,34.13861440787445,34.0202943857876,136.8900856928263,123.39707146957248,-0.0001618862152099,0.0971632748842239,0,0,0
11334,411115.7584031056,2010-12-04 04:46:21,540.2714075430013,7,37,-1.099568486213684,3.815660238265991,34.13861440787445,34.029463229044815,136.8900856928263,123.43209354544288,-0.0002266406954731,0.0971632748842239,0,0,0
11335,411145.7735183755,2010-12-04 04:46:51,570.2865228179354,7,37,-1.099568486213684,3.807889699935913,34.13861440787445,34.03863206364844,136.8900856928263,123.46704325480395,-0.0002266406954731,0.0971632748842239,0,0,0
11336,411175.7885525035,2010-12-04 04:47:21,600.3015569710009,7,37,-1.0997490882873535,3.800281047821045,34.13861440787445,34.04780083515724,136.8900856928263,123.5019216488148,-0.0001618862152099,0.0971632748842239,0,0,0
11337,411205.80398372473,2010-12-04 04:47:51,630.3169881570678,7,37,-1.0997490882873535,3.7928342819213863,34.13861440787445,34.05696976427418,136.8900856928263,123.53673157945964,-0.0001942634553415,0.0971632748842239,0,0,0
11338,411235.8187139765,2010-12-04 04:48:21,660.3317184138992,7,37,-1.0997490882873535,3.7858731746673584,34.13861440787445,34.06613846886538,136.8900856928263,123.57147329967312,-0.0001295089750783,0.0971632748842239,0,0,0
11339,411265.83379287086,2010-12-04 04:48:51,690.3467973383766,7,37,-1.099568486213684,3.7784264087677,34.13861440787445,34.0753072855001,136.8900856928263,123.60615001865064,-0.0001942634553415,0.0971632748842239,0,0,0
11340,411295.84886256745,2010-12-04 04:49:21,720.3618670048158,7,37,-1.0997490882873535,3.771627187728882,34.13861440787445,34.08447573761768,136.8900856928263,123.64076130657344,-0.0001942634553415,0.0971632748842239,0,0,0
11341,411325.86408783606,2010-12-04 04:49:51,750.3770922734651,7,37,-1.0997490882873535,3.7646660804748535,34.13861440787445,34.09364391840749,136.8900856928263,123.6753084725343,-0.0001942634553415,0.0971632748842239,0,0,0
11342,411355.88085663074,2010-12-04 04:50:21,780.393861168369,7,37,-1.0997490882873535,3.758190631866455,34.13861440787445,34.10281298835319,136.8900856928263,123.70979743396968,-0.0001618862152099,0.0971632748842239,0,0,0
11343,411385.89413069387,2010-12-04 04:50:51,810.407135131269,7,37,-1.0997490882873535,3.751553535461426,34.13861440787445,34.111981310491686,136.8900856928263,123.74422300957973,-0.0001942634553415,0.0971632748842239,0,0,0
11344,411415.9092114981,2010-12-04 04:51:21,840.422215935424,7,37,-1.099568486213684,3.745239973068237,34.13861440787445,34.12115023672186,136.8900856928263,123.77859145611802,-0.0001618862152099,0.0971632748842239,0,0,0
11345,411445.9242951744,2010-12-04 04:51:51,870.4372996167385,7,37,-1.0997490882873535,3.738926410675049,34.13861440787445,34.130319099338,136.8900856928263,123.81290184104974,-0.0001618862152099,0.0971632748842239,0,0,0
11346,411475.9394950098,2010-12-04 04:52:21,900.4524994470856,7,37,-1.099929690361023,3.7327747344970703,34.13861440787445,34.13948800105276,136.8900856928263,123.847155868876,-0.0001618862152099,0.0971632748842239,0,0,0
11347,411505.9544473041,2010-12-04 04:52:51,930.4674517414488,7,37,-1.099929690361023,3.7267849445343018,34.13861440787445,34.14865682578744,136.8900856928263,123.8813539670443,-0.0001618862152099,0.0971632748842239,0,0,0
11348,411535.9695239228,2010-12-04 04:53:21,960.4825283652012,7,37,-1.0997490882873535,3.721118927001953,34.13861440787445,34.15782571567584,136.8900856928263,123.91549785390706,-9.713172767078504e-05,0.0971632748842239,0,0,0
11349,411565.9846463656,2010-12-04 04:53:51,990.4976508129846,7,37,-1.0993878841400146,3.715452909469605,34.13861440787445,34.16699453343976,136.8900856928263,123.94958754320469,-9.713172767078504e-05,0.0971632748842239,0,0,0
11350,411595.999970004,2010-12-04 04:54:21,1020.5129745416478,7,37,-1.099568486213684,3.709301233291626,34.13861440787445,34.17616350475883,136.8900856928263,123.9836248649772,-0.0001942634553415,0.0971632748842239,0,0,0
11351,411626.01473516267,2010-12-04 04:54:51,1050.5277396301567,7,37,-1.099568486213684,3.7037971019744873,34.13861440787445,34.185332298782335,136.8900856928263,124.01760960590146,-0.0001618862152099,0.0971632748842239,0,0,0
11352,411656.0298154856,2010-12-04 04:55:21,1080.5428199230394,7,37,-1.099568486213684,3.6982929706573486,34.13861440787445,34.19450125379514,136.8900856928263,124.05154368200924,-0.0001618862152099,0.0971632748842239,0,0,0
11353,411686.0449637978,2010-12-04 04:55:51,1110.557968320397,7,37,-1.099929690361023,3.69278883934021,34.13861440787445,34.20367016755028,136.8900856928263,124.0854274788408,-0.0001618862152099,0.0971632748842239,0,0,0
11354,411716.0600181511,2010-12-04 04:56:21,1140.5730225985433,7,37,-1.0997490882873535,3.687446594238281,34.13861440787445,34.212839153975864,136.8900856928263,124.11926191587868,-0.0001618862152099,0.0971632748842239,0,0,0
11355,411746.075146649,2010-12-04 04:56:51,1170.588151191619,7,37,-1.099568486213684,3.682104349136353,34.13861440787445,34.22200807538734,136.8900856928263,124.15304693935032,-0.0001295089750783,0.0971632748842239,0,0,0
11356,411776.0901999697,2010-12-04 04:57:21,1200.6032044271708,7,37,-1.0997490882873535,3.676923990249634,34.13861440787445,34.23117701922074,136.8900856928263,124.18678354053812,-9.713172767078504e-05,0.0971632748842239,0,0,0
11357,411806.1052950444,2010-12-04 04:57:51,1230.6182994817875,7,37,-1.099568486213684,3.671743869781494,34.13861440787445,34.24034603656032,136.8900856928263,124.22047293825584,-0.0001295089750783,0.0971632748842239,0,0,0
11358,411836.1203332124,2010-12-04 04:58:21,1260.6333376648815,7,37,-1.099568486213684,3.666563510894776,34.13861440787445,34.249514996534224,136.8900856928263,124.25411484958882,-9.713172767078504e-05,0.0971632748842239,0,0,0
11359,411866.13541736495,2010-12-04 04:58:51,1290.6484218023313,7,37,-1.0997490882873535,3.6615450382232666,34.13861440787445,34.258684014289145,136.8900856928263,124.2877108951549,-0.0001295089750783,0.0971632748842239,0,0,0
11360,411896.1504955726,2010-12-04 04:59:21,1320.6635000150377,7,37,-1.0997490882873535,3.656526565551758,34.13861440787445,34.26785300497073,136.8900856928263,124.32126145034086,-0.0001618862152099,0.0971632748842239,0,0,0
11361,411926.1655797452,2010-12-04 04:59:51,1350.678584182562,7,37,-1.0997490882873535,3.651831865310669,34.13861440787445,34.27702201563454,136.8900856928263,124.35476757420696,-0.0001295089750783,0.0971632748842239,0,0,0
11362,411956.1824472654,2010-12-04 05:00:21,1380.6954518031407,7,37,-1.0997490882873535,3.64697527885437,34.13861440787445,34.28619151478036,136.8900856928263,124.3882316258748,-0.0001618862152099,0.0971632748842239,0,0,0
11363,411986.1959126398,2010-12-04 05:00:51,1410.7089171522982,7,37,-1.0997490882873535,3.642280578613281,34.13861440787445,34.29535988021846,136.8900856928263,124.42164767702472,-0.0001295089750783,0.0971632748842239,0,0,0
11364,412016.2108081227,2010-12-04 05:01:21,1440.7238125701265,7,37,-1.0997490882873535,3.6377477645874015,34.13861440787445,34.30452872109161,136.8900856928263,124.45502316632955,-0.0001295089750783,0.0971632748842239,0,0,0
11365,412046.2259041848,2010-12-04 05:01:51,1470.7389086272378,7,37,-1.0997490882873535,3.633376836776733,34.13861440787445,34.313697684578635,136.8900856928263,124.48835758497624,-6.47544875391759e-05,0.0971632748842239,0,0,0
11366,412076.2409619115,2010-12-04 05:02:21,1500.753966348953,7,37,-1.0997490882873535,3.629005908966065,34.13861440787445,34.32286666072736,136.8900856928263,124.52165134306276,-9.713172767078504e-05,0.0971632748842239,0,0,0
11367,412106.25604858535,2010-12-04 05:02:51,1530.7690530227144,7,37,-1.0997490882873535,3.6244730949401855,34.13861440787445,34.332035606045395,136.8900856928263,124.5549043677388,-0.0001295089750783,0.0971632748842239,0,0,0
11368,412136.2711463167,2010-12-04 05:03:21,1560.7841507840665,7,37,-1.0997490882873535,3.620264053344727,34.13861440787445,34.34120457750404,136.8900856928263,124.588118107565,-0.0001295089750783,0.0971632748842239,0,0,0
11369,412166.28836213367,2010-12-04 05:03:51,1590.8013666712934,7,37,-1.0997490882873535,3.6162168979644775,34.13861440787445,34.35037423445731,136.8900856928263,124.62129583032706,-9.713172767078504e-05,0.0971632748842239,0,0,0
11370,412196.30131878686,2010-12-04 05:04:21,1620.8143232544062,7,37,-1.099568486213684,3.6120078563690186,34.13861440787445,34.35954249394834,136.8900856928263,124.65443081179248,-9.713172767078504e-05,0.0971632748842239,0,0,0
11371,412226.3164872643,2010-12-04 05:04:51,1650.8294917116827,7,37,-1.0997490882873535,3.60812258720398,34.13861440787445,34.36871150035278,136.8900856928263,124.6875314565206,-0.0001295089750783,0.0971632748842239,0,0,0
11372,412256.3314392428,2010-12-04 05:05:21,1680.8444437052974,7,37,-1.0997490882873535,3.604237318038941,34.13861440787445,34.37788032300696,136.8900856928263,124.72059562741865,-9.713172767078504e-05,0.0971632748842239,0,0,0
11373,412286.34654047794,2010-12-04 05:05:51,1710.8595449252564,7,37,-1.0997490882873535,3.6005139350891118,34.13861440787445,34.38704919413455,136.8900856928263,124.75362532522936,-9.713172767078504e-05,0.0971632748842239,0,0,0
11374,412316.3616017033,2010-12-04 05:06:21,1740.8746061406655,7,37,-1.099929690361023,3.5967905521392822,34.13861440787445,34.39621818986676,136.8900856928263,124.78662159384275,-6.47544875391759e-05,0.0971632748842239,0,0,0
11375,412346.3766956602,2010-12-04 05:06:51,1770.8897000975503,7,37,-1.0997490882873535,3.593390941619873,34.13861440787445,34.40538716004284,136.8900856928263,124.81958469899402,-9.713172767078504e-05,0.0971632748842239,0,0,0
11376,412376.3918105291,2010-12-04 05:07:21,1800.9048150216115,7,37,-1.0997490882873535,3.589991569519043,34.13861440787445,34.41455614751173,136.8900856928263,124.85251600975764,-6.47544875391759e-05,0.0971632748842239,0,0,0
11377,412406.4070426398,2010-12-04 05:07:52,1830.9200471723864,7,37,-1.0997490882873535,3.586430072784424,34.13861440787445,34.42372519783404,136.8900856928263,124.88541623049264,-6.47544875391759e-05,0.0971632748842239,0,0,0
11378,412436.4243740795,2010-12-04 05:08:22,1860.937378602137,7,37,-1.0997490882873535,3.5831923484802246,34.13861440787445,34.432894883901874,136.8900856928263,124.91828806149196,-9.713172767078504e-05,0.0971632748842239,0,0,0
11379,412466.4370134733,2010-12-04 05:08:52,1890.9500179157365,7,37,-1.099929690361023,3.5799546241760254,34.13861440787445,34.44206305932783,136.8900856928263,124.95112458629464,-0.0001295089750783,0.0971632748842239,0,0,0
11380,412496.4520873202,2010-12-04 05:09:22,1920.965091757566,7,37,-1.099568486213684,3.576878786087036,34.13861440787445,34.451232024936864,136.8900856928263,124.98393461622835,-6.47544875391759e-05,0.0971632748842239,0,0,0
11381,412526.4672054823,2010-12-04 05:09:52,1950.980210009909,7,37,-1.099929690361023,3.573641061782837,34.13861440787445,34.46040095995047,136.8900856928263,125.01671539320094,-9.713172767078504e-05,0.0971632748842239,0,0,0
11382,412556.4841652522,2010-12-04 05:10:22,1980.9971697797985,7,37,-1.099568486213684,3.5707271099090576,34.13861440787445,34.469570593751826,136.8900856928263,125.04947015478707,-6.47544875391759e-05,0.0971632748842239,0,0,0
11383,412586.49734646425,2010-12-04 05:10:52,2011.0103509016667,7,37,-1.0997490882873535,3.5673274993896484,34.13861440787445,34.478739041993805,136.8900856928263,125.08219247770236,-9.713172767078504e-05,0.0971632748842239,0,0,0
11384,412616.5125565752,2010-12-04 05:11:22,2041.0255610376591,7,37,-1.099929690361023,3.564251661300659,34.13861440787445,34.487908146793664,136.8900856928263,125.11488882917692,-9.713172767078504e-05,0.0971632748842239,0,0,0
11385,412646.5276214347,2010-12-04 05:11:52,2071.040625872074,7,37,-1.0997490882873535,3.56133770942688,34.13861440787445,34.49707708967308,136.8900856928263,125.14755685320328,-6.47544875391759e-05,0.0971632748842239,0,0,0
11386,412676.54255838087,2010-12-04 05:12:22,2101.055562813231,7,37,-1.0997490882873535,3.55826187133789,34.13861440787445,34.50624605487394,136.8900856928263,125.1801970857196,-6.47544875391759e-05,0.0971632748842239,0,0,0
11387,412706.5576503427,2010-12-04 05:12:52,2131.070654780164,7,37,-1.099929690361023,3.5550241470336914,34.13861440787445,34.51541496823959,136.8900856928263,125.212808950079,-0.0001618862152099,0.0971632748842239,0,0,0
11388,412736.5728003792,2010-12-04 05:13:22,2161.085804876751,7,37,-1.099568486213684,3.552272081375122,34.13861440787445,34.52458400182864,136.8900856928263,125.24539285204118,-9.713172767078504e-05,0.0971632748842239,0,0,0
11389,412766.58781885327,2010-12-04 05:13:52,2191.100823285638,7,37,-1.0997490882873535,3.549034357070923,34.13861440787445,34.53375300621222,136.8900856928263,125.27794809309916,-9.713172767078504e-05,0.0971632748842239,0,0,0
11390,412796.6029037376,2010-12-04 05:14:22,2221.115908179971,7,37,-1.099929690361023,3.5456347465515137,34.13861440787445,34.542922032771614,136.8900856928263,125.31047434388223,-0.0001295089750783,0.0971632748842239,0,0,0
11391,412826.6179832385,2010-12-04 05:14:52,2251.1309876758705,7,37,-1.0997490882873535,3.5425589084625244,34.13861440787445,34.55209110892506,136.8900856928263,125.34297107074346,-3.237724376958795e-05,0.0971632748842239,0,0,0
11392,412856.63303932606,2010-12-04 05:15:22,2281.146043758507,7,37,-1.0997490882873535,3.5391592979431152,34.13861440787445,34.56126007149671,136.8900856928263,125.37543796119397,-9.713172767078504e-05,0.0971632748842239,0,0,0
11393,412886.6482546851,2010-12-04 05:15:52,2311.161259117496,7,37,-1.0997490882873535,3.536083459854126,34.13861440787445,34.570429098191724,136.8900856928263,125.40787481294542,-9.713172767078504e-05,0.0971632748842239,0,0,0
11394,412916.6632105634,2010-12-04 05:16:22,2341.1762150659524,7,37,-1.099929690361023,3.532521963119507,34.13861440787445,34.57959811956551,136.8900856928263,125.44028053767244,-9.713172767078504e-05,0.0971632748842239,0,0,0
11395,412946.67828818463,2010-12-04 05:16:52,2371.191292622025,7,37,-1.099929690361023,3.528960466384888,34.13861440787445,34.588767200397264,136.8900856928263,125.4726548230582,-0.0001295089750783,0.0971632748842239,0,0,0
11396,412976.69335732976,2010-12-04 05:17:22,2401.206361772179,7,37,-1.0997490882873535,3.5255608558654785,34.13861440787445,34.59793634662462,136.8900856928263,125.5049967681816,-9.713172767078504e-05,0.0971632748842239,0,0,0
11397,413006.7084553017,2010-12-04 05:17:52,2431.221459739043,7,37,-1.099929690361023,3.521513700485229,34.13861440787445,34.6071054157185,136.8900856928263,125.5373047880016,-0.0001295089750783,0.0971632748842239,0,0,0
11398,413036.72353559954,2010-12-04 05:18:22,2461.2365400419503,7,37,-1.099929690361023,3.5177903175354004,34.13861440787445,34.61627444607145,136.8900856928263,125.56957786007315,-9.713172767078504e-05,0.0971632748842239,0,0,0
11399,413066.73860452406,2010-12-04 05:18:52,2491.251608956519,7,37,-1.0997490882873535,3.513743162155152,34.13861440787445,34.62544354556839,136.8900856928263,125.60181462229664,-9.713172767078504e-05,0.0971632748842239,0,0,0
11400,413096.7537598487,2010-12-04 05:19:22,2521.266764411439,7,37,-1.0997490882873535,3.5095343589782715,34.13861440787445,34.634612707816835,136.8900856928263,125.6340134144653,-9.713172767078504e-05,0.0971632748842239,0,0,0
11401,413126.7691074818,2010-12-04 05:19:52,2551.2821119242885,7,37,-1.099568486213684,3.5050015449523926,34.13861440787445,34.64378183561176,136.8900856928263,125.66617198588308,-9.713172767078504e-05,0.0971632748842239,0,0,0
11402,413156.7856758729,2010-12-04 05:20:22,2581.298680320259,7,37,-1.0997490882873535,3.5001449584960938,34.13861440787445,34.652951359194674,136.8900856928263,125.69828879576764,-9.713172767078504e-05,0.0971632748842239,0,0,0
11403,413186.79893116927,2010-12-04 05:20:52,2611.3119356066827,7,37,-1.099929690361023,3.494802713394165,34.13861440787445,34.66211979923905,136.8900856928263,125.73035573183614,-0.0001942634553415,0.0971632748842239,0,0,0
11404,413216.81399444985,2010-12-04 05:21:22,2641.326998897256,7,37,-1.099929690361023,3.4891366958618164,34.13861440787445,34.671288816771124,136.8900856928263,125.7623742483106,-0.0001618862152099,0.0971632748842239,0,0,0
11405,413246.82924594375,2010-12-04 05:21:52,2671.342250406203,7,37,-1.0997490882873535,3.482823133468628,34.13861440787445,34.680457917450674,136.8900856928263,125.79433768295694,-0.0001618862152099,0.0971632748842239,0,0,0
11406,413276.8441566697,2010-12-04 05:22:22,2701.3571611020498,7,37,-1.0997490882873535,3.47553825378418,34.13861440787445,34.68962692507261,136.8900856928263,125.826238924717,-0.0001942634553415,0.0971632748842239,0,0,0
11407,413306.8592368222,2010-12-04 05:22:52,2731.372241259596,7,37,-1.0997490882873535,3.4674439430236816,34.13861440787445,34.69879582587151,136.8900856928263,125.85807000301472,-0.0002266406954731,0.0971632748842239,0,0,0
11408,413336.87432766135,2010-12-04 05:23:22,2761.3873320987223,7,37,-1.0997490882873535,3.458054542541504,34.13861440787445,34.7079649254225,136.8900856928263,125.88982139123084,-0.0002913951757363,0.0971632748842239,0,0,0
11409,413366.8894133527,2010-12-04 05:23:52,2791.402417790039,7,37,-1.0997490882873535,3.446722507476806,34.13861440787445,34.71713396230306,136.8900856928263,125.92147762376791,-0.0003237724304199,0.0971632748842239,0,0,0
11410,413396.90460894746,2010-12-04 05:24:22,2821.4176133898586,7,37,-1.0997490882873535,3.43280029296875,34.13861440787445,34.72630304413394,136.8900856928263,125.95301864460616,-0.0003561496851034,0.0971632748842239,0,0,0
11411,413426.9195626854,2010-12-04 05:24:52,2851.4325671228016,7,37,-1.0997490882873535,3.4149930477142334,34.13861440787445,34.73547209116555,136.8900856928263,125.98441528384014,-0.0005180359003134,0.0971632748842239,0,0,0
11412,413456.9346580007,2010-12-04 05:25:22,2881.4476624430795,7,37,-1.099568486213684,3.392005205154419,34.13861440787445,34.74464115390658,136.8900856928263,126.0156266751397,-0.0007122993702068,0.0971632748842239,0,0,0
11413,413486.9497421882,2010-12-04 05:25:52,2911.462746670754,7,37,-1.0997490882873535,3.3612468242645264,34.13861440787445,34.753810188293215,136.8900856928263,126.04659443994711,-0.0009389400365762,0.0971632748842239,0,0,0
11414,413516.9650666688,2010-12-04 05:26:22,2941.478071171338,7,37,-1.0997490882873535,3.319966077804565,34.13861440787445,34.76297928805116,136.8900856928263,126.07723506338804,-0.0012627125252038,0.0971632748842239,0,0,0
11415,413546.97987875424,2010-12-04 05:26:52,2971.4928831966467,7,37,-1.0993878841400146,3.263144254684448,34.13861440787445,34.772148207935835,136.8900856928263,126.10742901982871,-0.0017483234405517,0.0971632748842239,0,0,0
11416,413576.9949692374,2010-12-04 05:27:22,3001.5079736849007,7,37,-1.099568486213684,3.1830108165740967,34.13861440787445,34.78131721657201,136.8900856928263,126.13700373215993,-0.0024930001236498,0.0971632748842239,0,0,0
11417,413607.01004636753,2010-12-04 05:27:52,3031.5230508299496,7,37,-1.0997490882873535,3.062567710876465,34.13861440787445,34.79048630201102,136.8900856928263,126.16567810814294,-0.003885269165039,0.0971632748842239,0,0,0
11418,413634.3845799365,2010-12-04 05:28:20,3058.8975843788194,7,37,-1.1001102924346924,2.8624770641326904,34.13861440787445,34.79884872321172,136.8900856928263,126.1905530247053,-0.0078352447599172,0.0971632748842239,0,0,0
11419,413648.5874009702,2010-12-04 05:28:34,3073.1004053976626,7,37,-1.099929690361023,2.699781894683838,34.13861440787445,34.803187419359304,136.8900856928263,126.20262955228472,-0.0095836166292428,0.0971632748842239,0,0,0
11420,413708.59161829547,2010-12-04 05:29:34,60.01454133285522,8,37,0.0,3.355257034301758,34.13861440787445,34.803187419359304,136.8900856928263,126.20262955228472,0.0013921738136559,0.0971632748842239,0,0,0
11421,413708.7855117394,2010-12-04 05:29:34,0.187527264384835,9,37,-0.0020059451926499,3.355742692947388,34.13861440787445,34.80318752385081,136.8900856928263,126.20262990293132,0.0,0.0932833403348922,0,0,0
11422,413713.61367520347,2010-12-04 05:29:39,5.015690663304453,9,37,0.0008838032954372,3.363351345062256,34.13861520652804,34.80318752592031,136.89008837631533,126.2026299098854,0.0011655807029455,0.0932833403348922,0,0,0
