Data_Point,Test_Time(s),Date_Time,Step_Time(s),Step_Index,Cycle_Index,Current(A),Voltage(V),Charge_Capacity(Ah),Discharge_Capacity(Ah),Charge_Energy(Wh),Discharge_Energy(Wh),dV/dt(V/s),Internal_Resistance(Ohm),Is_FC_Data,AC_Impedance(Ohm),ACI_Phase_Angle(Deg)
10487,380061.42399314325,2010-12-03 20:08:43,30.01500719598385,1,35,0.0,3.43555235862732,31.33382113281755,31.989321765338104,125.65248170156116,115.97245641494196,0.0007122993702068,0.0949056595563888,0,0,0
10488,380091.43901655474,2010-12-03 20:09:13,60.03003059228156,1,35,0.0,3.458702087402344,31.33382113281755,31.989321765338104,125.65248170156116,115.97245641494196,0.0005504131549969,0.0949056595563888,0,0,0
10489,380121.4541759845,2010-12-03 20:09:43,90.0451901223429,1,35,0.0,3.4760239124298096,31.33382113281755,31.989321765338104,125.65248170156116,115.97245641494196,0.0004209041653666,0.0949056595563888,0,0,0
10490,380151.4221891476,2010-12-03 20:10:13,120.01320330052091,1,35,0.0,3.489946126937866,31.33382113281755,31.989321765338104,125.65248170156116,115.97245641494196,0.0003561496851034,0.0949056595563888,0,0,0
10491,380181.4282303199,2010-12-03 20:10:43,30.01681822766654,2,35,0.5501165986061096,3.64665150642395,31.338407851663952,31.989321765338104,125.66906124683234,115.97245641494196,0.0014245987404137,0.0949056595563888,0,0,0
10492,380211.44143571216,2010-12-03 20:11:13,60.03002351968167,2,35,0.5499359965324402,3.688256025314331,31.34299396388901,31.989321765338104,125.68588690721512,115.97245641494196,0.0009389400365762,0.0949056595563888,0,0,0
10493,380241.456410302,2010-12-03 20:11:43,90.04499812957629,2,35,0.5501165986061096,3.718043088912964,31.34757967837981,31.989321765338104,125.70287156002216,115.97245641494196,0.0006799221155233,0.0949056595563888,0,0,0
10494,380271.4714719786,2010-12-03 20:12:13,120.06005986127016,2,35,0.5499359965324402,3.741192817687988,31.35216524370644,31.989321765338104,125.71997590321396,115.97245641494196,0.0005504131549969,0.0949056595563888,0,0,0
10495,380301.4864553302,2010-12-03 20:12:43,150.07504313271875,2,35,0.5499359965324402,3.759485721588135,31.356750919244597,31.989321765338104,125.73717546365488,115.97245641494196,0.0004209041653666,0.0949056595563888,0,0,0
10496,380331.5014777842,2010-12-03 20:13:13,180.09006561173382,2,35,0.5499359965324402,3.772760391235352,31.361336472805927,31.989321765338104,125.7544472808011,115.97245641494196,0.0002913951757363,0.0949056595563888,0,0,0
10497,380361.5164884137,2010-12-03 20:13:43,210.10507628136168,2,35,0.5499359965324402,3.7815022468566895,31.365922001973903,31.989321765338104,125.77176938509028,115.97245641494196,0.0001618862152099,0.0949056595563888,0,0,0
10498,380391.5315232936,2010-12-03 20:14:13,240.12011111111116,2,35,0.5499359965324402,3.787653923034668,31.37050748003565,31.989321765338104,125.78912457915428,115.97245641494196,0.0001295089750783,0.0949056595563888,0,0,0
10499,380421.5465220435,2010-12-03 20:14:43,270.13510984603994,2,35,0.5501165986061096,3.7928342819213863,31.375093480666163,31.989321765338104,125.80650684120629,115.97245641494196,0.0001295089750783,0.0949056595563888,0,0,0
10500,380451.56154219166,2010-12-03 20:15:13,300.15013008949194,2,35,0.5501165986061096,3.7973670959472656,31.379679905048903,31.989321765338104,125.82391273763568,115.97245641494196,0.0001295089750783,0.0949056595563888,0,0,0
10501,380481.57657406415,2010-12-03 20:15:43,330.16516187667,2,35,0.5501165986061096,3.801738023757935,31.384266349175327,31.989321765338104,125.84133936456672,115.97245641494196,9.713172767078504e-05,0.0949056595563888,0,0,0
10502,380511.5916024479,2010-12-03 20:16:13,360.1801902603787,2,35,0.5501165986061096,3.8059470653533936,31.388852793849136,31.989321765338104,125.85878565500748,115.97245641494196,9.713172767078504e-05,0.0949056595563888,0,0,0
10503,380541.6065803109,2010-12-03 20:16:43,390.19516812336855,2,35,0.5501165986061096,3.810156106948853,31.39343926264601,31.989321765338104,125.87625103365454,115.97245641494196,0.0001295089750783,0.0949056595563888,0,0,0
10504,380571.6216007848,2010-12-03 20:17:13,420.2101885973942,2,35,0.5499359965324402,3.8138794898986816,31.398025705570287,31.989321765338104,125.89373467773092,115.97245641494196,9.713172767078504e-05,0.0949056595563888,0,0,0
10505,380601.6367376636,2010-12-03 20:17:43,450.2253254760886,2,35,0.550297200679779,3.81792664527893,31.40261221582577,31.989321765338104,125.91123653154884,115.97245641494196,0.0001295089750783,0.0949056595563888,0,0,0
10506,380631.6518401366,2010-12-03 20:18:13,480.240428014328,2,35,0.5501165986061096,3.82165002822876,31.407198621049176,31.989321765338104,125.92875533257372,115.97245641494196,9.713172767078504e-05,0.0949056595563888,0,0,0
10507,380661.65337765886,2010-12-03 20:18:43,510.241965581659,2,35,0.5501165986061096,3.825211524963379,31.41178304967847,31.989321765338104,125.94628336853756,115.97245641494196,9.713172767078504e-05,0.0949056595563888,0,0,0
10508,380691.6660451576,2010-12-03 20:19:13,540.2546329701219,2,35,0.5499359965324402,3.828773021697998,31.41636916100259,31.989321765338104,125.96383454653922,115.97245641494196,6.47544875391759e-05,0.0949056595563888,0,0,0
10509,380721.6811792293,2010-12-03 20:19:43,570.2697670418311,2,35,0.5501165986061096,3.832496404647827,31.42095563543212,31.989321765338104,125.98140364112572,115.97245641494196,9.713172767078504e-05,0.0949056595563888,0,0,0
10510,380751.6960905116,2010-12-03 20:20:13,600.2846783642372,2,35,0.5499359965324402,3.835895776748657,31.42554204831388,31.989321765338104,125.99898877792188,115.97245641494196,6.47544875391759e-05,0.0949056595563888,0,0,0
10511,380781.7112291047,2010-12-03 20:20:43,630.29981692211,2,35,0.5501165986061096,3.839457273483277,31.430128531764957,31.989321765338104,126.01659055947752,115.97245641494196,6.47544875391759e-05,0.0949056595563888,0,0,0
10512,380811.7278417356,2010-12-03 20:21:13,660.3164296584192,2,35,0.5499359965324402,3.843018770217896,31.43471525186562,31.989321765338104,126.03420957709707,115.97245641494196,9.713172767078504e-05,0.0949056595563888,0,0,0
10513,380841.7411478885,2010-12-03 20:21:43,690.329735726211,2,35,0.5499359965324402,3.8467421531677246,31.439301500614363,31.989321765338104,126.05184313748198,115.97245641494196,9.713172767078504e-05,0.0949056595563888,0,0,0
10514,380871.7561279922,2010-12-03 20:22:13,720.3447157946891,2,35,0.5501165986061096,3.850141763687134,31.443887984936847,31.989321765338104,126.06949416846705,115.97245641494196,6.47544875391759e-05,0.0949056595563888,0,0,0
10515,380901.7712152674,2010-12-03 20:22:44,750.3598031952589,2,35,0.5501165986061096,3.853865146636963,31.448474541750738,31.989321765338104,126.08716205068224,115.97245641494196,9.713172767078504e-05,0.0949056595563888,0,0,0
10516,380931.7884600365,2010-12-03 20:23:14,780.377047959345,2,35,0.5499359965324402,3.857426643371582,31.453061318279257,31.989321765338104,126.10484736379291,115.97245641494196,6.47544875391759e-05,0.0949056595563888,0,0,0
10517,380961.8012373084,2010-12-03 20:23:44,810.3898252061863,2,35,0.550297200679779,3.861150026321411,31.45764750065905,31.989321765338104,126.1225468598236,115.97245641494196,0.0001295089750783,0.0949056595563888,0,0,0
10518,380991.8161893572,2010-12-03 20:24:14,840.4047771597013,2,35,0.5501165986061096,3.86454963684082,31.4622340754231,31.989321765338104,126.14026410492671,115.97245641494196,6.47544875391759e-05,0.0949056595563888,0,0,0
10519,381021.8313502205,2010-12-03 20:24:44,870.419938038118,2,35,0.550297200679779,3.86811113357544,31.466820554151777,31.989321765338104,126.15799695739602,115.97245641494196,9.713172767078504e-05,0.0949056595563888,0,0,0
10520,381051.8467709656,2010-12-03 20:25:14,900.435358848365,2,35,0.550297200679779,3.8715107440948486,31.471407078768458,31.989321765338104,126.1757457347386,115.97245641494196,9.713172767078504e-05,0.0949056595563888,0,0,0
10521,381081.8612412756,2010-12-03 20:25:44,930.4498290831416,2,35,0.550297200679779,3.874910354614258,31.475993620977903,31.989321765338104,126.19350998845935,115.97245641494196,0.0001295089750783,0.0949056595563888,0,0,0
10522,381111.8762343916,2010-12-03 20:26:14,960.4648221990876,2,35,0.5501165986061096,3.877986192703247,31.480580824786024,31.989321765338104,126.2112917918526,115.97245641494196,9.713172767078504e-05,0.0949056595563888,0,0,0
10523,381141.891286775,2010-12-03 20:26:44,990.4798745875312,2,35,0.5501165986061096,3.8812239170074463,31.48516785862924,31.989321765338104,126.2290874584878,115.97245641494196,9.713172767078504e-05,0.0949056595563888,0,0,0
10524,381171.906330933,2010-12-03 20:27:14,1020.494918750506,2,35,0.5501165986061096,3.883975982666016,31.48975429788128,31.989321765338104,126.24689474189246,115.97245641494196,6.47544875391759e-05,0.0949056595563888,0,0,0
10525,381201.9214776411,2010-12-03 20:27:44,1050.5100655238227,2,35,0.5501165986061096,3.886889934539795,31.494340785390687,31.989321765338104,126.26471551906847,115.97245641494196,6.47544875391759e-05,0.0949056595563888,0,0,0
10526,381231.93639752985,2010-12-03 20:28:14,1080.5249854376082,2,35,0.5499359965324402,3.8894801139831534,31.4989272269257,31.989321765338104,126.28254874717096,115.97245641494196,9.713172767078504e-05,0.0949056595563888,0,0,0
10527,381261.9515087548,2010-12-03 20:28:44,1110.5400965872768,2,35,0.550297200679779,3.892232179641724,31.50351365450315,31.989321765338104,126.30039383354836,115.97245641494196,9.713172767078504e-05,0.0949056595563888,0,0,0
10528,381291.96640702966,2010-12-03 20:29:14,1140.5549948521898,2,35,0.550297200679779,3.894498586654663,31.508100168726905,31.989321765338104,126.3182505671224,115.97245641494196,3.237724376958795e-05,0.0949056595563888,0,0,0
10529,381321.9814329071,2010-12-03 20:29:44,1170.570020714625,2,35,0.5501165986061096,3.8967649936676025,31.512686713388007,31.989321765338104,126.33611762309202,115.97245641494196,6.47544875391759e-05,0.0949056595563888,0,0,0
10530,381351.99649457866,2010-12-03 20:30:14,1200.5850823961937,2,35,0.5501165986061096,3.898869514465332,31.517273162317657,31.989321765338104,126.35399429282124,115.97245641494196,6.47544875391759e-05,0.0949056595563888,0,0,0
10531,381382.011603192,2010-12-03 20:30:44,1230.6001910296006,2,35,0.550297200679779,3.900812149047852,31.52185964760139,31.989321765338104,126.37188045942004,115.97245641494196,9.713172767078504e-05,0.0949056595563888,0,0,0
10532,381412.0283062481,2010-12-03 20:31:14,1260.616894160854,2,35,0.5501165986061096,3.902592897415161,31.526446327923026,31.989321765338104,126.38977617382716,115.97245641494196,6.47544875391759e-05,0.0949056595563888,0,0,0
10533,381442.0415149836,2010-12-03 20:31:44,1290.630102796189,2,35,0.5501165986061096,3.904373645782471,31.53103253535596,31.989321765338104,126.40767842146832,115.97245641494196,3.237724376958795e-05,0.0949056595563888,0,0,0
10534,381472.0568056099,2010-12-03 20:32:14,1320.6453935227278,2,35,0.550297200679779,3.9059925079345694,31.535619089270032,31.989321765338104,126.42558996801635,115.97245641494196,3.237724376958795e-05,0.0949056595563888,0,0,0
10535,381502.0715448792,2010-12-03 20:32:44,1350.6601326867242,2,35,0.5499359965324402,3.90761137008667,31.54020548666869,31.989321765338104,126.44350857645316,115.97245641494196,3.237724376958795e-05,0.0949056595563888,0,0,0
10536,381532.08666892594,2010-12-03 20:33:14,1380.675256733487,2,35,0.5501165986061096,3.90939211845398,31.54479197001655,31.989321765338104,126.46143488893809,115.97245641494196,6.47544875391759e-05,0.0949056595563888,0,0,0
10537,381562.10156066966,2010-12-03 20:33:44,1410.690148477172,2,35,0.5501165986061096,3.910849094390869,31.549378425682427,31.989321765338104,126.47936833380948,115.97245641494196,3.237724376958795e-05,0.0949056595563888,0,0,0
10538,381592.116706636,2010-12-03 20:34:14,1440.7052944434804,2,35,0.5501165986061096,3.9124679565429688,31.55396483248214,31.989321765338104,126.49730870458608,115.97245641494196,3.237724376958795e-05,0.0949056595563888,0,0,0
10539,381622.1317525482,2010-12-03 20:34:44,1470.7203404610705,2,35,0.5501165986061096,3.9139246940612793,31.558551339836363,31.989321765338104,126.51525645036595,115.97245641494196,3.237724376958795e-05,0.0949056595563888,0,0,0
10540,381652.1466217559,2010-12-03 20:35:14,1500.735209568426,2,35,0.5499359965324402,3.915381669998169,31.56313778769867,31.989321765338104,126.53321095846204,115.97245641494196,3.237724376958795e-05,0.0949056595563888,0,0,0
10541,381682.1616524904,2010-12-03 20:35:44,1530.7502403079973,2,35,0.5501165986061096,3.9168386459350586,31.567724321290477,31.989321765338104,126.55117252952805,115.97245641494196,3.237724376958795e-05,0.0949056595563888,0,0,0
10542,381712.1767667579,2010-12-03 20:36:14,1560.7653545754242,2,35,0.5501165986061096,3.918457508087158,31.572310818963736,31.989321765338104,126.56914091479764,115.97245641494196,3.237724376958795e-05,0.0949056595563888,0,0,0
10543,381742.1916850026,2010-12-03 20:36:44,1590.7802728100312,2,35,0.5501165986061096,3.919914484024048,31.576897295423915,31.989321765338104,126.58711608147452,115.97245641494196,3.237724376958795e-05,0.0949056595563888,0,0,0
10544,381772.2066707352,2010-12-03 20:37:14,1620.7952585476166,2,35,0.5501165986061096,3.9213714599609375,31.58148376339457,31.989321765338104,126.60509805463766,115.97245641494196,6.47544875391759e-05,0.0949056595563888,0,0,0
10545,381802.221818541,2010-12-03 20:37:44,1650.8104063484905,2,35,0.5501165986061096,3.922828435897827,31.586070218849144,31.989321765338104,126.62308689733368,115.97245641494196,6.47544875391759e-05,0.0949056595563888,0,0,0
10546,381832.2367082847,2010-12-03 20:38:14,1680.8252961022238,2,35,0.5501165986061096,3.924447298049927,31.59065664478977,31.989321765338104,126.64108249765545,115.97245641494196,6.47544875391759e-05,0.0949056595563888,0,0,0
10547,381862.25174658303,2010-12-03 20:38:44,1710.8403344507294,2,35,0.5501165986061096,3.925904273986816,31.595243136115485,31.989321765338104,126.65908529802084,115.97245641494196,6.47544875391759e-05,0.0949056595563888,0,0,0
10548,381892.2668906446,2010-12-03 20:39:14,1740.855478462173,2,35,0.5499359965324402,3.927361249923706,31.599829582674875,31.989321765338104,126.67709467326108,115.97245641494196,0.0,0.0949056595563888,0,0,0
10549,381922.2817618021,2010-12-03 20:39:44,1770.8703496246428,2,35,0.5501165986061096,3.928818225860596,31.60441605690844,31.989321765338104,126.6951111744104,115.97245641494196,0.0,0.0949056595563888,0,0,0
10550,381952.29678149417,2010-12-03 20:40:14,1800.8853693167227,2,35,0.5501165986061096,3.9304370880126953,31.60900257348691,31.989321765338104,126.713134871419,115.97245641494196,3.237724376958795e-05,0.0949056595563888,0,0,0
10551,381982.3117943392,2010-12-03 20:40:44,1830.9003821517392,2,35,0.5501165986061096,3.932055950164795,31.61358909411068,31.989321765338104,126.73116553616276,115.97245641494196,3.237724376958795e-05,0.0949056595563888,0,0,0
10552,382012.32889473904,2010-12-03 20:41:14,1860.9174826518297,2,35,0.5501165986061096,3.933512926101685,31.618175906988167,31.989321765338104,126.74920441436925,115.97245641494196,0.0,0.0949056595563888,0,0,0
10553,382042.34182789887,2010-12-03 20:41:44,1890.93041572143,2,35,0.5501165986061096,3.935131788253784,31.62276214569057,31.989321765338104,126.76724809072256,115.97245641494196,6.47544875391759e-05,0.0949056595563888,0,0,0
10554,382072.35683455854,2010-12-03 20:42:14,1920.9454223760667,2,35,0.5499359965324402,3.936426877975464,31.627348701529044,31.989321765338104,126.78530011187982,115.97245641494196,0.0,0.0949056595563888,0,0,0
10555,382102.3718826864,2010-12-03 20:42:44,1950.9604705239576,2,35,0.5499359965324402,3.938045740127564,31.631935211431717,31.989321765338104,126.80335903886662,115.97245641494196,0.0,0.0949056595563888,0,0,0
10556,382132.3868768349,2010-12-03 20:43:14,1980.9754646474112,2,35,0.5501165986061096,3.939664602279663,31.636521659021028,31.989321765338104,126.82142486097736,115.97245641494196,0.0,0.0949056595563888,0,0,0
10557,382162.40188291314,2010-12-03 20:43:44,2010.9904707206008,2,35,0.5499359965324402,3.9412834644317623,31.641108133829984,31.989321765338104,126.83949802048056,115.97245641494196,3.237724376958795e-05,0.0949056595563888,0,0,0
10558,382192.4169051014,2010-12-03 20:44:14,2041.0054929139053,2,35,0.5499359965324402,3.942740440368652,31.645694642970597,31.989321765338104,126.8575784647562,115.97245641494196,0.0,0.0949056595563888,0,0,0
10559,382222.4313917419,2010-12-03 20:44:44,2071.0199793790703,2,35,0.5501165986061096,3.944359302520752,31.65028100848972,31.989321765338104,126.8756655945336,115.97245641494196,3.237724376958795e-05,0.0949056595563888,0,0,0
10560,382252.4314815967,2010-12-03 20:45:14,2101.0200695997346,2,35,0.5501165986061096,3.945978164672852,31.654865264727523,31.989321765338104,126.8937517413412,115.97245641494196,3.237724376958795e-05,0.0949056595563888,0,0,0
10561,382282.446344248,2010-12-03 20:45:44,2131.034932060551,2,35,0.5501165986061096,3.947758913040161,31.659451776790902,31.989321765338104,126.91185402381686,115.97245641494196,3.237724376958795e-05,0.0949056595563888,0,0,0
10562,382312.4613527222,2010-12-03 20:46:14,2161.0499405447404,2,35,0.5504778623580933,3.9493777751922607,31.664038249710224,31.989321765338104,126.92996355066713,115.97245641494196,9.713172767078504e-05,0.0949056595563888,0,0,0
10563,382342.4763577678,2010-12-03 20:46:44,2191.0649455853604,2,35,0.5499359965324402,3.9508347511291504,31.66862475312467,31.989321765338104,126.94808059322744,115.97245641494196,3.237724376958795e-05,0.0949056595563888,0,0,0
10564,382372.49138886825,2010-12-03 20:47:14,2221.0799766758046,2,35,0.5501165986061096,3.95261549949646,31.67321129776835,31.989321765338104,126.9662052961662,115.97245641494196,3.237724376958795e-05,0.0949056595563888,0,0,0
10565,382402.5063906709,2010-12-03 20:47:44,2251.09497848338,2,35,0.550297200679779,3.9540724754333496,31.67779774401554,31.989321765338104,126.98433709015332,115.97245641494196,3.237724376958795e-05,0.0949056595563888,0,0,0
10566,382432.5215318502,2010-12-03 20:48:14,2281.110119657764,2,35,0.5499359965324402,3.955691337585449,31.682384260421276,31.989321765338104,127.00247665728602,115.97245641494196,3.237724376958795e-05,0.0949056595563888,0,0,0
10567,382462.5364476838,2010-12-03 20:48:44,2311.125035521471,2,35,0.5499359965324402,3.957310199737549,31.68697086046584,31.989321765338104,127.0206240591666,115.97245641494196,3.237724376958795e-05,0.0949056595563888,0,0,0
10568,382492.5515787431,2010-12-03 20:49:14,2341.140166555622,2,35,0.5501165986061096,3.9590909481048575,31.69155745084808,31.989321765338104,127.03877901837676,115.97245641494196,6.47544875391759e-05,0.0949056595563888,0,0,0
10569,382522.5664599656,2010-12-03 20:49:44,2371.1550477731125,2,35,0.5501165986061096,3.960709810256958,31.696143913299345,31.989321765338104,127.0569410118102,115.97245641494196,6.47544875391759e-05,0.0949056595563888,0,0,0
10570,382552.58147399867,2010-12-03 20:50:14,2401.170061806109,2,35,0.5501165986061096,3.9623286724090576,31.700730383311186,31.989321765338104,127.07511068966632,115.97245641494196,3.237724376958795e-05,0.0949056595563888,0,0,0
10571,382582.59649659286,2010-12-03 20:50:44,2431.185084460561,2,35,0.5501165986061096,3.964109420776367,31.705316885508825,31.989321765338104,127.09328824729612,115.97245641494196,3.237724376958795e-05,0.0949056595563888,0,0,0
10572,382612.61387454846,2010-12-03 20:51:14,2461.202462446164,2,35,0.5501165986061096,3.965728282928467,31.70990373468075,31.989321765338104,127.11147496507492,115.97245641494196,3.237724376958795e-05,0.0949056595563888,0,0,0
10573,382642.6282655009,2010-12-03 20:51:44,2491.2168534086745,2,35,0.5501165986061096,3.9676709175109854,31.714490166427368,31.989321765338104,127.12966782366418,115.97245641494196,6.47544875391759e-05,0.0949056595563888,0,0,0
10574,382672.6415681351,2010-12-03 20:52:14,2521.2301559727475,2,35,0.5499359965324402,3.969127893447876,31.71907648587952,31.989321765338104,127.14786803639748,115.97245641494196,0.0,0.0949056595563888,0,0,0
10575,382702.65658319066,2010-12-03 20:52:44,2551.245171083427,2,35,0.5501165986061096,3.971070528030396,31.723663006522717,31.989321765338104,127.16607692847305,115.97245641494196,9.713172767078504e-05,0.0949056595563888,0,0,0
10576,382732.6715973891,2010-12-03 20:53:14,2581.2601852016364,2,35,0.5501165986061096,3.972527503967285,31.728249493438057,31.989321765338104,127.1842936431348,115.97245641494196,3.237724376958795e-05,0.0949056595563888,0,0,0
10577,382762.68659536215,2010-12-03 20:53:44,2611.275183169657,2,35,0.5499359965324402,3.9744701385498047,31.73283605224916,31.989321765338104,127.20251866350932,115.97245641494196,3.237724376958795e-05,0.0949056595563888,0,0,0
10578,382792.70160342526,2010-12-03 20:54:14,2641.2901912428238,2,35,0.5501165986061096,3.976250886917114,31.7374226258677,31.989321765338104,127.22075184923376,115.97245641494196,6.47544875391759e-05,0.0949056595563888,0,0,0
10579,382822.716742725,2010-12-03 20:54:44,2671.3053305425424,2,35,0.5501165986061096,3.977869749069214,31.74200921876584,31.989321765338104,127.23899318555812,115.97245641494196,3.237724376958795e-05,0.0949056595563888,0,0,0
10580,382852.7317021872,2010-12-03 20:55:15,2701.3202900899546,2,35,0.5501165986061096,3.979974269866944,31.746595714367576,31.989321765338104,127.25724209008348,115.97245641494196,6.47544875391759e-05,0.0949056595563888,0,0,0
10581,382882.7471489821,2010-12-03 20:55:45,2731.3357368598013,2,35,0.5499359965324402,3.981431245803833,31.7511822164891,31.989321765338104,127.27549968302566,115.97245641494196,0.0,0.0949056595563888,0,0,0
10582,382912.7492575754,2010-12-03 20:56:15,2761.3378454831827,2,35,0.5501165986061096,3.9835357666015625,31.755766767765746,31.989321765338104,127.29375795956058,115.97245641494196,6.47544875391759e-05,0.0949056595563888,0,0,0
10583,382942.7611027629,2010-12-03 20:56:45,2791.349690660605,2,35,0.5499359965324402,3.985316514968872,31.760352761646352,31.989321765338104,127.31203042390116,115.97245641494196,6.47544875391759e-05,0.0949056595563888,0,0,0
10584,382972.77608019474,2010-12-03 20:57:15,2821.3646680223483,2,35,0.550297200679779,3.987259149551392,31.764939267968188,31.989321765338104,127.33031340628769,115.97245641494196,6.47544875391759e-05,0.0949056595563888,0,0,0
10585,383002.79124150926,2010-12-03 20:57:45,2851.3798293268246,2,35,0.5501165986061096,3.989039897918701,31.76952576747291,31.989321765338104,127.348604876534,115.97245641494196,6.47544875391759e-05,0.0949056595563888,0,0,0
10586,383032.8061390323,2010-12-03 20:58:15,2881.3947268699417,2,35,0.5501165986061096,3.9908206462860103,31.77411214159892,31.989321765338104,127.36690453703572,115.97245641494196,3.237724376958795e-05,0.0949056595563888,0,0,0
10587,383062.821248177,2010-12-03 20:58:45,2911.409835984546,2,35,0.550297200679779,3.99308705329895,31.77869857655157,31.989321765338104,127.38521325526553,115.97245641494196,9.713172767078504e-05,0.0949056595563888,0,0,0
10588,383092.8361521512,2010-12-03 20:59:15,2941.4247399686915,2,35,0.5501165986061096,3.9948675632476807,31.78328499286048,31.989321765338104,127.4035307242775,115.97245641494196,6.47544875391759e-05,0.0949056595563888,0,0,0
10589,383122.8512947341,2010-12-03 20:59:45,2971.439882546568,2,35,0.550297200679779,3.9968101978302,31.787871477533173,31.989321765338104,127.42185747720748,115.97245641494196,6.47544875391759e-05,0.0949056595563888,0,0,0
10590,383152.8661764428,2010-12-03 21:00:15,3001.4547642552816,2,35,0.5501165986061096,3.99875283241272,31.792457898639224,31.989321765338104,127.440192957681,115.97245641494196,6.47544875391759e-05,0.0949056595563888,0,0,0
10591,383182.88131766726,2010-12-03 21:00:45,3031.4699054848024,2,35,0.5499359965324402,4.000695705413818,31.79704438246837,31.989321765338104,127.45853772767845,115.97245641494196,3.24249267578125e-05,0.0949056595563888,0,0,0
10592,383212.896213867,2010-12-03 21:01:15,3061.4848016845767,2,35,0.5501165986061096,4.002799987792969,31.80163070820084,31.989321765338104,127.47689094787368,115.97245641494196,6.47544875391759e-05,0.0949056595563888,0,0,0
10593,383242.9112447921,2010-12-03 21:01:45,3091.499832604597,2,35,0.5499359965324402,4.004742622375488,31.806217138864053,31.989321765338104,127.49525376625,115.97245641494196,6.47544875391759e-05,0.0949056595563888,0,0,0
10594,383272.9279655221,2010-12-03 21:02:15,3121.516553434894,2,35,0.5501165986061096,4.006847381591797,31.810803765560717,31.989321765338104,127.51362653585734,115.97245641494196,6.47544875391759e-05,0.0949056595563888,0,0,0
10595,383302.94129995554,2010-12-03 21:02:45,3151.529887773035,2,35,0.5501165986061096,4.008627891540527,31.815389952937952,31.989321765338104,127.5320069454452,115.97245641494196,3.23295607813634e-05,0.0949056595563888,0,0,0
10596,383332.95630910137,2010-12-03 21:03:15,3181.544896908846,2,35,0.5501165986061096,4.010894298553467,31.819976380055408,31.989321765338104,127.55039765476089,115.97245641494196,6.47544875391759e-05,0.0949056595563888,0,0,0
10597,383362.97136079805,2010-12-03 21:03:45,3211.5599486907804,2,35,0.5501165986061096,4.012999057769775,31.82456282946132,31.989321765338104,127.56879800543112,115.97245641494196,6.47544875391759e-05,0.0949056595563888,0,0,0
10598,383392.9864702636,2010-12-03 21:04:15,3241.575058081071,2,35,0.5499359965324402,4.015103340148926,31.829149306118275,31.989321765338104,127.58720805970532,115.97245641494196,6.47544875391759e-05,0.0949056595563888,0,0,0
10599,383423.0014919706,2010-12-03 21:04:45,3271.5900797831528,2,35,0.5501165986061096,4.017208099365234,31.83373573336589,31.989321765338104,127.60562759063292,115.97245641494196,6.47544875391759e-05,0.0949056595563888,0,0,0
10600,383453.0163934836,2010-12-03 21:05:15,3301.604981416448,2,35,0.5501165986061096,4.019312381744385,31.83832224638365,31.989321765338104,127.62405736996844,115.97245641494196,6.47544875391759e-05,0.0949056595563888,0,0,0
10601,383483.0314457117,2010-12-03 21:05:45,3331.6200336094053,2,35,0.5499359965324402,4.021417140960693,31.84290865985548,31.989321765338104,127.64249657416022,115.97245641494196,3.24249267578125e-05,0.0949056595563888,0,0,0
10602,383513.0464280959,2010-12-03 21:06:15,3361.6350159034214,2,35,0.5499359965324402,4.023683547973633,31.847495098510045,31.989321765338104,127.6609460093196,115.97245641494196,6.47544875391759e-05,0.0949056595563888,0,0,0
10603,383543.0614553317,2010-12-03 21:06:45,3391.6500431392733,2,35,0.5499359965324402,4.025949954986572,31.852081535102737,31.989321765338104,127.67940556808244,115.97245641494196,3.24249267578125e-05,0.0949056595563888,0,0,0
10604,383573.0764708986,2010-12-03 21:07:15,3421.6650587311506,2,35,0.5501165986061096,4.028216361999512,31.85666798767231,31.989321765338104,127.69787554073842,115.97245641494196,6.47544875391759e-05,0.0949056595563888,0,0,0
10605,383603.09182651655,2010-12-03 21:07:45,3451.680414419344,2,35,0.5499359965324402,4.030482769012451,31.861254539422173,31.989321765338104,127.71635633870636,115.97245641494196,6.47544875391759e-05,0.0949056595563888,0,0,0
10606,383633.1065290044,2010-12-03 21:08:15,3481.695116816848,2,35,0.5501165986061096,4.0329108238220215,31.865840970064237,31.989321765338104,127.73484723256698,115.97245641494196,6.47544875391759e-05,0.0949056595563888,0,0,0
10607,383663.12170103047,2010-12-03 21:08:45,3511.7102888480176,2,35,0.550297200679779,4.035177230834961,31.870427490602516,31.989321765338104,127.75334915255809,115.97245641494196,9.71794142969884e-05,0.0949056595563888,0,0,0
10608,383693.1365725889,2010-12-03 21:09:15,3541.725160406473,2,35,0.5499359965324402,4.0374436378479,31.87501398697369,31.989321765338104,127.77186178547709,115.97245641494196,3.24249267578125e-05,0.0949056595563888,0,0,0
10609,383723.1516548918,2010-12-03 21:09:45,3571.7402428045943,2,35,0.5499359965324402,4.039871692657471,31.87960051992553,31.989321765338104,127.79038555012312,115.97245641494196,6.47544875391759e-05,0.0949056595563888,0,0,0
10610,383753.1666370304,2010-12-03 21:10:15,3601.7552248429743,2,35,0.5501165986061096,4.042300224304199,31.88418703421865,31.989321765338104,127.8089201244795,115.97245641494196,6.47544875391759e-05,0.0949056595563888,0,0,0
10611,383783.1816672236,2010-12-03 21:10:45,3631.7702550311737,2,35,0.5501165986061096,4.044566631317139,31.88877355229029,31.989321765338104,127.82746576054764,115.97245641494196,6.47544875391759e-05,0.0949056595563888,0,0,0
10612,383813.1966835223,2010-12-03 21:11:15,3661.785271329809,2,35,0.5501165986061096,4.047156810760498,31.893360048457357,31.989321765338104,127.8460224729554,115.97245641494196,6.47544875391759e-05,0.0949056595563888,0,0,0
10613,383843.2117290988,2010-12-03 21:11:45,3691.8003169063018,2,35,0.5501165986061096,4.049584865570068,31.89794651784047,31.989321765338104,127.86459041851138,115.97245641494196,3.23295607813634e-05,0.0949056595563888,0,0,0
10614,383873.2286847534,2010-12-03 21:12:15,3721.817272656187,2,35,0.5501165986061096,4.052175045013428,31.902533361123723,31.989321765338104,127.883171245938,115.97245641494196,6.47544875391759e-05,0.0949056595563888,0,0,0
10615,383903.2419058248,2010-12-03 21:12:45,3751.830493632231,2,35,0.550297200679779,4.054765224456787,31.90711959114776,31.989321765338104,127.901761138123,115.97245641494196,6.47544875391759e-05,0.0949056595563888,0,0,0
10616,383933.2568049317,2010-12-03 21:13:15,3781.84539273924,2,35,0.5499359965324402,4.057031631469727,31.91170611564624,31.989321765338104,127.9203638538836,115.97245641494196,0.0,0.0949056595563888,0,0,0
10617,383963.2718508541,2010-12-03 21:13:45,3811.8604386666048,2,35,0.5501165986061096,4.059783935546875,31.916292621664898,31.989321765338104,127.9389782547522,115.97245641494196,6.47544875391759e-05,0.0949056595563888,0,0,0
10618,383993.2871348739,2010-12-03 21:14:15,3841.8757226814414,2,35,0.5501165986061096,4.062535762786865,31.920879217090047,31.989321765338104,127.95760462229532,115.97245641494196,9.70840483205393e-05,0.0949056595563888,0,0,0
10619,384023.3019093708,2010-12-03 21:14:45,3871.890497183376,2,35,0.5501165986061096,4.064964294433594,31.925465744217853,31.989321765338104,127.97624272807496,115.97245641494196,6.47544875391759e-05,0.0949056595563888,0,0,0
10620,384053.3169213838,2010-12-03 21:15:15,3901.9055091913337,2,35,0.5501165986061096,4.067554473876953,31.930052291809908,31.989321765338104,127.99489304239349,115.97245641494196,3.24249267578125e-05,0.0949056595563888,0,0,0
10621,384083.3319864288,2010-12-03 21:15:45,3931.9205742613353,2,35,0.5501165986061096,4.070306301116943,31.934638830421868,31.989321765338104,128.013555542912,115.97245641494196,6.47544875391759e-05,0.0949056595563888,0,0,0
10622,384113.3468985632,2010-12-03 21:16:15,3961.9354863957615,2,35,0.5501165986061096,4.073058605194092,31.93922536455303,31.989321765338104,128.03223033908924,115.97245641494196,6.47544875391759e-05,0.0949056595563888,0,0,0
10623,384143.3620064197,2010-12-03 21:16:45,3991.9505943324352,2,35,0.5501165986061096,4.075810432434082,31.94381189110231,31.989321765338104,128.05091754793074,115.97245641494196,9.70840483205393e-05,0.0949056595563888,0,0,0
10624,384173.37703533965,2010-12-03 21:17:15,4021.965623147216,2,35,0.5501165986061096,4.078400611877441,31.94839838059486,31.989321765338104,128.06961710481323,115.97245641494196,3.23295607813634e-05,0.0949056595563888,0,0,0
10625,384203.3920421597,2010-12-03 21:17:45,4051.9806300274154,2,35,0.5501165986061096,4.08115291595459,31.952984815125003,31.989321765338104,128.08832910874497,115.97245641494196,3.24249267578125e-05,0.0949056595563888,0,0,0
10626,384233.4070802526,2010-12-03 21:18:15,4081.995668060134,2,35,0.5499359965324402,4.084066867828369,31.9575712732,31.989321765338104,128.1070538364783,115.97245641494196,9.71794142969884e-05,0.0949056595563888,0,0,0
10627,384263.4221218543,2010-12-03 21:18:45,4112.010709666748,2,35,0.5499359965324402,4.086818695068359,31.962157714041503,31.989321765338104,128.1257914205297,115.97245641494196,9.70840483205393e-05,0.0949056595563888,0,0,0
10628,384293.4372994292,2010-12-03 21:19:15,4142.0258872918375,2,35,0.5501165986061096,4.089732646942139,31.96674423360145,31.989321765338104,128.14454234659289,115.97245641494196,6.47544875391759e-05,0.0949056595563888,0,0,0
10629,384323.4521971578,2010-12-03 21:19:45,4172.040784970292,2,35,0.5501165986061096,4.092484951019287,31.97133076687328,31.989321765338104,128.16330650796144,115.97245641494196,3.24249267578125e-05,0.0949056595563888,0,0,0
10630,384353.4673209639,2010-12-03 21:20:15,4202.055908791493,2,35,0.550297200679779,4.095722675323486,31.97591723364152,31.989321765338104,128.18208367475205,115.97245641494196,0.0001295089750783,0.0949056595563888,0,0,0
10631,384383.4822603612,2010-12-03 21:20:45,4232.0708481687125,2,35,0.550297200679779,4.098474502563477,31.98050368440093,31.989321765338104,128.2008742524631,115.97245641494196,6.47544875391759e-05,0.0949056595563888,0,0,0
10632,384413.49729764205,2010-12-03 21:21:15,4262.085885454574,2,35,0.550297200679779,4.101388454437256,31.985090210085225,31.989321765338104,128.21967872153348,115.97245641494196,6.47544875391759e-05,0.0949056595563888,0,0,0
10633,384443.5123464516,2010-12-03 21:21:45,4292.100934259099,2,35,0.5499359965324402,4.104302406311035,31.989676721013595,31.989321765338104,128.2384966922433,115.97245641494196,3.23295607813634e-05,0.0949056595563888,0,0,0
10634,384473.5291351508,2010-12-03 21:22:15,4322.117723048509,2,35,0.5501165986061096,4.107378482818604,31.99426346705588,31.989321765338104,128.2573293861566,115.97245641494196,6.47544875391759e-05,0.0949056595563888,0,0,0
10635,384503.542448652,2010-12-03 21:22:45,4352.131036479624,2,35,0.5501165986061096,4.110454082489014,31.998849711259066,31.989321765338104,128.27617384829264,115.97245641494196,9.70840483205393e-05,0.0949056595563888,0,0,0
10636,384533.557499622,2010-12-03 21:23:15,4382.1460874896375,2,35,0.5501165986061096,4.113530158996582,32.00343629187554,31.989321765338104,128.2950336649419,115.97245641494196,9.71794142969884e-05,0.0949056595563888,0,0,0
10637,384563.57482283126,2010-12-03 21:23:45,4412.16341073402,2,35,0.5499359965324402,4.116443634033203,32.00802310585318,31.989321765338104,128.31390845475642,115.97245641494196,6.47544875391759e-05,0.0949056595563888,0,0,0
10638,384593.5875489008,2010-12-03 21:24:15,4442.17613670827,2,35,0.5499359965324402,4.119681358337402,32.01260927404208,31.989321765338104,128.33279484647088,115.97245641494196,9.70840483205393e-05,0.0949056595563888,0,0,0
10639,384623.60271439067,2010-12-03 21:24:45,4472.191302198163,2,35,0.5501165986061096,4.122757434844971,32.01719585416956,31.989321765338104,128.35169728675513,115.97245641494196,9.71794142969884e-05,0.0949056595563888,0,0,0
10640,384653.61762451,2010-12-03 21:25:15,4502.206212322587,2,35,0.550297200679779,4.12599515914917,32.021782339010755,31.989321765338104,128.3706136482043,115.97245641494196,9.71794142969884e-05,0.0949056595563888,0,0,0
10641,384683.6328172277,2010-12-03 21:25:45,4532.221405100385,2,35,0.5501165986061096,4.12907075881958,32.0263689263624,31.989321765338104,128.38954507060188,115.97245641494196,6.47544875391759e-05,0.0949056595563888,0,0,0
10642,384713.6477502391,2010-12-03 21:26:15,4562.23633806665,2,35,0.5499359965324402,4.132308483123779,32.03095544388032,31.989321765338104,128.40849091333442,115.97245641494196,9.70840483205393e-05,0.0949056595563888,0,0,0
10643,384743.6627554451,2010-12-03 21:26:45,4592.251343317795,2,35,0.5501165986061096,4.1355462074279785,32.03554200767582,31.989321765338104,128.42745178033778,115.97245641494196,6.47544875391759e-05,0.0949056595563888,0,0,0
10644,384773.67779673095,2010-12-03 21:27:15,4622.266384538448,2,35,0.5501165986061096,4.138946056365967,32.040128623725906,31.989321765338104,128.44642786583896,115.97245641494196,9.71794142969884e-05,0.0949056595563888,0,0,0
10645,384803.69303105713,2010-12-03 21:27:46,4652.281618939824,2,35,0.5501165986061096,4.142183780670166,32.044715213137856,31.989321765338104,128.46541896380796,115.97245641494196,6.47544875391759e-05,0.0949056595563888,0,0,0
10646,384833.71032117406,2010-12-03 21:28:16,4682.298909071806,2,35,0.5501165986061096,4.145583152770996,32.0493021471658,31.989321765338104,128.48442678051185,115.97245641494196,6.47544875391759e-05,0.0949056595563888,0,0,0
10647,384863.7230220008,2010-12-03 21:28:46,4712.311609953615,2,35,0.550297200679779,4.149144649505615,32.05388828115829,31.989321765338104,128.50344683277362,115.97245641494196,0.0001618385285837,0.0949056595563888,0,0,0
10648,384893.737981914,2010-12-03 21:29:16,4742.326569721577,2,35,0.5501165986061096,4.152382373809815,32.05847477931835,31.989321765338104,128.52248382781258,115.97245641494196,9.70840483205393e-05,0.0949056595563888,0,0,0
10649,384923.75306297885,2010-12-03 21:29:46,4772.34165080643,2,35,0.550297200679779,4.155782222747803,32.063061383466035,31.989321765338104,128.54153681658838,115.97245641494196,9.71794142969884e-05,0.0949056595563888,0,0,0
10650,384953.768075859,2010-12-03 21:30:16,4802.356663671521,2,35,0.5501165986061096,4.159343719482422,32.06764785104273,31.989321765338104,128.56060492286457,115.97245641494196,0.0001295089750783,0.0949056595563888,0,0,0
10651,384983.7831247387,2010-12-03 21:30:46,4832.371712551233,2,35,0.5501165986061096,4.162743091583252,32.072234421758004,31.989321765338104,128.57968917241226,115.97245641494196,9.70840483205393e-05,0.0949056595563888,0,0,0
10652,385013.7981799993,2010-12-03 21:31:16,4862.386767811824,2,35,0.550297200679779,4.16614294052124,32.07682103053492,31.989321765338104,128.5987894220173,115.97245641494196,0.0001295089750783,0.0949056595563888,0,0,0
10653,385043.81323102926,2010-12-03 21:31:46,4892.401818836876,2,35,0.550297200679779,4.16954231262207,32.08140752139774,31.989321765338104,128.61790508679542,115.97245641494196,9.70840483205393e-05,0.0949056595563888,0,0,0
10654,385073.8300837779,2010-12-03 21:32:16,4922.41867167567,2,35,0.5499359965324402,4.1731038093566895,32.08599426326498,31.989321765338104,128.63703784024335,115.97245641494196,9.70840483205393e-05,0.0949056595563888,0,0,0
10655,385103.8434513588,2010-12-03 21:32:46,4952.43203916631,2,35,0.5501165986061096,4.176665306091309,32.090580553820075,31.989321765338104,128.65618487579235,115.97245641494196,0.0001295089750783,0.0949056595563888,0,0,0
10656,385133.8584136631,2010-12-03 21:33:16,4982.447001495645,2,35,0.550297200679779,4.180226802825928,32.09516703635867,31.989321765338104,128.67534895069036,115.97245641494196,9.70840483205393e-05,0.0949056595563888,0,0,0
10657,385163.8734340719,2010-12-03 21:33:46,5012.462021879446,2,35,0.5499359965324402,4.183788299560547,32.099753551098566,31.989321765338104,128.69452959259178,115.97245641494196,0.0001295089750783,0.0949056595563888,0,0,0
10658,385193.88846320246,2010-12-03 21:34:16,5042.477051010013,2,35,0.5499359965324402,4.187188148498535,32.104340082755144,31.989321765338104,128.7137267771815,115.97245641494196,3.24249267578125e-05,0.0949056595563888,0,0,0
10659,385223.9035099519,2010-12-03 21:34:46,5072.492097759425,2,35,0.5501165986061096,4.191073417663574,32.108926670293044,31.989321765338104,128.73294086712005,115.97245641494196,9.71794142969884e-05,0.0949056595563888,0,0,0
10660,385253.91857881634,2010-12-03 21:35:16,5102.507166623868,2,35,0.5501165986061096,4.194634914398193,32.11351317385788,31.989321765338104,128.75217141421342,115.97245641494196,9.71794142969884e-05,0.0949056595563888,0,0,0
10661,385283.9337529829,2010-12-03 21:35:46,5132.522340790351,2,35,0.5499359965324402,4.198358058929443,32.11809973376149,31.989321765338104,128.77141905996714,115.97245641494196,9.71794142969884e-05,0.0949056595563888,0,0,0
10662,385296.38664997305,2010-12-03 21:35:58,5144.975237810629,2,35,0.550297200679779,4.200138568878174,32.12000264264026,31.989321765338104,128.7794096702073,115.97245641494196,0.0001618385285837,0.0949056595563888,0,0,0
10663,385326.4000448567,2010-12-03 21:36:28,30.01501901038353,3,35,0.0,4.110454082489014,32.12000264264026,31.989321765338104,128.7794096702073,115.97245641494196,-0.0003885269106831,0.0949056595563888,0,0,0
10664,385356.41510582657,2010-12-03 21:36:58,60.03007998519392,3,35,0.0,4.0992841720581055,32.12000264264026,31.989321765338104,128.7794096702073,115.97245641494196,-0.0001942634553415,0.0949056595563888,0,0,0
10665,385386.43014943815,2010-12-03 21:37:28,90.04512359679664,3,35,0.0,4.092484951019287,32.12000264264026,31.989321765338104,128.7794096702073,115.97245641494196,-0.0001618385285837,0.0949056595563888,0,0,0
10666,385416.3983246746,2010-12-03 21:37:58,120.01329882823796,3,35,0.0,4.087952136993408,32.12000264264026,31.989321765338104,128.7794096702073,115.97245641494196,-9.70840483205393e-05,0.0949056595563888,0,0,0
10667,385416.3991496736,2010-12-03 21:37:59,2.766885288e-06,4,35,1.0010980367660522,4.199814796447754,32.120002643409684,31.989321765338104,128.77940967343872,115.97245641494196,0.0,0.0949056595563888,0,0,0
10668,385417.19597552414,2010-12-03 21:37:59,0.796828632404483,4,35,0.9501661658287048,4.199653148651123,32.12021692596825,31.989321765338104,128.7803096011482,115.97245641494196,-3.23295607813634e-05,0.0949056595563888,0,0,0
10669,385419.2115644546,2010-12-03 21:38:01,2.812417562935459,4,35,0.8997761607170105,4.199814796447754,32.120733581819906,31.989321765338104,128.78247941229228,115.97245641494196,0.0,0.0949056595563888,0,0,0
10670,385422.2763951529,2010-12-03 21:38:04,5.877248381549472,4,35,0.8495668172836304,4.199814796447754,32.12147718050377,31.989321765338104,128.785602344559,115.97245641494196,3.23295607813634e-05,0.0949056595563888,0,0,0
10671,385426.5707901798,2010-12-03 21:38:09,10.1716432881054,4,35,0.7993574142456055,4.199653148651123,32.12245950885999,31.989321765338104,128.7897278889935,115.97245641494196,0.0,0.0949056595563888,0,0,0
10672,385432.22692546993,2010-12-03 21:38:14,15.827778578231213,4,35,0.7491480112075806,4.199814796447754,32.12367433161998,31.989321765338104,128.7948298437526,115.97245641494196,0.0,0.0949056595563888,0,0,0
10673,385439.586173636,2010-12-03 21:38:22,23.187026749256805,4,35,0.6991192698478699,4.199814796447754,32.12515241947632,31.989321765338104,128.80103746677784,115.97245641494196,0.0,0.0949056595563888,0,0,0
10674,385449.38284693565,2010-12-03 21:38:31,32.98370004395554,4,35,0.6490904688835144,4.199653148651123,32.12698366060299,31.989321765338104,128.8087282376204,115.97245641494196,0.0,0.0949056595563888,0,0,0
10675,385463.14823079895,2010-12-03 21:38:45,46.74908399247358,4,35,0.5990617275238037,4.199653148651123,32.12936448408088,31.989321765338104,128.81872714314727,115.97245641494196,0.0,0.0949056595563888,0,0,0
10676,385484.16525596776,2010-12-03 21:39:06,67.76610917128393,4,35,0.549032986164093,4.199814796447754,32.13270450600166,31.989321765338104,128.83275445683395,115.97245641494196,3.23295607813634e-05,0.0949056595563888,0,0,0
10677,385520.39728290826,2010-12-03 21:39:43,103.99813603659877,4,35,0.4990041851997375,4.199491024017334,32.13795385666888,31.989321765338104,128.85480031488953,115.97245641494196,-6.47544875391759e-05,0.0949056595563888,0,0,0
10678,385588.5208755735,2010-12-03 21:40:51,172.1217287669701,4,35,0.4489754140377044,4.199814796447754,32.146881330012086,31.989321765338104,128.89229300511363,115.97245641494196,0.0,0.0949056595563888,0,0,0
10679,385693.284582198,2010-12-03 21:42:35,276.8854353313823,4,35,0.3987660408020019,4.199653148651123,32.1591940656769,31.989321765338104,128.9440033545934,115.97245641494196,0.0,0.0949056595563888,0,0,0
10680,385825.0963056672,2010-12-03 21:44:47,408.6971588306285,4,35,0.3487372696399688,4.199653148651123,32.17286248288232,31.989321765338104,129.00140747624022,115.97245641494196,0.0,0.0949056595563888,0,0,0
10681,385981.2789837245,2010-12-03 21:47:23,564.8798368378234,4,35,0.2987084984779358,4.199653148651123,32.18688851021028,31.989321765338104,129.06031346607602,115.97245641494196,-3.23295607813634e-05,0.0949056595563888,0,0,0
10682,386169.4473134307,2010-12-03 21:50:32,753.0481666242533,4,35,0.2486797273159027,4.199653148651123,32.20116668557124,31.989321765338104,129.12027847275473,115.97245641494196,0.0,0.0949056595563888,0,0,0
10683,386401.5054064599,2010-12-03 21:54:24,985.1062595682332,4,35,0.1986509561538696,4.199814796447754,32.21554042231518,31.989321765338104,129.18064477812783,115.97245641494196,0.0,0.0949056595563888,0,0,0
10684,386709.0308126303,2010-12-03 21:59:31,1292.6316657335756,4,35,0.1486221849918365,4.199814796447754,32.23028822652163,31.989321765338104,129.24258205559332,115.97245641494196,0.0,0.0949056595563888,0,0,0
10685,387173.2877153617,2010-12-03 22:07:15,1756.8885684750128,4,35,0.098593421280384,4.199491024017334,32.24601273079441,31.989321765338104,129.30862113751007,115.97245641494196,-3.24249267578125e-05,0.0949056595563888,0,0,0
10686,388049.22671659634,2010-12-03 22:21:51,2632.8275698499724,4,35,0.0498289167881011,4.199653148651123,32.26341468565644,31.989321765338104,129.3817051888632,115.97245641494196,-6.47544875391759e-05,0.0949056595563888,0,0,0
10687,388079.24327730417,2010-12-03 22:22:22,30.015229534264112,5,35,0.0,4.191397190093994,32.26341468565644,31.989321765338104,129.3817051888632,115.97245641494196,-3.23295607813634e-05,0.0949056595563888,0,0,0
10688,388109.24259486207,2010-12-03 22:22:52,60.01454712226194,5,35,0.0,4.1901021003723145,32.26341468565644,31.989321765338104,129.3817051888632,115.97245641494196,-3.23295607813634e-05,0.0949056595563888,0,0,0
10689,388109.4349483629,2010-12-03 22:22:52,0.187625744448686,6,35,-1.9243103452026844e-05,4.1901021003723145,32.26341468565644,31.98932176634102,129.3817051888632,115.97245641914428,0.0,0.0972511246800422,0,0,0
10690,388114.2629913975,2010-12-03 22:22:57,5.015668783858294,6,35,0.0005225847125984,4.1901021003723145,32.2634155672448,31.98932176642412,129.38170888296807,115.97245641949245,-3.23295607813634e-05,0.0972511246800422,0,0,0
10691,388144.2829437224,2010-12-03 22:23:27,30.015210466815496,7,35,-1.099568486213684,4.006523609161377,32.2634155672448,31.998490470113232,129.38170888296807,116.00939623688548,-0.0009713172912597,0.0972511246800422,0,0,0
10692,388174.29790346033,2010-12-03 22:23:57,60.03017010946471,7,35,-1.0997490882873535,3.978355407714844,32.2634155672448,32.00765907002568,129.38170888296807,116.0459925809032,-0.0006799221155233,0.0972511246800422,0,0,0
10693,388204.3129826755,2010-12-03 22:24:27,90.0452493447155,7,35,-1.0997490882873535,3.9590909481048575,32.2634155672448,32.016828305717546,129.38170888296807,116.08237849896986,-0.0004209041653666,0.0972511246800422,0,0,0
10694,388234.32834915054,2010-12-03 22:24:57,120.0606158899261,7,35,-1.0997490882873535,3.944035530090332,32.2634155672448,32.025997729079464,129.38170888296807,116.11860917693927,-0.0003561496851034,0.0972511246800422,0,0,0
10695,388264.34317758674,2010-12-03 22:25:27,150.07544431103554,7,35,-1.099568486213684,3.931246519088745,32.2634155672448,32.03516634926122,129.38170888296807,116.15471048936132,-0.0003561496851034,0.0972511246800422,0,0,0
10696,388294.3581966322,2010-12-03 22:25:57,180.09046328131927,7,35,-1.099568486213684,3.919752597808838,32.2634155672448,32.04433495557962,129.38170888296807,116.1907003056544,-0.0002913951757363,0.0972511246800422,0,0,0
10697,388324.3732426598,2010-12-03 22:26:27,210.10550930893416,7,35,-1.099568486213684,3.9085826873779297,32.2634155672448,32.05350355245007,129.38170888296807,116.22658645567058,-0.0003237724304199,0.0972511246800422,0,0,0
10698,388354.3883121558,2010-12-03 22:26:57,240.12057880494925,7,35,-1.099568486213684,3.898221969604492,32.2634155672448,32.0626720943886,129.38170888296807,116.26237469715925,-0.0002590179501567,0.0972511246800422,0,0,0
10699,388384.403829411,2010-12-03 22:27:27,270.13609606019594,7,35,-1.0997490882873535,3.888346910476685,32.2634155672448,32.07184079825722,129.38170888296807,116.29807125936668,-0.0002913951757363,0.0972511246800422,0,0,0
10700,388414.420204922,2010-12-03 22:27:57,300.1524717065158,7,35,-1.099929690361023,3.878957509994507,32.2634155672448,32.08100982766128,129.38170888296807,116.33368088680022,-0.0002590179501567,0.0972511246800422,0,0,0
10701,388444.433630422,2010-12-03 22:28:27,330.1658970711732,7,35,-1.0997490882873535,3.869729995727539,32.2634155672448,32.09017797652759,129.38170888296807,116.36920195546624,-0.0002590179501567,0.0972511246800422,0,0,0
10702,388474.44857999455,2010-12-03 22:28:57,360.1808466437635,7,35,-1.099568486213684,3.860826253890991,32.2634155672448,32.09934657939549,129.38170888296807,116.40464099561392,-0.0002266406954731,0.0972511246800422,0,0,0
10703,388504.4636673601,2010-12-03 22:29:27,390.1959340443334,7,35,-1.0997490882873535,3.852084398269653,32.2634155672448,32.10851524703066,129.38170888296807,116.439999079816,-0.0001942634553415,0.0972511246800422,0,0,0
10704,388534.4786944256,2010-12-03 22:29:57,420.21096107968674,7,35,-1.099568486213684,3.843504428863525,32.2634155672448,32.11768398036375,129.38170888296807,116.47527838800676,-0.0002266406954731,0.0972511246800422,0,0,0
10705,388564.49378048274,2010-12-03 22:30:27,450.2260471369137,7,35,-1.0997490882873535,3.8352482318878174,32.2634155672448,32.12685269032266,129.38170888296807,116.51048025370392,-0.0002266406954731,0.0972511246800422,0,0,0
10706,388594.5088439538,2010-12-03 22:30:57,480.2411106931479,7,35,-1.0997490882873535,3.8268303871154794,32.2634155672448,32.13602136291112,129.38170888296807,116.5456060158124,-0.0002266406954731,0.0972511246800422,0,0,0
10707,388624.5239003924,2010-12-03 22:31:27,510.2561670414455,7,35,-1.0997490882873535,3.818736076354981,32.2634155672448,32.1451901021746,129.38170888296807,116.58065750343437,-0.0002266406954731,0.0972511246800422,0,0,0
10708,388654.5390706039,2010-12-03 22:31:57,540.2713372631124,7,35,-1.0997490882873535,3.810803651809693,32.2634155672448,32.15435885425047,129.38170888296807,116.61563524064638,-0.0002266406954731,0.0972511246800422,0,0,0
10709,388684.5540133345,2010-12-03 22:32:27,570.2862799936765,7,35,-1.099568486213684,3.8030331134796143,32.2634155672448,32.16352749559416,129.38170888296807,116.65054073039464,-0.0002266406954731,0.0972511246800422,0,0,0
10710,388714.569093477,2010-12-03 22:32:57,600.301360156235,7,35,-1.099929690361023,3.795586347579956,32.2634155672448,32.17269624032152,129.38170888296807,116.6853765651174,-0.0002266406954731,0.0972511246800422,0,0,0
10711,388744.5841461161,2010-12-03 22:33:27,630.3164127652273,7,35,-1.0997490882873535,3.788301467895508,32.2634155672448,32.18186495794734,129.38170888296807,116.72014399217927,-0.0001942634553415,0.0972511246800422,0,0,0
10712,388774.59947281214,2010-12-03 22:33:57,660.3317395565117,7,35,-1.099568486213684,3.78101658821106,32.2634155672448,32.191033695898874,129.38170888296807,116.754844458868,-0.0001942634553415,0.0972511246800422,0,0,0
10713,388804.6142857747,2010-12-03 22:34:27,690.3465524289289,7,35,-1.099568486213684,3.774217367172241,32.2634155672448,32.20020234390261,129.38170888296807,116.78947935003262,-0.0001618862152099,0.0972511246800422,0,0,0
10714,388834.62932846905,2010-12-03 22:34:57,720.3615951282615,7,35,-1.0997490882873535,3.767094373703003,32.2634155672448,32.209370981885925,129.38170888296807,116.8240502775697,-0.0001618862152099,0.0972511246800422,0,0,0
10715,388864.6445297329,2010-12-03 22:35:27,750.376796392176,7,35,-1.0997490882873535,3.760295152664185,32.2634155672448,32.21853974671855,129.38170888296807,116.85855909371384,-0.0001942634553415,0.0972511246800422,0,0,0
10716,388894.65945402265,2010-12-03 22:35:57,780.3917206718257,7,35,-1.0997490882873535,3.753657817840576,32.2634155672448,32.22770840967884,129.38170888296807,116.89300674158906,-0.0001942634553415,0.0972511246800422,0,0,0
10717,388924.67466791294,2010-12-03 22:36:27,810.4069345621604,7,35,-1.0997490882873535,3.747182607650757,32.2634155672448,32.236877162456004,129.38170888296807,116.92739473122822,-0.0001942634553415,0.0972511246800422,0,0,0
10718,388954.6895943379,2010-12-03 22:36:57,840.4218609871488,7,35,-1.099568486213684,3.7410309314727774,32.2634155672448,32.24604587027692,129.38170888296807,116.96172425753574,-0.0001618862152099,0.0972511246800422,0,0,0
10719,388984.70469025976,2010-12-03 22:37:27,870.4369569991478,7,35,-1.0997490882873535,3.73471736907959,32.2634155672448,32.25521460828332,129.38170888296807,116.9959965764534,-0.0001942634553415,0.0972511246800422,0,0,0
10720,389014.7215551485,2010-12-03 22:37:57,900.4538218979537,7,35,-1.0997490882873535,3.7288894653320312,32.2634155672448,32.26438382954675,129.38170888296807,117.03021432612458,-0.0001942634553415,0.0972511246800422,0,0,0
10721,389044.73479496647,2010-12-03 22:38:27,930.467061615636,7,35,-1.0997490882873535,3.722899675369263,32.2634155672448,32.27355194888057,129.38170888296807,117.06437343082617,-0.0001618862152099,0.0972511246800422,0,0,0
10722,389074.74989961,2010-12-03 22:38:57,960.4821663393136,7,35,-1.099568486213684,3.717071771621704,32.2634155672448,32.28272069500437,129.38170888296807,117.09848088602564,-0.0001295089750783,0.0972511246800422,0,0,0
10723,389104.7649202243,2010-12-03 22:39:27,990.4971868935388,7,35,-1.099568486213684,3.711405754089356,32.2634155672448,32.2918894489962,129.38170888296807,117.13253518875504,-0.0001618862152099,0.0972511246800422,0,0,0
10724,389134.77999354986,2010-12-03 22:39:57,1020.5122602291086,7,35,-1.099929690361023,3.705577850341797,32.2634155672448,32.301058166510295,129.38170888296807,117.1665369473196,-0.0001618862152099,0.0972511246800422,0,0,0
10725,389164.7950391965,2010-12-03 22:40:27,1050.5273058457008,7,35,-1.0997490882873535,3.700073719024658,32.2634155672448,32.31022681247112,129.38170888296807,117.20048642513736,-0.0001295089750783,0.0972511246800422,0,0,0
10726,389194.8100419264,2010-12-03 22:40:57,1080.5423085855955,7,35,-1.099568486213684,3.69456958770752,32.2634155672448,32.319395370010625,129.38170888296807,117.23438467657192,-0.0001295089750783,0.0972511246800422,0,0,0
10727,389224.8253160115,2010-12-03 22:41:27,1110.55758272586,7,35,-1.099568486213684,3.689065456390381,32.2634155672448,32.32856423227486,129.38170888296807,117.26823369231424,-0.0001295089750783,0.0972511246800422,0,0,0
10728,389254.8402389478,2010-12-03 22:41:57,1140.5725055970047,7,35,-1.0997490882873535,3.683561325073242,32.2634155672448,32.33773285259748,129.38170888296807,117.30203203955172,-0.0001618862152099,0.0972511246800422,0,0,0
10729,389284.8553058674,2010-12-03 22:42:27,1170.5875725166088,7,35,-1.099568486213684,3.678380966186523,32.2634155672448,32.346901552492135,129.38170888296807,117.3357819494922,-0.0001295089750783,0.0972511246800422,0,0,0
10730,389314.87036658666,2010-12-03 22:42:57,1200.6026332407955,7,35,-1.0997490882873535,3.6732006072998047,32.2634155672448,32.356070307190485,129.38170888296807,117.36948364436292,-0.0001295089750783,0.0972511246800422,0,0,0
10731,389344.8878202806,2010-12-03 22:43:27,1230.6200870200075,7,35,-1.099568486213684,3.667858600616455,32.2634155672448,32.365239844760175,129.38170888296807,117.40314067136195,-0.0001618862152099,0.0972511246800422,0,0,0
10732,389374.9005043456,2010-12-03 22:43:57,1260.6327709947448,7,35,-1.0997490882873535,3.6628401279449454,32.2634155672448,32.374407890049945,129.38170888296807,117.43674528293518,-0.0001618862152099,0.0972511246800422,0,0,0
10733,389404.91557949065,2010-12-03 22:44:27,1290.6478461448296,7,35,-1.099568486213684,3.6578216552734375,32.2634155672448,32.38357665141722,129.38170888296807,117.47030662505104,-0.0001618862152099,0.0972511246800422,0,0,0
10734,389434.9306613274,2010-12-03 22:44:57,1320.6629280717789,7,35,-1.099568486213684,3.6531269550323486,32.2634155672448,32.392745412993264,129.38170888296807,117.50382288431764,-0.0001295089750783,0.0972511246800422,0,0,0
10735,389464.94572354027,2010-12-03 22:45:27,1350.6779901894329,7,35,-1.0997490882873535,3.64827036857605,32.2634155672448,32.40191417465173,129.38170888296807,117.53729476409524,-0.0001295089750783,0.0972511246800422,0,0,0
10736,389494.96075836,2010-12-03 22:45:57,1380.6930250041453,7,35,-1.099568486213684,3.643413782119751,32.2634155672448,32.4110828519871,129.38170888296807,117.57072195691178,-0.0001295089750783,0.0972511246800422,0,0,0
10737,389524.9758241568,2010-12-03 22:46:27,1410.708090805967,7,35,-1.099929690361023,3.638557195663452,32.2634155672448,32.420251591292306,129.38170888296807,117.60410618924672,-0.0001618862152099,0.0972511246800422,0,0,0
10738,389554.9909091213,2010-12-03 22:46:57,1440.7231757955374,7,35,-1.099568486213684,3.634186267852783,32.2634155672448,32.42942032928733,129.38170888296807,117.63744765564697,-0.0001295089750783,0.0972511246800422,0,0,0
10739,389585.00614773313,2010-12-03 22:47:28,1470.7384144775654,7,35,-1.099568486213684,3.629653453826904,32.2634155672448,32.438589096391425,129.38170888296807,117.67074727450525,-9.713172767078504e-05,0.0972511246800422,0,0,0
10740,389615.0234284418,2010-12-03 22:47:58,1500.7556951860977,7,35,-1.099568486213684,3.6252825260162354,32.2634155672448,32.44775852815052,129.38170888296807,117.70400819924429,-9.713172767078504e-05,0.0972511246800422,0,0,0
10741,389645.03610054194,2010-12-03 22:48:28,1530.768367186036,7,35,-1.0997490882873535,3.6209115982055664,32.2634155672448,32.45692644035844,129.38170888296807,117.73722387065864,-9.713172767078504e-05,0.0972511246800422,0,0,0
10742,389675.05115234887,2010-12-03 22:48:58,1560.783418993033,7,35,-1.099568486213684,3.616864442825317,32.2634155672448,32.46609513355983,129.38170888296807,117.7704031467042,-6.47544875391759e-05,0.0972511246800422,0,0,0
10743,389705.0663923592,2010-12-03 22:49:28,1590.798659108628,7,35,-1.099568486213684,3.612493515014648,32.2634155672448,32.47526390153935,129.38170888296807,117.80354456477863,-0.0001618862152099,0.0972511246800422,0,0,0
10744,389735.0813025138,2010-12-03 22:49:58,1620.8135692230285,7,35,-1.099568486213684,3.60860824584961,32.2634155672448,32.48443263745452,129.38170888296807,117.8366485927812,-9.713172767078504e-05,0.0972511246800422,0,0,0
10745,389765.0963724458,2010-12-03 22:50:28,1650.8286390949786,7,35,-1.0997490882873535,3.60456109046936,32.2634155672448,32.4936013653008,129.38170888296807,117.8697161682338,-9.713172767078504e-05,0.0972511246800422,0,0,0
10746,389795.11156146927,2010-12-03 22:50:58,1680.8438281184333,7,35,-1.0997490882873535,3.6006758213043213,32.2634155672448,32.50277016624493,129.38170888296807,117.90274851762636,-0.0001295089750783,0.0972511246800422,0,0,0
10747,389825.1264943904,2010-12-03 22:51:28,1710.8587610445993,7,35,-1.0997490882873535,3.597114324569702,32.2634155672448,32.51193889247358,129.38170888296807,117.93574561050612,-6.47544875391759e-05,0.0972511246800422,0,0,0
10748,389855.1415457262,2010-12-03 22:51:58,1740.8738123754113,7,35,-1.0997490882873535,3.593390941619873,32.2634155672448,32.52110757575298,129.38170888296807,117.96870861475222,-6.47544875391759e-05,0.0972511246800422,0,0,0
10749,389885.1566366807,2010-12-03 22:52:28,1770.888903334837,7,35,-1.0997490882873535,3.589829683303833,32.2634155672448,32.530276337299405,129.38170888296807,118.00163876283852,-9.713172767078504e-05,0.0972511246800422,0,0,0
10750,389915.1717147079,2010-12-03 22:52:58,1800.9039813520567,7,35,-1.099568486213684,3.586430072784424,32.2634155672448,32.539445134922474,129.38170888296807,118.03453656445018,-6.47544875391759e-05,0.0972511246800422,0,0,0
10751,389945.1867513622,2010-12-03 22:53:28,1830.9190180163712,7,35,-1.0997490882873535,3.583030462265014,32.2634155672448,32.54861381475401,129.38170888296807,118.06740266640402,-9.713172767078504e-05,0.0972511246800422,0,0,0
10752,389975.2019588717,2010-12-03 22:53:58,1860.9342255859776,7,35,-1.0997490882873535,3.5797927379608154,32.2634155672448,32.5577825684662,129.38170888296807,118.10023853465384,-6.47544875391759e-05,0.0972511246800422,0,0,0
10753,390005.216877788,2010-12-03 22:54:28,1890.9491444371183,7,35,-1.099568486213684,3.576555013656616,32.2634155672448,32.56695119468965,129.38170888296807,118.13304400189392,-3.237724376958795e-05,0.0972511246800422,0,0,0
10754,390035.2319466274,2010-12-03 22:54:58,1920.9642132764995,7,35,-1.099568486213684,3.573479175567627,32.2634155672448,32.57611994142325,129.38170888296807,118.16582039407449,-3.237724376958795e-05,0.0972511246800422,0,0,0
10755,390065.2470177323,2010-12-03 22:55:28,1950.9792843815187,7,35,-1.099568486213684,3.5700795650482178,32.2634155672448,32.58528866558937,129.38170888296807,118.19856761941618,-6.47544875391759e-05,0.0972511246800422,0,0,0
10756,390095.26208269206,2010-12-03 22:55:58,1980.9943494064075,7,35,-1.099568486213684,3.5668418407440186,32.2634155672448,32.59445738029837,129.38170888296807,118.23128589643926,-9.713172767078504e-05,0.0972511246800422,0,0,0
10757,390125.27714313054,2010-12-03 22:56:28,2011.0094097797207,7,35,-1.099568486213684,3.5639278888702397,32.2634155672448,32.60362605400862,129.38170888296807,118.2639757167403,-3.237724376958795e-05,0.0972511246800422,0,0,0
10758,390155.29220539855,2010-12-03 22:56:58,2041.0244720477497,7,35,-1.0997490882873535,3.56085205078125,32.2634155672448,32.61279470801442,129.38170888296807,118.29663778183928,-6.47544875391759e-05,0.0972511246800422,0,0,0
10759,390185.3073226785,2010-12-03 22:57:28,2071.039589347723,7,35,-1.099568486213684,3.5579380989074707,32.2634155672448,32.62196341303382,129.38170888296807,118.32927227952246,-9.713172767078504e-05,0.0972511246800422,0,0,0
10760,390215.32413220446,2010-12-03 22:57:58,2101.056398928873,7,35,-1.0997490882873535,3.5547003746032715,32.2634155672448,32.63113263931765,129.38170888296807,118.36188054490086,-9.713172767078504e-05,0.0972511246800422,0,0,0
10761,390245.3374130195,2010-12-03 22:58:28,2131.069679668637,7,35,-1.0997490882873535,3.5516245365142822,32.2634155672448,32.64030080640512,129.38170888296807,118.39445669108652,-6.47544875391759e-05,0.0972511246800422,0,0,0
10762,390275.35247413965,2010-12-03 22:58:58,2161.084740788809,7,35,-1.0997490882873535,3.548548698425293,32.2634155672448,32.649469556182105,129.38170888296807,118.4270062292094,-6.47544875391759e-05,0.0972511246800422,0,0,0
10763,390305.3678942982,2010-12-03 22:59:28,2191.100161012597,7,35,-1.099568486213684,3.545472860336304,32.2634155672448,32.65863841548267,129.38170888296807,118.45952748365032,-6.47544875391759e-05,0.0972511246800422,0,0,0
10764,390335.3826238132,2010-12-03 22:59:58,2221.1148904574075,7,35,-1.0997490882873535,3.5422351360321045,32.2634155672448,32.66780708817556,129.38170888296807,118.49201929058972,-9.713172767078504e-05,0.0972511246800422,0,0,0
10765,390365.3976771992,2010-12-03 23:00:28,2251.129943848346,7,35,-1.0997490882873535,3.5389974117279053,32.2634155672448,32.676975826427714,129.38170888296807,118.52448217224573,-6.47544875391759e-05,0.0972511246800422,0,0,0
10766,390395.4127725445,2010-12-03 23:00:58,2281.145039193685,7,35,-1.0997490882873535,3.535597801208496,32.2634155672448,32.686144565198894,129.38170888296807,118.55691552911271,-9.713172767078504e-05,0.0972511246800422,0,0,0
10767,390425.42783454194,2010-12-03 23:01:28,2311.1601011910407,7,35,-1.0997490882873535,3.532198190689087,32.2634155672448,32.69531335231207,129.38170888296807,118.58931875692906,-0.0001618862152099,0.0972511246800422,0,0,0
10768,390455.4428729256,2010-12-03 23:01:58,2341.1751395746337,7,35,-1.099568486213684,3.528960466384888,32.2634155672448,32.704482142703164,129.38170888296807,118.62169109425952,-9.713172767078504e-05,0.0972511246800422,0,0,0
10769,390485.45799100737,2010-12-03 23:02:28,2371.1902577467777,7,35,-1.0997490882873535,3.5255608558654785,32.2634155672448,32.71365098730208,129.38170888296807,118.654031845209,-6.47544875391759e-05,0.0972511246800422,0,0,0
10770,390515.4730132457,2010-12-03 23:02:58,2401.205279889957,7,35,-1.099929690361023,3.5218374729156494,32.2634155672448,32.72281977169356,129.38170888296807,118.68633944530372,-6.47544875391759e-05,0.0972511246800422,0,0,0
10771,390545.4880856591,2010-12-03 23:03:28,2431.220352303232,7,35,-1.0997490882873535,3.5181140899658203,32.2634155672448,32.73198852778719,129.38170888296807,118.71861326453283,-9.713172767078504e-05,0.0972511246800422,0,0,0
10772,390575.5032764369,2010-12-03 23:03:58,2461.2355431863134,7,35,-1.0997490882873535,3.5140669345855717,32.2634155672448,32.74115733671558,129.38170888296807,118.75085207908414,-0.0001295089750783,0.0972511246800422,0,0,0
10773,390605.5183205448,2010-12-03 23:04:28,2491.250587284126,7,35,-1.0997490882873535,3.5100200176239014,32.2634155672448,32.7503261297479,129.38170888296807,118.7830543452659,-9.713172767078504e-05,0.0972511246800422,0,0,0
10774,390635.53328555566,2010-12-03 23:04:58,2521.265552199897,7,35,-1.0997490882873535,3.5056490898132324,32.2634155672448,32.75949489603769,129.38170888296807,118.81521787193468,-0.0001295089750783,0.0972511246800422,0,0,0
10775,390665.54835805926,2010-12-03 23:05:28,2551.280624708409,7,35,-1.0997490882873535,3.501116275787353,32.2634155672448,32.76866375760497,129.38170888296807,118.84734076186056,-0.0001618862152099,0.0972511246800422,0,0,0
10776,390695.5637124391,2010-12-03 23:05:58,2581.2959791535086,7,35,-1.0997490882873535,3.4962596893310547,32.2634155672448,32.77783261842512,129.38170888296807,118.87941989188194,-0.0001295089750783,0.0972511246800422,0,0,0
10777,390725.5785618926,2010-12-03 23:06:28,2611.310828632019,7,35,-1.0997490882873535,3.490755558013916,32.2634155672448,32.78700133437694,129.38170888296807,118.91145092918715,-0.0001295089750783,0.0972511246800422,0,0,0
10778,390755.5935499259,2010-12-03 23:06:58,2641.3258165750926,7,35,-1.099568486213684,3.4849276542663574,32.2634155672448,32.796170119844135,129.38170888296807,118.94343085373112,-0.0001295089750783,0.0972511246800422,0,0,0
10779,390785.6086611106,2010-12-03 23:07:28,2671.3409277598485,7,35,-1.099568486213684,3.478290319442749,32.2634155672448,32.80533894203356,129.38170888296807,118.9753539240274,-0.0002266406954731,0.0972511246800422,0,0,0
10780,390815.6254967517,2010-12-03 23:07:58,2701.3577634559847,7,35,-1.0997490882873535,3.471005439758301,32.2634155672448,32.81450822340026,129.38170888296807,119.00721473519678,-0.0001942634553415,0.0972511246800422,0,0,0
10781,390845.6387831003,2010-12-03 23:08:28,2731.371049754581,7,35,-1.099568486213684,3.462587356567383,32.2634155672448,32.823676450684154,129.38170888296807,119.03899985661428,-0.0002266406954731,0.0972511246800422,0,0,0
10782,390875.6540087901,2010-12-03 23:08:58,2761.386275494403,7,35,-1.099568486213684,3.452712297439575,32.2634155672448,32.83284529786171,129.38170888296807,119.07070314035326,-0.0002590179501567,0.0972511246800422,0,0,0
10783,390905.66896889394,2010-12-03 23:09:28,2791.401235628275,7,35,-1.0997490882873535,3.440570831298828,32.2634155672448,32.842014043276855,129.38170888296807,119.10230619582728,-0.0003561496851034,0.0972511246800422,0,0,0
10784,390935.6840761037,2010-12-03 23:09:58,2821.41634275794,7,35,-1.0997490882873535,3.425839424133301,32.2634155672448,32.85118287952345,129.38170888296807,119.13378762947444,-0.0004532813909463,0.0972511246800422,0,0,0
10785,390965.69904159085,2010-12-03 23:10:28,2851.431308240121,7,35,-1.0997490882873535,3.4070606231689453,32.2634155672448,32.86035172222606,129.38170888296807,119.16511611146184,-0.0005504131549969,0.0972511246800422,0,0,0
10786,390995.7140863504,2010-12-03 23:10:58,2881.44635299958,7,35,-1.0997490882873535,3.382615804672241,32.2634155672448,32.86952053402195,129.38170888296807,119.1962479945284,-0.0007446765666827,0.0972511246800422,0,0,0
10787,391025.72918161046,2010-12-03 23:11:28,2911.461448259708,7,35,-1.099568486213684,3.349915027618408,32.2634155672448,32.87868940487651,129.38170888296807,119.22712058410347,-0.001003646873869,0.0972511246800422,0,0,0
10788,391055.7442204803,2010-12-03 23:11:58,2941.4764871345237,7,35,-1.0997490882873535,3.305720090866089,32.2634155672448,32.88785824359233,129.38170888296807,119.25764352475645,-0.0013274669181555,0.0972511246800422,0,0,0
10789,391085.7594339445,2010-12-03 23:12:28,2971.491700593785,7,35,-1.0997490882873535,3.2446892261505127,32.2634155672448,32.89702709484966,129.38170888296807,119.28768903471234,-0.0018778800731524,0.0972511246800422,0,0,0
10790,391115.7743658082,2010-12-03 23:12:58,3001.506632457307,7,35,-1.099568486213684,3.1580803394317627,32.2634155672448,32.906195890008874,129.38170888296807,119.31706779109088,-0.0027520656585693,0.0972511246800422,0,0,0
10791,391145.789440858,2010-12-03 23:13:28,3031.521707537217,7,35,-1.099568486213684,3.024686574935913,32.2634155672448,32.91536470302106,129.38170888296807,119.3454633173912,-0.0044356347061693,0.0972511246800422,0,0,0
10792,391170.3202257376,2010-12-03 23:13:53,3056.052492416899,7,35,-1.099568486213684,2.82427191734314,32.2634155672448,32.922858168174265,129.38170888296807,119.36745707899448,-0.0083533283323049,0.0972511246800422,0,0,0
10793,391181.10127713945,2010-12-03 23:14:04,3066.8335438186564,7,35,-1.0997490882873535,2.699943780899048,32.2634155672448,32.9261514765596,129.38170888296807,119.37655648894815,-0.0094217304140329,0.0972511246800422,0,0,0
10794,391241.1152688681,2010-12-03 23:15:04,60.01451968398283,8,35,0.0,3.360437393188477,32.2634155672448,32.9261514765596,129.38170888296807,119.37655648894815,0.0012950897216796,0.0972511246800422,0,0,0
10795,391241.30560204247,2010-12-03 23:15:04,0.189731309065251,9,35,-1.9243103452026844e-05,3.3609230518341064,32.2634155672448,32.92615147757377,129.38170888296807,119.37655649235673,0.0,0.0940094217658042,0,0,0
10796,391246.1313916193,2010-12-03 23:15:09,5.0155207755453,9,35,0.0005225847125984,3.3688554763793945,32.2634163703843,32.92615147764559,129.38171158584075,119.3765564925981,0.0011655807029455,0.0940094217658042,0,0,0
