Data_Point,Test_Time(s),Date_Time,Step_Time(s),Step_Index,Cycle_Index,Current(A),Voltage(V),Charge_Capacity(Ah),Discharge_Capacity(Ah),Charge_Energy(Wh),Discharge_Energy(Wh),dV/dt(V/s),Internal_Resistance(Ohm),Is_FC_Data,AC_Impedance(Ohm),ACI_Phase_Angle(Deg)
8939,323758.59373626154,2010-12-03 04:30:14,30.013301907438898,1,30,0.0,3.3941097259521484,26.66895445725025,27.33485535257969,106.94924209385884,99.1142414234734,0.0007770538213662,0.0940094217658042,0,0,0
8940,323788.6088608296,2010-12-03 04:30:44,60.02842648051112,1,30,0.0,3.4177451133728027,26.66895445725025,27.33485535257969,106.94924209385884,99.1142414234734,0.0005504131549969,0.0940094217658042,0,0,0
8941,323818.6238838149,2010-12-03 04:31:14,90.04344948583591,1,30,0.0,3.4358761310577397,26.66895445725025,27.33485535257969,106.94924209385884,99.1142414234734,0.0004209041653666,0.0940094217658042,0,0,0
8942,323848.5919659446,2010-12-03 04:31:44,120.01153161559726,1,30,0.0,3.450284004211426,26.66895445725025,27.33485535257969,106.94924209385884,99.1142414234734,0.0003237724304199,0.0940094217658042,0,0,0
8943,323878.60746582993,2010-12-03 04:32:14,30.015231348779466,2,30,0.5499359965324402,3.609579563140869,26.673540324984785,27.33485535257969,106.96563383891184,99.1142414234734,0.0015864849556237,0.0940094217658042,0,0,0
8944,323908.62252440373,2010-12-03 04:32:44,60.03028991760264,2,30,0.5501165986061096,3.656040906906128,26.678126050289624,27.33485535257969,106.9822995168131,99.1142414234734,0.0010684489971026,0.0940094217658042,0,0,0
8945,323938.6374713448,2010-12-03 04:33:14,90.04523684861945,2,30,0.5499359965324402,3.6895511150360103,26.68271171990446,27.33485535257969,106.99914504634442,99.1142414234734,0.0008094310760498,0.0940094217658042,0,0,0
8946,323968.6525944091,2010-12-03 04:33:44,120.06035992296216,2,30,0.5499359965324402,3.7159385681152335,26.68729735658836,27.33485535257969,107.01612645469788,99.1142414234734,0.0006799221155233,0.0940094217658042,0,0,0
8947,323998.6676338654,2010-12-03 04:34:14,150.0753993691995,2,30,0.5499359965324402,3.7371456623077393,26.691883164910365,27.33485535257969,107.03321725758904,99.1142414234734,0.0005180359003134,0.0940094217658042,0,0,0
8948,324028.68282961554,2010-12-03 04:34:44,180.0905951895679,2,30,0.5499359965324402,3.754143476486206,26.696469763592138,27.33485535257969,107.0503990298061,99.1142414234734,0.0003884792386088,0.0940094217658042,0,0,0
8949,324058.6977906367,2010-12-03 04:35:14,210.10555614047263,2,30,0.5501165986061096,3.766123056411743,26.7010563520522,27.33485535257969,107.06764769806846,99.1142414234734,0.0002266406954731,0.0940094217658042,0,0,0
8950,324088.7128704984,2010-12-03 04:35:44,240.1206360975196,2,30,0.5501165986061096,3.7740554809570312,26.70564289655271,27.33485535257969,107.084941034172,99.1142414234734,0.0001942634553415,0.0940094217658042,0,0,0
8951,324118.7279523202,2010-12-03 04:36:14,270.1357178239697,2,30,0.5501165986061096,3.77939772605896,26.710229510125625,27.33485535257969,107.1022640796042,99.1142414234734,0.0001295089750783,0.0940094217658042,0,0,0
8952,324148.7451525183,2010-12-03 04:36:44,300.1529181173921,2,30,0.5501165986061096,3.784092426300049,26.71481645788799,27.33485535257969,107.1196110636292,99.1142414234734,0.0001295089750783,0.0940094217658042,0,0,0
8953,324178.75811649987,2010-12-03 04:37:14,330.16588203375323,2,30,0.5499359965324402,3.788301467895508,26.71940267894776,27.33485535257969,107.1369755583492,99.1142414234734,9.713172767078504e-05,0.0940094217658042,0,0,0
8954,324208.77330191934,2010-12-03 04:37:44,360.1810674281771,2,30,0.5499359965324402,3.792348623275757,26.723989285582427,27.33485535257969,107.15436044995974,99.1142414234734,0.0001295089750783,0.0940094217658042,0,0,0
8955,324238.7882599179,2010-12-03 04:38:14,390.19602545179737,2,30,0.5499359965324402,3.796072006225586,26.728575859121747,27.33485535257969,107.17176338591104,99.1142414234734,3.237724376958795e-05,0.0940094217658042,0,0,0
8956,324268.80345549766,2010-12-03 04:38:44,420.21122100149216,2,30,0.5499359965324402,3.799795389175415,26.73316252770461,27.33485535257969,107.18918414989426,99.1142414234734,6.47544875391759e-05,0.0940094217658042,0,0,0
8957,324298.81855211616,2010-12-03 04:39:14,450.226317625013,2,30,0.5499359965324402,3.803518772125244,26.73774920856244,27.33485535257969,107.20662193154423,99.1142414234734,3.237724376958795e-05,0.0940094217658042,0,0,0
8958,324328.8334804108,2010-12-03 04:39:44,480.2412459146415,2,30,0.550297200679779,3.807242155075073,26.74233585070265,27.33485535257969,107.22407601745468,99.1142414234734,9.713172767078504e-05,0.0940094217658042,0,0,0
8959,324358.84861657774,2010-12-03 04:40:14,510.256382171789,2,30,0.5499359965324402,3.810479879379273,26.74692255264252,27.33485535257969,107.24154644046676,99.1142414234734,9.713172767078504e-05,0.0940094217658042,0,0,0
8960,324388.8636498887,2010-12-03 04:40:44,540.2714154276218,2,30,0.5499359965324402,3.814041376113892,26.75150915971552,27.33485535257969,107.25903239488412,99.1142414234734,6.47544875391759e-05,0.0940094217658042,0,0,0
8961,324418.87871314416,2010-12-03 04:41:14,570.2864786480203,2,30,0.5499359965324402,3.817440986633301,26.756095765874456,27.33485535257969,107.27653418419044,99.1142414234734,6.47544875391759e-05,0.0940094217658042,0,0,0
8962,324448.8937900386,2010-12-03 04:41:44,600.301555542446,2,30,0.550297200679779,3.82100248336792,26.760682335296508,27.33485535257969,107.29405141964676,99.1142414234734,0.0001295089750783,0.0940094217658042,0,0,0
8963,324478.9088790332,2010-12-03 04:42:14,630.3166445369824,2,30,0.550297200679779,3.824402093887329,26.76526897462611,27.33485535257969,107.31158442367172,99.1142414234734,0.0001295089750783,0.0940094217658042,0,0,0
8964,324508.9239476169,2010-12-03 04:42:44,660.3317131257398,2,30,0.5501165986061096,3.8278017044067374,26.769855538463265,27.33485535257969,107.32913279344756,99.1142414234734,9.713172767078504e-05,0.0940094217658042,0,0,0
8965,324538.9390267318,2010-12-03 04:43:14,690.3467922356788,2,30,0.5501165986061096,3.831201314926148,26.774442192822008,27.33485535257969,107.34669745408678,99.1142414234734,3.237724376958795e-05,0.0940094217658042,0,0,0
8966,324568.9540966038,2010-12-03 04:43:44,720.3618621076295,2,30,0.5501165986061096,3.8349244594573975,26.77902882403159,27.33485535257969,107.36427817101954,99.1142414234734,0.0001295089750783,0.0940094217658042,0,0,0
8967,324598.9692130617,2010-12-03 04:44:14,750.3769785705197,2,30,0.5504778623580933,3.8384859561920166,26.783615438772248,27.33485535257969,107.38187523710246,99.1142414234734,0.0001295089750783,0.0940094217658042,0,0,0
8968,324628.9842505931,2010-12-03 04:44:44,780.3920161270546,2,30,0.550297200679779,3.842047452926636,26.788202070433776,27.33485535257969,107.39948888285493,99.1142414234734,9.713172767078504e-05,0.0940094217658042,0,0,0
8969,324658.99934210395,2010-12-03 04:45:14,810.4071076077778,2,30,0.5501165986061096,3.845770835876465,26.7927886584092,27.33485535257969,107.41711893719354,99.1142414234734,0.0001295089750783,0.0940094217658042,0,0,0
8970,324689.01372699137,2010-12-03 04:45:44,840.4214925001831,2,30,0.5499359965324402,3.849008560180664,26.79735145843684,27.33485535257969,107.43467390653775,99.1142414234734,6.47544875391759e-05,0.0940094217658042,0,0,0
8971,324719.0138697327,2010-12-03 04:46:14,870.4216352565808,2,30,0.5501165986061096,3.852893829345703,26.801959562873165,27.33485535257969,107.45241963040796,99.1142414234734,0.0001295089750783,0.0940094217658042,0,0,0
8972,324749.03133783257,2010-12-03 04:46:44,900.4391034516663,2,30,0.5501165986061096,3.856293439865112,26.80654659529905,27.33485535257969,107.47010043817828,99.1142414234734,9.713172767078504e-05,0.0940094217658042,0,0,0
8973,324779.0458072102,2010-12-03 04:47:14,930.4535728142724,2,30,0.5501165986061096,3.8596930503845215,26.81113311353145,27.33485535257969,107.487795241196,99.1142414234734,6.47544875391759e-05,0.0940094217658042,0,0,0
8974,324809.05912784423,2010-12-03 04:47:44,960.4668934432992,2,30,0.5501165986061096,3.86309266090393,26.815719414709637,27.33485535257969,107.505504862151,99.1142414234734,6.47544875391759e-05,0.0940094217658042,0,0,0
8975,324839.0741740222,2010-12-03 04:48:14,990.4819395260514,2,30,0.5501165986061096,3.86633038520813,26.82030602154997,27.33485535257969,107.52323085949511,99.1142414234734,9.713172767078504e-05,0.0940094217658042,0,0,0
8976,324869.0892982344,2010-12-03 04:48:44,1020.4970637382256,2,30,0.5499359965324402,3.869568109512329,26.824892665279044,27.33485535257969,107.54097174511266,99.1142414234734,9.713172767078504e-05,0.0940094217658042,0,0,0
8977,324899.1044514587,2010-12-03 04:49:14,1050.5122169726203,2,30,0.5501165986061096,3.8726439476013184,26.829479338888564,27.33485535257969,107.55872700847073,99.1142414234734,9.713172767078504e-05,0.0940094217658042,0,0,0
8978,324929.11940159777,2010-12-03 04:49:44,1080.5271671015953,2,30,0.5501165986061096,3.875396013259888,26.83406593918985,27.33485535257969,107.57649559562412,99.1142414234734,6.47544875391759e-05,0.0940094217658042,0,0,0
8979,324959.13462917216,2010-12-03 04:50:14,1110.5423946860071,2,30,0.5501165986061096,3.878148078918457,26.838652623214724,27.33485535257969,107.59427762264482,99.1142414234734,6.47544875391759e-05,0.0940094217658042,0,0,0
8980,324989.1495667599,2010-12-03 04:50:45,1140.557332268761,2,30,0.5501165986061096,3.8809001445770255,26.843239266411302,27.33485535257969,107.61207193478248,99.1142414234734,6.47544875391759e-05,0.0940094217658042,0,0,0
8981,325019.16497411166,2010-12-03 04:51:15,1170.5727396205173,2,30,0.5501165986061096,3.8834903240203857,26.84782597873647,27.33485535257969,107.62987824848092,99.1142414234734,9.713172767078504e-05,0.0940094217658042,0,0,0
8982,325049.1671286694,2010-12-03 04:51:45,1200.574894293492,2,30,0.5501165986061096,3.8855948448181152,26.852410671611143,27.33485535257969,107.64768773780467,99.1142414234734,3.237724376958795e-05,0.0940094217658042,0,0,0
8983,325079.1793258428,2010-12-03 04:52:15,1230.58709146183,2,30,0.5501165986061096,3.887861251831055,26.85699688431842,27.33485535257969,107.66551356255488,99.1142414234734,6.47544875391759e-05,0.0940094217658042,0,0,0
8984,325109.1942579869,2010-12-03 04:52:45,1260.6020235108135,2,30,0.5499359965324402,3.889965772628784,26.861583527531224,27.33485535257969,107.68335086183735,99.1142414234734,6.47544875391759e-05,0.0940094217658042,0,0,0
8985,325139.2093672419,2010-12-03 04:53:15,1290.6171327457173,2,30,0.550297200679779,3.8920702934265137,26.86617023295974,27.33485535257969,107.70119758401084,99.1142414234734,6.47544875391759e-05,0.0940094217658042,0,0,0
8986,325169.2244354898,2010-12-03 04:53:45,1320.6322009936264,2,30,0.550297200679779,3.8938510417938232,26.87075691447273,27.33485535257969,107.71905291525164,99.1142414234734,6.47544875391759e-05,0.0940094217658042,0,0,0
8987,325199.2395142238,2010-12-03 04:54:15,1350.64727972763,2,30,0.5499359965324402,3.895146131515503,26.875343665649456,27.33485535257969,107.73691649952605,99.1142414234734,3.237724376958795e-05,0.0940094217658042,0,0,0
8988,325229.25472413923,2010-12-03 04:54:45,1380.6624896530984,2,30,0.5499359965324402,3.8970887660980233,26.87993038213072,27.33485535257969,107.75478770327057,99.1142414234734,0.0,0.0940094217658042,0,0,0
8989,325259.26967576693,2010-12-03 04:55:15,1410.6774412707778,2,30,0.5499359965324402,3.898707628250122,26.884516997591128,27.33485535257969,107.77266609580776,99.1142414234734,3.237724376958795e-05,0.0940094217658042,0,0,0
8990,325289.28486613376,2010-12-03 04:55:45,1440.6926316626375,2,30,0.5501165986061096,3.900488376617432,26.88910370212588,27.33485535257969,107.79055227753436,99.1142414234734,6.47544875391759e-05,0.0940094217658042,0,0,0
8991,325319.2998434604,2010-12-03 04:56:15,1470.7076089943052,2,30,0.5501165986061096,3.9017834663391113,26.893690354349527,27.33485535257969,107.80844544029934,99.1142414234734,3.237724376958795e-05,0.0940094217658042,0,0,0
8992,325349.3150346793,2010-12-03 04:56:45,1500.7228002082104,2,30,0.5501165986061096,3.903402328491211,26.898277100089704,27.33485535257969,107.8263460823906,99.1142414234734,3.237724376958795e-05,0.0940094217658042,0,0,0
8993,325379.32998909894,2010-12-03 04:57:15,1530.7377546178377,2,30,0.5501165986061096,3.905021190643311,26.90286376582983,27.33485535257969,107.84425343772814,99.1142414234734,6.47544875391759e-05,0.0940094217658042,0,0,0
8994,325409.3468816767,2010-12-03 04:57:45,1560.754647280733,2,30,0.5499359965324402,3.9063162803649902,26.90745074293745,27.33485535257969,107.8621688523676,99.1142414234734,-3.237724376958795e-05,0.0940094217658042,0,0,0
8995,325439.36017466686,2010-12-03 04:58:15,1590.7679402008073,2,30,0.550297200679779,3.90793514251709,26.91203714001351,27.33485535257969,107.88008894261318,99.1142414234734,6.47544875391759e-05,0.0940094217658042,0,0,0
8996,325469.37522646383,2010-12-03 04:58:45,1620.7829919677042,2,30,0.5501165986061096,3.9095540046691895,26.91662379459547,27.33485535257969,107.89801696814534,99.1142414234734,3.237724376958795e-05,0.0940094217658042,0,0,0
8997,325499.39035235025,2010-12-03 04:59:15,1650.7981179392566,2,30,0.550297200679779,3.911010980606079,26.921210464017665,27.33485535257969,107.91595192812623,99.1142414234734,3.237724376958795e-05,0.0940094217658042,0,0,0
8998,325529.4055234541,2010-12-03 04:59:45,1680.813288992994,2,30,0.5501165986061096,3.912306070327759,26.925797137552905,27.33485535257969,107.93389380306944,99.1142414234734,3.237724376958795e-05,0.0940094217658042,0,0,0
8999,325559.4204485859,2010-12-03 05:00:15,1710.828214099702,2,30,0.5501165986061096,3.9139246940612793,26.93038374014523,27.33485535257969,107.95184228291734,99.1142414234734,3.237724376958795e-05,0.0940094217658042,0,0,0
9000,325589.43568202987,2010-12-03 05:00:45,1740.8434476188825,2,30,0.5501165986061096,3.915543556213379,26.93497041636057,27.33485535257969,107.96979799758182,99.1142414234734,3.237724376958795e-05,0.0940094217658042,0,0,0
9001,325619.45075553586,2010-12-03 05:01:15,1770.8585211349011,2,30,0.5499359965324402,3.917000532150269,26.939557069542506,27.33485535257969,107.98776046098696,99.1142414234734,3.237724376958795e-05,0.0940094217658042,0,0,0
9002,325649.46568352974,2010-12-03 05:01:45,1800.8734490586187,2,30,0.5501165986061096,3.918619394302368,26.94414361706308,27.33485535257969,108.00572973897135,99.1142414234734,3.237724376958795e-05,0.0940094217658042,0,0,0
9003,325679.4807922584,2010-12-03 05:02:15,1830.8885578574373,2,30,0.5501165986061096,3.920076370239258,26.948730221045988,27.33485535257969,108.02370652482048,99.1142414234734,-3.237724376958795e-05,0.0940094217658042,0,0,0
9004,325709.49582389015,2010-12-03 05:02:45,1860.9035894190545,2,30,0.550297200679779,3.921857118606568,26.953316785351145,27.33485535257969,108.0416904101776,99.1142414234734,6.47544875391759e-05,0.0940094217658042,0,0,0
9005,325739.5110512039,2010-12-03 05:03:15,1890.9188167327927,2,30,0.550297200679779,3.923475980758667,26.95790331700299,27.33485535257969,108.05968156976972,99.1142414234734,6.47544875391759e-05,0.0940094217658042,0,0,0
9006,325769.52599229536,2010-12-03 05:03:45,1920.933757804228,2,30,0.5501165986061096,3.9249329566955566,26.962489882697984,27.33485535257969,108.07768032225354,99.1142414234734,3.237724376958795e-05,0.0940094217658042,0,0,0
9007,325799.5410763977,2010-12-03 05:04:15,1950.9488419166155,2,30,0.5501165986061096,3.926713705062866,26.967076513910325,27.33485535257969,108.09568674025827,99.1142414234734,3.237724376958795e-05,0.0940094217658042,0,0,0
9008,325829.55620411364,2010-12-03 05:04:45,1980.963969707696,2,30,0.550297200679779,3.928332567214966,26.971663086484085,27.33485535257969,108.1137004436246,99.1142414234734,6.47544875391759e-05,0.0940094217658042,0,0,0
9009,325859.5712223371,2010-12-03 05:05:15,2010.9789878509207,2,30,0.5501165986061096,3.9299514293670654,26.976249623513848,27.33485535257969,108.13172159326658,99.1142414234734,6.47544875391759e-05,0.0940094217658042,0,0,0
9010,325889.58626509656,2010-12-03 05:05:45,2040.9940306053911,2,30,0.5501165986061096,3.931570291519165,26.98083622040098,27.33485535257969,108.14975059497192,99.1142414234734,3.237724376958795e-05,0.0940094217658042,0,0,0
9011,325919.6013288282,2010-12-03 05:06:15,2071.009094332049,2,30,0.550297200679779,3.9333510398864746,26.98542279387452,27.33485535257969,108.16778713974996,99.1142414234734,3.237724376958795e-05,0.0940094217658042,0,0,0
9012,325949.6164123291,2010-12-03 05:06:45,2101.02417784294,2,30,0.5501165986061096,3.934969902038574,26.99000935118531,27.33485535257969,108.18583125214587,99.1142414234734,3.237724376958795e-05,0.0940094217658042,0,0,0
9013,325979.631488647,2010-12-03 05:07:15,2131.039254150906,2,30,0.5501165986061096,3.936588764190674,26.99459589054542,27.33485535257969,108.20388296636466,99.1142414234734,3.237724376958795e-05,0.0940094217658042,0,0,0
9014,326009.6484815244,2010-12-03 05:07:45,2161.056247123419,2,30,0.5501165986061096,3.938531398773194,26.99918268184172,27.33485535257969,108.22194348002112,99.1142414234734,6.47544875391759e-05,0.0940094217658042,0,0,0
9015,326039.66160081234,2010-12-03 05:08:15,2191.069366321192,2,30,0.5501165986061096,3.940150260925293,27.003768893036707,27.33485535257969,108.2400094734598,99.1142414234734,6.47544875391759e-05,0.0940094217658042,0,0,0
9016,326069.6766618974,2010-12-03 05:08:45,2221.084427401264,2,30,0.5501165986061096,3.9417691230773926,27.008355468323064,27.33485535257969,108.25808472813878,99.1142414234734,6.47544875391759e-05,0.0940094217658042,0,0,0
9017,326099.6917278847,2010-12-03 05:09:15,2251.09949339356,2,30,0.5501165986061096,3.943549871444702,27.012941955818818,27.33485535257969,108.27616739363748,99.1142414234734,3.237724376958795e-05,0.0940094217658042,0,0,0
9018,326129.70705049054,2010-12-03 05:09:45,2281.1148160896537,2,30,0.5499359965324402,3.945006847381592,27.017528475517143,27.33485535257969,108.29425802778104,99.1142414234734,3.237724376958795e-05,0.0940094217658042,0,0,0
9019,326159.721859353,2010-12-03 05:10:15,2311.1296249220177,2,30,0.5501165986061096,3.9469494819641113,27.02211501091521,27.33485535257969,108.3123566496634,99.1142414234734,6.47544875391759e-05,0.0940094217658042,0,0,0
9020,326189.7368962028,2010-12-03 05:10:45,2341.144661711644,2,30,0.5499359965324402,3.948568344116211,27.026701474765456,27.33485535257969,108.3304627993931,99.1142414234734,3.237724376958795e-05,0.0940094217658042,0,0,0
9021,326219.75211969204,2010-12-03 05:11:15,2371.159885261015,2,30,0.5501165986061096,3.9505109786987305,27.031287955900524,27.33485535257969,108.34857691855022,99.1142414234734,9.713172767078504e-05,0.0940094217658042,0,0,0
9022,326249.76701413747,2010-12-03 05:11:45,2401.174779641261,2,30,0.5501165986061096,3.95196795463562,27.0358743810644,27.33485535257969,108.3666987886832,99.1142414234734,3.237724376958795e-05,0.0940094217658042,0,0,0
9023,326279.78219167225,2010-12-03 05:12:15,2431.189957186152,2,30,0.5501165986061096,3.9537487030029297,27.04046095291216,27.33485535257969,108.3848292303821,99.1142414234734,0.0,0.0940094217658042,0,0,0
9024,326309.79711497447,2010-12-03 05:12:45,2461.2048804833566,2,30,0.5499359965324402,3.9555294513702393,27.0450473950864,27.33485535257969,108.40296719413668,99.1142414234734,3.237724376958795e-05,0.0940094217658042,0,0,0
9025,326339.81218395423,2010-12-03 05:13:15,2491.219949458074,2,30,0.5499359965324402,3.957310199737549,27.049633919610017,27.33485535257969,108.42111358049333,99.1142414234734,6.47544875391759e-05,0.0940094217658042,0,0,0
9026,326369.8272512047,2010-12-03 05:13:45,2521.235016713514,2,30,0.550297200679779,3.9590909481048575,27.054220459604,27.33485535257969,108.43926812223812,99.1142414234734,3.237724376958795e-05,0.0940094217658042,0,0,0
9027,326399.84228443046,2010-12-03 05:14:15,2551.250049939272,2,30,0.5501165986061096,3.960871696472168,27.05880690671441,27.33485535257969,108.45743040570508,99.1142414234734,6.47544875391759e-05,0.0940094217658042,0,0,0
9028,326429.85735114955,2010-12-03 05:14:45,2581.265116653364,2,30,0.550297200679779,3.962814331054688,27.063393449192866,27.33485535257969,108.47560123142884,99.1142414234734,3.237724376958795e-05,0.0940094217658042,0,0,0
9029,326459.8723926208,2010-12-03 05:15:15,2611.2801581246413,2,30,0.5499359965324402,3.964433193206787,27.067979937698283,27.33485535257969,108.49378006083154,99.1142414234734,6.47544875391759e-05,0.0940094217658042,0,0,0
9030,326489.8874395206,2010-12-03 05:15:45,2641.295205024426,2,30,0.5501165986061096,3.966375827789306,27.072566418198576,27.33485535257969,108.51196716983604,99.1142414234734,6.47544875391759e-05,0.0940094217658042,0,0,0
9031,326519.90246024524,2010-12-03 05:16:15,2671.3102257490755,2,30,0.5499359965324402,3.9679946899414062,27.07715294170276,27.33485535257969,108.53016276060788,99.1142414234734,0.0,0.0940094217658042,0,0,0
9032,326549.9175037466,2010-12-03 05:16:45,2701.3252692604287,2,30,0.5499359965324402,3.969937324523926,27.08173942759056,27.33485535257969,108.54836657043748,99.1142414234734,3.237724376958795e-05,0.0940094217658042,0,0,0
9033,326579.93257945305,2010-12-03 05:17:15,2731.340344961886,2,30,0.5499359965324402,3.971879959106445,27.086325934292983,27.33485535257969,108.56657891021634,99.1142414234734,6.47544875391759e-05,0.0940094217658042,0,0,0
9034,326609.94938769087,2010-12-03 05:17:45,2761.3571533099675,2,30,0.5501165986061096,3.973498821258545,27.09091274439849,27.33485535257969,108.5848009813514,99.1142414234734,3.237724376958795e-05,0.0940094217658042,0,0,0
9035,326639.96266093693,2010-12-03 05:18:15,2791.370426445809,2,30,0.5501165986061096,3.9756033420562735,27.095498968153898,27.33485535257969,108.60302923436892,99.1142414234734,6.47544875391759e-05,0.0940094217658042,0,0,0
9036,326669.9776937968,2010-12-03 05:18:45,2821.3854593056567,2,30,0.5501165986061096,3.977545976638794,27.100085551133432,27.33485535257969,108.62126756622932,99.1142414234734,6.47544875391759e-05,0.0940094217658042,0,0,0
9037,326699.99503004854,2010-12-03 05:19:15,2851.4027956426185,2,30,0.5501165986061096,3.979326725006104,27.10467241353312,27.33485535257969,108.63951527420132,99.1142414234734,3.237724376958795e-05,0.0940094217658042,0,0,0
9038,326730.0077655565,2010-12-03 05:19:45,2881.4155310603696,2,30,0.5501165986061096,3.981269359588623,27.109258523337147,27.33485535257969,108.65776920058455,99.1142414234734,3.237724376958795e-05,0.0940094217658042,0,0,0
9039,326760.0228111029,2010-12-03 05:20:15,2911.430576606787,2,30,0.5501165986061096,3.983211994171143,27.113844945196867,27.33485535257969,108.6760331854948,99.1142414234734,6.47544875391759e-05,0.0940094217658042,0,0,0
9040,326790.0379525931,2010-12-03 05:20:45,2941.445718222268,2,30,0.5501165986061096,3.985154628753662,27.11843144469891,27.33485535257969,108.69430645138664,99.1142414234734,6.47544875391759e-05,0.0940094217658042,0,0,0
9041,326820.0528690383,2010-12-03 05:21:15,2971.4606345421103,2,30,0.550297200679779,3.9870972633361816,27.12301804353312,27.33485535257969,108.71258918014608,99.1142414234734,6.47544875391759e-05,0.0940094217658042,0,0,0
9042,326850.0679803684,2010-12-03 05:21:45,3001.475745897291,2,30,0.550297200679779,3.989039897918701,27.12760529749055,27.33485535257969,108.73088363239,99.1142414234734,3.237724376958795e-05,0.0940094217658042,0,0,0
9043,326880.08287490904,2010-12-03 05:22:15,3031.490640533173,2,30,0.550297200679779,3.991144418716431,27.132192371202297,27.33485535257969,108.74918650915838,99.1142414234734,6.47544875391759e-05,0.0940094217658042,0,0,0
9044,326910.0979696579,2010-12-03 05:22:45,3061.5057351717546,2,30,0.550297200679779,3.99324893951416,27.136779593402863,27.33485535257969,108.76749937267968,99.1142414234734,6.47544875391759e-05,0.0940094217658042,0,0,0
9045,326940.11301940976,2010-12-03 05:23:16,3091.5207849186245,2,30,0.550297200679779,3.9951913356781006,27.14136683574911,27.33485535257969,108.78582168666408,99.1142414234734,3.237724376958795e-05,0.0940094217658042,0,0,0
9046,326970.1303880822,2010-12-03 05:23:46,3121.538153701326,2,30,0.550297200679779,3.99729585647583,27.145954400951204,27.33485535257969,108.80415486931273,99.1142414234734,3.237724376958795e-05,0.0940094217658042,0,0,0
9047,327000.1430533153,2010-12-03 05:24:16,3151.5508188492136,2,30,0.5501165986061096,3.99940037727356,27.150541319565463,27.33485535257969,108.82249504168487,99.1142414234734,3.237724376958795e-05,0.0940094217658042,0,0,0
9048,327030.1581297887,2010-12-03 05:24:46,3181.565895302542,2,30,0.5501165986061096,4.001667022705078,27.155127864341363,27.33485535257969,108.840843446395,99.1142414234734,6.47544875391759e-05,0.0940094217658042,0,0,0
9049,327060.1733071832,2010-12-03 05:25:16,3211.581072697058,2,30,0.5501165986061096,4.003609657287598,27.159714411509285,27.33485535257969,108.85920176037976,99.1142414234734,6.47544875391759e-05,0.0940094217658042,0,0,0
9050,327090.1881932678,2010-12-03 05:25:46,3241.5959587766483,2,30,0.5501165986061096,4.005876064300537,27.164300920334583,27.33485535257969,108.87756985108868,99.1142414234734,0.0,0.0940094217658042,0,0,0
9051,327120.20324176655,2010-12-03 05:26:16,3271.6110072704,2,30,0.5499359965324402,4.008142471313477,27.16888753089244,27.33485535257969,108.89594842759186,99.1142414234734,6.47544875391759e-05,0.0940094217658042,0,0,0
9052,327150.2182786514,2010-12-03 05:26:46,3301.626044170301,2,30,0.5501165986061096,4.010246753692627,27.17347407153762,27.33485535257969,108.91433681158809,99.1142414234734,3.23295607813634e-05,0.0940094217658042,0,0,0
9053,327180.23335148074,2010-12-03 05:27:16,3331.6411170497354,2,30,0.5501165986061096,4.012675285339356,27.178060623945377,27.33485535257969,108.93273552468304,99.1142414234734,3.24249267578125e-05,0.0940094217658042,0,0,0
9054,327210.2502071416,2010-12-03 05:27:46,3361.6579726554155,2,30,0.5501165986061096,4.014941692352295,27.182647439614325,27.33485535257969,108.95114563175044,99.1142414234734,6.47544875391759e-05,0.0940094217658042,0,0,0
9055,327240.263389301,2010-12-03 05:28:16,3391.6711548098533,2,30,0.550297200679779,4.017369747161865,27.187233751261942,27.33485535257969,108.96956417158084,99.1142414234734,9.70840483205393e-05,0.0940094217658042,0,0,0
9056,327270.2784545565,2010-12-03 05:28:46,3421.6862200653163,2,30,0.5501165986061096,4.019312381744385,27.191820421774533,27.33485535257969,108.9879947248312,99.1142414234734,3.23295607813634e-05,0.0940094217658042,0,0,0
9057,327300.29346931126,2010-12-03 05:29:16,3451.70123492036,2,30,0.5501165986061096,4.021740913391113,27.19640697421653,27.33485535257969,109.00643540148698,99.1142414234734,6.47544875391759e-05,0.0940094217658042,0,0,0
9058,327330.3085015496,2010-12-03 05:29:46,3481.7162670584107,2,30,0.5501165986061096,4.024168968200684,27.20099350087603,27.33485535257969,109.02488678586722,99.1142414234734,6.47544875391759e-05,0.0940094217658042,0,0,0
9059,327360.323525011,2010-12-03 05:30:16,3511.731290524883,2,30,0.5501165986061096,4.026435375213623,27.20558004627191,27.33485535257969,109.0433490311968,99.1142414234734,3.23295607813634e-05,0.0940094217658042,0,0,0
9060,327390.3385664773,2010-12-03 05:30:46,3541.7463319811222,2,30,0.5499359965324402,4.028863906860352,27.21016662611339,27.33485535257969,109.06182236989888,99.1142414234734,6.47544875391759e-05,0.0940094217658042,0,0,0
9061,327420.35366235394,2010-12-03 05:31:16,3571.761427877834,2,30,0.5499359965324402,4.031130313873291,27.214753239763755,27.33485535257969,109.08030680294902,99.1142414234734,3.24249267578125e-05,0.0940094217658042,0,0,0
9062,327450.3686270291,2010-12-03 05:31:46,3601.776392532957,2,30,0.5501165986061096,4.03372049331665,27.21933986052509,27.33485535257969,109.09880246651504,99.1142414234734,3.24249267578125e-05,0.0940094217658042,0,0,0
9063,327480.3836603401,2010-12-03 05:32:16,3631.791425848939,2,30,0.5501165986061096,4.036148548126221,27.2239264257927,27.33485535257969,109.11730911704784,99.1142414234734,9.71794142969884e-05,0.0940094217658042,0,0,0
9064,327510.39873189625,2010-12-03 05:32:46,3661.8064974050817,2,30,0.5499359965324402,4.038576602935791,27.22851302187321,27.33485535257969,109.13582728863716,99.1142414234734,3.23295607813634e-05,0.0940094217658042,0,0,0
9065,327540.41374582896,2010-12-03 05:33:16,3691.821511332817,2,30,0.5501165986061096,4.04116678237915,27.233099615091326,27.33485535257969,109.15435673383402,99.1142414234734,6.47544875391759e-05,0.0940094217658042,0,0,0
9066,327570.42889455217,2010-12-03 05:33:46,3721.8366600559857,2,30,0.5501165986061096,4.043595314025879,27.237686292262524,27.33485535257969,109.1728979711296,99.1142414234734,3.24249267578125e-05,0.0940094217658042,0,0,0
9067,327600.44391915645,2010-12-03 05:34:16,3751.8516846602897,2,30,0.5499359965324402,4.046185493469238,27.242272869260592,27.33485535257969,109.19145037348127,99.1142414234734,6.47544875391759e-05,0.0940094217658042,0,0,0
9068,327630.4588427594,2010-12-03 05:34:46,3781.8666082632553,2,30,0.5501165986061096,4.0489373207092285,27.246859434250013,27.33485535257969,109.21001457222188,99.1142414234734,9.70840483205393e-05,0.0940094217658042,0,0,0
9069,327660.4743238848,2010-12-03 05:35:16,3811.882089413657,2,30,0.5501165986061096,4.051527500152588,27.251446132536906,27.33485535257969,109.2285912016644,99.1142414234734,6.47544875391759e-05,0.0940094217658042,0,0,0
9070,327690.48905633204,2010-12-03 05:35:46,3841.8968219010394,2,30,0.5501165986061096,4.053956031799316,27.25603268067359,27.33485535257969,109.2471791354414,99.1142414234734,9.71794142969884e-05,0.0940094217658042,0,0,0
9071,327720.503931309,2010-12-03 05:36:16,3871.9116968128383,2,30,0.5501165986061096,4.056707859039307,27.260619312042383,27.33485535257969,109.26577950561116,99.1142414234734,6.47544875391759e-05,0.0940094217658042,0,0,0
9072,327750.5189917475,2010-12-03 05:36:46,3901.926757371614,2,30,0.5501165986061096,4.059298038482666,27.26520598304699,27.33485535257969,109.28439229173048,99.1142414234734,3.23295607813634e-05,0.0940094217658042,0,0,0
9073,327780.5340383465,2010-12-03 05:37:16,3931.9418039556126,2,30,0.5501165986061096,4.061888217926025,27.269792667515077,27.33485535257969,109.30301725974869,99.1142414234734,6.47544875391759e-05,0.0940094217658042,0,0,0
9074,327810.55085315567,2010-12-03 05:37:46,3961.958618764773,2,30,0.5501165986061096,4.064802169799805,27.274379525323432,27.33485535257969,109.3216552819654,99.1142414234734,9.70840483205393e-05,0.0940094217658042,0,0,0
9075,327840.5640820915,2010-12-03 05:38:16,3991.971847615412,2,30,0.5499359965324402,4.067392349243164,27.27896579352453,27.33485535257969,109.34030345285052,99.1142414234734,3.23295607813634e-05,0.0940094217658042,0,0,0
9076,327870.57947129814,2010-12-03 05:38:46,4021.987236887177,2,30,0.5499359965324402,4.0701446533203125,27.283552444007583,27.33485535257969,109.35896581663894,99.1142414234734,6.47544875391759e-05,0.0940094217658042,0,0,0
9077,327900.5941552798,2010-12-03 05:39:16,4052.0019207886544,2,30,0.5501165986061096,4.073058605194092,27.288139034317663,27.33485535257969,109.37764063263,99.1142414234734,6.47544875391759e-05,0.0940094217658042,0,0,0
9078,327930.60929469485,2010-12-03 05:39:46,4082.0170602938847,2,30,0.5501165986061096,4.075810432434082,27.292725668101443,27.33485535257969,109.39632850496994,99.1142414234734,6.47544875391759e-05,0.0940094217658042,0,0,0
9079,327960.62432517373,2010-12-03 05:40:16,4112.032090742733,2,30,0.5499359965324402,4.078562736511231,27.297312240902126,27.33485535257969,109.41502910683936,99.1142414234734,6.47544875391759e-05,0.0940094217658042,0,0,0
9080,327990.6392103561,2010-12-03 05:40:46,4142.046975864941,2,30,0.5501165986061096,4.08147668838501,27.301898821375776,27.33485535257969,109.43374283518295,99.1142414234734,6.47544875391759e-05,0.0940094217658042,0,0,0
9081,328020.6542780276,2010-12-03 05:41:16,4172.062043531403,2,30,0.5501165986061096,4.084390640258789,27.306485426141805,27.33485535257969,109.45246972850258,99.1142414234734,6.47544875391759e-05,0.0940094217658042,0,0,0
9082,328050.6695777314,2010-12-03 05:41:46,4202.077343330519,2,30,0.5501165986061096,4.087304592132568,27.31107208723177,27.33485535257969,109.4712101294929,99.1142414234734,6.47544875391759e-05,0.0940094217658042,0,0,0
9083,328080.6843105597,2010-12-03 05:42:16,4232.092076063512,2,30,0.550297200679779,4.090218544006348,27.315658646442227,27.33485535257969,109.48996353668144,99.1142414234734,9.71794142969884e-05,0.0940094217658042,0,0,0
9084,328110.6993645872,2010-12-03 05:42:46,4262.10713010106,2,30,0.5499359965324402,4.093132495880127,27.32024529329936,27.33485535257969,109.5087308120326,99.1142414234734,6.47544875391759e-05,0.0940094217658042,0,0,0
9085,328140.71437172306,2010-12-03 05:43:16,4292.122137226868,2,30,0.5501165986061096,4.096208095550537,27.324831911176027,27.33485535257969,109.52751172368713,99.1142414234734,6.47544875391759e-05,0.0940094217658042,0,0,0
9086,328170.7293978612,2010-12-03 05:43:46,4322.137163364989,2,30,0.550297200679779,4.0992841720581055,27.32941853633375,27.33485535257969,109.54630649061068,99.1142414234734,9.71794142969884e-05,0.0940094217658042,0,0,0
9087,328200.74443520216,2010-12-03 05:44:16,4352.152200705988,2,30,0.5501165986061096,4.102359771728516,27.334005227762745,27.33485535257969,109.56511547292612,99.1142414234734,9.70840483205393e-05,0.0940094217658042,0,0,0
9088,328230.7594535258,2010-12-03 05:44:46,4382.167219034674,2,30,0.550297200679779,4.105435848236084,27.33859183736159,27.33485535257969,109.58393811388297,99.1142414234734,9.71794142969884e-05,0.0940094217658042,0,0,0
9089,328260.7745088215,2010-12-03 05:45:16,4412.18227432534,2,30,0.5501165986061096,4.108511447906494,27.34317844682925,27.33485535257969,109.60277490000108,99.1142414234734,9.70840483205393e-05,0.0940094217658042,0,0,0
9090,328290.78950997244,2010-12-03 05:45:46,4442.197275476282,2,30,0.5499359965324402,4.111425399780273,27.347765056596224,27.33485535257969,109.62162591226242,99.1142414234734,6.47544875391759e-05,0.0940094217658042,0,0,0
9091,328320.80453896266,2010-12-03 05:46:16,4472.212304466499,2,30,0.5501165986061096,4.114663124084473,27.35235167798509,27.33485535257969,109.64049126028836,99.1142414234734,6.47544875391759e-05,0.0940094217658042,0,0,0
9092,328350.8195680581,2010-12-03 05:46:46,4502.227333561979,2,30,0.5501165986061096,4.117738723754883,27.35693827298021,27.33485535257969,109.65937085288556,99.1142414234734,6.47544875391759e-05,0.0940094217658042,0,0,0
9093,328380.83461342414,2010-12-03 05:47:16,4532.242378927948,2,30,0.5501165986061096,4.120976448059082,27.36152488570623,27.33485535257969,109.6782650836341,99.1142414234734,9.70840483205393e-05,0.0940094217658042,0,0,0
9094,328410.85143009794,2010-12-03 05:47:46,4562.259195676935,2,30,0.5501165986061096,4.124214172363281,27.366111804674336,27.33485535257969,109.69717531028442,99.1142414234734,6.47544875391759e-05,0.0940094217658042,0,0,0
9095,328440.8646655099,2010-12-03 05:48:16,4592.272431078877,2,30,0.5501165986061096,4.1274518966674805,27.37069816672693,27.33485535257969,109.71609810117948,99.1142414234734,9.70840483205393e-05,0.0940094217658042,0,0,0
9096,328470.8797069962,2010-12-03 05:48:46,4622.2874725050415,2,30,0.550297200679779,4.1310133934021,27.375284780106597,27.33485535257969,109.73503689923196,99.1142414234734,0.0001295089750783,0.0940094217658042,0,0,0
9097,328500.8947276005,2010-12-03 05:49:16,4652.302493104378,2,30,0.5501165986061096,4.134089469909668,27.37987136166775,27.33485535257969,109.75399061369488,99.1142414234734,9.71794142969884e-05,0.0940094217658042,0,0,0
9098,328530.90973557846,2010-12-03 05:49:46,4682.317501092333,2,30,0.5499359965324402,4.137488842010498,27.384457976145583,27.33485535257969,109.7729596528792,99.1142414234734,6.47544875391759e-05,0.0940094217658042,0,0,0
9099,328560.9247705987,2010-12-03 05:50:16,4712.332536102533,2,30,0.5501165986061096,4.140726566314697,27.389044611232485,27.33485535257969,109.79194402042538,99.1142414234734,9.70840483205393e-05,0.0940094217658042,0,0,0
9100,328590.93979737343,2010-12-03 05:50:46,4742.347562882249,2,30,0.5501165986061096,4.1441264152526855,27.393631230072963,27.33485535257969,109.81094362789004,99.1142414234734,0.0001295089750783,0.0940094217658042,0,0,0
9101,328620.9571599156,2010-12-03 05:51:16,4772.364925514646,2,30,0.5501165986061096,4.147364139556885,27.39821817904414,27.33485535257969,109.82996050494312,99.1142414234734,6.47544875391759e-05,0.0940094217658042,0,0,0
9102,328650.9698643663,2010-12-03 05:51:46,4802.377629875113,2,30,0.5501165986061096,4.151087284088135,27.40280443077458,27.33485535257969,109.84899018182443,99.1142414234734,0.0001295089750783,0.0940094217658042,0,0,0
9103,328680.9849109001,2010-12-03 05:52:16,4832.392676403974,2,30,0.5499359965324402,4.154325008392334,27.407391148525253,27.33485535257969,109.8680374961223,99.1142414234734,9.70840483205393e-05,0.0940094217658042,0,0,0
9104,328710.9999116802,2010-12-03 05:52:46,4862.407677183992,2,30,0.5501165986061096,4.158048629760742,27.41197775278041,27.33485535257969,109.88710025859965,99.1142414234734,0.0001295089750783,0.0940094217658042,0,0,0
9105,328741.01496041456,2010-12-03 05:53:16,4892.422725918344,2,30,0.5499359965324402,4.161448001861572,27.41656437117455,27.33485535257969,109.9061792097385,99.1142414234734,9.70840483205393e-05,0.0940094217658042,0,0,0
9106,328771.0299620416,2010-12-03 05:53:46,4922.437727545469,2,30,0.5501165986061096,4.1648478507995605,27.42115099230328,27.33485535257969,109.925274266189,99.1142414234734,3.24249267578125e-05,0.0940094217658042,0,0,0
9107,328801.04500264075,2010-12-03 05:54:16,4952.452768159613,2,30,0.5501165986061096,4.16840934753418,27.42573756672408,27.33485535257969,109.94438527161464,99.1142414234734,6.47544875391759e-05,0.0940094217658042,0,0,0
9108,328831.0600159319,2010-12-03 05:54:46,4982.467781435727,2,30,0.5501165986061096,4.171970844268799,27.43032413676726,27.33485535257969,109.9635125043224,99.1142414234734,6.47544875391759e-05,0.0940094217658042,0,0,0
9109,328861.0750744105,2010-12-03 05:55:17,5012.482839914325,2,30,0.5499359965324402,4.175532341003418,27.43491072907834,27.33485535257969,109.98265619048172,99.1142414234734,9.71794142969884e-05,0.0940094217658042,0,0,0
9110,328891.0907100704,2010-12-03 05:55:47,5042.498475373719,2,30,0.5499359965324402,4.179093837738037,27.43949744629545,27.33485535257969,110.00181687612984,99.1142414234734,9.71794142969884e-05,0.0940094217658042,0,0,0
9111,328921.09178311675,2010-12-03 05:56:17,5072.499548720855,2,30,0.5501165986061096,4.182979106903076,27.444081984201667,27.33485535257969,110.02098507004445,99.1142414234734,0.0001295089750783,0.0940094217658042,0,0,0
9112,328951.1045805789,2010-12-03 05:56:47,5102.512346172976,2,30,0.550297200679779,4.186702251434326,27.448668330802803,27.33485535257969,110.04017748684804,99.1142414234734,0.0001618385285837,0.0940094217658042,0,0,0
9113,328981.119575334,2010-12-03 05:57:17,5132.52734084279,2,30,0.5501165986061096,4.1901021003723145,27.453254892624887,27.33485535257969,110.05938766241788,99.1142414234734,9.71794142969884e-05,0.0940094217658042,0,0,0
9114,329011.1345794874,2010-12-03 05:57:47,5162.54234501124,2,30,0.5499359965324402,4.1938252449035645,27.45784150763712,27.33485535257969,110.07861500780552,99.1142414234734,6.47544875391759e-05,0.0940094217658042,0,0,0
9115,329041.149610648,2010-12-03 05:58:17,5192.557376176871,2,30,0.5501165986061096,4.197548389434815,27.46242808233936,27.33485535257969,110.09785908470676,99.1142414234734,9.70840483205393e-05,0.0940094217658042,0,0,0
9116,329059.30550099275,2010-12-03 05:58:35,5210.713266516678,2,30,0.550297200679779,4.200138568878174,27.465202517477376,27.33485535257969,110.10950815548026,99.1142414234734,0.0001618385285837,0.0940094217658042,0,0,0
9117,329089.3106702362,2010-12-03 05:59:05,30.0150152359911,3,30,0.0,4.109806537628174,27.465202517477376,27.33485535257969,110.10950815548026,99.1142414234734,-0.0003885269106831,0.0940094217658042,0,0,0
9118,329119.3258286836,2010-12-03 05:59:35,60.03017368335821,3,30,0.0,4.098312854766846,27.465202517477376,27.33485535257969,110.10950815548026,99.1142414234734,-0.0002265930233988,0.0940094217658042,0,0,0
9119,329149.34103999246,2010-12-03 06:00:05,90.04538508750622,3,30,0.0,4.091675281524658,27.465202517477376,27.33485535257969,110.10950815548026,99.1142414234734,-0.0001295089750783,0.0940094217658042,0,0,0
9120,329179.308861654,2010-12-03 06:00:35,120.01320665887806,3,30,0.0,4.087142467498779,27.465202517477376,27.33485535257969,110.10950815548026,99.1142414234734,-0.0001295089750783,0.0940094217658042,0,0,0
9121,329179.317080007,2010-12-03 06:00:35,2.827034968e-06,4,30,0.996402144432068,4.199653148651123,27.46520251825984,27.33485535257969,110.10950815876632,99.1142414234734,0.0,0.0940094217658042,0,0,0
9122,329180.17654780456,2010-12-03 06:00:36,0.859470639630157,4,30,0.946192741394043,4.199653148651123,27.46543293098878,27.33485535257969,110.11047581908645,99.1142414234734,0.0,0.0940094217658042,0,0,0
9123,329182.27031978057,2010-12-03 06:00:38,2.953242735962183,4,30,0.8959833979606628,4.199653148651123,27.46596765195626,27.33485535257969,110.11272147126076,99.1142414234734,0.0,0.0940094217658042,0,0,0
9124,329185.4264455632,2010-12-03 06:00:41,6.109368423345787,4,30,0.8459545969963074,4.199814796447754,27.46673022318063,27.33485535257969,110.1159240260412,99.1142414234734,3.23295607813634e-05,0.0940094217658042,0,0,0
9125,329189.78560484847,2010-12-03 06:00:45,10.468527708567088,4,30,0.7957452535629272,4.199653148651123,27.46772306533775,27.33485535257969,110.12009367118556,99.1142414234734,0.0,0.0940094217658042,0,0,0
9126,329195.5512608767,2010-12-03 06:00:51,16.234183716787545,4,30,0.7457164525985718,4.199814796447754,27.46895587073951,27.33485535257969,110.12527107893632,99.1142414234734,3.23295607813634e-05,0.0940094217658042,0,0,0
9127,329203.03534343827,2010-12-03 06:00:59,23.71826627338029,4,30,0.6955071091651917,4.199653148651123,27.47045165505779,27.33485535257969,110.13155293635197,99.1142414234734,-3.23295607813634e-05,0.0940094217658042,0,0,0
9128,329213.08398693614,2010-12-03 06:01:09,33.76690988151284,4,30,0.6454783082008362,4.199814796447754,27.472319485675733,27.33485535257969,110.13939726470252,99.1142414234734,6.47544875391759e-05,0.0940094217658042,0,0,0
9129,329226.97225750325,2010-12-03 06:01:23,47.65518036344288,4,30,0.5952689051628113,4.199653148651123,27.47470764771542,27.33485535257969,110.14942685605568,99.1142414234734,0.0,0.0940094217658042,0,0,0
9130,329248.5656762303,2010-12-03 06:01:44,69.2485990653665,4,30,0.5452401638031006,4.199814796447754,27.478116941064272,27.33485535257969,110.16374485460672,99.1142414234734,0.0,0.0940094217658042,0,0,0
9131,329286.58053411706,2010-12-03 06:02:22,107.26345694709526,4,30,0.4952113926410675,4.199653148651123,27.48358548073951,27.33485535257969,110.18671138772564,99.1142414234734,0.0,0.0940094217658042,0,0,0
9132,329357.31357045745,2010-12-03 06:03:33,177.99649328752704,4,30,0.4451826214790344,4.199491024017334,27.49278101652202,27.33485535257969,110.22533049899909,99.1142414234734,-6.47544875391759e-05,0.0940094217658042,0,0,0
9133,329464.0927849809,2010-12-03 06:05:20,284.77570784105063,4,30,0.3951538503170013,4.199814796447754,27.505216252250296,27.33485535257969,110.27755559117868,99.1142414234734,0.0,0.0940094217658042,0,0,0
9134,329597.91811298253,2010-12-03 06:07:34,418.6010358175922,4,30,0.3451250791549682,4.199814796447754,27.518953710614856,27.33485535257969,110.33524973686424,99.1142414234734,3.23295607813634e-05,0.0940094217658042,0,0,0
9135,329758.16508757044,2010-12-03 06:10:14,578.8480104105215,4,30,0.2950963079929352,4.199814796447754,27.53317699022003,27.33485535257969,110.39498420266686,99.1142414234734,0.0,0.0940094217658042,0,0,0
9136,329951.06738363486,2010-12-03 06:13:27,771.7503065852333,4,30,0.2450675517320633,4.199814796447754,27.547618882079146,27.33485535257969,110.45563681649443,99.1142414234734,0.0,0.0940094217658042,0,0,0
9137,330192.4062293702,2010-12-03 06:17:28,1013.089152200283,4,30,0.1948581635951995,4.199814796447754,27.56232036050761,27.33485535257969,110.51737968484076,99.1142414234734,3.23295607813634e-05,0.0940094217658042,0,0,0
9138,330513.8842997589,2010-12-03 06:22:50,1334.5672225939163,4,30,0.1448293924331665,4.199814796447754,27.577390087323707,27.33485535257969,110.58066910010842,99.1142414234734,3.23295607813634e-05,0.0940094217658042,0,0,0
9139,331001.01503724325,2010-12-03 06:30:57,1821.6979600783488,4,30,0.0946200191974639,4.199491024017334,27.593359171347597,27.33485535257969,110.64773557247328,99.1142414234734,-3.24249267578125e-05,0.0940094217658042,0,0,0
9140,331844.2012107458,2010-12-03 06:45:00,2664.884133666085,4,30,0.0498289167881011,4.199491024017334,27.609748661126705,27.33485535257969,110.716567689259,99.1142414234734,-6.47544875391759e-05,0.0940094217658042,0,0,0
9141,331874.2155085216,2010-12-03 06:45:30,30.015230827482235,5,30,0.0,4.191397190093994,27.609748661126705,27.33485535257969,110.716567689259,99.1142414234734,-3.23295607813634e-05,0.0940094217658042,0,0,0
9142,331904.2148412623,2010-12-03 06:46:00,60.01456362833667,5,30,0.0,4.1901021003723145,27.609748661126705,27.33485535257969,110.716567689259,99.1142414234734,0.0,0.0940094217658042,0,0,0
9143,331904.4204035893,2010-12-03 06:46:00,0.18977102289158,6,30,-1.9243103452026844e-05,4.1901021003723145,27.609748661126705,27.33485535359408,110.716567689259,99.11424142772375,0.0,0.0995024740695953,0,0,0
9144,331909.24621606804,2010-12-03 06:46:05,5.015583381337405,6,30,0.0008838032954372,4.189939975738525,27.609749551130616,27.33485535359408,110.71657141849018,99.11424142772375,-3.24249267578125e-05,0.0995024740695953,0,0,0
9145,331939.2771895953,2010-12-03 06:46:35,30.01502152163268,7,30,-1.0997490882873535,4.002476215362549,27.609749551130616,27.34402357334813,110.71657141849018,99.15114641274656,-0.0009713172912597,0.0995024740695953,0,0,0
9146,331969.2922523345,2010-12-03 06:47:05,60.030084255821215,7,30,-1.099568486213684,3.973660707473755,27.609749551130616,27.353191702028287,110.71657141849018,99.1877000797008,-0.0006475448608398,0.0995024740695953,0,0,0
9147,331999.30903042224,2010-12-03 06:47:35,90.04686244385066,7,30,-1.099568486213684,3.9534249305725098,27.609749551130616,27.36236027483133,110.71657141849018,99.22403594939983,-0.0004856586456298,0.0995024740695953,0,0,0
9148,332029.322275774,2010-12-03 06:48:05,120.06010770532826,7,30,-1.0997490882873535,3.9378838539123535,27.609749551130616,27.37152775855865,110.71657141849018,99.26020610881284,-0.0003885269106831,0.0995024740695953,0,0,0
9149,332059.3372834762,2010-12-03 06:48:35,150.07511540255945,7,30,-1.099568486213684,3.9246091842651367,27.609749551130616,27.38069573679359,110.71657141849018,99.29624722638265,-0.0003561496851034,0.0995024740695953,0,0,0
9150,332089.352520454,2010-12-03 06:49:05,180.09035247558347,7,30,-1.099568486213684,3.912953615188599,27.609749551130616,27.389863878252832,110.71657141849018,99.3321748656862,-0.0003237247583456,0.0995024740695953,0,0,0
9151,332119.3540479513,2010-12-03 06:49:35,210.09187999290543,7,30,-1.0997490882873535,3.9017834663391113,27.609749551130616,27.399027779657217,110.71657141849018,99.36798157505852,-0.0003237724304199,0.0995024740695953,0,0,0
9152,332149.36671997624,2010-12-03 06:50:05,240.10455190763167,7,30,-1.099568486213684,3.891422748565674,27.609749551130616,27.408194669212133,110.71657141849018,99.40370208351672,-0.0002590179501567,0.0995024740695953,0,0,0
9153,332179.3818642383,2010-12-03 06:50:35,270.1196961646868,7,30,-1.099568486213684,3.881547689437866,27.609749551130616,27.41736212841559,110.71657141849018,99.43933198754608,-0.0002590179501567,0.0995024740695953,0,0,0
9154,332209.39675831783,2010-12-03 06:51:05,300.1345902441845,7,30,-1.0993878841400146,3.872158288955689,27.609749551130616,27.426529580167628,110.71657141849018,99.47487262853312,-0.0002266406954731,0.0995024740695953,0,0,0
9155,332239.4118082351,2010-12-03 06:51:35,330.1496401614788,7,30,-1.099568486213684,3.862768888473511,27.609749551130616,27.435697102778825,110.71657141849018,99.5103265973412,-0.0002266406954731,0.0995024740695953,0,0,0
9156,332269.42677879496,2010-12-03 06:52:05,360.1646107263074,7,30,-1.0997490882873535,3.853703260421753,27.609749551130616,27.444864961891906,110.71657141849018,99.54569796226524,-0.0002590179501567,0.0995024740695953,0,0,0
9157,332299.44180172007,2010-12-03 06:52:35,390.17963364642014,7,30,-1.0997490882873535,3.844799518585205,27.609749551130616,27.454032972192245,110.71657141849018,99.58098851501434,-0.0002590179501567,0.0995024740695953,0,0,0
9158,332329.4568537576,2010-12-03 06:53:05,420.1946856890031,7,30,-1.0997490882873535,3.836381435394287,27.609749551130616,27.46320104787409,110.71657141849018,99.61619916044005,-0.0002266406954731,0.0995024740695953,0,0,0
9159,332359.4718610238,2010-12-03 06:53:36,450.2096929701989,7,30,-1.0993878841400146,3.8278017044067374,27.609749551130616,27.47236922105423,110.71657141849018,99.65133169666557,-0.0002590179501567,0.0995024740695953,0,0,0
9160,332389.4870113209,2010-12-03 06:54:06,480.2248432672843,7,30,-1.0997490882873535,3.8195455074310303,27.609749551130616,27.4815373499816,110.71657141849018,99.68638730074576,-0.0002266406954731,0.0995024740695953,0,0,0
9161,332419.4885611988,2010-12-03 06:54:36,510.2263932254495,7,30,-1.099568486213684,3.811451196670532,27.609749551130616,27.4907012500698,110.71657141849018,99.7213520529225,-0.0001942634553415,0.0995024740695953,0,0,0
9162,332449.5013078696,2010-12-03 06:55:06,540.2391398009662,7,30,-1.099568486213684,3.803518772125244,27.609749551130616,27.49986856316391,110.71657141849018,99.75625556917174,-0.0001942634553415,0.0995024740695953,0,0,0
9163,332479.51642033755,2010-12-03 06:55:36,570.2542523591399,7,30,-1.099568486213684,3.795586347579956,27.609749551130616,27.509036612659862,110.71657141849018,99.79108930211808,-0.0001942634553415,0.0995024740695953,0,0,0
9164,332509.53135589027,2010-12-03 06:56:06,600.2691878166052,7,30,-1.0997490882873535,3.787815809249878,27.609749551130616,27.518204686609884,110.71657141849018,99.82585219963582,-0.0002266406954731,0.0995024740695953,0,0,0
9165,332539.54636569275,2010-12-03 06:56:36,630.2841976190751,7,30,-1.099568486213684,3.7805309295654297,27.609749551130616,27.5273728150064,110.71657141849018,99.86054613539652,-0.0001942634553415,0.0995024740695953,0,0,0
9166,332569.5613859261,2010-12-03 06:57:06,660.2992178525021,7,30,-1.0997490882873535,3.773084163665772,27.609749551130616,27.53654090301248,110.71657141849018,99.8951726363552,-0.0001942634553415,0.0995024740695953,0,0,0
9167,332599.5764101194,2010-12-03 06:57:36,690.3142420708456,7,30,-1.099568486213684,3.766123056411743,27.609749551130616,27.545708913210607,110.71657141849018,99.92973265517703,-0.0001942634553415,0.0995024740695953,0,0,0
9168,332629.5914630091,2010-12-03 06:58:06,720.3292950106611,7,30,-1.099568486213684,3.759000062942505,27.609749551130616,27.55487701446601,110.71657141849018,99.9642282993236,-0.0001942634553415,0.0995024740695953,0,0,0
9169,332659.60817935324,2010-12-03 06:58:36,750.3460113748444,7,30,-1.099568486213684,3.7522010803222656,27.609749551130616,27.56404565233953,110.71657141849018,99.9986623449408,-0.0002265930233988,0.0995024740695953,0,0,0
9170,332689.6216281562,2010-12-03 06:59:06,780.3594601126649,7,30,-1.099568486213684,3.745563745498657,27.609749551130616,27.57321324880491,110.71657141849018,100.03303084118131,-0.0001942634553415,0.0995024740695953,0,0,0
9171,332719.63650467707,2010-12-03 06:59:36,810.3743366284564,7,30,-1.0993878841400146,3.7392501831054688,27.609749551130616,27.582381250031467,110.71657141849018,100.06734044553846,-0.0001295089750783,0.0995024740695953,0,0,0
9172,332749.65104198374,2010-12-03 07:00:06,840.3888736193528,7,30,-1.099568486213684,3.732612848281861,27.609749551130616,27.59154922288635,110.71657141849018,100.1015905750815,-0.0001942634553415,0.0995024740695953,0,0,0
9173,332779.6665850382,2010-12-03 07:00:36,870.4044169645233,7,30,-1.099568486213684,3.726461172103882,27.609749551130616,27.600717437458623,110.71657141849018,100.13578334700443,-0.0001618862152099,0.0995024740695953,0,0,0
9174,332809.6816434165,2010-12-03 07:01:06,900.4194754531469,7,30,-1.0997490882873535,3.7199857234954834,27.609749551130616,27.60988554383106,110.71657141849018,100.16991859459762,-0.0001942634553415,0.0995024740695953,0,0,0
9175,332839.69661087863,2010-12-03 07:01:36,930.4344429052296,7,30,-1.0997490882873535,3.713995933532715,27.609749551130616,27.6190536450831,110.71657141849018,100.20399708887528,-0.0001942634553415,0.0995024740695953,0,0,0
9176,332869.7116309918,2010-12-03 07:02:06,960.4494629130952,7,30,-1.0997490882873535,3.707844257354736,27.609749551130616,27.628221675117484,110.71657141849018,100.23801945640338,-0.0001942634553415,0.0995024740695953,0,0,0
9177,332899.726773309,2010-12-03 07:02:36,990.4646052403482,7,30,-1.099568486213684,3.7020163536071777,27.609749551130616,27.63738980681064,110.71657141849018,100.27198727469192,-0.0001618862152099,0.0995024740695953,0,0,0
9178,332929.7416448324,2010-12-03 07:03:06,1020.4794767687284,7,30,-1.0993878841400146,3.696188449859619,27.609749551130616,27.64655788031268,110.71657141849018,100.30590059984948,-0.0001295089750783,0.0995024740695953,0,0,0
9179,332959.7569048124,2010-12-03 07:03:36,1050.4947368339674,7,30,-1.0997490882873535,3.6901986598968506,27.609749551130616,27.65572612113813,110.71657141849018,100.33976134827242,-0.0001942634553415,0.0995024740695953,0,0,0
9180,332989.7717024669,2010-12-03 07:04:06,1080.5095343882665,7,30,-1.0997490882873535,3.684694528579712,27.609749551130616,27.66489411924976,110.71657141849018,100.37356858010476,-9.713172767078504e-05,0.0995024740695953,0,0,0
9181,333019.7868553304,2010-12-03 07:04:36,1110.5246872617631,7,30,-1.099568486213684,3.6790285110473633,27.609749551130616,27.674062197719568,110.71657141849018,100.4073241668498,-0.0001618862152099,0.0995024740695953,0,0,0
9182,333049.801732578,2010-12-03 07:05:06,1140.5395645043627,7,30,-1.099568486213684,3.6735243797302246,27.609749551130616,27.68323025078584,110.71657141849018,100.44102859724684,-0.0001295089750783,0.0995024740695953,0,0,0
9183,333079.8167585307,2010-12-03 07:05:36,1170.5545904520093,7,30,-1.099568486213684,3.668182373046875,27.609749551130616,27.69239834491808,110.71657141849018,100.47468255606157,-9.713172767078504e-05,0.0995024740695953,0,0,0
9184,333109.8321095673,2010-12-03 07:06:06,1200.569941578852,7,30,-1.099568486213684,3.662678241729736,27.609749551130616,27.701566528185225,110.71657141849018,100.50828693094284,-9.713172767078504e-05,0.0995024740695953,0,0,0
9185,333139.84679705766,2010-12-03 07:06:36,1230.5846289890612,7,30,-1.099568486213684,3.657335996627808,27.609749551130616,27.71073451827508,110.71657141849018,100.54184172165554,-0.0001295089750783,0.0995024740695953,0,0,0
9186,333169.8618325892,2010-12-03 07:07:06,1260.599664525569,7,30,-1.099568486213684,3.652155637741089,27.609749551130616,27.71990255851557,110.71657141849018,100.57534874933472,-0.0001295089750783,0.0995024740695953,0,0,0
9187,333199.8768778749,2010-12-03 07:07:36,1290.6147098915378,7,30,-1.0997490882873535,3.64697527885437,27.609749551130616,27.729070620729185,110.71657141849018,100.60880838956054,-0.0001618862152099,0.0995024740695953,0,0,0
9188,333229.8921432685,2010-12-03 07:08:06,1320.6299753000735,7,30,-1.099568486213684,3.641956806182861,27.609749551130616,27.738238669774557,110.71657141849018,100.6422206895883,-0.0001295089750783,0.0995024740695953,0,0,0
9189,333259.9087019904,2010-12-03 07:08:36,1350.6465339668327,7,30,-1.099568486213684,3.636776447296143,27.609749551130616,27.747407107601195,110.71657141849018,100.67558830657944,-0.0001618862152099,0.0995024740695953,0,0,0
9190,333289.92190474604,2010-12-03 07:09:06,1380.659736667399,7,30,-1.099568486213684,3.6320817470550537,27.609749551130616,27.756574593660076,110.71657141849018,100.70890694473596,-6.47544875391759e-05,0.0995024740695953,0,0,0
9191,333319.9370767772,2010-12-03 07:09:36,1410.674908728644,7,30,-1.099568486213684,3.627063274383545,27.609749551130616,27.76574275519339,110.71657141849018,100.74218311807276,-0.0001618862152099,0.0995024740695953,0,0,0
9192,333349.951955283,2010-12-03 07:10:06,1440.6897872193497,7,30,-1.0997490882873535,3.622368574142456,27.609749551130616,27.774910765781712,110.71657141849018,100.77541465652332,-0.0001618862152099,0.0995024740695953,0,0,0
9193,333379.9671394293,2010-12-03 07:10:36,1470.7049714609047,7,30,-1.099568486213684,3.617673873901367,27.609749551130616,27.78407892396435,110.71657141849018,100.80860351901008,-0.0001618862152099,0.0995024740695953,0,0,0
9194,333409.98212056543,2010-12-03 07:11:06,1500.7199525018025,7,30,-1.099568486213684,3.613141059875488,27.609749551130616,27.793247041173338,110.71657141849018,100.8417497949732,-0.0001295089750783,0.0995024740695953,0,0,0
9195,333439.9970139482,2010-12-03 07:11:36,1530.734845869529,7,30,-1.099568486213684,3.60860824584961,27.609749551130616,27.80241503583549,110.71657141849018,100.87485425997596,-9.713172767078504e-05,0.0995024740695953,0,0,0
9196,333470.0120512992,2010-12-03 07:12:06,1560.7498832205526,7,30,-1.099568486213684,3.604237318038941,27.609749551130616,27.8115831002044,110.71657141849018,100.90791840615414,-9.713172767078504e-05,0.0995024740695953,0,0,0
9197,333500.0273200361,2010-12-03 07:12:36,1590.7651520826826,7,30,-1.099568486213684,3.600028276443481,27.609749551130616,27.82075120045945,110.71657141849018,100.94094301296944,-9.713172767078504e-05,0.0995024740695953,0,0,0
9198,333530.0420885681,2010-12-03 07:13:06,1620.7799205094989,7,30,-1.099929690361023,3.5956573486328125,27.609749551130616,27.82991922074156,110.71657141849018,100.9739283638703,-0.0001295089750783,0.0995024740695953,0,0,0
9199,333560.05721071013,2010-12-03 07:13:36,1650.7950426615462,7,30,-1.099568486213684,3.5917723178863525,27.609749551130616,27.83908732081122,110.71657141849018,101.00687609914826,-9.70840483205393e-05,0.0995024740695953,0,0,0
9200,333590.0722451539,2010-12-03 07:14:06,1680.8100771404224,7,30,-1.099568486213684,3.5875632762908936,27.609749551130616,27.848255449210725,110.71657141849018,101.0397865089198,-0.0001295089750783,0.0995024740695953,0,0,0
9201,333620.0871598798,2010-12-03 07:14:36,1710.8249918312106,7,30,-1.099568486213684,3.5838398933410645,27.609749551130616,27.85742352866973,110.71657141849018,101.07266054778484,-6.47544875391759e-05,0.0995024740695953,0,0,0
9202,333650.1021662036,2010-12-03 07:15:06,1740.8399981249495,7,30,-1.0997490882873535,3.580116510391236,27.609749551130616,27.86659160365183,110.71657141849018,101.10549976276172,-9.713172767078504e-05,0.0995024740695953,0,0,0
9203,333680.1172144217,2010-12-03 07:15:36,1770.855046458302,7,30,-1.0997490882873535,3.5763931274414062,27.609749551130616,27.87575968390364,110.71657141849018,101.13830506416248,-9.713172767078504e-05,0.0995024740695953,0,0,0
9204,333710.1322000189,2010-12-03 07:16:06,1800.8700319703262,7,30,-1.099568486213684,3.572831630706787,27.609749551130616,27.88492773275084,110.71657141849018,101.17107658698716,-9.713172767078504e-05,0.0995024740695953,0,0,0
9205,333740.1472246182,2010-12-03 07:16:36,1830.8850565646053,7,30,-1.099568486213684,3.569108247756958,27.609749551130616,27.89409570159849,110.71657141849018,101.20381487963292,-9.713172767078504e-05,0.0995024740695953,0,0,0
9206,333770.1622310623,2010-12-03 07:17:06,1860.9000630137305,7,30,-1.099568486213684,3.565708637237549,27.609749551130616,27.90326370994661,110.71657141849018,101.23652118819228,-0.0001295089750783,0.0995024740695953,0,0,0
9207,333800.177372758,2010-12-03 07:17:36,1890.915204709412,7,30,-1.099568486213684,3.56230902671814,27.609749551130616,27.91243167324457,110.71657141849018,101.26919582843988,-9.713172767078504e-05,0.0995024740695953,0,0,0
9208,333830.1922773186,2010-12-03 07:18:06,1920.9301092399164,7,30,-1.0993878841400146,3.5592331886291504,27.609749551130616,27.92159963187845,110.71657141849018,101.30184012643254,-6.47544875391759e-05,0.0995024740695953,0,0,0
9209,333860.20919464284,2010-12-03 07:18:36,1950.9470266644305,7,30,-1.099568486213684,3.555833578109741,27.609749551130616,27.930768215958484,110.71657141849018,101.3344561336027,-3.237724376958795e-05,0.0995024740695953,0,0,0
9210,333890.2223150436,2010-12-03 07:19:06,1980.96014696996,7,30,-1.0997490882873535,3.552433967590332,27.609749551130616,27.93993567172306,110.71657141849018,101.36703780004476,-6.47544875391759e-05,0.0995024740695953,0,0,0
9211,333920.23745683447,2010-12-03 07:19:36,2010.9752887859404,7,30,-1.099568486213684,3.549196243286133,27.609749551130616,27.94910363910472,110.71657141849018,101.39959155664124,-6.47544875391759e-05,0.0995024740695953,0,0,0
9212,333950.2523777458,2010-12-03 07:20:06,2040.990209697208,7,30,-1.099568486213684,3.5459585189819336,27.609749551130616,27.958271682679907,110.71657141849018,101.432115792192,-6.47544875391759e-05,0.0995024740695953,0,0,0
9213,333980.26749857457,2010-12-03 07:20:36,2071.0053305059128,7,30,-1.0997490882873535,3.5427207946777344,27.609749551130616,27.967439804774497,110.71657141849018,101.46461034269772,-6.47544875391759e-05,0.0995024740695953,0,0,0
9214,334010.2824068644,2010-12-03 07:21:06,2101.02023879076,7,30,-1.099568486213684,3.539483070373535,27.609749551130616,27.9766077963814,110.71657141849018,101.49707491712958,-9.713172767078504e-05,0.0995024740695953,0,0,0
9215,334040.2974167671,2010-12-03 07:21:36,2131.0352487035043,7,30,-1.099568486213684,3.536407232284546,27.609749551130616,27.98577588224949,110.71657141849018,101.5295101530419,-3.237724376958795e-05,0.0995024740695953,0,0,0
9216,334070.31461589766,2010-12-03 07:22:06,2161.0524479192454,7,30,-1.099568486213684,3.5330076217651367,27.609749551130616,27.994944654091743,110.71657141849018,101.56191759710303,-6.47544875391759e-05,0.0995024740695953,0,0,0
9217,334100.3274740608,2010-12-03 07:22:36,2191.065306012269,7,30,-1.099568486213684,3.5296080112457275,27.609749551130616,28.004112020507627,110.71657141849018,101.59429025568282,-0.0001295089750783,0.0995024740695953,0,0,0
9218,334130.34248331195,2010-12-03 07:23:06,2221.0803152383046,7,30,-1.099568486213684,3.5263702869415283,27.609749551130616,28.013280122474036,110.71657141849018,101.62663523606358,-9.713172767078504e-05,0.0995024740695953,0,0,0
9219,334160.3575301015,2010-12-03 07:23:36,2251.095362022803,7,30,-1.099568486213684,3.522970676422119,27.609749551130616,28.022448288715736,110.71657141849018,101.65894911669687,-6.47544875391759e-05,0.0995024740695953,0,0,0
9220,334190.3725309817,2010-12-03 07:24:06,2281.110362908083,7,30,-1.099568486213684,3.5194091796875,27.609749551130616,28.03161634478717,110.71657141849018,101.69123106464372,-6.47544875391759e-05,0.0995024740695953,0,0,0
9221,334220.38753610256,2010-12-03 07:24:36,2311.12536802389,7,30,-1.099568486213684,3.516009569168091,27.609749551130616,28.04078441414439,110.71657141849018,101.72348146454466,-6.47544875391759e-05,0.0995024740695953,0,0,0
9222,334250.40255322325,2010-12-03 07:25:06,2341.140385154596,7,30,-1.099568486213684,3.5122861862182617,27.609749551130616,28.049952520737104,110.71657141849018,101.75569961447005,-0.0001295089750783,0.0995024740695953,0,0,0
9223,334280.41757171234,2010-12-03 07:25:36,2371.155403633657,7,30,-1.099568486213684,3.5087249279022217,27.609749551130616,28.059120616273503,110.71657141849018,101.78788441757114,-6.47544875391759e-05,0.0995024740695953,0,0,0
9224,334310.4327255382,2010-12-03 07:26:07,2401.170557489599,7,30,-1.099568486213684,3.5048396587371826,27.609749551130616,28.06828880864497,110.71657141849018,101.82003527703048,-0.0001295089750783,0.0995024740695953,0,0,0
9225,334340.4499458715,2010-12-03 07:26:37,2431.1877779081024,7,30,-1.0993878841400146,3.501116275787353,27.609749551130616,28.07745753161377,110.71657141849018,101.85215259305642,-6.47544875391759e-05,0.0995024740695953,0,0,0
9226,334370.4627528022,2010-12-03 07:27:07,2461.2005848388103,7,30,-1.0993878841400146,3.4969072341918945,27.609749551130616,28.086624904107257,110.71657141849018,101.88422794862122,-6.47544875391759e-05,0.0995024740695953,0,0,0
9227,334400.47765965847,2010-12-03 07:27:37,2491.2154915848287,7,30,-1.099568486213684,3.492374420166016,27.609749551130616,28.095792936958777,110.71657141849018,101.91626632137653,-9.713172767078504e-05,0.0995024740695953,0,0,0
9228,334430.49268521013,2010-12-03 07:28:07,2521.2305171465146,7,30,-1.099568486213684,3.487517833709717,27.609749551130616,28.104961030878037,110.71657141849018,101.94826289087015,-0.0001295089750783,0.0995024740695953,0,0,0
9229,334460.5094158549,2010-12-03 07:28:37,2551.2472478664213,7,30,-1.099568486213684,3.482499361038208,27.609749551130616,28.114129586837223,110.71657141849018,101.98021590842684,-0.0001295089750783,0.0995024740695953,0,0,0
9230,334490.5227139779,2010-12-03 07:29:07,2581.260545929293,7,30,-1.099568486213684,3.47683334350586,27.609749551130616,28.12329703789433,110.71657141849018,102.01211597772216,-0.0001618862152099,0.0995024740695953,0,0,0
9231,334520.537853047,2010-12-03 07:29:37,2611.2756849783887,7,30,-1.0997490882873535,3.470843553543091,27.609749551130616,28.1324650986013,110.71657141849018,102.04396523387902,-0.0001618862152099,0.0995024740695953,0,0,0
9232,334550.5527798029,2010-12-03 07:30:07,2641.2906117291877,7,30,-1.0997490882873535,3.4642062187194824,27.609749551130616,28.14163311307852,110.71657141849018,102.07575589414752,-0.0001618862152099,0.0995024740695953,0,0,0
9233,334580.56778492866,2010-12-03 07:30:37,2671.3056169652946,7,30,-1.0997490882873535,3.4565975666046143,27.609749551130616,28.15080108092861,110.71657141849018,102.10748134883008,-0.0002266406954731,0.0995024740695953,0,0,0
9234,334610.5829326844,2010-12-03 07:31:07,2701.320764610781,7,30,-1.0997490882873535,3.4478557109832764,27.609749551130616,28.159969088550376,110.71657141849018,102.1391334789963,-0.0002913951757363,0.0995024740695953,0,0,0
9235,334640.5978274556,2010-12-03 07:31:37,2731.3356594672127,7,30,-1.099568486213684,3.4381425380706787,27.609749551130616,28.169136996268293,110.71657141849018,102.1707002867456,-0.0002913951757363,0.0995024740695953,0,0,0
9236,334670.6128359248,2010-12-03 07:32:07,2761.350667851153,7,30,-1.099568486213684,3.4264869689941406,27.609749551130616,28.17830503250929,110.71657141849018,102.2021688142959,-0.0003561496851034,0.0995024740695953,0,0,0
9237,334700.627974217,2010-12-03 07:32:37,2791.365806158402,7,30,-1.099568486213684,3.412240982055664,27.609749551130616,28.187473084763223,110.71657141849018,102.23351895949844,-0.0004209041653666,0.0995024740695953,0,0,0
9238,334730.64286367,2010-12-03 07:33:07,2821.3806956163994,7,30,-1.0993878841400146,3.3945953845977783,27.609749551130616,28.196641039290824,110.71657141849018,102.26472398782784,-0.0005180359003134,0.0995024740695953,0,0,0
9239,334760.65789665014,2010-12-03 07:33:37,2851.395728571484,7,30,-1.099568486213684,3.372578859329224,27.609749551130616,28.205808995700625,110.71657141849018,102.29574803931936,-0.0006151676061563,0.0995024740695953,0,0,0
9240,334790.67294227675,2010-12-03 07:34:07,2881.410774208125,7,30,-1.0997490882873535,3.3432776927948,27.609749551130616,28.21497703124053,110.71657141849018,102.32653970129827,-0.0008741855854168,0.0995024740695953,0,0,0
9241,334820.68791505205,2010-12-03 07:34:37,2911.4257469984927,7,30,-1.0997490882873535,3.304910659790039,27.609749551130616,28.22414501693441,110.71657141849018,102.35702486331787,-0.0011655807029455,0.0995024740695953,0,0,0
9242,334850.70294434804,2010-12-03 07:35:07,2941.4407762744213,7,30,-1.099568486213684,3.252621650695801,27.609749551130616,28.233313054097326,110.71657141849018,102.38709850441752,-0.0016188621520996,0.0995024740695953,0,0,0
9243,334880.7180706956,2010-12-03 07:35:37,2971.4559026469715,7,30,-1.099568486213684,3.180906295776367,27.609749551130616,28.24248108608608,110.71657141849018,102.4166094915396,-0.0022016048897057,0.0995024740695953,0,0,0
9244,334910.73312735965,2010-12-03 07:36:07,3001.470959346142,7,30,-1.099568486213684,3.075680494308472,27.609749551130616,28.251649072374693,110.71657141849018,102.44532266696297,-0.0033672333229333,0.0995024740695953,0,0,0
9245,334940.7479939257,2010-12-03 07:36:37,3031.4858258770864,7,30,-1.099568486213684,2.8987393379211426,27.609749551130616,28.260816981580568,110.71657141849018,102.47279719463984,-0.006184053607285,0.0995024740695953,0,0,0
9246,334960.91963001626,2010-12-03 07:36:57,3051.657461952628,7,30,-1.0997490882873535,2.699781894683838,27.609749551130616,28.26697835098027,110.71657141849018,102.49007705985883,-0.0087418081238865,0.0995024740695953,0,0,0
9247,335020.93318764144,2010-12-03 07:37:57,60.01442843691802,8,30,0.0,3.392490863800049,27.609749551130616,28.26697835098027,110.71657141849018,102.49007705985883,0.0012627125252038,0.0995024740695953,0,0,0
9248,335021.1211026246,2010-12-03 07:37:57,0.187422077631645,9,30,-1.9243103452026844e-05,3.392652750015259,27.609749551130616,28.266978351982104,110.71657141849018,102.49007706325771,0.0,0.0969880521297454,0,0,0
9249,335025.9492126908,2010-12-03 07:38:02,5.015532168897217,9,30,0.0008838032954372,3.400423288345337,27.609750426914847,28.266978352066012,110.7165743937676,102.4900770635424,0.0011008263099938,0.0969880521297454,0,0,0
