Data_Point,Test_Time(s),Date_Time,Step_Time(s),Step_Index,Cycle_Index,Current(A),Voltage(V),Charge_Capacity(Ah),Discharge_Capacity(Ah),Charge_Energy(Wh),Discharge_Energy(Wh),dV/dt(V/s),Internal_Resistance(Ohm),Is_FC_Data,AC_Impedance(Ohm),ACI_Phase_Angle(Deg)
8310,301215.15406577924,2010-12-02 22:14:28,30.01449239492121,1,28,0.0,3.403822898864746,24.785866145124984,25.44894530973738,99.40906616557388,92.2559886503527,0.0007446765666827,0.0925559401512146,0,0,0
8311,301245.154072482,2010-12-02 22:14:58,60.01449946867783,1,28,0.0,3.4276201725006104,24.785866145124984,25.44894530973738,99.40906616557388,92.2559886503527,0.0005504131549969,0.0925559401512146,0,0,0
8312,301275.16916881484,2010-12-02 22:15:28,90.02959579646273,1,28,0.0,3.445427417755127,24.785866145124984,25.44894530973738,99.40906616557388,92.2559886503527,0.0003885269106831,0.0925559401512146,0,0,0
8313,301305.1528518418,2010-12-02 22:15:58,120.01327875829467,1,28,0.0,3.4596734046936035,24.785866145124984,25.44894530973738,99.40906616557388,92.2559886503527,0.0003561496851034,0.0925559401512146,0,0,0
8314,301335.1667440684,2010-12-02 22:16:28,30.013242223918752,2,28,0.5501165986061096,3.618483304977417,24.79045252699026,25.44894530973738,99.4255046452769,92.2559886503527,0.0014893531333655,0.0925559401512146,0,0,0
8315,301365.1817610688,2010-12-02 22:16:58,60.02825922430047,2,28,0.5501165986061096,3.663811445236206,24.795039253831685,25.44894530973738,99.44221261563348,92.2559886503527,0.0010036944877356,0.0925559401512146,0,0,0
8316,301395.197137664,2010-12-02 22:17:28,90.04363582954507,2,28,0.550297200679779,3.696835994720459,24.799625973890787,25.44894530973738,99.45909598718926,92.2559886503527,0.0008418083307333,0.0925559401512146,0,0,0
8317,301425.2118501015,2010-12-02 22:17:58,120.05834824197136,2,28,0.550297200679779,3.721928358078003,24.80421261657524,25.44894530973738,99.47611129361202,92.2559886503527,0.0005827903514727,0.0925559401512146,0,0,0
8318,301455.2270225787,2010-12-02 22:18:28,150.07352071925135,2,28,0.5501165986061096,3.742649793624878,24.808799296783523,25.44894530973738,99.49323209881582,92.2559886503527,0.0004856586456298,0.0925559401512146,0,0,0
8319,301485.2419407783,2010-12-02 22:18:58,180.08843892378343,2,28,0.5501165986061096,3.758676290512085,24.8133858673882,25.44894530973738,99.51043704291008,92.2559886503527,0.0003561496851034,0.0925559401512146,0,0,0
8320,301515.25700951234,2010-12-02 22:19:28,210.10350765289007,2,28,0.5501165986061096,3.770170211791992,24.81797254716609,25.44894530973738,99.52770540801414,92.2559886503527,0.0002590179501567,0.0925559401512146,0,0,0
8321,301545.2720541264,2010-12-02 22:19:58,240.1185522970623,2,28,0.5501165986061096,3.7772932052612314,24.822559210268057,25.44894530973738,99.54501517420611,92.2559886503527,0.0001942634553415,0.0925559401512146,0,0,0
8322,301575.28707603406,2010-12-02 22:20:28,270.13357417959304,2,28,0.5501165986061096,3.782635450363159,24.827145852017985,25.44894530973738,99.5623527301274,92.2559886503527,0.0001618862152099,0.0925559401512146,0,0,0
8323,301605.3021190341,2010-12-02 22:20:58,300.1486171746615,2,28,0.5501165986061096,3.787168264389038,24.831732437579973,25.44894530973738,99.57971235729448,92.2559886503527,0.0001295089750783,0.0925559401512146,0,0,0
8324,301635.3171930614,2010-12-02 22:21:28,330.16369126210225,2,28,0.5501165986061096,3.791377305984497,24.83631909744173,25.44894530973738,99.59709254391277,92.2559886503527,9.713172767078504e-05,0.0925559401512146,0,0,0
8325,301665.3323421255,2010-12-02 22:21:58,360.1788402910319,2,28,0.5501165986061096,3.795424461364746,24.840905776910542,25.44894530973738,99.61449191271136,92.2559886503527,9.713172767078504e-05,0.0925559401512146,0,0,0
8326,301695.3472757534,2010-12-02 22:22:28,390.19377389388205,2,28,0.5501165986061096,3.799309730529785,24.845492384155943,25.44894530973738,99.63190928054928,92.2559886503527,9.713172767078504e-05,0.0925559401512146,0,0,0
8327,301725.3623209138,2010-12-02 22:22:58,420.208819054339,2,28,0.550297200679779,3.803356885910034,24.85007907202983,25.44894530973738,99.6493445799338,92.2559886503527,0.0001295089750783,0.0925559401512146,0,0,0
8328,301755.37738614925,2010-12-02 22:23:28,450.2238843248391,2,28,0.5501165986061096,3.8067564964294434,24.854665750011677,25.44894530973738,99.66679698201597,92.2559886503527,6.47544875391759e-05,0.0925559401512146,0,0,0
8329,301785.3926679185,2010-12-02 22:23:58,480.2391661542376,2,28,0.5501165986061096,3.810479879379273,24.859252510919617,25.44894530973738,99.6842664072311,92.2559886503527,9.713172767078504e-05,0.0925559401512146,0,0,0
8330,301815.4074431573,2010-12-02 22:24:28,510.2539413629301,2,28,0.550297200679779,3.814041376113892,24.863839767281437,25.44894530973738,99.70175410281844,92.2559886503527,6.47544875391759e-05,0.0925559401512146,0,0,0
8331,301845.4224829193,2010-12-02 22:24:58,540.2689810648036,2,28,0.550297200679779,3.817602872848511,24.868427097541183,25.44894530973738,99.71925823018972,92.2559886503527,0.0001295089750783,0.0925559401512146,0,0,0
8332,301875.43754982384,2010-12-02 22:25:28,570.2840479643575,2,28,0.5501165986061096,3.82100248336792,24.873014366021888,25.44894530973738,99.73677789195328,92.2559886503527,9.713172767078504e-05,0.0925559401512146,0,0,0
8333,301905.4525908189,2010-12-02 22:25:58,600.2990889594491,2,28,0.550297200679779,3.824240207672119,24.877601643866587,25.44894530973738,99.75431328560688,92.2559886503527,9.713172767078504e-05,0.0925559401512146,0,0,0
8334,301935.4538428507,2010-12-02 22:26:28,630.3003410714355,2,28,0.550297200679779,3.8278017044067374,24.88218629938008,25.44894530973738,99.7718543843738,92.2559886503527,9.713172767078504e-05,0.0925559401512146,0,0,0
8335,301965.46705769154,2010-12-02 22:26:58,660.3135558370252,2,28,0.5501165986061096,3.831201314926148,24.886772643418947,25.44894530973738,99.78941783313154,92.2559886503527,6.47544875391759e-05,0.0925559401512146,0,0,0
8336,301995.4820397299,2010-12-02 22:27:28,690.3285378954553,2,28,0.5501165986061096,3.834762573242188,24.891359210535864,25.44894530973738,99.80699816966654,92.2559886503527,9.713172767078504e-05,0.0925559401512146,0,0,0
8337,302025.4971661575,2010-12-02 22:27:58,720.34366433818,2,28,0.5499359965324402,3.838324069976807,24.89594575658496,25.44894530973738,99.82459469747346,92.2559886503527,9.713172767078504e-05,0.0925559401512146,0,0,0
8338,302055.5122040148,2010-12-02 22:28:28,750.358702160376,2,28,0.5501165986061096,3.842047452926636,24.900532309014803,25.44894530973738,99.84220771229369,92.2559886503527,0.0001295089750783,0.0925559401512146,0,0,0
8339,302085.5272472555,2010-12-02 22:28:58,780.3737455113301,2,28,0.5501165986061096,3.845608949661255,24.905118853586007,25.44894530973738,99.8598372283012,92.2559886503527,9.713172767078504e-05,0.0925559401512146,0,0,0
8340,302115.5423859838,2010-12-02 22:29:28,810.3888841494025,2,28,0.5501165986061096,3.849170446395874,24.909705430977827,25.44894530973738,99.87748348331232,92.2559886503527,9.713172767078504e-05,0.0925559401512146,0,0,0
8341,302145.55733757647,2010-12-02 22:29:58,840.4038357420196,2,28,0.5501165986061096,3.852731943130493,24.9142920159091,25.44894530973738,99.89514628364692,92.2559886503527,9.713172767078504e-05,0.0925559401512146,0,0,0
8342,302175.5724902294,2010-12-02 22:30:28,870.4189883949675,2,28,0.5501165986061096,3.856293439865112,24.918878645271462,25.44894530973738,99.91282558295931,92.2559886503527,0.0001295089750783,0.0925559401512146,0,0,0
8343,302205.5879400769,2010-12-02 22:30:58,900.4344382374602,2,28,0.5501165986061096,3.859854936599731,24.92346525110522,25.44894530973738,99.93052100844906,92.2559886503527,9.713172767078504e-05,0.0925559401512146,0,0,0
8344,302235.6024658549,2010-12-02 22:31:28,930.4489640154536,2,28,0.5501165986061096,3.863416433334351,24.928051705800165,25.44894530973738,99.9482318327196,92.2559886503527,0.0001295089750783,0.0925559401512146,0,0,0
8345,302265.6176612793,2010-12-02 22:31:58,960.4641594298118,2,28,0.5501165986061096,3.86665415763855,24.93263828203115,25.44894530973738,99.96595861383383,92.2559886503527,0.0001295089750783,0.0925559401512146,0,0,0
8346,302295.63255212567,2010-12-02 22:32:28,990.4790502913016,2,28,0.550297200679779,3.869891881942749,24.937224795339848,25.44894530973738,99.98370035079368,92.2559886503527,6.47544875391759e-05,0.0925559401512146,0,0,0
8347,302325.6477767929,2010-12-02 22:32:58,1020.4942749935416,2,28,0.5501165986061096,3.8729677200317374,24.94181138925684,25.44894530973738,100.00145712934444,92.2559886503527,6.47544875391759e-05,0.0925559401512146,0,0,0
8348,302355.6627646608,2010-12-02 22:33:28,1050.509262891503,2,28,0.5501165986061096,3.876043558120728,24.946397974324608,25.44894530973738,100.01922802148822,92.2559886503527,6.47544875391759e-05,0.0925559401512146,0,0,0
8349,302385.68046999595,2010-12-02 22:33:58,1080.5269682267026,2,28,0.5501165986061096,3.879119396209717,24.950984950443907,25.44894530973738,100.03701407210951,92.2559886503527,9.713172767078504e-05,0.0925559401512146,0,0,0
8350,302415.692754226,2010-12-02 22:34:28,1110.5392523915282,2,28,0.550297200679779,3.881871461868286,24.95557109503326,25.44894530973738,100.05480985889535,92.2559886503527,9.713172767078504e-05,0.0925559401512146,0,0,0
8351,302445.7077950356,2010-12-02 22:34:58,1140.5542931811085,2,28,0.5501165986061096,3.884299755096436,24.96015769161748,25.44894530973738,100.07261970278849,92.2559886503527,6.47544875391759e-05,0.0925559401512146,0,0,0
8352,302475.7228281561,2010-12-02 22:35:28,1170.5693263216542,2,28,0.5501165986061096,3.886728048324585,24.964744233137967,25.44894530973738,100.0904408695418,92.2559886503527,6.47544875391759e-05,0.0925559401512146,0,0,0
8353,302505.7378995568,2010-12-02 22:35:58,1200.5843976973467,2,28,0.5501165986061096,3.8891563415527344,24.96933080694245,25.44894530973738,100.10827310007672,92.2559886503527,6.47544875391759e-05,0.0925559401512146,0,0,0
8354,302535.7546868325,2010-12-02 22:36:28,1230.6011850782522,2,28,0.5501165986061096,3.891098976135254,24.973917647803667,25.44894530973738,100.126116596593,92.2559886503527,6.47544875391759e-05,0.0925559401512146,0,0,0
8355,302565.76797320123,2010-12-02 22:36:58,1260.614471341762,2,28,0.550297200679779,3.893365383148194,24.97850397840303,25.44894530973738,100.14396771877593,92.2559886503527,6.47544875391759e-05,0.0925559401512146,0,0,0
8356,302595.7830099508,2010-12-02 22:37:28,1290.6295080862762,2,28,0.5501165986061096,3.894984245300293,24.98309052345693,25.44894530973738,100.16182862274088,92.2559886503527,0.0,0.0925559401512146,0,0,0
8357,302625.79807489546,2010-12-02 22:37:59,1320.6445730610403,2,28,0.5501165986061096,3.8967649936676025,24.98767712158129,25.44894530973738,100.17969796775937,92.2559886503527,3.237724376958795e-05,0.0925559401512146,0,0,0
8358,302655.81543070084,2010-12-02 22:38:29,1350.6619289516605,2,28,0.5497553944587708,3.898545742034912,24.9922640020172,25.44894530973738,100.19757662402402,92.2559886503527,3.237724376958795e-05,0.0925559401512146,0,0,0
8359,302685.8281625246,2010-12-02 22:38:59,1380.674660665194,2,28,0.5501165986061096,3.900164604187012,24.996850165661765,25.44894530973738,100.21546032749671,92.2559886503527,0.0,0.0925559401512146,0,0,0
8360,302715.8432158404,2010-12-02 22:39:29,1410.6897139809448,2,28,0.5501165986061096,3.901945352554321,25.00143679665309,25.44894530973738,100.23335341630477,92.2559886503527,6.47544875391759e-05,0.0925559401512146,0,0,0
8361,302745.85828469985,2010-12-02 22:39:59,1440.704782875463,2,28,0.5501165986061096,3.903402328491211,25.006023382485147,25.44894530973738,100.25125371457112,92.2559886503527,0.0,0.0925559401512146,0,0,0
8362,302775.8733428426,2010-12-02 22:40:29,1470.7198410934134,2,28,0.5499359965324402,3.9048593044281006,25.01060997527027,25.44894530973738,100.26916124107808,92.2559886503527,-3.237724376958795e-05,0.0925559401512146,0,0,0
8363,302805.8883404046,2010-12-02 22:40:59,1500.7348385451487,2,28,0.5501165986061096,3.90664005279541,25.015196603420826,25.44894530973738,100.28707585085526,92.2559886503527,3.237724376958795e-05,0.0925559401512146,0,0,0
8364,302835.90338224685,2010-12-02 22:41:29,1530.749880382336,2,28,0.5501165986061096,3.9080970287323,25.019783277244183,25.44894530973738,100.30499769784792,92.2559886503527,3.237724376958795e-05,0.0925559401512146,0,0,0
8365,302865.9184438131,2010-12-02 22:41:59,1560.7649419486183,2,28,0.550297200679779,3.9097158908844,25.02436985070462,25.44894530973738,100.32292609697964,92.2559886503527,3.237724376958795e-05,0.0925559401512146,0,0,0
8366,302895.9334760514,2010-12-02 22:42:29,1590.7799741869187,2,28,0.5499359965324402,3.911172866821289,25.028956492694604,25.44894530973738,100.34086162864097,92.2559886503527,6.47544875391759e-05,0.0925559401512146,0,0,0
8367,302925.9485243246,2010-12-02 22:42:59,1620.795022490197,2,28,0.5499359965324402,3.9126298427581783,25.03354308124195,25.44894530973738,100.3588038621385,92.2559886503527,3.237724376958795e-05,0.0925559401512146,0,0,0
8368,302955.96359424165,2010-12-02 22:43:29,1650.8100924022472,2,28,0.5501165986061096,3.914086580276489,25.03812966845999,25.44894530973738,100.37675300402984,92.2559886503527,3.237724376958795e-05,0.0925559401512146,0,0,0
8369,302985.97863047995,2010-12-02 22:43:59,1680.825128615439,2,28,0.5501165986061096,3.915543556213379,25.042716304247516,25.44894530973738,100.3947092537616,92.2559886503527,0.0,0.0925559401512146,0,0,0
8370,303015.99375941383,2010-12-02 22:44:29,1710.8402575794382,2,28,0.5501165986061096,3.9171624183654794,25.047302892633635,25.44894530973738,100.41267206315818,92.2559886503527,6.47544875391759e-05,0.0925559401512146,0,0,0
8371,303046.0086906057,2010-12-02 22:44:59,1740.8551887512383,2,28,0.5501165986061096,3.918781280517578,25.05188942455258,25.44894530973738,100.43064164740404,92.2559886503527,6.47544875391759e-05,0.0925559401512146,0,0,0
8372,303076.023732909,2010-12-02 22:45:29,1770.8702310746355,2,28,0.5501165986061096,3.920076370239258,25.056476031836137,25.44894530973738,100.44861848227112,92.2559886503527,0.0,0.0925559401512146,0,0,0
8373,303106.0387956332,2010-12-02 22:45:59,1800.8852937937868,2,28,0.5501165986061096,3.921695232391357,25.06106255629164,25.44894530973738,100.4666018541598,92.2559886503527,3.237724376958795e-05,0.0925559401512146,0,0,0
8374,303136.05560998124,2010-12-02 22:46:29,1830.902108232024,2,28,0.5501165986061096,3.923314094543457,25.065649334088505,25.44894530973738,100.48459327185653,92.2559886503527,6.47544875391759e-05,0.0925559401512146,0,0,0
8375,303166.0689038286,2010-12-02 22:46:59,1860.9154019891807,2,28,0.5501165986061096,3.9246091842651367,25.07023566147796,25.44894530973738,100.50258994352092,92.2559886503527,0.0,0.0925559401512146,0,0,0
8376,303196.08395445265,2010-12-02 22:47:29,1890.9304526032088,2,28,0.5501165986061096,3.926228046417236,25.074822337177128,25.44894530973738,100.52059504730202,92.2559886503527,3.237724376958795e-05,0.0925559401512146,0,0,0
8377,303226.0991093412,2010-12-02 22:47:59,1920.9456074816949,2,28,0.550297200679779,3.927846908569336,25.07940900866117,25.44894530973738,100.5386071358507,92.2559886503527,3.237724376958795e-05,0.0925559401512146,0,0,0
8378,303256.114023225,2010-12-02 22:48:29,1950.960521365475,2,28,0.5501165986061096,3.9293038845062256,25.08399558685377,25.44894530973738,100.55662591592966,92.2559886503527,3.237724376958795e-05,0.0925559401512146,0,0,0
8379,303286.1290684456,2010-12-02 22:48:59,1980.975566611144,2,28,0.5501165986061096,3.930922746658325,25.088582109093625,25.44894530973738,100.57465158200814,92.2559886503527,3.237724376958795e-05,0.0925559401512146,0,0,0
8380,303316.1441180421,2010-12-02 22:49:29,2010.9906162076395,2,28,0.5501165986061096,3.932379722595215,25.09316873727476,25.44894530973738,100.5926847471806,92.2559886503527,6.47544875391759e-05,0.0925559401512146,0,0,0
8381,303346.1595252284,2010-12-02 22:49:59,2041.006023388972,2,28,0.5501165986061096,3.933836698532105,25.097755412043103,25.44894530973738,100.61072527996797,92.2559886503527,0.0,0.0925559401512146,0,0,0
8382,303376.17425361054,2010-12-02 22:50:29,2071.0207518463253,2,28,0.550297200679779,3.935779333114624,25.10234198275173,25.44894530973738,100.6287726003712,92.2559886503527,6.47544875391759e-05,0.0925559401512146,0,0,0
8383,303406.18925412995,2010-12-02 22:50:59,2101.03575229552,2,28,0.5501165986061096,3.9372363090515137,25.10692859841928,25.44894530973738,100.64682717292057,92.2559886503527,6.47544875391759e-05,0.0925559401512146,0,0,0
8384,303436.204292684,2010-12-02 22:51:29,2131.050790824475,2,28,0.5501165986061096,3.9386932849884033,25.111515196101035,25.44894530973738,100.66488901253555,92.2559886503527,3.237724376958795e-05,0.0925559401512146,0,0,0
8385,303466.2194869103,2010-12-02 22:51:59,2161.065985141101,2,28,0.5501165986061096,3.940474033355713,25.11610172208066,25.44894530973738,100.68295781831678,92.2559886503527,9.713172767078504e-05,0.0925559401512146,0,0,0
8386,303496.2343676466,2010-12-02 22:52:29,2191.080865817245,2,28,0.5501165986061096,3.9419310092926025,25.120688196592173,25.44894530973738,100.70103376586223,92.2559886503527,6.47544875391759e-05,0.0925559401512146,0,0,0
8387,303526.2493538404,2010-12-02 22:52:59,2221.095852000941,2,28,0.5501165986061096,3.943711757659912,25.12527465427626,25.44894530973738,100.71911698408384,92.2559886503527,6.47544875391759e-05,0.0925559401512146,0,0,0
8388,303556.264456539,2010-12-02 22:53:29,2251.1109546795296,2,28,0.5499359965324402,3.9451687335968018,25.129860272283903,25.44894530973738,100.73720409898657,92.2559886503527,3.237724376958795e-05,0.0925559401512146,0,0,0
8389,303586.279486251,2010-12-02 22:53:59,2281.125984396556,2,28,0.5499359965324402,3.9466257095336914,25.134446003363827,25.44894530973738,100.75529907126888,92.2559886503527,0.0,0.0925559401512146,0,0,0
8390,303616.2947055949,2010-12-02 22:54:29,2311.141203755499,2,28,0.5497553944587708,3.948244571685791,25.13903265126148,25.44894530973738,100.77340514833963,92.2559886503527,0.0,0.0925559401512146,0,0,0
8391,303646.3096053235,2010-12-02 22:54:59,2341.156103479042,2,28,0.5501165986061096,3.94986343383789,25.14361920823448,25.44894530973738,100.7915183906076,92.2559886503527,3.237724376958795e-05,0.0925559401512146,0,0,0
8392,303676.3246428399,2010-12-02 22:55:29,2371.1711410055022,2,28,0.5499359965324402,3.9514822959899902,25.148205784220178,25.44894530973738,100.80963923179364,92.2559886503527,3.237724376958795e-05,0.0925559401512146,0,0,0
8393,303706.3397298194,2010-12-02 22:55:59,2401.1862279699867,2,28,0.5499359965324402,3.9532630443573,25.152792409705626,25.44894530973738,100.82776778273404,92.2559886503527,0.0,0.0925559401512146,0,0,0
8394,303736.3568810909,2010-12-02 22:56:29,2431.203379376757,2,28,0.550297200679779,3.95504379272461,25.157379294134884,25.44894530973738,100.84590497375336,92.2559886503527,6.47544875391759e-05,0.0925559401512146,0,0,0
8395,303766.36982644605,2010-12-02 22:56:59,2461.216324711879,2,28,0.5499359965324402,3.956500768661499,25.161965574458343,25.44894530973738,100.86404744770742,92.2559886503527,6.47544875391759e-05,0.0925559401512146,0,0,0
8396,303796.38486309536,2010-12-02 22:57:29,2491.2313612659195,2,28,0.550297200679779,3.9582815170288086,25.166552162647967,25.44894530973738,100.8821986347378,92.2559886503527,3.237724376958795e-05,0.0925559401512146,0,0,0
8397,303826.3998940755,2010-12-02 22:57:59,2521.246392241077,2,28,0.5501165986061096,3.960062265396118,25.17113880611866,25.44894530973738,100.90035780662046,92.2559886503527,6.47544875391759e-05,0.0925559401512146,0,0,0
8398,303856.41493376234,2010-12-02 22:58:29,2551.261431927913,2,28,0.5501165986061096,3.961843013763428,25.17572537785976,25.44894530973738,100.91852448407616,92.2559886503527,6.47544875391759e-05,0.0925559401512146,0,0,0
8399,303886.43009645026,2010-12-02 22:58:59,2581.2765946158324,2,28,0.5501165986061096,3.9634618759155273,25.180311994124917,25.44894530973738,100.93669912287848,92.2559886503527,6.47544875391759e-05,0.0925559401512146,0,0,0
8400,303916.4451732995,2010-12-02 22:59:29,2611.2916715102583,2,28,0.550297200679779,3.965242624282837,25.18489866607201,25.44894530973738,100.95488184992811,92.2559886503527,6.47544875391759e-05,0.0925559401512146,0,0,0
8401,303946.46007685765,2010-12-02 22:59:59,2641.306575003181,2,28,0.5501165986061096,3.966861486434937,25.189485205447944,25.44894530973738,100.97307200387284,92.2559886503527,3.237724376958795e-05,0.0925559401512146,0,0,0
8402,303976.4751122989,2010-12-02 23:00:29,2671.3216104695143,2,28,0.5501165986061096,3.968480348587036,25.19407184510281,25.44894530973738,100.99127040095658,92.2559886503527,3.237724376958795e-05,0.0925559401512146,0,0,0
8403,304006.4901719153,2010-12-02 23:00:59,2701.336670065895,2,28,0.5501165986061096,3.9702610969543457,25.19865856088129,25.44894530973738,101.009477104012,92.2559886503527,6.47544875391759e-05,0.0925559401512146,0,0,0
8404,304036.5052016825,2010-12-02 23:01:29,2731.3516998530963,2,28,0.5501165986061096,3.972203731536865,25.203245219758767,25.44894530973738,101.02769168002264,92.2559886503527,6.47544875391759e-05,0.0925559401512146,0,0,0
8405,304066.5202675996,2010-12-02 23:01:59,2761.36676574013,2,28,0.5499359965324402,3.973822593688965,25.207831937734092,25.44894530973738,101.04591460156784,92.2559886503527,3.237724376958795e-05,0.0925559401512146,0,0,0
8406,304096.5353067701,2010-12-02 23:02:29,2791.3818049407564,2,28,0.5501165986061096,3.9756033420562735,25.21241857231545,25.44894530973738,101.06414537049898,92.2559886503527,6.47544875391759e-05,0.0925559401512146,0,0,0
8407,304126.5503569732,2010-12-02 23:02:59,2821.396855143761,2,28,0.5501165986061096,3.977545976638794,25.21700521838796,25.44894530973738,101.08238451075763,92.2559886503527,3.237724376958795e-05,0.0925559401512146,0,0,0
8408,304156.5653961889,2010-12-02 23:03:29,2851.411894444637,2,28,0.5499359965324402,3.979326725006104,25.221591785944582,25.44894530973738,101.10063129292884,92.2559886503527,3.237724376958795e-05,0.0925559401512146,0,0,0
8409,304186.5804612388,2010-12-02 23:03:59,2881.426959404364,2,28,0.5501165986061096,3.981269359588623,25.22617829038792,25.44894530973738,101.11888674666386,92.2559886503527,9.713172767078504e-05,0.0925559401512146,0,0,0
8410,304216.5955110809,2010-12-02 23:04:29,2911.442009336696,2,28,0.5499359965324402,3.982888221740722,25.23076473320837,25.44894530973738,101.13715046749746,92.2559886503527,3.237724376958795e-05,0.0925559401512146,0,0,0
8411,304246.6105544519,2010-12-02 23:04:59,2941.4570526224875,2,28,0.5499359965324402,3.984830856323242,25.23535123244078,25.44894530973738,101.15542299518351,92.2559886503527,3.237724376958795e-05,0.0925559401512146,0,0,0
8412,304276.62558915134,2010-12-02 23:05:29,2971.4720873169,2,28,0.5501165986061096,3.986935377120972,25.239937740691428,25.44894530973738,101.17370426160372,92.2559886503527,6.47544875391759e-05,0.0925559401512146,0,0,0
8413,304306.642958716,2010-12-02 23:05:59,3001.489456971772,2,28,0.550297200679779,3.988878011703491,25.24452467882042,25.44894530973738,101.19199600765516,92.2559886503527,6.47544875391759e-05,0.0925559401512146,0,0,0
8414,304336.65742332174,2010-12-02 23:06:29,3031.5039214672665,2,28,0.5501165986061096,3.990658760070801,25.24911115941656,25.44894530973738,101.2102947534728,92.2559886503527,3.237724376958795e-05,0.0925559401512146,0,0,0
8415,304366.67074162496,2010-12-02 23:06:59,3061.517239790556,2,28,0.5499359965324402,3.99260139465332,25.25369744665299,25.44894530973738,101.2286016710852,92.2559886503527,3.237724376958795e-05,0.0925559401512146,0,0,0
8416,304396.6857804547,2010-12-02 23:07:29,3091.5322786252714,2,28,0.5501165986061096,3.994705677032471,25.258283982928265,25.44894530973738,101.24691864641824,92.2559886503527,6.47544875391759e-05,0.0925559401512146,0,0,0
8417,304426.70086898305,2010-12-02 23:07:59,3121.547367153648,2,28,0.5501165986061096,3.99648642539978,25.262870497078517,25.44894530973738,101.2652447596842,92.2559886503527,0.0,0.0925559401512146,0,0,0
8418,304456.71587381815,2010-12-02 23:08:29,3151.5623719887567,2,28,0.5501165986061096,3.9985909461975098,25.267457035223785,25.44894530973738,101.28358025996582,92.2559886503527,3.237724376958795e-05,0.0925559401512146,0,0,0
8419,304486.73092987575,2010-12-02 23:08:59,3181.5774280463306,2,28,0.5499359965324402,4.000695705413818,25.272043528594185,25.44894530973738,101.3019249533169,92.2559886503527,3.24249267578125e-05,0.0925559401512146,0,0,0
8420,304516.7459718984,2010-12-02 23:09:29,3211.592470038904,2,28,0.5499359965324402,4.002962112426758,25.276630052267446,25.44894530973738,101.3202794159418,92.2559886503527,6.47544875391759e-05,0.0925559401512146,0,0,0
8421,304546.7611788064,2010-12-02 23:10:00,3241.607676946864,2,28,0.5501165986061096,4.004904747009277,25.281216616579293,25.44894530973738,101.3386436887724,92.2559886503527,3.24249267578125e-05,0.0925559401512146,0,0,0
8422,304576.7783766737,2010-12-02 23:10:30,3271.624874929536,2,28,0.5501165986061096,4.007171154022217,25.285803487580157,25.44894530973738,101.3570190350423,92.2559886503527,3.24249267578125e-05,0.0925559401512146,0,0,0
8423,304606.7912611123,2010-12-02 23:11:00,3301.637759237796,2,28,0.5501165986061096,4.009437561035156,25.29038963980024,25.44894530973738,101.37540139821856,92.2559886503527,9.71794142969884e-05,0.0925559401512146,0,0,0
8424,304636.80627133587,2010-12-02 23:11:30,3331.652769626725,2,28,0.5501165986061096,4.011541843414307,25.29497615615819,25.44894530973738,101.39379521598008,92.2559886503527,3.23295607813634e-05,0.0925559401512146,0,0,0
8425,304666.8216454248,2010-12-02 23:12:00,3361.668143630496,2,28,0.5501165986061096,4.013808250427246,25.29956271805158,25.44894530973738,101.41219937329066,92.2559886503527,3.23295607813634e-05,0.0925559401512146,0,0,0
8426,304696.83629417885,2010-12-02 23:12:30,3391.6827923343862,2,28,0.5501165986061096,4.015913009643555,25.3041492550286,25.44894530973738,101.43061360634482,92.2559886503527,6.47544875391759e-05,0.0925559401512146,0,0,0
8427,304726.8513246026,2010-12-02 23:13:00,3421.697822773209,2,28,0.5501165986061096,4.018341064453125,25.308735752848232,25.44894530973738,101.44903799848056,92.2559886503527,6.47544875391759e-05,0.0925559401512146,0,0,0
8428,304756.8663700789,2010-12-02 23:13:30,3451.712868249452,2,28,0.5501165986061096,4.0206074714660645,25.313322334680223,25.44894530973738,101.46747311823552,92.2559886503527,9.70840483205393e-05,0.0925559401512146,0,0,0
8429,304786.8815515936,2010-12-02 23:14:00,3481.728049764221,2,28,0.5501165986061096,4.022712230682373,25.31790888216414,25.44894530973738,101.48591871457144,92.2559886503527,6.47544875391759e-05,0.0925559401512146,0,0,0
8430,304816.89646073565,2010-12-02 23:14:30,3511.742958906201,2,28,0.550297200679779,4.025140285491943,25.32249540511706,25.44894530973738,101.50437487571274,92.2559886503527,6.47544875391759e-05,0.0925559401512146,0,0,0
8431,304846.91166064114,2010-12-02 23:15:00,3541.7581588117355,2,28,0.5501165986061096,4.027568817138672,25.327081950828667,25.44894530973738,101.5228418986383,92.2559886503527,6.47544875391759e-05,0.0925559401512146,0,0,0
8432,304876.9267128391,2010-12-02 23:15:30,3571.7732110046927,2,28,0.5499359965324402,4.029835224151611,25.331668492465536,25.44894530973738,101.54131983561273,92.2559886503527,6.47544875391759e-05,0.0925559401512146,0,0,0
8433,304906.94162260264,2010-12-02 23:16:00,3601.7881207581945,2,28,0.5501165986061096,4.032263278961182,25.336254973643925,25.44894530973738,101.5598085005845,92.2559886503527,9.70840483205393e-05,0.0925559401512146,0,0,0
8434,304936.9584347652,2010-12-02 23:16:30,3631.804933000968,2,28,0.5497553944587708,4.034691333770752,25.34084174882688,25.44894530973738,101.57830953125716,92.2559886503527,6.47544875391759e-05,0.0925559401512146,0,0,0
8435,304966.9717198107,2010-12-02 23:17:00,3661.818217976272,2,28,0.5499359965324402,4.0371198654174805,25.345428013223213,25.44894530973738,101.59681968710294,92.2559886503527,6.47544875391759e-05,0.0925559401512146,0,0,0
8436,304996.98688851856,2010-12-02 23:17:30,3691.833386689184,2,28,0.550297200679779,4.03971004486084,25.350014568061983,25.44894530973738,101.61534230460312,92.2559886503527,6.47544875391759e-05,0.0925559401512146,0,0,0
8437,305027.0020700534,2010-12-02 23:18:00,3721.848568264103,2,28,0.5501165986061096,4.04213809967041,25.354601097032507,25.44894530973738,101.63387611121784,92.2559886503527,3.23295607813634e-05,0.0925559401512146,0,0,0
8438,305057.0168806953,2010-12-02 23:18:30,3751.863378855845,2,28,0.5501165986061096,4.044566631317139,25.359187523981007,25.44894530973738,101.65242106595016,92.2559886503527,3.24249267578125e-05,0.0925559401512146,0,0,0
8439,305087.0320422604,2010-12-02 23:19:00,3781.878540415958,2,28,0.5501165986061096,4.047318458557129,25.36377404990472,25.44894530973738,101.67097797011763,92.2559886503527,9.70840483205393e-05,0.0925559401512146,0,0,0
8440,305117.04718919913,2010-12-02 23:19:30,3811.8936873496737,2,28,0.5501165986061096,4.049908638000488,25.3683606154576,25.44894530973738,101.68954679215976,92.2559886503527,9.70840483205393e-05,0.0925559401512146,0,0,0
8441,305147.06215217506,2010-12-02 23:20:00,3841.908650340655,2,28,0.5501165986061096,4.052498817443848,25.372947184827307,25.44894530973738,101.70812739128712,92.2559886503527,9.70840483205393e-05,0.0925559401512146,0,0,0
8442,305177.07706492103,2010-12-02 23:20:30,3871.923563061541,2,28,0.5499359965324402,4.054765224456787,25.37753373168471,25.44894530973738,101.7267197619124,92.2559886503527,3.23295607813634e-05,0.0925559401512146,0,0,0
8443,305207.09203563625,2010-12-02 23:21:00,3901.9385338018064,2,28,0.5504778623580933,4.057679176330566,25.38212025256916,25.44894530973738,101.74532404395964,92.2559886503527,6.47544875391759e-05,0.0925559401512146,0,0,0
8444,305237.1071703997,2010-12-02 23:21:30,3931.953668545187,2,28,0.550297200679779,4.060431480407715,25.386707587526136,25.44894530973738,101.76394385255576,92.2559886503527,0.0001295089750783,0.0925559401512146,0,0,0
8445,305267.12249392783,2010-12-02 23:22:00,3961.9689920833766,2,28,0.5501165986061096,4.062859535217285,25.391294914421163,25.44894530973738,101.78257539150287,92.2559886503527,9.70840483205393e-05,0.0925559401512146,0,0,0
8446,305297.1372948656,2010-12-02 23:22:30,3991.98379301107,2,28,0.5501165986061096,4.0654497146606445,25.39588139120692,25.44894530973738,101.80121581725663,92.2559886503527,3.23295607813634e-05,0.0925559401512146,0,0,0
8447,305327.15234126407,2010-12-02 23:23:00,4021.9988394045954,2,28,0.5501165986061096,4.068363666534424,25.40046788813057,25.44894530973738,101.81986874127108,92.2559886503527,9.70840483205393e-05,0.0925559401512146,0,0,0
8448,305357.16738635435,2010-12-02 23:23:30,4052.013884494877,2,28,0.5499359965324402,4.070953845977783,25.40505442728983,25.44894530973738,101.8385344869616,92.2559886503527,9.70840483205393e-05,0.0925559401512146,0,0,0
8449,305387.1824656698,2010-12-02 23:24:00,4082.028963815341,2,28,0.5501165986061096,4.073706150054932,25.40964094778053,25.44894530973738,101.85721279570666,92.2559886503527,3.24249267578125e-05,0.0925559401512146,0,0,0
8450,305417.19750051457,2010-12-02 23:24:30,4112.043998720277,2,28,0.550297200679779,4.076943874359131,25.41422743135955,25.44894530973738,101.8759039210571,92.2559886503527,0.0001619339018361,0.0925559401512146,0,0,0
8451,305447.2125406024,2010-12-02 23:25:00,4142.059038742948,2,28,0.5501165986061096,4.079371929168701,25.41881391909636,25.44894530973738,101.8946079519668,92.2559886503527,6.47544875391759e-05,0.0925559401512146,0,0,0
8452,305477.2276100734,2010-12-02 23:25:30,4172.074108213901,2,28,0.5499359965324402,4.0822858810424805,25.4234004376103,25.44894530973738,101.91332509485804,92.2559886503527,6.47544875391759e-05,0.0925559401512146,0,0,0
8453,305507.2426996293,2010-12-02 23:26:00,4202.089197860059,2,28,0.5501165986061096,4.085361957550049,25.42798698282176,25.44894530973738,101.93205549003724,92.2559886503527,9.71794142969884e-05,0.0925559401512146,0,0,0
8454,305537.259604242,2010-12-02 23:26:30,4232.106102472691,2,28,0.5501165986061096,4.088113784790039,25.43257376426181,25.44894530973738,101.95080005012774,92.2559886503527,9.70840483205393e-05,0.0925559401512146,0,0,0
8455,305567.2727530133,2010-12-02 23:27:00,4262.119251153833,2,28,0.550297200679779,4.091189861297607,25.43716001840894,25.44894530973738,101.96955578243212,92.2559886503527,9.71794142969884e-05,0.0925559401512146,0,0,0
8456,305597.28780019376,2010-12-02 23:27:30,4292.134298334317,2,28,0.5501165986061096,4.093941688537598,25.441746559714662,25.44894530973738,101.98832608758111,92.2559886503527,6.47544875391759e-05,0.0925559401512146,0,0,0
8457,305627.30285758973,2010-12-02 23:28:00,4322.149355740246,2,28,0.550297200679779,4.096855640411377,25.44633307629843,25.44894530973738,102.00710994279343,92.2559886503527,6.47544875391759e-05,0.0925559401512146,0,0,0
8458,305657.3182990212,2010-12-02 23:28:30,4352.16479725702,2,28,0.5501165986061096,4.099931716918945,25.45091968319378,25.44894530973738,102.0259078805237,92.2559886503527,6.47544875391759e-05,0.0925559401512146,0,0,0
8459,305687.3329981356,2010-12-02 23:29:00,4382.179496301181,2,28,0.5499359965324402,4.103007316589356,25.45550619807463,25.44894530973738,102.04471932497955,92.2559886503527,0.0001295089750783,0.0925559401512146,0,0,0
8460,305717.34810042824,2010-12-02 23:29:30,4412.194598598821,2,28,0.5499359965324402,4.106083393096924,25.460092696524605,25.44894530973738,102.06354470793076,92.2559886503527,9.71794142969884e-05,0.0925559401512146,0,0,0
8461,305747.36304407107,2010-12-02 23:30:00,4442.209542241655,2,28,0.5501165986061096,4.109158992767334,25.46467918918098,25.44894530973738,102.08238413434992,92.2559886503527,6.47544875391759e-05,0.0925559401512146,0,0,0
8462,305777.37827831204,2010-12-02 23:30:30,4472.224776527743,2,28,0.5501165986061096,4.112235069274902,25.469265708233088,25.44894530973738,102.10123787117064,92.2559886503527,6.47544875391759e-05,0.0925559401512146,0,0,0
8463,305807.3933358433,2010-12-02 23:31:00,4502.239834053973,2,28,0.5499359965324402,4.1153106689453125,25.47385219177461,25.44894530973738,102.12010563583873,92.2559886503527,9.71794142969884e-05,0.0925559401512146,0,0,0
8464,305837.408221988,2010-12-02 23:31:30,4532.254720138576,2,28,0.5501165986061096,4.118386268615723,25.47843861461066,25.44894530973738,102.13898762717412,92.2559886503527,6.47544875391759e-05,0.0925559401512146,0,0,0
8465,305867.4234206154,2010-12-02 23:32:00,4562.269918755904,2,28,0.5501165986061096,4.121786117553711,25.4830250786744,25.44894530973738,102.1578842940115,92.2559886503527,9.71794142969884e-05,0.0925559401512146,0,0,0
8466,305897.4383560127,2010-12-02 23:32:30,4592.284854178282,2,28,0.5501165986061096,4.124861717224121,25.48761156624203,25.44894530973738,102.17679563498815,92.2559886503527,9.70840483205393e-05,0.0925559401512146,0,0,0
8467,305927.4534161354,2010-12-02 23:33:00,4622.299914366135,2,28,0.550297200679779,4.12809944152832,25.492198062367752,25.44894530973738,102.19572178733272,92.2559886503527,9.70840483205393e-05,0.0925559401512146,0,0,0
8468,305957.46857065795,2010-12-02 23:33:30,4652.315068813547,2,28,0.5501165986061096,4.13133716583252,25.49678456029933,25.44894530973738,102.2146627923277,92.2559886503527,9.70840483205393e-05,0.0925559401512146,0,0,0
8469,305987.483505504,2010-12-02 23:34:00,4682.330003644453,2,28,0.5501165986061096,4.134737014770508,25.50137105880752,25.44894530973738,102.23361890817458,92.2559886503527,9.71794142969884e-05,0.0925559401512146,0,0,0
8470,306017.49854370207,2010-12-02 23:34:30,4712.3450418425855,2,28,0.5501165986061096,4.137974739074707,25.50595752973985,25.44894530973738,102.25259013065316,92.2559886503527,3.24249267578125e-05,0.0925559401512146,0,0,0
8471,306047.51359507296,2010-12-02 23:35:00,4742.360093223521,2,28,0.5501165986061096,4.141374111175537,25.51054402299433,25.44894530973738,102.27157664314367,92.2559886503527,9.70840483205393e-05,0.0925559401512146,0,0,0
8472,306077.5286510153,2010-12-02 23:35:30,4772.375149155783,2,28,0.5499359965324402,4.1444501876831055,25.515130590401668,25.44894530973738,102.2905788740306,92.2559886503527,3.24249267578125e-05,0.0925559401512146,0,0,0
8473,306107.54387301573,2010-12-02 23:36:00,4802.390371231488,2,28,0.5497553944587708,4.148011684417725,25.51971704926709,25.44894530973738,102.3095964519208,92.2559886503527,3.24249267578125e-05,0.0925559401512146,0,0,0
8474,306137.5605392903,2010-12-02 23:36:30,4832.407037506025,2,28,0.5501165986061096,4.151573181152344,25.52430377365035,25.44894530973738,102.32863077046,92.2559886503527,9.71794142969884e-05,0.0925559401512146,0,0,0
8475,306167.57395197346,2010-12-02 23:37:00,4862.420450179099,2,28,0.5499359965324402,4.154810905456543,25.528889988343803,25.44894530973738,102.34767865862656,92.2559886503527,6.47544875391759e-05,0.0925559401512146,0,0,0
8476,306197.5888581079,2010-12-02 23:37:30,4892.435356273496,2,28,0.5501165986061096,4.158534049987793,25.533476381064627,25.44894530973738,102.3667430455856,92.2559886503527,9.70840483205393e-05,0.0925559401512146,0,0,0
8477,306227.60623446945,2010-12-02 23:38:00,4922.45273270022,2,28,0.5501165986061096,4.161933898925781,25.53806313120756,25.44894530973738,102.385824755428,92.2559886503527,6.47544875391759e-05,0.0925559401512146,0,0,0
8478,306257.6189839171,2010-12-02 23:38:30,4952.465482067683,2,28,0.5501165986061096,4.1654953956604,25.542649239056352,25.44894530973738,102.40491984540344,92.2559886503527,9.71794142969884e-05,0.0925559401512146,0,0,0
8479,306287.6340318144,2010-12-02 23:39:00,4982.480529954926,2,28,0.5501165986061096,4.16905689239502,25.54723569770008,25.44894530973738,102.42403248291292,92.2559886503527,9.71794142969884e-05,0.0925559401512146,0,0,0
8480,306317.6491012753,2010-12-02 23:39:30,5012.495599415854,2,28,0.5501165986061096,4.172294616699219,25.55182217702219,25.44894530973738,102.443161430702,92.2559886503527,3.24249267578125e-05,0.0925559401512146,0,0,0
8481,306347.6641440999,2010-12-02 23:40:00,5042.510642240498,2,28,0.5501165986061096,4.176179885864258,25.55640865820216,25.44894530973738,102.46230677086056,92.2559886503527,9.71794142969884e-05,0.0925559401512146,0,0,0
8482,306377.6791788144,2010-12-02 23:40:30,5072.525676959974,2,28,0.5501165986061096,4.179579257965088,25.56099511227932,25.44894530973738,102.48146840850424,92.2559886503527,3.23295607813634e-05,0.0925559401512146,0,0,0
8483,306407.6942303808,2010-12-02 23:41:00,5102.54072852136,2,28,0.5499359965324402,4.183302879333496,25.565581618054456,25.44894530973738,102.50064694820836,92.2559886503527,6.47544875391759e-05,0.0925559401512146,0,0,0
8484,306437.7092858971,2010-12-02 23:41:30,5132.555784037586,2,28,0.550297200679779,4.187188148498535,25.570168096048903,25.44894530973738,102.51984201529612,92.2559886503527,0.0001295089750783,0.0925559401512146,0,0,0
8485,306467.7243602652,2010-12-02 23:42:01,5162.570858405725,2,28,0.5499359965324402,4.190749645233154,25.57475454258365,25.44894530973738,102.53905374950486,92.2559886503527,9.71794142969884e-05,0.0925559401512146,0,0,0
8486,306497.74168183544,2010-12-02 23:42:31,5192.588180076189,2,28,0.5501165986061096,4.194311141967773,25.57934131163666,25.44894530973738,102.55828373791836,92.2559886503527,9.71794142969884e-05,0.0925559401512146,0,0,0
8487,306527.75463692984,2010-12-02 23:43:01,5222.60113513551,2,28,0.5501165986061096,4.198034286499023,25.58392750570997,25.44894530973738,102.57752825775408,92.2559886503527,9.71794142969884e-05,0.0925559401512146,0,0,0
8488,306543.1917915553,2010-12-02 23:43:16,5238.038289695897,2,28,0.550297200679779,4.200138568878174,25.586286372622418,25.44894530973738,102.58743309040648,92.2559886503527,0.0001295089750783,0.0925559401512146,0,0,0
8489,306573.1984396532,2010-12-02 23:43:46,30.0148557390892,3,28,0.0,4.111587524414063,25.586286372622418,25.44894530973738,102.58743309040648,92.2559886503527,-0.0004208564641885,0.0925559401512146,0,0,0
8490,306603.21344256354,2010-12-02 23:44:16,60.02985860930854,3,28,0.0,4.100740909576416,25.586286372622418,25.44894530973738,102.58743309040648,92.2559886503527,-0.0002266883820993,0.0925559401512146,0,0,0
8491,306633.2284791827,2010-12-02 23:44:46,90.04489521347352,3,28,0.0,4.094103813171387,25.586286372622418,25.44894530973738,102.58743309040648,92.2559886503527,-9.70840483205393e-05,0.0925559401512146,0,0,0
8492,306663.19665130146,2010-12-02 23:45:16,120.01306739733104,3,28,0.0,4.089732646942139,25.586286372622418,25.44894530973738,102.58743309040648,92.2559886503527,-9.71794142969884e-05,0.0925559401512146,0,0,0
8493,306663.2046497682,2010-12-02 23:45:16,0.013782953349296,4,28,0.9938735961914062,4.199814796447754,25.58629017776485,25.44894530973738,102.5874490713,92.2559886503527,0.0,0.0925559401512146,0,0,0
8494,306664.0796345642,2010-12-02 23:45:17,0.888767744348436,4,28,0.9433029890060424,4.199653148651123,25.586523956613917,25.44894530973738,102.58843088274924,92.2559886503527,-3.23295607813634e-05,0.0925559401512146,0,0,0
8495,306666.2045850567,2010-12-02 23:45:19,3.013718236920337,4,28,0.8929130434989929,4.199653148651123,25.587064681545424,25.44894530973738,102.59070177016886,92.2559886503527,-3.23295607813634e-05,0.0925559401512146,0,0,0
8496,306669.3608021265,2010-12-02 23:45:22,6.169935306705533,4,28,0.842703640460968,4.199653148651123,25.587824292733483,25.44894530973738,102.59389192148387,92.2559886503527,0.0,0.0925559401512146,0,0,0
8497,306673.7513201217,2010-12-02 23:45:27,10.560453301870425,4,28,0.7926748991012573,4.199653148651123,25.588820264744378,25.44894530973738,102.5980747218844,92.2559886503527,-3.23295607813634e-05,0.0925559401512146,0,0,0
8498,306679.5480926221,2010-12-02 23:45:33,16.357225802284916,4,28,0.7424654960632324,4.199653148651123,25.59005448356993,25.44894530973738,102.60325810919632,92.2559886503527,-3.23295607813634e-05,0.0925559401512146,0,0,0
8499,306687.03234023444,2010-12-02 23:45:40,23.84147341461252,4,28,0.692436695098877,4.199653148651123,25.591543869905543,25.44894530973738,102.60951313984286,92.2559886503527,-3.23295607813634e-05,0.0925559401512146,0,0,0
8500,306697.1727880939,2010-12-02 23:45:50,33.98192133424329,4,28,0.6424079537391663,4.199653148651123,25.593420347062057,25.44894530973738,102.61739386094328,92.2559886503527,-3.23295607813634e-05,0.0925559401512146,0,0,0
8501,306711.39138629363,2010-12-02 23:46:04,48.20051955404411,4,28,0.5923792123794556,4.199653148651123,25.59585247608701,25.44894530973738,102.62760819111,92.2559886503527,0.0,0.0925559401512146,0,0,0
8502,306733.35960622906,2010-12-02 23:46:26,70.16873950445917,4,28,0.5423504114151001,4.199814796447754,25.599303268865224,25.44894530973738,102.64210064428362,92.2559886503527,0.0,0.0925559401512146,0,0,0
8503,306771.85899383435,2010-12-02 23:47:05,108.66812709473189,4,28,0.492321640253067,4.199653148651123,25.60481145133704,25.44894530973738,102.6652336015674,92.2559886503527,-3.23295607813634e-05,0.0925559401512146,0,0,0
8504,306842.8106071502,2010-12-02 23:48:16,179.61974033537302,4,28,0.4421122670173645,4.199653148651123,25.613981639259222,25.44894530973738,102.70374606179132,92.2559886503527,-3.23295607813634e-05,0.0925559401512146,0,0,0
8505,306948.55858487554,2010-12-02 23:50:02,285.3677180557001,4,28,0.3920834958553314,4.199653148651123,25.62621395201426,25.44894530973738,102.75511865456336,92.2559886503527,0.0,0.0925559401512146,0,0,0
8506,307080.6968566075,2010-12-02 23:52:14,417.5059899129757,4,28,0.3420547246932983,4.199653148651123,25.639669095005225,25.44894530973738,102.81162690049996,92.2559886503527,0.0,0.0925559401512146,0,0,0
8507,307235.63137212035,2010-12-02 23:54:49,572.4405053004978,4,28,0.2920259535312652,4.199814796447754,25.653294706515585,25.44894530973738,102.86885105919012,92.2559886503527,0.0,0.0925559401512146,0,0,0
8508,307424.6276720436,2010-12-02 23:57:58,761.4368052287808,4,28,0.2418165802955627,4.199653148651123,25.667289186314992,25.44894530973738,102.92762427548811,92.2559886503527,-3.23295607813634e-05,0.0925559401512146,0,0,0
8509,307660.8420964085,2010-12-03 00:01:54,997.6512295936426,4,28,0.1917878091335296,4.199653148651123,25.6814708321212,25.44894530973738,102.98718361529916,92.2559886503527,-3.23295607813634e-05,0.0925559401512146,0,0,0
8510,307975.7578366058,2010-12-03 00:07:09,1312.566969785967,4,28,0.1417590379714965,4.199814796447754,25.69596355093831,25.44894530973738,103.04804940041346,92.2559886503527,0.0,0.0925559401512146,0,0,0
8511,308469.4828857361,2010-12-03 00:15:23,1806.292018936353,4,28,0.0917302668094635,4.199653148651123,25.71171724265251,25.44894530973738,103.11421090207126,92.2559886503527,-3.23295607813634e-05,0.0925559401512146,0,0,0
8512,309244.29637184576,2010-12-03 00:28:17,2581.105505030981,4,28,0.0498289167881011,4.199814796447754,25.726485567546757,25.44894530973738,103.17623416974708,92.2559886503527,0.0,0.0925559401512146,0,0,0
8513,309274.3051803716,2010-12-03 00:28:48,30.01256618161348,5,28,0.0,4.191558837890625,25.726485567546757,25.44894530973738,103.17623416974708,92.2559886503527,-3.24249267578125e-05,0.0925559401512146,0,0,0
8514,309304.3046198981,2010-12-03 00:29:18,60.01200575817516,5,28,0.0,4.190263748168945,25.726485567546757,25.44894530973738,103.17623416974708,92.2559886503527,-3.24249267578125e-05,0.0925559401512146,0,0,0
8515,309304.50527833257,2010-12-03 00:29:18,0.187677458136208,6,28,-1.9243103452026844e-05,4.190263748168945,25.726485567546757,25.448945310740573,103.17623416974708,92.25598865455636,0.0,0.0971632748842239,0,0,0
8516,309309.3331277001,2010-12-03 00:29:23,5.015526715326216,6,28,0.0007031940040178,4.190263748168945,25.72648637217028,25.44894531082337,103.17623754141913,92.25598865490328,-3.24249267578125e-05,0.0971632748842239,0,0,0
8517,309339.3456264808,2010-12-03 00:29:53,30.015042824644404,7,28,-1.0997490882873535,4.008142471313477,25.72648637217028,25.45811426291907,103.17623754141913,92.29294169520436,-0.0009065627818927,0.0971632748842239,0,0,0
8518,309369.3608142261,2010-12-03 00:30:23,60.03023058495564,7,28,-1.0997490882873535,3.9802980422973633,25.72648637217028,25.467283201351176,103.17623754141913,92.3295557342677,-0.0006475448608398,0.0971632748842239,0,0,0
8519,309399.3757785153,2010-12-03 00:30:53,90.0451948641427,7,28,-1.0997490882873535,3.961195468902588,25.72648637217028,25.476451960014025,103.17623754141913,92.36595913073064,-0.0004856586456298,0.0971632748842239,0,0,0
8520,309429.3908252797,2010-12-03 00:31:23,120.06024162357868,7,28,-1.0997490882873535,3.946301937103272,25.72648637217028,25.48562068891937,103.17623754141913,92.40220829093606,-0.0003885269106831,0.0971632748842239,0,0,0
8521,309459.4076751562,2010-12-03 00:31:53,150.07709159022644,7,28,-1.0997490882873535,3.9336748123168954,25.72648637217028,25.49478999787367,103.17623754141913,92.43833492020026,-0.0003561496851034,0.0971632748842239,0,0,0
8522,309489.42096663266,2010-12-03 00:32:23,180.0903830867582,7,28,-1.0997490882873535,3.922342777252197,25.72648637217028,25.503958203468105,103.17623754141913,92.47434786124585,-0.0002913951757363,0.0971632748842239,0,0,0
8523,309519.436000916,2010-12-03 00:32:53,210.1054172448362,7,28,-1.099568486213684,3.911658525466919,25.72648637217028,25.513126973309568,103.17623754141913,92.51026084108818,-0.0002266406954731,0.0971632748842239,0,0,0
8524,309549.45140185184,2010-12-03 00:33:23,240.12081828087585,7,28,-1.0997490882873535,3.901135921478272,25.72648637217028,25.5222958306518,103.17623754141913,92.5460778535131,-0.0003237724304199,0.0971632748842239,0,0,0
8525,309579.46609550255,2010-12-03 00:33:53,270.1355118514149,7,28,-1.099568486213684,3.891584634780884,25.72648637217028,25.53146450242704,103.17623754141913,92.58180257193553,-0.0002590179501567,0.0971632748842239,0,0,0
8526,309609.4811667128,2010-12-03 00:34:23,300.15058306169584,7,28,-1.0997490882873535,3.882033348083496,25.72648637217028,25.54063326518679,103.17623754141913,92.61743960650404,-0.0002590179501567,0.0971632748842239,0,0,0
8527,309639.49622287566,2010-12-03 00:34:53,330.16563922954424,7,28,-1.099929690361023,3.872805833816528,25.72648637217028,25.549802084138708,103.17623754141913,92.6529910362692,-0.0002590179501567,0.0971632748842239,0,0,0
8528,309669.5113532482,2010-12-03 00:35:23,360.1807695970357,7,28,-1.0997490882873535,3.863902091979981,25.72648637217028,25.55897094252892,103.17623754141913,92.68845914524412,-0.0002590179501567,0.0971632748842239,0,0,0
8529,309699.5263695418,2010-12-03 00:35:53,390.1957859107085,7,28,-1.0997490882873535,3.8551602363586426,25.72648637217028,25.56814037521814,103.17623754141913,92.72384924847132,-0.0002590179501567,0.0971632748842239,0,0,0
8530,309729.541408166,2010-12-03 00:36:23,420.2108245349003,7,28,-1.0997490882873535,3.8467421531677246,25.72648637217028,25.577310002456432,103.17623754141913,92.7591610903221,-0.0002266406954731,0.0971632748842239,0,0,0
8531,309759.556484098,2010-12-03 00:36:53,450.2259004669312,7,28,-1.0997490882873535,3.838324069976807,25.72648637217028,25.58647949891409,103.17623754141913,92.7943952798814,-0.0002590179501567,0.0971632748842239,0,0,0
8532,309789.5715550126,2010-12-03 00:37:23,480.2409713814762,7,28,-1.099929690361023,3.8300681114196777,25.72648637217028,25.595649070477062,103.17623754141913,92.82955365581786,-0.0002266406954731,0.0971632748842239,0,0,0
8533,309819.58684915764,2010-12-03 00:37:53,510.25626558165897,7,28,-1.099929690361023,3.8221356868743896,25.72648637217028,25.60481874376753,103.17623754141913,92.8646379908976,-0.0002266406954731,0.0971632748842239,0,0,0
8534,309849.60167105246,2010-12-03 00:38:23,540.2710874213909,7,28,-1.0997490882873535,3.8142032623291016,25.72648637217028,25.613988350872848,103.17623754141913,92.89964919661546,-0.0002266406954731,0.0971632748842239,0,0,0
8535,309879.61673298967,2010-12-03 00:38:53,570.2861493535837,7,28,-1.0997490882873535,3.8065946102142334,25.72648637217028,25.623157429800337,103.17623754141913,92.93458675191448,-0.0002266406954731,0.0971632748842239,0,0,0
8536,309909.63199531555,2010-12-03 00:39:23,600.3014116894734,7,28,-1.0997490882873535,3.798985958099365,25.72648637217028,25.632326233367905,103.17623754141913,92.96945385114654,-0.0002266406954731,0.0971632748842239,0,0,0
8537,309939.64713175816,2010-12-03 00:39:53,630.3165481120326,7,28,-1.099929690361023,3.791701078414917,25.72648637217028,25.64149497910148,103.17623754141913,93.00425256225434,-0.0002266406954731,0.0971632748842239,0,0,0
8538,309969.6619290217,2010-12-03 00:40:23,660.3313453655828,7,28,-1.0997490882873535,3.7844161987304688,25.72648637217028,25.65066357650095,103.17623754141913,93.0389839955543,-0.0001942634553415,0.0971632748842239,0,0,0
8539,309999.6771028774,2010-12-03 00:40:53,690.3465192363304,7,28,-1.0997490882873535,3.7776169776916495,25.72648637217028,25.65983230482978,103.17623754141913,93.073651102046,-0.0001618862152099,0.0971632748842239,0,0,0
8540,310029.6920553623,2010-12-03 00:41:23,720.3614717111427,7,28,-1.099929690361023,3.770493984222412,25.72648637217028,25.669001018056644,103.17623754141913,93.10825457349802,-0.0002266406954731,0.0971632748842239,0,0,0
8541,310059.7091390154,2010-12-03 00:41:53,750.3785554595476,7,28,-1.0997490882873535,3.763856649398804,25.72648637217028,25.678170389322737,103.17623754141913,93.14279816300792,-0.0001942634553415,0.0971632748842239,0,0,0
8542,310089.72218436445,2010-12-03 00:42:23,780.3916007183259,7,28,-1.0997490882873535,3.7572193145751953,25.72648637217028,25.687338556615764,103.17623754141913,93.17727613939316,-0.0001942634553415,0.0971632748842239,0,0,0
8543,310119.73725769,2010-12-03 00:42:53,810.4066740639206,7,28,-1.099929690361023,3.750744104385376,25.72648637217028,25.696507369567804,103.17623754141913,93.21169597927052,-0.0001618862152099,0.0971632748842239,0,0,0
8544,310149.7523196422,2010-12-03 00:43:23,840.421735991101,7,28,-1.0997490882873535,3.7445924282073975,25.72648637217028,25.70567608300107,103.17623754141913,93.24605652021206,-0.0001618862152099,0.0971632748842239,0,0,0
8545,310179.7673576499,2010-12-03 00:43:53,870.4367739987584,7,28,-1.0997490882873535,3.738278865814209,25.72648637217028,25.714844852109536,103.17623754141913,93.28036011867869,-0.0001618862152099,0.0971632748842239,0,0,0
8546,310209.7824230156,2010-12-03 00:44:23,900.4518393594828,7,28,-1.099568486213684,3.7321271896362314,25.72648637217028,25.72401354436743,103.17623754141913,93.31460704231034,-0.0001618862152099,0.0971632748842239,0,0,0
8547,310239.7974851784,2010-12-03 00:44:53,930.4669015222496,7,28,-1.0997490882873535,3.726299285888672,25.72648637217028,25.73318226674972,103.17623754141913,93.34879888046956,-0.0001618862152099,0.0971632748842239,0,0,0
8548,310269.81255693,2010-12-03 00:45:23,960.48197329894,7,28,-1.0997490882873535,3.720471382141113,25.72648637217028,25.74235100436617,103.17623754141913,93.3829370706977,-0.0001295089750783,0.0971632748842239,0,0,0
8549,310299.8276222306,2010-12-03 00:45:53,990.4970386045272,7,28,-1.0997490882873535,3.7146434783935542,25.72648637217028,25.7515197207674,103.17623754141913,93.41702148797812,-0.0001295089750783,0.0971632748842239,0,0,0
8550,310329.8426937867,2010-12-03 00:46:23,1020.512110150644,7,28,-1.099568486213684,3.708815574645996,25.72648637217028,25.76068845984598,103.17623754141913,93.45105327654936,-0.0001942634553415,0.0971632748842239,0,0,0
8551,310359.8577316942,2010-12-03 00:46:53,1050.5271480380022,7,28,-1.099568486213684,3.7033114433288574,25.72648637217028,25.76985720387305,103.17623754141913,93.48503348191213,-0.0001618862152099,0.0971632748842239,0,0,0
8552,310389.8729355746,2010-12-03 00:47:23,1080.5423519234405,7,28,-1.0997490882873535,3.6979691982269287,25.72648637217028,25.779026047732543,103.17623754141913,93.51896303417374,-0.0001295089750783,0.0971632748842239,0,0,0
8553,310419.8878581199,2010-12-03 00:47:53,1110.5572744737865,7,28,-1.0997490882873535,3.69230318069458,25.72648637217028,25.78819478114045,103.17623754141913,93.55284164352967,-9.713172767078504e-05,0.0971632748842239,0,0,0
8554,310449.90293477377,2010-12-03 00:48:23,1140.5723511276135,7,28,-1.0997490882873535,3.6869609355926514,25.72648637217028,25.79736350085687,103.17623754141913,93.58667022686956,-9.713172767078504e-05,0.0971632748842239,0,0,0
8555,310479.9179915832,2010-12-03 00:48:53,1170.5874079370587,7,28,-1.099929690361023,3.681618690490722,25.72648637217028,25.806532264303726,103.17623754141913,93.62045030275256,-0.0001295089750783,0.0971632748842239,0,0,0
8556,310509.9354131172,2010-12-03 00:49:23,1200.6048296715287,7,28,-1.099568486213684,3.676438331604004,25.72648637217028,25.815701705559373,103.17623754141913,93.65418453810636,-0.0001295089750783,0.0971632748842239,0,0,0
8557,310539.9482758768,2010-12-03 00:49:53,1230.617692235679,7,28,-1.0997490882873535,3.671258211135864,25.72648637217028,25.82486976710106,103.17623754141913,93.68786632309909,-0.0001618862152099,0.0971632748842239,0,0,0
8558,310569.9631799662,2010-12-03 00:50:23,1260.6325963200734,7,28,-1.099568486213684,3.6660778522491455,25.72648637217028,25.83403849018085,103.17623754141913,93.7215035302022,-0.0001618862152099,0.0971632748842239,0,0,0
8559,310599.9782395526,2010-12-03 00:50:53,1290.647655901416,7,28,-1.0997490882873535,3.6610593795776367,25.72648637217028,25.84320720170272,103.17623754141913,93.75509440430784,-0.0001618862152099,0.0971632748842239,0,0,0
8560,310629.99332281784,2010-12-03 00:51:23,1320.662739161683,7,28,-1.0997490882873535,3.656202793121338,25.72648637217028,25.85237599006373,103.17623754141913,93.78863996166368,-0.0001295089750783,0.0971632748842239,0,0,0
8561,310660.0101388952,2010-12-03 00:51:53,1350.6795553342356,7,28,-1.0993878841400146,3.651508092880249,25.72648637217028,25.861545268255124,103.17623754141913,93.8221425141639,-9.713172767078504e-05,0.0971632748842239,0,0,0
8562,310690.0234752584,2010-12-03 00:52:23,1380.6928916071915,7,28,-1.099568486213684,3.6463277339935294,25.72648637217028,25.870713475533417,103.17623754141913,93.85559696303504,-0.0002266406954731,0.0971632748842239,0,0,0
8563,310720.03849993786,2010-12-03 00:52:53,1410.70791628167,7,28,-1.0997490882873535,3.6417949199676514,25.72648637217028,25.87988219277063,103.17623754141913,93.8890096460082,-0.0001295089750783,0.0971632748842239,0,0,0
8564,310750.05358915793,2010-12-03 00:53:24,1440.7230055268303,7,28,-1.099568486213684,3.6374239921569824,25.72648637217028,25.88905090300297,103.17623754141913,93.92237966814872,-0.0001295089750783,0.0971632748842239,0,0,0
8565,310780.07091888343,2010-12-03 00:53:54,1470.7403353475763,7,28,-1.099568486213684,3.632891178131104,25.72648637217028,25.89822029381451,103.17623754141913,93.9557104340716,-9.713172767078504e-05,0.0971632748842239,0,0,0
8566,310810.08369656635,2010-12-03 00:54:24,1500.753112915216,7,28,-1.0997490882873535,3.628196477890015,25.72648637217028,25.907388352874676,103.17623754141913,93.98899537280698,-0.0001618862152099,0.0971632748842239,0,0,0
8567,310840.09875001246,2010-12-03 00:54:54,1530.7681663612914,7,28,-1.099929690361023,3.6238255500793457,25.72648637217028,25.91655703430972,103.17623754141913,94.02224214909326,-0.0001618862152099,0.0971632748842239,0,0,0
8568,310870.1138283154,2010-12-03 00:55:24,1560.7832446792595,7,28,-1.099929690361023,3.6194546222686768,25.72648637217028,25.925725783763816,103.17623754141913,94.05544959447752,-0.0001618862152099,0.0971632748842239,0,0,0
8569,310900.12891326484,2010-12-03 00:55:54,1590.79832960868,7,28,-1.0997490882873535,3.615407466888428,25.72648637217028,25.934894596532036,103.17623754141913,94.08861831576354,-0.0001295089750783,0.0971632748842239,0,0,0
8570,310930.14394814475,2010-12-03 00:56:24,1620.8133644885545,7,28,-1.099568486213684,3.6113603115081783,25.72648637217028,25.944063329065383,103.17623754141913,94.12174885024274,-9.713172767078504e-05,0.0971632748842239,0,0,0
8571,310960.1590249389,2010-12-03 00:56:54,1650.8284413178178,7,28,-1.0997490882873535,3.6073131561279297,25.72648637217028,25.95323213133074,103.17623754141913,94.15484259066874,-9.713172767078504e-05,0.0971632748842239,0,0,0
8572,310990.1740845553,2010-12-03 00:57:24,1680.8435009041732,7,28,-1.099568486213684,3.6035897731781006,25.72648637217028,25.962400817405864,103.17623754141913,94.18789986152656,-9.713172767078504e-05,0.0971632748842239,0,0,0
8573,311020.1891426379,2010-12-03 00:57:54,1710.8585589917989,7,28,-1.0997490882873535,3.599704504013061,25.72648637217028,25.97156959839881,103.17623754141913,94.22092237891049,-9.713172767078504e-05,0.0971632748842239,0,0,0
8574,311050.2042007757,2010-12-03 00:58:24,1740.873617149599,7,28,-1.0997490882873535,3.5961430072784424,25.72648637217028,25.980738341807527,103.17623754141913,94.2539107135809,-6.47544875391759e-05,0.0971632748842239,0,0,0
8575,311080.2193103514,2010-12-03 00:58:54,1770.888726820588,7,28,-1.099568486213684,3.5925815105438232,25.72648637217028,25.9899071112441,103.17623754141913,94.28686585208506,-9.713172767078504e-05,0.0971632748842239,0,0,0
8576,311110.2343445145,2010-12-03 00:59:24,1800.9037608583667,7,28,-1.099568486213684,3.589182138442993,25.72648637217028,25.999075961903525,103.17623754141913,94.31978899789442,-6.47544875391759e-05,0.0971632748842239,0,0,0
8577,311140.24943772453,2010-12-03 00:59:54,1830.9188541736555,7,28,-1.0997490882873535,3.585620641708374,25.72648637217028,26.00824473621904,103.17623754141913,94.35268054758984,-9.713172767078504e-05,0.0971632748842239,0,0,0
8578,311170.26461630705,2010-12-03 01:00:24,1860.9340326659035,7,28,-1.0997490882873535,3.582221031188965,25.72648637217028,26.017413511341022,103.17623754141913,94.38554133261044,-0.0001295089750783,0.0971632748842239,0,0,0
8579,311200.2795201308,2010-12-03 01:00:54,1890.948936474612,7,28,-1.0997490882873535,3.5789833068847656,25.72648637217028,26.02658226319165,103.17623754141913,94.4183719242106,-9.713172767078504e-05,0.0971632748842239,0,0,0
8580,311230.2947233996,2010-12-03 01:01:24,1920.964139748528,7,28,-1.0997490882873535,3.5759074687957764,25.72648637217028,26.035751087043696,103.17623754141913,94.45117338260336,-6.47544875391759e-05,0.0971632748842239,0,0,0
8581,311260.311425759,2010-12-03 01:01:54,1950.9808422131227,7,28,-1.0997490882873535,3.572831630706787,25.72648637217028,26.04492041293429,103.17623754141913,94.4839476868786,-6.47544875391759e-05,0.0971632748842239,0,0,0
8582,311290.324741962,2010-12-03 01:02:24,1980.994158305861,7,28,-1.0997490882873535,3.569593906402588,25.72648637217028,26.054088691582,103.17623754141913,94.51668977516916,-9.713172767078504e-05,0.0971632748842239,0,0,0
8583,311320.3398185456,2010-12-03 01:02:54,2011.0092350048003,7,28,-1.099568486213684,3.5666799545288086,25.72648637217028,26.06325747240637,103.17623754141913,94.54940567355035,-6.47544875391759e-05,0.0971632748842239,0,0,0
8584,311350.354987013,2010-12-03 01:03:24,2041.0244033718525,7,28,-1.099568486213684,3.5637660026550293,25.72648637217028,26.07242629061745,103.17623754141913,94.58209363583444,-6.47544875391759e-05,0.0971632748842239,0,0,0
8585,311380.3699360492,2010-12-03 01:03:54,2071.0393524181327,7,28,-1.0997490882873535,3.56052827835083,25.72648637217028,26.0815949450685,103.17623754141913,94.61475367018691,-9.713172767078504e-05,0.0971632748842239,0,0,0
8586,311410.3849927384,2010-12-03 01:04:24,2101.054409147378,7,28,-1.099568486213684,3.5577762126922607,25.72648637217028,26.09076363782903,103.17623754141913,94.64738581426776,-3.237724376958795e-05,0.0971632748842239,0,0,0
8587,311440.40005889605,2010-12-03 01:04:54,2131.069475239924,7,28,-1.099568486213684,3.554538488388061,25.72648637217028,26.09993237170149,103.17623754141913,94.67999011741118,-6.47544875391759e-05,0.0971632748842239,0,0,0
8588,311470.4152415888,2010-12-03 01:05:24,2161.084657937637,7,28,-1.0997490882873535,3.5514626502990723,25.72648637217028,26.109101143415582,103.17623754141913,94.7125664615904,-9.713172767078504e-05,0.0971632748842239,0,0,0
8589,311500.43018794333,2010-12-03 01:05:54,2191.0996042922197,7,28,-1.0997490882873535,3.548386812210083,25.72648637217028,26.11826991056235,103.17623754141913,94.74511445572094,-6.47544875391759e-05,0.0971632748842239,0,0,0
8590,311530.4452480761,2010-12-03 01:06:24,2221.114664419922,7,28,-1.099568486213684,3.545149087905884,25.72648637217028,26.12743869404241,103.17623754141913,94.7776338322611,-9.713172767078504e-05,0.0971632748842239,0,0,0
8591,311560.46030633914,2010-12-03 01:06:54,2251.1297227080463,7,28,-1.0997490882873535,3.541911363601685,25.72648637217028,26.136607501250705,103.17623754141913,94.81012427901612,-9.713172767078504e-05,0.0971632748842239,0,0,0
8592,311590.4755431365,2010-12-03 01:07:24,2281.1449595103973,7,28,-1.099568486213684,3.5388355255126958,25.72648637217028,26.145776362885947,103.17623754141913,94.8425855853972,-6.47544875391759e-05,0.0971632748842239,0,0,0
8593,311620.49043685506,2010-12-03 01:07:54,2311.1598532039347,7,28,-1.099568486213684,3.535435914993286,25.72648637217028,26.154945164971902,103.17623754141913,94.8750168351325,-9.713172767078504e-05,0.0971632748842239,0,0,0
8594,311650.5054599406,2010-12-03 01:08:24,2341.174876289459,7,28,-1.099568486213684,3.532198190689087,25.72648637217028,26.164113741924144,103.17623754141913,94.9074167123894,-0.0001295089750783,0.0971632748842239,0,0,0
8595,311680.5205627144,2010-12-03 01:08:54,2371.189979158521,7,28,-1.099568486213684,3.528636693954468,25.72648637217028,26.17328185006038,103.17623754141913,94.93978401426452,-0.0001295089750783,0.0971632748842239,0,0,0
8596,311710.53557981004,2010-12-03 01:09:24,2401.204996163915,7,28,-1.0997490882873535,3.5250751972198486,25.72648637217028,26.182450064371626,103.17623754141913,94.97211941327566,-9.713172767078504e-05,0.0971632748842239,0,0,0
8597,311740.5507828534,2010-12-03 01:09:54,2431.220199302495,7,28,-1.0997490882873535,3.5213518142700195,25.72648637217028,26.19161825226026,103.17623754141913,95.00442119915613,-9.713172767078504e-05,0.0971632748842239,0,0,0
8598,311770.5657249524,2010-12-03 01:10:24,2461.2351413664005,7,28,-1.099568486213684,3.5176284313201904,25.72648637217028,26.200786345989567,103.17623754141913,95.03668822040748,-9.713172767078504e-05,0.0971632748842239,0,0,0
8599,311800.5808576005,2010-12-03 01:10:54,2491.2502739644424,7,28,-1.099568486213684,3.5135812759399414,25.72648637217028,26.20995445785512,103.17623754141913,95.06891959854968,-0.0001295089750783,0.0971632748842239,0,0,0
8600,311830.59612156043,2010-12-03 01:11:24,2521.2655379995604,7,28,-1.099568486213684,3.5095343589782715,25.72648637217028,26.219122782229075,103.17623754141913,95.10111470843374,-9.713172767078504e-05,0.0971632748842239,0,0,0
8601,311860.613077962,2010-12-03 01:11:54,2551.2824943960545,7,28,-1.0997490882873535,3.5048396587371826,25.72648637217028,26.22829206147441,103.17623754141913,95.1332739487014,-0.0001618862152099,0.0971632748842239,0,0,0
8602,311890.626059016,2010-12-03 01:12:24,2581.2954753698627,7,28,-1.099929690361023,3.500306844711304,25.72648637217028,26.23746015993112,103.17623754141913,95.16538743633788,-0.0001295089750783,0.0971632748842239,0,0,0
8603,311920.6412266963,2010-12-03 01:12:54,2611.310643045193,7,28,-1.0997490882873535,3.495288372039795,25.72648637217028,26.24662893548024,103.17623754141913,95.19745855526388,-0.0001618862152099,0.0971632748842239,0,0,0
8604,311950.6561529509,2010-12-03 01:13:24,2641.3255693147958,7,28,-1.099568486213684,3.489784240722656,25.72648637217028,26.25579762821924,103.17623754141913,95.22948074327527,-0.0001618862152099,0.0971632748842239,0,0,0
8605,311980.67121513374,2010-12-03 01:13:54,2671.340631532699,7,28,-1.099568486213684,3.4836325645446777,25.72648637217028,26.26496631169963,103.17623754141913,95.26144926716142,-0.0001942634553415,0.0971632748842239,0,0,0
8606,312010.686338183,2010-12-03 01:14:24,2701.3557545368667,7,28,-1.099568486213684,3.47683334350586,25.72648637217028,26.27413498735807,103.17623754141913,95.29335833239138,-0.0001942634553415,0.0971632748842239,0,0,0
8607,312040.70150767785,2010-12-03 01:14:54,2731.3709240267126,7,28,-1.0997490882873535,3.469062805175781,25.72648637217028,26.28330366797598,103.17623754141913,95.32520105239078,-0.0001942634553415,0.0971632748842239,0,0,0
8608,312070.7164607492,2010-12-03 01:15:24,2761.385877103022,7,28,-1.0997490882873535,3.4599971771240234,25.72648637217028,26.292472305544884,103.17623754141913,95.35696846964538,-0.0003237724304199,0.0971632748842239,0,0,0
8609,312100.73151904735,2010-12-03 01:15:54,2791.400935396159,7,28,-1.0997490882873535,3.449798345565796,25.72648637217028,26.30164100888331,103.17623754141913,95.38864809136945,-0.0003237724304199,0.0971632748842239,0,0,0
8610,312130.74661471345,2010-12-03 01:16:24,2821.4160311274595,7,28,-1.099568486213684,3.437171220779419,25.72648637217028,26.310809674540828,103.17623754141913,95.4202223494599,-0.0003561496851034,0.0971632748842239,0,0,0
8611,312160.7615710328,2010-12-03 01:16:54,2851.430987386689,7,28,-1.0997490882873535,3.421306610107422,25.72648637217028,26.319978358303292,103.17623754141913,95.45166651855396,-0.0004532813909463,0.0971632748842239,0,0,0
8612,312190.776705696,2010-12-03 01:17:24,2881.446122054883,7,28,-1.0997490882873535,3.400908946990967,25.72648637217028,26.32914694102943,103.17623754141913,95.48294540304164,-0.0006151676061563,0.0971632748842239,0,0,0
8613,312220.7917306311,2010-12-03 01:17:54,2911.461147015072,7,28,-1.0997490882873535,3.3738739490509038,25.72648637217028,26.33831551732876,103.17623754141913,95.51400917399454,-0.0008418083307333,0.0971632748842239,0,0,0
8614,312250.8068724872,2010-12-03 01:18:24,2941.476288836065,7,28,-1.0997490882873535,3.337449789047241,25.72648637217028,26.347484324666297,103.17623754141913,95.54478576627103,-0.0011332035064697,0.0971632748842239,0,0,0
8615,312280.8219417076,2010-12-03 01:18:54,2971.4913580563943,7,28,-1.0997490882873535,3.287750720977783,25.72648637217028,26.356652994054603,103.17623754141913,95.57517076015873,-0.0015217304462566,0.0971632748842239,0,0,0
8616,312310.83701409574,2010-12-03 01:19:24,3001.5064304446064,7,28,-1.099568486213684,3.218787431716919,25.72648637217028,26.365821627619955,103.17623754141913,95.60501725012097,-0.0021368979942053,0.0971632748842239,0,0,0
8617,312340.85206373734,2010-12-03 01:19:54,3031.5214800711774,7,28,-1.099568486213684,3.118580102920532,25.72648637217028,26.374990269732475,103.17623754141913,95.63410084409968,-0.0031405924819409,0.0971632748842239,0,0,0
8618,312370.86754937394,2010-12-03 01:20:24,3061.536965828041,7,28,-1.0997490882873535,2.9515140056610107,25.72648637217028,26.38415913443471,103.17623754141913,95.66201261086312,-0.0059897899627685,0.0971632748842239,0,0,0
8619,312390.60337900184,2010-12-03 01:20:44,3081.272795450988,7,28,-1.0997490882873535,2.7514233589172363,25.72648637217028,26.39018781437629,103.17623754141913,95.67924631448643,-0.0094217304140329,0.0971632748842239,0,0,0
8620,312394.8666872254,2010-12-03 01:20:48,3085.536103584304,7,28,-1.099568486213684,2.699620008468628,25.72648637217028,26.39149013828932,103.17623754141913,95.68279581637952,-0.0096483705565333,0.0971632748842239,0,0,0
8621,312454.88939879986,2010-12-03 01:21:48,60.01449021063955,8,28,0.0,3.354123830795288,25.72648637217028,26.39149013828932,103.17623754141913,95.68279581637952,0.0013274193042889,0.0971632748842239,0,0,0
8622,312455.0705356226,2010-12-03 01:21:49,0.187420689176528,9,28,-1.9243103452026844e-05,3.354285717010498,25.72648637217028,26.391490139291143,103.17623754141913,95.68279581973992,0.0,0.0939245000481605,0,0,0
8623,312459.898568988,2010-12-03 01:21:54,5.015454054512576,9,28,0.0001613661734154,3.362218141555786,25.72648723515295,26.3914901394584,103.17624044001457,95.68279582030152,0.0011332035064697,0.0939245000481605,0,0,0
