Data_Point,Test_Time(s),Date_Time,Step_Time(s),Step_Index,Cycle_Index,Current(A),Voltage(V),Charge_Capacity(Ah),Discharge_Capacity(Ah),Charge_Energy(Wh),Discharge_Energy(Wh),dV/dt(V/s),Internal_Resistance(Ohm),Is_FC_Data,AC_Impedance(Ohm),ACI_Phase_Angle(Deg)
12449,435483.6564628089,2010-10-27 14:22:16,30.01511924758629,1,39,0.0,3.405117988586426,37.132745944446285,37.14169717178262,148.3992177167618,135.24544260485146,0.0007770538213662,0.0945633500814437,0,0,0
12450,435513.6716297504,2010-10-27 14:22:46,60.03028618904038,1,39,0.0,3.42940092086792,37.132745944446285,37.14169717178262,148.3992177167618,135.24544260485146,0.0006151676061563,0.0945633500814437,0,0,0
12451,435543.6867923059,2010-10-27 14:23:16,90.04544875458836,1,39,0.0,3.4473700523376465,37.132745944446285,37.14169717178262,148.3992177167618,135.24544260485146,0.0004209041653666,0.0945633500814437,0,0,0
12452,435573.65509243583,2010-10-27 14:23:46,120.01374899981492,1,39,0.0,3.461777925491333,37.132745944446285,37.14169717178262,148.3992177167618,135.24544260485146,0.0003885269106831,0.0945633500814437,0,0,0
12453,435603.6848518723,2010-10-27 14:24:16,30.015187056587187,2,39,0.5501165986061096,3.618483304977417,37.13733232563092,37.14169717178262,148.4156563970226,135.24544260485146,0.0015217304462566,0.0945633500814437,0,0,0
12454,435633.6999689545,2010-10-27 14:24:46,60.03030413877664,2,39,0.5501165986061096,3.664620876312256,37.141918729980254,37.14169717178262,148.43236509055166,135.24544260485146,0.0010360718006268,0.0945633500814437,0,0,0
12455,435663.7151650988,2010-10-27 14:25:16,90.04550029303803,2,39,0.5501165986061096,3.697645425796509,37.146505103600845,37.14169717178262,148.4492514357966,135.24544260485146,0.0008094310760498,0.0945633500814437,0,0,0
12456,435693.730270577,2010-10-27 14:25:46,120.06060577130694,2,39,0.550297200679779,3.723547220230103,37.1510913969025,37.14169717178262,148.46627079097055,135.24544260485146,0.0006799221155233,0.0945633500814437,0,0,0
12457,435723.7500058141,2010-10-27 14:26:16,150.08034102339678,2,39,0.5501165986061096,3.744106769561768,37.15567840273296,37.14169717178262,148.48339892880654,135.24544260485146,0.0005180359003134,0.0945633500814437,0,0,0
12458,435753.7607511354,2010-10-27 14:26:46,180.09108632476324,2,39,0.5501165986061096,3.7611045837402335,37.16026410393679,37.14169717178262,148.5006087251084,135.24544260485146,0.0004209041653666,0.0945633500814437,0,0,0
12459,435783.7755391576,2010-10-27 14:27:16,210.1058743117462,2,39,0.5501165986061096,3.7729222774505615,37.16485038459803,37.14169717178262,148.51788703277086,135.24544260485146,0.0002266406954731,0.0945633500814437,0,0,0
12460,435813.79072095104,2010-10-27 14:27:46,240.12105610521607,2,39,0.550297200679779,3.78036904335022,37.16943669467234,37.14169717178262,148.535208553272,135.24544260485146,0.0001942634553415,0.0945633500814437,0,0,0
12461,435843.80591557146,2010-10-27 14:28:16,270.13625076575465,2,39,0.5501165986061096,3.784901857376098,37.1740229847414,37.14169717178262,148.5525568253882,135.24544260485146,9.713172767078504e-05,0.0945633500814437,0,0,0
12462,435873.82099420286,2010-10-27 14:28:46,300.1513293971128,2,39,0.5501165986061096,3.788949012756348,37.178609259811616,37.14169717178262,148.56992530973247,135.24544260485146,9.713172767078504e-05,0.0945633500814437,0,0,0
12463,435903.8361477559,2010-10-27 14:29:16,330.166482940174,2,39,0.5501165986061096,3.7929961681365967,37.183195558335605,37.14169717178262,148.58731218893823,135.24544260485146,9.713172767078504e-05,0.0945633500814437,0,0,0
12464,435933.8512918304,2010-10-27 14:29:46,360.1816269945865,2,39,0.5501165986061096,3.796881437301636,37.18778194351438,37.14169717178262,148.60471712619184,135.24544260485146,9.713172767078504e-05,0.0945633500814437,0,0,0
12465,435963.866460075,2010-10-27 14:30:16,390.1967952593386,2,39,0.5499359965324402,3.800442934036255,37.192368287830966,37.14169717178262,148.62213921249287,135.24544260485146,9.713172767078504e-05,0.0945633500814437,0,0,0
12466,435993.8818124637,2010-10-27 14:30:46,420.21214766803416,2,39,0.550297200679779,3.804328203201294,37.19695464732624,37.14169717178262,148.63957825377202,135.24544260485146,0.0001295089750783,0.0945633500814437,0,0,0
12467,436023.8967528004,2010-10-27 14:31:16,450.2270879946945,2,39,0.5501165986061096,3.807889699935913,37.201540953233724,37.14169717178262,148.6570335898324,135.24544260485146,0.0001295089750783,0.0945633500814437,0,0,0
12468,436053.9119088648,2010-10-27 14:31:46,480.24224405903954,2,39,0.5501165986061096,3.811127424240112,37.20612729337503,37.14169717178262,148.674505263944,135.24544260485146,6.47544875391759e-05,0.0945633500814437,0,0,0
12469,436083.9271445676,2010-10-27 14:32:16,510.2574797518431,2,39,0.550297200679779,3.814688920974731,37.210713645614426,37.14169717178262,148.69199293168262,135.24544260485146,6.47544875391759e-05,0.0945633500814437,0,0,0
12470,436113.9421966328,2010-10-27 14:32:46,540.2725319172399,2,39,0.5499359965324402,3.81792664527893,37.21529997632653,37.14169717178262,148.70949621049058,135.24544260485146,3.237724376958795e-05,0.0945633500814437,0,0,0
12471,436143.9573869976,2010-10-27 14:33:16,570.2877223071347,2,39,0.550297200679779,3.82148814201355,37.219886272130445,37.14169717178262,148.7270147059345,135.24544260485146,0.0001295089750783,0.0945633500814437,0,0,0
12472,436173.9725042853,2010-10-27 14:33:46,600.3028394695241,2,39,0.5499359965324402,3.824563980102539,37.224472557140615,37.14169717178262,148.74454816946547,135.24544260485146,6.47544875391759e-05,0.0945633500814437,0,0,0
12473,436203.9876528559,2010-10-27 14:34:16,630.3179880101176,2,39,0.5501165986061096,3.8278017044067374,37.22905889518756,37.14169717178262,148.76209684188734,135.24544260485146,9.713172767078504e-05,0.0945633500814437,0,0,0
12474,436234.00279738655,2010-10-27 14:34:46,660.3331325707919,2,39,0.5501165986061096,3.831201314926148,37.23364515436852,37.14169717178262,148.77965992357196,135.24544260485146,6.47544875391759e-05,0.0945633500814437,0,0,0
12475,436264.01795498974,2010-10-27 14:35:16,690.348290183997,2,39,0.5501165986061096,3.834115028381348,37.23823144792662,37.14169717178262,148.79723786428633,135.24544260485146,3.237724376958795e-05,0.0945633500814437,0,0,0
12476,436294.0344714847,2010-10-27 14:35:46,720.3648066789536,2,39,0.5499359965324402,3.837514638900757,37.24281792349898,37.14169717178262,148.814831540198,135.24544260485146,6.47544875391759e-05,0.0945633500814437,0,0,0
12477,436324.0482475296,2010-10-27 14:36:16,750.3785827238656,2,39,0.5499359965324402,3.840914249420166,37.24740396381497,37.14169717178262,148.8324388201263,135.24544260485146,6.47544875391759e-05,0.0945633500814437,0,0,0
12478,436354.04879105,2010-10-27 14:36:46,780.3791262843549,2,39,0.550297200679779,3.844475746154785,37.25198809036786,37.14169717178262,148.85005425480392,135.24544260485146,9.713172767078504e-05,0.0945633500814437,0,0,0
12479,436384.0629371071,2010-10-27 14:37:16,810.3932722612512,2,39,0.550297200679779,3.848037242889404,37.25657427889042,37.14169717178262,148.86769325051552,135.24544260485146,0.0001295089750783,0.0945633500814437,0,0,0
12480,436414.0781040636,2010-10-27 14:37:46,840.4084392678677,2,39,0.5499359965324402,3.8511130809783936,37.26116059151122,37.14169717178262,148.88534828914624,135.24544260485146,9.713172767078504e-05,0.0945633500814437,0,0,0
12481,436444.0932118275,2010-10-27 14:38:16,870.4235469817081,2,39,0.5501165986061096,3.8546745777130127,37.26574690746223,37.14169717178262,148.90301886079226,135.24544260485146,9.713172767078504e-05,0.0945633500814437,0,0,0
12482,436474.10858383006,2010-10-27 14:38:46,900.4389190343626,2,39,0.5501165986061096,3.857912302017212,37.27033324964753,37.14169717178262,148.9207049548654,135.24544260485146,9.713172767078504e-05,0.0945633500814437,0,0,0
12483,436504.1235114751,2010-10-27 14:39:16,930.4538466393165,2,39,0.5501165986061096,3.861150026321411,37.27491954306839,37.14169717178262,148.93840600976458,135.24544260485146,6.47544875391759e-05,0.0945633500814437,0,0,0
12484,436534.1386682562,2010-10-27 14:39:46,960.4690034505228,2,39,0.5501165986061096,3.86454963684082,37.27950588952477,37.14169717178262,148.95612215242136,135.24544260485146,0.0001295089750783,0.0945633500814437,0,0,0
12485,436564.1538179196,2010-10-27 14:40:16,990.4841531139148,2,39,0.5499359965324402,3.8674635887146,37.284092185446646,37.14169717178262,148.97385264586103,135.24544260485146,6.47544875391759e-05,0.0945633500814437,0,0,0
12486,436594.1690005703,2010-10-27 14:40:46,1020.499335754496,2,39,0.5497553944587708,3.870539426803589,37.288677695031495,37.14169717178262,148.99159426277475,135.24544260485146,6.47544875391759e-05,0.0945633500814437,0,0,0
12487,436624.1842331904,2010-10-27 14:41:16,1050.5145683946914,2,39,0.5499359965324402,3.873453378677368,37.29326314478147,37.14169717178262,149.00934953574233,135.24544260485146,3.237724376958795e-05,0.0945633500814437,0,0,0
12488,436654.199318764,2010-10-27 14:41:46,1080.529653948302,2,39,0.5499359965324402,3.876367330551148,37.29784933549693,37.14169717178262,149.027121222782,135.24544260485146,6.47544875391759e-05,0.0945633500814437,0,0,0
12489,436684.2144853947,2010-10-27 14:42:16,1110.5448205689563,2,39,0.5501165986061096,3.879281282424927,37.30243566918304,37.14169717178262,149.04490654577762,135.24544260485146,6.47544875391759e-05,0.0945633500814437,0,0,0
12490,436714.23366715736,2010-10-27 14:42:46,1140.5640023516305,2,39,0.5499359965324402,3.881871461868286,37.30702267087533,37.14169717178262,149.06270690711384,135.24544260485146,6.47544875391759e-05,0.0945633500814437,0,0,0
12491,436744.2448179844,2010-10-27 14:43:16,1170.5751531887165,2,39,0.5501165986061096,3.8844616413116455,37.31160843747387,37.14169717178262,149.08051436401232,135.24544260485146,3.237724376958795e-05,0.0945633500814437,0,0,0
12492,436774.25989166345,2010-10-27 14:43:46,1200.590226827632,2,39,0.5501165986061096,3.886889934539795,37.31619478599626,37.14169717178262,149.09833524487107,135.24544260485146,6.47544875391759e-05,0.0945633500814437,0,0,0
12493,436804.27508421376,2010-10-27 14:44:16,1230.6054193979612,2,39,0.5499359965324402,3.888994455337525,37.32078108607685,37.14169717178262,149.1161665627099,135.24544260485146,3.237724376958795e-05,0.0945633500814437,0,0,0
12494,436834.2780009639,2010-10-27 14:44:46,1260.6083361682192,2,39,0.5501165986061096,3.891098976135254,37.32536559729663,37.14169717178262,149.13400090280945,135.24544260485146,3.237724376958795e-05,0.0945633500814437,0,0,0
12495,436864.2897069396,2010-10-27 14:45:16,1290.6200420937569,2,39,0.550297200679779,3.893203496932984,37.32995197536198,37.14169717178262,149.15185191842684,135.24544260485146,6.47544875391759e-05,0.0945633500814437,0,0,0
12496,436894.3048263676,2010-10-27 14:45:47,1320.6351615769302,2,39,0.550297200679779,3.894822359085083,37.334539256936495,37.14169717178262,149.1697152097172,135.24544260485146,0.0,0.0945633500814437,0,0,0
12497,436924.3200023566,2010-10-27 14:46:17,1350.650337550896,2,39,0.5501165986061096,3.8966031074523926,37.33912628166815,37.14169717178262,149.1875850894106,135.24544260485146,3.237724376958795e-05,0.0945633500814437,0,0,0
12498,436954.3351752028,2010-10-27 14:46:47,1380.6655103970666,2,39,0.550297200679779,3.898383855819702,37.34371352342664,37.14169717178262,149.20546365121595,135.24544260485146,6.47544875391759e-05,0.0945633500814437,0,0,0
12499,436984.3503761991,2010-10-27 14:47:17,1410.6807114134458,2,39,0.5499359965324402,3.899678945541382,37.34830069521468,37.14169717178262,149.22334912258918,135.24544260485146,3.237724376958795e-05,0.0945633500814437,0,0,0
12500,437014.3654768453,2010-10-27 14:47:47,1440.6958120295967,2,39,0.550297200679779,3.901135921478272,37.35288790380846,37.14169717178262,149.24124147088455,135.24544260485146,3.237724376958795e-05,0.0945633500814437,0,0,0
12501,437044.3806739921,2010-10-27 14:48:17,1470.7110091863567,2,39,0.5499359965324402,3.902431011199951,37.35747476329803,37.14169717178262,149.25913896496652,135.24544260485146,3.237724376958795e-05,0.0945633500814437,0,0,0
12502,437074.39577146544,2010-10-27 14:48:47,1500.72610664965,2,39,0.5497553944587708,3.903726100921631,37.36206121256824,37.14169717178262,149.27704109708205,135.24544260485146,0.0,0.0945633500814437,0,0,0
12503,437104.410934061,2010-10-27 14:49:17,1530.7412692552978,2,39,0.5501165986061096,3.905183076858521,37.36664763479889,37.14169717178262,149.29494927188864,135.24544260485146,3.237724376958795e-05,0.0945633500814437,0,0,0
12504,437134.4261248168,2010-10-27 14:49:47,1560.7564600111043,2,39,0.5501165986061096,3.90664005279541,37.37123405380033,37.14169717178262,149.3128633302503,135.24544260485146,3.237724376958795e-05,0.0945633500814437,0,0,0
12505,437164.4446653412,2010-10-27 14:50:17,1590.7750005355656,2,39,0.5499359965324402,3.90777325630188,37.37582106033464,37.14169717178262,149.3307857630193,135.24544260485146,3.237724376958795e-05,0.0945633500814437,0,0,0
12506,437194.4564623238,2010-10-27 14:50:47,1620.78679754812,2,39,0.5501165986061096,3.9092302322387695,37.38040704169489,37.14169717178262,149.34871015540747,135.24544260485146,6.47544875391759e-05,0.0945633500814437,0,0,0
12507,437224.4716332201,2010-10-27 14:51:17,1650.8019684143558,2,39,0.5499359965324402,3.9103634357452393,37.38499347596775,37.14169717178262,149.36664229784694,135.24544260485146,0.0,0.0945633500814437,0,0,0
12508,437254.48669308965,2010-10-27 14:51:47,1680.8170282739288,2,39,0.5501165986061096,3.911820411682129,37.38957988523961,37.14169717178262,149.384580248073,135.24544260485146,3.237724376958795e-05,0.0945633500814437,0,0,0
12509,437284.5018218259,2010-10-27 14:52:17,1710.8321570201888,2,39,0.5501165986061096,3.9131155014038086,37.39416626613214,37.14169717178262,149.4025240507051,135.24544260485146,6.47544875391759e-05,0.0945633500814437,0,0,0
12510,437314.517043985,2010-10-27 14:52:47,1740.8473792544496,2,39,0.5501165986061096,3.914410352706909,37.39875272713258,37.14169717178262,149.4204741682434,135.24544260485146,3.237724376958795e-05,0.0945633500814437,0,0,0
12511,437344.5321610071,2010-10-27 14:53:17,1770.8624962163392,2,39,0.550297200679779,3.915543556213379,37.40333916391167,37.14169717178262,149.43843020396503,135.24544260485146,-3.237724376958795e-05,0.0945633500814437,0,0,0
12512,437374.5473800934,2010-10-27 14:53:47,1800.877715297742,2,39,0.5501165986061096,3.917000532150269,37.40792563332238,37.14169717178262,149.45639233458363,135.24544260485146,3.237724376958795e-05,0.0945633500814437,0,0,0
12513,437404.5624535168,2010-10-27 14:54:17,1830.892788736158,2,39,0.5499359965324402,3.918295621871948,37.412512042545785,37.14169717178262,149.4743603931711,135.24544260485146,3.237724376958795e-05,0.0945633500814437,0,0,0
12514,437434.57766594674,2010-10-27 14:54:47,1860.908001170996,2,39,0.5501165986061096,3.919590711593628,37.41709846803827,37.14169717178262,149.4923345447355,135.24544260485146,3.237724376958795e-05,0.0945633500814437,0,0,0
12515,437464.59277729446,2010-10-27 14:55:17,1890.9231124787937,2,39,0.5501165986061096,3.9210476875305176,37.421684917054016,37.14169717178262,149.5103149131248,135.24544260485146,6.47544875391759e-05,0.0945633500814437,0,0,0
12516,437494.6079037702,2010-10-27 14:55:47,1920.938238954394,2,39,0.5501165986061096,3.922342777252197,37.42627129158418,37.14169717178262,149.52830118092078,135.24544260485146,0.0,0.0945633500814437,0,0,0
12517,437524.6230553684,2010-10-27 14:56:17,1950.953390562633,2,39,0.5501165986061096,3.923799753189087,37.43085775416656,37.14169717178262,149.5462941074675,135.24544260485146,3.237724376958795e-05,0.0945633500814437,0,0,0
12518,437554.6382600188,2010-10-27 14:56:47,1980.9685952431448,2,39,0.5501165986061096,3.925094842910767,37.435444237408014,37.14169717178262,149.5642934900444,135.24544260485146,3.237724376958795e-05,0.0945633500814437,0,0,0
12519,437584.6533991359,2010-10-27 14:57:17,2010.983734320152,2,39,0.5501165986061096,3.926551818847656,37.44003075622765,37.14169717178262,149.5822993394506,135.24544260485146,6.47544875391759e-05,0.0945633500814437,0,0,0
12520,437614.66853451874,2010-10-27 14:57:47,2040.998869702952,2,39,0.5501165986061096,3.928008794784546,37.4446172431894,37.14169717178262,149.60031154341178,135.24544260485146,3.237724376958795e-05,0.0945633500814437,0,0,0
12521,437644.68372373073,2010-10-27 14:58:17,2071.014058924936,2,39,0.5501165986061096,3.9293038845062256,37.449203696914445,37.14169717178262,149.61833010263962,135.24544260485146,3.237724376958795e-05,0.0945633500814437,0,0,0
12522,437674.6988194496,2010-10-27 14:58:47,2101.0291546338567,2,39,0.5499359965324402,3.9307608604431152,37.45379015600153,37.14169717178262,149.63635527924373,135.24544260485146,3.237724376958795e-05,0.0945633500814437,0,0,0
12523,437704.7185080403,2010-10-27 14:59:17,2131.0488432497145,2,39,0.5501165986061096,3.932217836380005,37.45837729907687,37.14169717178262,149.65438973008895,135.24544260485146,6.47544875391759e-05,0.0945633500814437,0,0,0
12524,437734.7291395732,2010-10-27 14:59:47,2161.0594747574723,2,39,0.5499359965324402,3.9336748123168954,37.462963035986725,37.14169717178262,149.67242532927347,135.24544260485146,0.0,0.0945633500814437,0,0,0
12525,437764.7442814873,2010-10-27 15:00:17,2191.074616681576,2,39,0.5499359965324402,3.935131788253784,37.467549514897335,37.14169717178262,149.69047056817828,135.24544260485146,0.0,0.0945633500814437,0,0,0
12526,437794.75946540607,2010-10-27 15:00:47,2221.08980061538,2,39,0.5501165986061096,3.936588764190674,37.47213608958597,37.14169717178262,149.70852292525615,135.24544260485146,3.237724376958795e-05,0.0945633500814437,0,0,0
12527,437824.7746611092,2010-10-27 15:01:17,2251.104996313504,2,39,0.5501165986061096,3.938207626342773,37.476722588303225,37.14169717178262,149.72658180641588,135.24544260485146,6.47544875391759e-05,0.0945633500814437,0,0,0
12528,437854.7897252144,2010-10-27 15:01:47,2281.120060398609,2,39,0.5499359965324402,3.939664602279663,37.481309069000766,37.14169717178262,149.74464748232995,135.24544260485146,3.237724376958795e-05,0.0945633500814437,0,0,0
12529,437884.8048716146,2010-10-27 15:02:17,2311.135206808893,2,39,0.5501165986061096,3.9412834644317623,37.48589553413588,37.14169717178262,149.76272007880598,135.24544260485146,6.47544875391759e-05,0.0945633500814437,0,0,0
12530,437914.82003623527,2010-10-27 15:02:47,2341.1503714446003,2,39,0.5501165986061096,3.942740440368652,37.49048202214279,37.14169717178262,149.7807997170603,135.24544260485146,6.47544875391759e-05,0.0945633500814437,0,0,0
12531,437944.8355815347,2010-10-27 15:03:17,2371.165916749051,2,39,0.5501165986061096,3.944197416305542,37.4950685739353,37.14169717178262,149.7988866841157,135.24544260485146,3.237724376958795e-05,0.0945633500814437,0,0,0
12532,437974.8505566982,2010-10-27 15:03:47,2401.180891902511,2,39,0.550297200679779,3.9458162784576416,37.49965503815755,37.14169717178262,149.81698041975827,135.24544260485146,6.47544875391759e-05,0.0945633500814437,0,0,0
12533,438004.86553074885,2010-10-27 15:04:17,2431.195865933172,2,39,0.5501165986061096,3.947435140609741,37.50424148754455,37.14169717178262,149.83508125247727,135.24544260485146,3.237724376958795e-05,0.0945633500814437,0,0,0
12534,438034.8806550892,2010-10-27 15:04:47,2461.210990283476,2,39,0.5501165986061096,3.949054002761841,37.508827925885576,37.14169717178262,149.85318921743126,135.24544260485146,6.47544875391759e-05,0.0945633500814437,0,0,0
12535,438064.8958113089,2010-10-27 15:05:17,2491.2261465032084,2,39,0.5501165986061096,3.9505109786987305,37.51341433477344,37.14169717178262,149.8713043156288,135.24544260485146,3.237724376958795e-05,0.0945633500814437,0,0,0
12536,438094.9109343861,2010-10-27 15:05:47,2521.2412695803387,2,39,0.5501165986061096,3.95196795463562,37.518000852564825,37.14169717178262,149.88942727694325,135.24544260485146,3.237724376958795e-05,0.0945633500814437,0,0,0
12537,438124.9260892024,2010-10-27 15:06:17,2551.256464361177,2,39,0.5501165986061096,3.95391058921814,37.52258737239645,37.14169717178262,149.90755761341433,135.24544260485146,3.237724376958795e-05,0.0945633500814437,0,0,0
12538,438154.9412416726,2010-10-27 15:06:47,2581.271576881998,2,39,0.550297200679779,3.9555294513702393,37.52717384244743,37.14169717178262,149.92569521877934,135.24544260485146,6.47544875391759e-05,0.0945633500814437,0,0,0
12539,438184.9564305839,2010-10-27 15:07:17,2611.2867657681454,2,39,0.5499359965324402,3.956986427307129,37.53176037201665,37.14169717178262,149.94384063142556,135.24544260485146,3.237724376958795e-05,0.0945633500814437,0,0,0
12540,438214.9715945028,2010-10-27 15:07:47,2641.301929697091,2,39,0.550297200679779,3.958929061889648,37.536346934840765,37.14169717178262,149.96199367273704,135.24544260485146,9.713172767078504e-05,0.0945633500814437,0,0,0
12541,438244.9866858157,2010-10-27 15:08:17,2671.317021010056,2,39,0.5499359965324402,3.960386037826538,37.54093347384234,37.14169717178262,149.98015435642554,135.24544260485146,6.47544875391759e-05,0.0945633500814437,0,0,0
12542,438275.0056657304,2010-10-27 15:08:47,2701.336000914587,2,39,0.5501165986061096,3.962166786193848,37.54552053568075,37.14169717178262,149.99832489007807,135.24544260485146,3.237724376958795e-05,0.0945633500814437,0,0,0
12543,438305.0170221799,2010-10-27 15:09:17,2731.3473573891856,2,39,0.5499359965324402,3.963623762130737,37.55010643058949,37.14169717178262,150.0164984964682,135.24544260485146,3.237724376958795e-05,0.0945633500814437,0,0,0
12544,438335.0321750011,2010-10-27 15:09:47,2761.3625101553102,2,39,0.5501165986061096,3.965566396713257,37.55469298445882,37.14169717178262,150.0346825895191,135.24544260485146,3.237724376958795e-05,0.0945633500814437,0,0,0
12545,438365.04733707546,2010-10-27 15:10:17,2791.377672279759,2,39,0.5501165986061096,3.9673471450805664,37.5592794697181,37.14169717178262,150.05287427144964,135.24544260485146,9.713172767078504e-05,0.0945633500814437,0,0,0
12546,438395.0624871348,2010-10-27 15:10:47,2821.392822354175,2,39,0.5501165986061096,3.968966007232666,37.5638659422016,37.14169717178262,150.07107374007447,135.24544260485146,6.47544875391759e-05,0.0945633500814437,0,0,0
12547,438425.0777600253,2010-10-27 15:11:17,2851.4080952446866,2,39,0.550297200679779,3.970746755599976,37.56845247478084,37.14169717178262,150.0892815412729,135.24544260485146,6.47544875391759e-05,0.0945633500814437,0,0,0
12548,438455.0927478153,2010-10-27 15:11:47,2881.423083084765,2,39,0.5499359965324402,3.972365617752075,37.57303894603586,37.14169717178262,150.10749714900382,135.24544260485146,3.237724376958795e-05,0.0945633500814437,0,0,0
12549,438485.1079021304,2010-10-27 15:12:17,2911.4382373145377,2,39,0.5501165986061096,3.9743082523345943,37.57762549246403,37.14169717178262,150.12572106876505,135.24544260485146,6.47544875391759e-05,0.0945633500814437,0,0,0
12550,438515.1230528312,2010-10-27 15:12:47,2941.4533880255403,2,39,0.550297200679779,3.976089000701904,37.58221206477855,37.14169717178262,150.14395333414316,135.24544260485146,3.237724376958795e-05,0.0945633500814437,0,0,0
12551,438545.13821567246,2010-10-27 15:13:17,2971.468550866776,2,39,0.550297200679779,3.977707862854004,37.58679866124969,37.14169717178262,150.16219386830784,135.24544260485146,6.47544875391759e-05,0.0945633500814437,0,0,0
12552,438575.1534210447,2010-10-27 15:13:47,3001.483756279111,2,39,0.5499359965324402,3.979650497436523,37.59138514578182,37.14169717178262,150.18044178705898,135.24544260485146,6.47544875391759e-05,0.0945633500814437,0,0,0
12553,438605.1686391036,2010-10-27 15:14:17,3031.4989743279407,2,39,0.5501165986061096,3.981431245803833,37.59597156419844,37.14169717178262,150.1986982637173,135.24544260485146,3.237724376958795e-05,0.0945633500814437,0,0,0
12554,438635.18368304847,2010-10-27 15:14:47,3061.514018232749,2,39,0.5501165986061096,3.983373880386353,37.60055801998604,37.14169717178262,150.2169633580996,135.24544260485146,6.47544875391759e-05,0.0945633500814437,0,0,0
12555,438665.20291505137,2010-10-27 15:15:17,3091.533250245612,2,39,0.5501165986061096,3.985154628753662,37.605145074799175,37.14169717178262,150.2352393593682,135.24544260485146,3.237724376958795e-05,0.0945633500814437,0,0,0
12556,438695.21403445007,2010-10-27 15:15:47,3121.5443696343195,2,39,0.5501165986061096,3.9870972633361816,37.60973091281375,37.14169717178262,150.25351905423656,135.24544260485146,6.47544875391759e-05,0.0945633500814437,0,0,0
12557,438725.2291532766,2010-10-27 15:16:17,3151.559488470881,2,39,0.550297200679779,3.989039897918701,37.614317425199175,37.14169717178262,150.27180999190978,135.24544260485146,9.713172767078504e-05,0.0945633500814437,0,0,0
12558,438755.24426685006,2010-10-27 15:16:47,3181.574602034301,2,39,0.5499359965324402,3.990658760070801,37.61890388297915,37.14169717178262,150.29010940334396,135.24544260485146,3.237724376958795e-05,0.0945633500814437,0,0,0
12559,438785.25947754056,2010-10-27 15:17:17,3211.589812754866,2,39,0.5501165986061096,3.9927632808685294,37.623490399102295,37.14169717178262,150.30841795592832,135.24544260485146,3.237724376958795e-05,0.0945633500814437,0,0,0
12560,438815.2745960463,2010-10-27 15:17:48,3241.604931230528,2,39,0.5499359965324402,3.994705677032471,37.628076847279296,37.14169717178262,150.32673513419803,135.24544260485146,3.237724376958795e-05,0.0945633500814437,0,0,0
12561,438845.2897363362,2010-10-27 15:18:18,3271.620071520559,2,39,0.5501165986061096,3.9966483116149902,37.63266332367375,37.14169717178262,150.3450614361616,135.24544260485146,6.47544875391759e-05,0.0945633500814437,0,0,0
12562,438875.3049068668,2010-10-27 15:18:48,3301.63524205597,2,39,0.5501165986061096,3.9985909461975098,37.63724979700352,37.14169717178262,150.36339687026646,135.24544260485146,3.237724376958795e-05,0.0945633500814437,0,0,0
12563,438905.32007395854,2010-10-27 15:19:18,3331.6504091628367,2,39,0.5501165986061096,4.000857353210449,37.64183628826994,37.14169717178262,150.38174161556782,135.24544260485146,9.70840483205393e-05,0.0945633500814437,0,0,0
12564,438935.3351845445,2010-10-27 15:19:48,3361.6655197087352,2,39,0.5501165986061096,4.002799987792969,37.64642272450457,37.14169717178262,150.4000955550533,135.24544260485146,6.47544875391759e-05,0.0945633500814437,0,0,0
12565,438965.3503149901,2010-10-27 15:20:18,3391.6806501843053,2,39,0.5499359965324402,4.004904747009277,37.65100915433561,37.14169717178262,150.41845895594585,135.24544260485146,6.47544875391759e-05,0.0945633500814437,0,0,0
12566,438995.3655043423,2010-10-27 15:20:48,3421.695839536614,2,39,0.5501165986061096,4.007171154022217,37.65559562700479,37.14169717178262,150.43683215124332,135.24544260485146,9.71794142969884e-05,0.0945633500814437,0,0,0
12567,439025.3806768627,2010-10-27 15:21:18,3451.7110120820357,2,39,0.5499359965324402,4.009113788604736,37.66018206746848,37.14169717178262,150.45521494614795,135.24544260485146,6.47544875391759e-05,0.0945633500814437,0,0,0
12568,439055.3957894136,2010-10-27 15:21:48,3481.726124597844,2,39,0.5501165986061096,4.011380195617676,37.66476850745225,37.14169717178262,150.4736075204013,135.24544260485146,6.47544875391759e-05,0.0945633500814437,0,0,0
12569,439085.4109236535,2010-10-27 15:22:18,3511.7412588478205,2,39,0.5501165986061096,4.013484477996826,37.6693549471764,37.14169717178262,150.49201001974254,135.24544260485146,6.47544875391759e-05,0.0945633500814437,0,0,0
12570,439115.4261056275,2010-10-27 15:22:48,3541.756440836778,2,39,0.5501165986061096,4.015589237213135,37.6739414287185,37.14169717178262,150.51042273391985,135.24544260485146,3.24249267578125e-05,0.0945633500814437,0,0,0
12571,439145.44128293975,2010-10-27 15:23:18,3571.771618134042,2,39,0.5501165986061096,4.018017292022705,37.67852782525175,37.14169717178262,150.52884525099017,135.24544260485146,6.47544875391759e-05,0.0945633500814437,0,0,0
12572,439175.4563781324,2010-10-27 15:23:48,3601.786713326676,2,39,0.5501165986061096,4.020122051239014,37.68311431099046,37.14169717178262,150.54727826993144,135.24544260485146,6.47544875391759e-05,0.0945633500814437,0,0,0
12573,439205.47153280326,2010-10-27 15:24:18,3631.8018680125847,2,39,0.5497553944587708,4.022388458251953,37.68770075284085,37.14169717178262,150.56572151266874,135.24544260485146,6.47544875391759e-05,0.0945633500814437,0,0,0
12574,439235.4866726472,2010-10-27 15:24:48,3661.8170078314406,2,39,0.550297200679779,4.024492740631104,37.69228719543909,37.14169717178262,150.58417523611087,135.24544260485146,3.23295607813634e-05,0.0945633500814437,0,0,0
12575,439265.50188459584,2010-10-27 15:25:18,3691.8322198151545,2,39,0.5501165986061096,4.026921272277832,37.696873645290765,37.14169717178262,150.60263955461184,135.24544260485146,6.47544875391759e-05,0.0945633500814437,0,0,0
12576,439295.5174047576,2010-10-27 15:25:48,3721.8477399819553,2,39,0.550297200679779,4.029349327087402,37.70146017190521,37.14169717178262,150.62111489861226,135.24544260485146,6.47544875391759e-05,0.0945633500814437,0,0,0
12577,439325.5321701834,2010-10-27 15:26:18,3751.862505367608,2,39,0.5501165986061096,4.031615734100342,37.70604653756636,37.14169717178262,150.63960026877598,135.24544260485146,3.23295607813634e-05,0.0945633500814437,0,0,0
12578,439355.54725161166,2010-10-27 15:26:48,3781.8775868059615,2,39,0.5501165986061096,4.03404426574707,37.71063288103484,37.14169717178262,150.65809652681875,135.24544260485146,6.47544875391759e-05,0.0945633500814437,0,0,0
12579,439385.5624217762,2010-10-27 15:27:18,3811.8927569704497,2,39,0.5501165986061096,4.036633968353272,37.71521928892092,37.14169717178262,150.6766039675974,135.24544260485146,9.70840483205393e-05,0.0945633500814437,0,0,0
12580,439415.5775502718,2010-10-27 15:27:48,3841.907885491147,2,39,0.5501165986061096,4.038900375366211,37.7198057556625,37.14169717178262,150.69512268759297,135.24544260485146,9.70840483205393e-05,0.0945633500814437,0,0,0
12581,439445.5927016244,2010-10-27 15:28:18,3871.9230368186863,2,39,0.5499359965324402,4.04132890701294,37.72439220846143,37.14169717178262,150.71365242522944,135.24544260485146,6.47544875391759e-05,0.0945633500814437,0,0,0
12582,439475.6079297985,2010-10-27 15:28:48,3901.9382650679386,2,39,0.5501165986061096,4.04375696182251,37.72897861670183,37.14169717178262,150.73219322596378,135.24544260485146,6.47544875391759e-05,0.0945633500814437,0,0,0
12583,439505.6230226152,2010-10-27 15:29:18,3931.9533577994393,2,39,0.5501165986061096,4.046185493469238,37.73356505510052,37.14169717178262,150.75074548948135,135.24544260485146,3.24249267578125e-05,0.0945633500814437,0,0,0
12584,439535.6381421234,2010-10-27 15:29:48,3961.968477317699,2,39,0.5501165986061096,4.048613548278809,37.738151529248455,37.14169717178262,150.76930925561493,135.24544260485146,6.47544875391759e-05,0.0945633500814437,0,0,0
12585,439565.6533410446,2010-10-27 15:30:18,3991.9836762488826,2,39,0.5501165986061096,4.051203727722168,37.74273802987443,37.14169717178262,150.78788446407978,135.24544260485146,6.47544875391759e-05,0.0945633500814437,0,0,0
12586,439595.6684541819,2010-10-27 15:30:48,4021.9987893661896,2,39,0.550297200679779,4.053793907165527,37.74732443442811,37.14169717178262,150.80647084878575,135.24544260485146,3.23295607813634e-05,0.0945633500814437,0,0,0
12587,439625.68820593006,2010-10-27 15:31:18,4052.018541144468,2,39,0.5499359965324402,4.056222438812256,37.75191160445949,37.14169717178262,150.82507205140087,135.24544260485146,3.24249267578125e-05,0.0945633500814437,0,0,0
12588,439655.6989623392,2010-10-27 15:31:48,4082.029297533468,2,39,0.5499359965324402,4.058974266052246,37.756497398709705,37.14169717178262,150.84367951541088,135.24544260485146,6.47544875391759e-05,0.0945633500814437,0,0,0
12589,439685.71401191805,2010-10-27 15:32:18,4112.044347102394,2,39,0.550297200679779,4.0615644454956055,37.761083874532304,37.14169717178262,150.8623013866021,135.24544260485146,0.0001618385285837,0.0945633500814437,0,0,0
12590,439715.7290573668,2010-10-27 15:32:48,4142.05939255105,2,39,0.5501165986061096,4.063992977142334,37.765670302613024,37.14169717178262,150.8809348973214,135.24544260485146,3.24249267578125e-05,0.0945633500814437,0,0,0
12591,439745.74423240346,2010-10-27 15:33:18,4172.074567587681,2,39,0.5499359965324402,4.066583156585693,37.77025672928722,37.14169717178262,150.89958041661646,135.24544260485146,3.24249267578125e-05,0.0945633500814437,0,0,0
12592,439775.7593585682,2010-10-27 15:33:48,4202.089693837719,2,39,0.5499359965324402,4.069334983825684,37.77484314141245,37.14169717178262,150.9182381004299,135.24544260485146,9.70840483205393e-05,0.0945633500814437,0,0,0
12593,439805.77450940455,2010-10-27 15:34:18,4232.104844588822,2,39,0.5499359965324402,4.071925163269043,37.77942953056717,37.14169717178262,150.936908041632,135.24544260485146,6.47544875391759e-05,0.0945633500814437,0,0,0
12594,439835.7896930326,2010-10-27 15:34:48,4262.120028236914,2,39,0.550297200679779,4.074839115142822,37.78401589329148,37.14169717178262,150.95559031716485,135.24544260485146,6.47544875391759e-05,0.0945633500814437,0,0,0
12595,439865.8048240846,2010-10-27 15:35:18,4292.13515926887,2,39,0.5501165986061096,4.077591419219971,37.788602263622366,37.14169717178262,150.97428519107706,135.24544260485146,6.47544875391759e-05,0.0945633500814437,0,0,0
12596,439895.82020417234,2010-10-27 15:35:48,4322.1505393766,2,39,0.5501165986061096,4.080343246459961,37.7931887716519,37.14169717178262,150.9929934101907,135.24544260485146,6.47544875391759e-05,0.0945633500814437,0,0,0
12597,439925.8350998978,2010-10-27 15:36:18,4352.165435082051,2,39,0.5499359965324402,4.083095550537109,37.79777518341369,37.14169717178262,151.011713987895,135.24544260485146,6.47544875391759e-05,0.0945633500814437,0,0,0
12598,439955.8503809537,2010-10-27 15:36:48,4382.180716167988,2,39,0.550297200679779,4.08617115020752,37.80236162479381,37.14169717178262,151.0304476035815,135.24544260485146,0.0001295089750783,0.0945633500814437,0,0,0
12599,439985.8655513988,2010-10-27 15:37:18,4412.195886593125,2,39,0.5499359965324402,4.088761329650879,37.80694808011706,37.14169717178262,151.04919426972975,135.24544260485146,6.47544875391759e-05,0.0945633500814437,0,0,0
12600,440015.8805684467,2010-10-27 15:37:48,4442.210903630973,2,39,0.5501165986061096,4.091675281524658,37.81153444414937,37.14169717178262,151.06795374350023,135.24544260485146,9.70840483205393e-05,0.0945633500814437,0,0,0
12601,440045.8956984561,2010-10-27 15:38:18,4472.226033640381,2,39,0.5501165986061096,4.0945892333984375,37.816120860040535,37.14169717178262,151.08672665137033,135.24544260485146,9.70840483205393e-05,0.0945633500814437,0,0,0
12602,440075.9108976278,2010-10-27 15:38:48,4502.241232837226,2,39,0.5501165986061096,4.097503185272217,37.82070733690242,37.14169717178262,151.10551318776697,135.24544260485146,6.47544875391759e-05,0.0945633500814437,0,0,0
12603,440105.9260523539,2010-10-27 15:39:18,4532.256387538172,2,39,0.5501165986061096,4.100417137145996,37.82529380905558,37.14169717178262,151.12431309398,135.24544260485146,9.70840483205393e-05,0.0945633500814437,0,0,0
12604,440135.9411759423,2010-10-27 15:39:48,4562.2715111366015,2,39,0.5501165986061096,4.1034932136535645,37.82988027902388,37.14169717178262,151.14312646529007,135.24544260485146,6.47544875391759e-05,0.0945633500814437,0,0,0
12605,440165.9563081371,2010-10-27 15:40:18,4592.286643321432,2,39,0.5501165986061096,4.106568813323975,37.83446668960778,37.14169717178262,151.16195332563188,135.24544260485146,0.0001295089750783,0.0945633500814437,0,0,0
12606,440195.97178638953,2010-10-27 15:40:48,4622.302121603844,2,39,0.5501165986061096,4.109482765197754,37.83905311729178,37.14169717178262,151.18079400660704,135.24544260485146,9.70840483205393e-05,0.0945633500814437,0,0,0
12607,440225.9746486088,2010-10-27 15:41:18,4652.304983803094,2,39,0.5499359965324402,4.112396717071533,37.84363764707155,37.14169717178262,151.1996408020771,135.24544260485146,6.47544875391759e-05,0.0945633500814437,0,0,0
12608,440255.9861748064,2010-10-27 15:41:48,4682.316510000694,2,39,0.550297200679779,4.115634441375732,37.84822348082041,37.14169717178262,151.21850694373595,135.24544260485146,0.0001295089750783,0.0945633500814437,0,0,0
12609,440286.0012773423,2010-10-27 15:42:18,4712.331612526605,2,39,0.5499359965324402,4.118548393249512,37.85280988164125,37.14169717178262,151.2373896707782,135.24544260485146,3.24249267578125e-05,0.0945633500814437,0,0,0
12610,440316.0164540332,2010-10-27 15:42:48,4742.346789252444,2,39,0.5501165986061096,4.121786117553711,37.85739635310411,37.14169717178262,151.25628712521709,135.24544260485146,9.71794142969884e-05,0.0945633500814437,0,0,0
12611,440346.0315640226,2010-10-27 15:43:18,4772.361899216894,2,39,0.5501165986061096,4.12502384185791,37.86198276869755,37.14169717178262,151.27519870680422,135.24544260485146,6.47544875391759e-05,0.0945633500814437,0,0,0
12612,440376.0469143562,2010-10-27 15:43:48,4802.377249575481,2,39,0.5499359965324402,4.12809944152832,37.86656923085004,37.14169717178262,151.29412498346508,135.24544260485146,6.47544875391759e-05,0.0945633500814437,0,0,0
12613,440406.061902502,2010-10-27 15:44:18,4832.392237711296,2,39,0.5501165986061096,4.13133716583252,37.87115560934891,37.14169717178262,151.3130655578103,135.24544260485146,9.70840483205393e-05,0.0945633500814437,0,0,0
12614,440436.0770101356,2010-10-27 15:44:48,4862.407345319874,2,39,0.5501165986061096,4.134737014770508,37.875742055387725,37.14169717178262,151.33202123297227,135.24544260485146,9.71794142969884e-05,0.0945633500814437,0,0,0
12615,440466.092238009,2010-10-27 15:45:18,4892.422573228277,2,39,0.550297200679779,4.137974739074707,37.88032847189484,37.14169717178262,151.35099178552016,135.24544260485146,9.71794142969884e-05,0.0945633500814437,0,0,0
12616,440496.1073401038,2010-10-27 15:45:48,4922.43767537825,2,39,0.5499359965324402,4.141050338745117,37.88491489162296,37.14169717178262,151.3699773360324,135.24544260485146,6.47544875391759e-05,0.0945633500814437,0,0,0
12617,440526.12245136144,2010-10-27 15:46:18,4952.452786555723,2,39,0.550297200679779,4.144611835479736,37.88950137763469,37.14169717178262,151.38897825724706,135.24544260485146,0.0001295089750783,0.0945633500814437,0,0,0
12618,440556.13758250367,2010-10-27 15:46:48,4982.46791768793,2,39,0.5501165986061096,4.147849559783936,37.894087749078885,37.14169717178262,151.40799427192286,135.24544260485146,9.70840483205393e-05,0.0945633500814437,0,0,0
12619,440586.1528323367,2010-10-27 15:47:18,5012.483167531001,2,39,0.5501165986061096,4.151249408721924,37.89867418822982,37.14169717178262,151.42702594433578,135.24544260485146,6.47544875391759e-05,0.0945633500814437,0,0,0
12620,440616.1720073775,2010-10-27 15:47:48,5042.502342561847,2,39,0.550297200679779,4.154810905456543,37.903261211020045,37.14169717178262,151.44607560674388,135.24544260485146,9.71794142969884e-05,0.0945633500814437,0,0,0
12621,440646.183089338,2010-10-27 15:48:18,5072.513424522271,2,39,0.5499359965324402,4.158048629760742,37.90784697972071,37.14169717178262,151.4651357210582,135.24544260485146,6.47544875391759e-05,0.0945633500814437,0,0,0
12622,440676.1982542043,2010-10-27 15:48:48,5102.528589388553,2,39,0.5501165986061096,4.161610126495361,37.91243341081647,37.14169717178262,151.48421433781982,135.24544260485146,9.71794142969884e-05,0.0945633500814437,0,0,0
12623,440706.2134125543,2010-10-27 15:49:18,5132.543747738594,2,39,0.5501165986061096,4.165009498596191,37.91701981086981,37.14169717178262,151.50330865208792,135.24544260485146,0.0001295089750783,0.0945633500814437,0,0,0
12624,440736.2285526138,2010-10-27 15:49:48,5162.558887808075,2,39,0.5501165986061096,4.1685709953308105,37.9216061549384,37.14169717178262,151.52241871276868,135.24544260485146,9.70840483205393e-05,0.0945633500814437,0,0,0
12625,440766.24611588765,2010-10-27 15:50:19,5192.576451071902,2,39,0.5501165986061096,4.171970844268799,37.92619293457189,37.14169717178262,151.54154669746413,135.24544260485146,6.47544875391759e-05,0.0945633500814437,0,0,0
12626,440796.2588197754,2010-10-27 15:50:49,5222.589154959668,2,39,0.5501165986061096,4.175532341003418,37.930779002403554,37.14169717178262,151.56068790636877,135.24544260485146,6.47544875391759e-05,0.0945633500814437,0,0,0
12627,440826.2739692032,2010-10-27 15:51:19,5252.604304387473,2,39,0.5499359965324402,4.179255485534668,37.93536535559026,37.14169717178262,151.57984657386902,135.24544260485146,0.0001295089750783,0.0945633500814437,0,0,0
12628,440856.2891728762,2010-10-27 15:51:49,5282.6195081005735,2,39,0.5501165986061096,4.182655334472656,37.93995170944268,37.14169717178262,151.59902158489345,135.24544260485146,6.47544875391759e-05,0.0945633500814437,0,0,0
12629,440886.3043039984,2010-10-27 15:52:19,5312.634639182656,2,39,0.5499359965324402,4.186378479003906,37.94453813984001,37.14169717178262,151.6182134454824,135.24544260485146,9.70840483205393e-05,0.0945633500814437,0,0,0
12630,440916.3194714361,2010-10-27 15:52:49,5342.649806660446,2,39,0.5501165986061096,4.189939975738525,37.9491245617338,37.14169717178262,151.63742193913808,135.24544260485146,9.70840483205393e-05,0.0945633500814437,0,0,0
12631,440946.3345845034,2010-10-27 15:53:19,5372.6649197075785,2,39,0.5501165986061096,4.193663597106934,37.95371100464743,37.14169717178262,151.6566473561848,135.24544260485146,9.71794142969884e-05,0.0945633500814437,0,0,0
12632,440976.34973925934,2010-10-27 15:53:49,5402.680074443613,2,39,0.5501165986061096,4.197548389434815,37.9582973835565,37.14169717178262,151.67588940433714,135.24544260485146,0.0001295089750783,0.0945633500814437,0,0,0
12633,440997.75567897246,2010-10-27 15:54:10,5424.086014156821,2,39,0.550297200679779,4.200138568878174,37.9615682840752,37.14169717178262,151.689622697644,135.24544260485146,9.70840483205393e-05,0.0945633500814437,0,0,0
12634,441027.77743226686,2010-10-27 15:54:40,30.015070686557262,3,39,0.0,4.110777854919434,37.9615682840752,37.14169717178262,151.689622697644,135.24544260485146,-0.0004209518374409,0.0945633500814437,0,0,0
12635,441057.7925797799,2010-10-27 15:55:10,60.03021819958975,3,39,0.0,4.099769592285156,37.9615682840752,37.14169717178262,151.689622697644,135.24544260485146,-0.0002266883820993,0.0945633500814437,0,0,0
12636,441087.8077555383,2010-10-27 15:55:40,90.04539395801845,3,39,0.0,4.092970371246338,37.9615682840752,37.14169717178262,151.689622697644,135.24544260485146,-0.0001619339018361,0.0945633500814437,0,0,0
12637,441117.77600041055,2010-10-27 15:56:10,120.01363884026344,3,39,0.0,4.088761329650879,37.9615682840752,37.14169717178262,151.689622697644,135.24544260485146,-6.47544875391759e-05,0.0945633500814437,0,0,0
12638,441117.7846515991,2010-10-27 15:56:10,2.696721059e-06,4,39,0.9920675158500672,4.199814796447754,37.96156828481836,37.14169717178262,151.68962270076509,135.24544260485146,0.0,0.0945633500814437,0,0,0
12639,441118.7221536476,2010-10-27 15:56:11,0.937504855563096,4,39,0.9418581128120422,4.199976921081543,37.96181848559528,37.14169717178262,151.69067348588771,135.24544260485146,3.24249267578125e-05,0.0945633500814437,0,0,0
12640,441120.92519881896,2010-10-27 15:56:13,3.14055001696536,4,39,0.8914681673049927,4.199814796447754,37.96237817110248,37.14169717178262,151.69302403989604,135.24544260485146,0.0,0.0945633500814437,0,0,0
12641,441124.2220130946,2010-10-27 15:56:17,6.437364292544496,4,39,0.8414393663406372,4.199653148651123,37.963170432476055,37.14169717178262,151.69635135589306,135.24544260485146,0.0,0.0945633500814437,0,0,0
12642,441128.7688239413,2010-10-27 15:56:21,10.984175139193066,4,39,0.7912300229072571,4.199653148651123,37.96420004077372,37.14169717178262,151.70067549363966,135.24544260485146,-3.23295607813634e-05,0.0945633500814437,0,0,0
12643,441134.6907462085,2010-10-27 15:56:27,16.90609741663839,4,39,0.7412012219429016,4.199814796447754,37.96545857743694,37.14169717178262,151.70596107228283,135.24544260485146,0.0,0.0945633500814437,0,0,0
12644,441142.424865619,2010-10-27 15:56:35,24.64021681691292,4,39,0.6909918785095215,4.199653148651123,37.96699482518587,37.14169717178262,151.71241300554294,135.24544260485146,0.0,0.0945633500814437,0,0,0
12645,441152.79970171774,2010-10-27 15:56:45,35.01505291572843,4,39,0.640963077545166,4.199653148651123,37.96891086818496,37.14169717178262,151.7204599979801,135.24544260485146,0.0,0.0945633500814437,0,0,0
12646,441167.4557206665,2010-10-27 15:57:00,49.671071834418086,4,39,0.5907536745071411,4.199814796447754,37.97141234189395,37.14169717178262,151.7309656865855,135.24544260485146,-3.24249267578125e-05,0.0945633500814437,0,0,0
12647,441189.9554018149,2010-10-27 15:57:23,72.17075302291865,4,39,0.5407249331474304,4.199814796447754,37.97493709305633,37.14169717178262,151.7457689333091,135.24544260485146,0.0,0.0945633500814437,0,0,0
12648,441229.53285438434,2010-10-27 15:58:02,111.74820558237454,4,39,0.4906961619853973,4.199653148651123,37.98058008265523,37.14169717178262,151.7694683509701,135.24544260485146,-3.23295607813634e-05,0.0945633500814437,0,0,0
12649,441301.85988069343,2010-10-27 15:59:14,184.07523189140628,4,39,0.4406673908233642,4.199814796447754,37.98989537319828,37.14169717178262,151.80859070551233,135.24544260485146,0.0,0.0945633500814437,0,0,0
12650,441410.46756527614,2010-10-27 16:01:03,292.682916509223,4,39,0.3906386196613312,4.199653148651123,38.00240796559631,37.14169717178262,151.861141093694,135.24544260485146,0.0,0.0945633500814437,0,0,0
12651,441544.2466747949,2010-10-27 16:03:17,426.46202601290906,4,39,0.3406098484992981,4.199653148651123,38.01597720416903,37.14169717178262,151.91812920230808,135.24544260485146,-3.23295607813634e-05,0.0945633500814437,0,0,0
12652,441704.41598419176,2010-10-27 16:05:57,586.631335474953,4,39,0.290581077337265,4.199814796447754,38.03000090156073,37.14169717178262,151.97702591035204,135.24544260485146,-3.24249267578125e-05,0.0945633500814437,0,0,0
12653,441898.4910257607,2010-10-27 16:09:11,780.7063769587279,4,39,0.2405523210763931,4.199653148651123,38.044288512532994,37.14169717178262,152.03703102725856,135.24544260485146,0.0,0.0945633500814437,0,0,0
12654,442137.6903617909,2010-10-27 16:13:10,1019.9057129889108,4,39,0.19052354991436,4.199653148651123,38.058562171939386,37.14169717178262,152.09697752964954,135.24544260485146,-3.23295607813634e-05,0.0945633500814437,0,0,0
12655,442456.3883882137,2010-10-27 16:18:29,1338.6037394116877,4,39,0.1404947787523269,4.199653148651123,38.07311511800116,37.14169717178262,152.15809705388892,135.24544260485146,-3.23295607813634e-05,0.0945633500814437,0,0,0
12656,442937.02140185575,2010-10-27 16:26:30,1819.23675304374,4,39,0.0904660075902938,4.199653148651123,38.08830579738891,37.14169717178262,152.2218950101708,135.24544260485146,-3.23295607813634e-05,0.0945633500814437,0,0,0
12657,443663.1192679077,2010-10-27 16:38:36,2545.3346191157198,4,39,0.0498289167881011,4.199653148651123,38.10203676956788,37.14169717178262,152.27956215511554,135.24544260485146,-3.23295607813634e-05,0.0945633500814437,0,0,0
12658,443693.1208282159,2010-10-27 16:39:06,30.01505641097813,5,39,0.0,4.191558837890625,38.10203676956788,37.14169717178262,152.27956215511554,135.24544260485146,0.0,0.0945633500814437,0,0,0
12659,443723.1202849778,2010-10-27 16:39:36,60.014513132730805,5,39,0.0,4.190263748168945,38.10203676956788,37.14169717178262,152.27956215511554,135.24544260485146,-3.24249267578125e-05,0.0945633500814437,0,0,0
12660,443723.3109610002,2010-10-27 16:39:36,0.187502584132762,6,39,-1.9243103452026844e-05,4.190263748168945,38.10203676956788,37.14169717278487,152.27956215511554,135.2454426090512,0.0,0.0978845432400703,0,0,0
12661,443728.1390787604,2010-10-27 16:39:41,5.015620354190444,6,39,0.0012450218200683,4.190263748168945,38.102037711283394,37.14169717286944,152.2795661011771,135.24544260940553,0.0,0.0978845432400703,0,0,0
12662,443758.14131307154,2010-10-27 16:40:11,30.014720809556124,7,39,-1.099568486213684,4.004580974578857,38.102037711283394,37.15086449764621,152.2795661011771,135.28236125174269,-0.0009713172912597,0.0978845432400703,0,0,0
12663,443788.15641426406,2010-10-27 16:40:41,60.02982191191894,7,39,-1.0997490882873535,3.9756033420562735,38.102037711283394,37.16003194985969,152.2795661011771,135.31893118502785,-0.0006475448608398,0.0978845432400703,0,0,0
12664,443818.1715539526,2010-10-27 16:41:11,90.04496169067522,7,39,-1.0993878841400146,3.9555294513702393,38.102037711283394,37.1691992681852,152.2795661011771,135.3552799352399,-0.0004532813909463,0.0978845432400703,0,0,0
12665,443848.1867635254,2010-10-27 16:41:41,120.06017127340448,7,39,-1.099568486213684,3.939988374710083,38.102037711283394,37.1783665597073,152.2795661011771,135.39146625462178,-0.0003237724304199,0.0978845432400703,0,0,0
12666,443878.2018756954,2010-10-27 16:42:11,150.0752834634011,7,39,-1.0993878841400146,3.926875591278076,38.102037711283394,37.18753388119623,152.2795661011771,135.42752230009478,-0.0002590179501567,0.0978845432400703,0,0,0
12667,443908.2170146521,2010-10-27 16:42:41,180.09042242512106,7,39,-1.099568486213684,3.915381669998169,38.102037711283394,37.19670122953087,152.2795661011771,135.46346726151,-0.0002913951757363,0.0978845432400703,0,0,0
12668,443938.23215346347,2010-10-27 16:43:11,210.10556117130383,7,39,-1.0997490882873535,3.905021190643311,38.102037711283394,37.20586854388563,152.2795661011771,135.49931318374126,-0.0002590179501567,0.0978845432400703,0,0,0
12669,443968.2473664596,2010-10-27 16:43:41,240.1207742477405,7,39,-1.0997490882873535,3.895308017730713,38.102037711283394,37.21503591496947,152.2795661011771,135.53506731442846,-0.0002590179501567,0.0978845432400703,0,0,0
12670,443998.2624304996,2010-10-27 16:44:11,270.13583824763253,7,39,-1.0997490882873535,3.886242389678955,38.102037711283394,37.22420318606082,152.2795661011771,135.5707347130588,-0.0002266406954731,0.0978845432400703,0,0,0
12671,444028.2780460592,2010-10-27 16:44:41,300.151453807181,7,39,-1.099568486213684,3.8773386478424072,38.102037711283394,37.2333706482468,152.2795661011771,135.6063197541408,-0.0002266406954731,0.0978845432400703,0,0,0
12672,444058.29277576087,2010-10-27 16:45:11,330.16618349887415,7,39,-1.099568486213684,3.8687586784362793,38.102037711283394,37.24253784214775,152.2795661011771,135.6418244239905,-0.0002266406954731,0.0978845432400703,0,0,0
12673,444088.3078745074,2010-10-27 16:45:41,360.18128219022793,7,39,-1.099568486213684,3.860340595245361,38.102037711283394,37.25170524011761,152.2795661011771,135.67725172765475,-0.0002266406954731,0.0978845432400703,0,0,0
12674,444118.323071985,2010-10-27 16:46:11,390.1964797329498,7,39,-1.099568486213684,3.8519225120544434,38.102037711283394,37.260872587269326,152.2795661011771,135.71260211733045,-0.0002266406954731,0.0978845432400703,0,0,0
12675,444148.3381689119,2010-10-27 16:46:41,420.2115766198063,7,39,-1.099568486213684,3.843828201293945,38.102037711283394,37.27003996209599,152.2795661011771,135.74787759434378,-0.0001942634553415,0.0978845432400703,0,0,0
12676,444178.353521892,2010-10-27 16:47:11,450.2269296400259,7,39,-1.0997490882873535,3.8357338905334473,38.102037711283394,37.27920738637364,152.2795661011771,135.78307940453763,-0.0002590179501567,0.0978845432400703,0,0,0
12677,444208.3684976219,2010-10-27 16:47:41,480.24190536992194,7,39,-1.0993878841400146,3.828125476837158,38.102037711283394,37.28837468220756,152.2795661011771,135.81820812509832,-0.0001942634553415,0.0978845432400703,0,0,0
12678,444238.3836219572,2010-10-27 16:48:11,510.2570296951633,7,39,-1.0993878841400146,3.82019305229187,38.102037711283394,37.297542032856,152.2795661011771,135.8532650131016,-0.0001942634553415,0.0978845432400703,0,0,0
12679,444268.3987673199,2010-10-27 16:48:41,540.2721750778865,7,39,-1.099568486213684,3.812746286392212,38.102037711283394,37.30670941098254,152.2795661011771,135.8882521459284,-0.0001942634553415,0.0978845432400703,0,0,0
12680,444298.41399529343,2010-10-27 16:49:11,570.2874030715013,7,39,-1.099568486213684,3.8052995204925537,38.102037711283394,37.31587677299928,152.2795661011771,135.92316958197895,-0.0001942634553415,0.0978845432400703,0,0,0
12681,444328.42906555394,2010-10-27 16:49:41,600.3024733269842,7,39,-1.099568486213684,3.797852754592896,38.102037711283394,37.32504410763408,152.2795661011771,135.95801898385517,-0.0001942634553415,0.0978845432400703,0,0,0
12682,444358.4442135632,2010-10-27 16:50:11,630.317621301166,7,39,-1.099568486213684,3.7905678749084473,38.102037711283394,37.33421146672992,152.2795661011771,135.99280218966322,-0.0001942634553415,0.0978845432400703,0,0,0
12683,444388.4594006949,2010-10-27 16:50:41,660.3328084429655,7,39,-1.099568486213684,3.783768653869629,38.102037711283394,37.34337883179524,152.2795661011771,136.0275201778229,-0.0001618862152099,0.0978845432400703,0,0,0
12684,444418.4786012694,2010-10-27 16:51:11,690.3520090525617,7,39,-1.0993878841400146,3.7768075466156006,38.102037711283394,37.35254741745759,152.2795661011771,136.06217920895244,-0.0001942634553415,0.0978845432400703,0,0,0
12685,444448.4897017109,2010-10-27 16:51:41,720.3631094589592,7,39,-1.099568486213684,3.7700083255767822,38.102037711283394,37.36171356329612,152.2795661011771,136.0967662570489,-0.0001618862152099,0.0978845432400703,0,0,0
12686,444478.5048698203,2010-10-27 16:52:11,750.378277598399,7,39,-1.0993878841400146,3.763370990753174,38.102037711283394,37.37088089049314,152.2795661011771,136.13129650403303,-0.0001295089750783,0.0978845432400703,0,0,0
12687,444508.51996134885,2010-10-27 16:52:41,780.3933691118633,7,39,-1.099568486213684,3.756895542144776,38.102037711283394,37.38004823009073,152.2795661011771,136.16576679263483,-0.0001618862152099,0.0978845432400703,0,0,0
12688,444538.53516724735,2010-10-27 16:53:11,810.408574995373,7,39,-1.099568486213684,3.750420331954956,38.102037711283394,37.3892156615696,152.2795661011771,136.20017865134312,-0.0001942634553415,0.0978845432400703,0,0,0
12689,444568.5502593674,2010-10-27 16:53:42,840.4236670501865,7,39,-1.0997490882873535,3.744430541992188,38.102037711283394,37.39838297822635,152.2795661011771,136.2345327393957,-0.0001618862152099,0.0978845432400703,0,0,0
12690,444598.56545543147,2010-10-27 16:54:12,870.4388630841481,7,39,-1.0997490882873535,3.738440752029419,38.102037711283394,37.407550385247234,152.2795661011771,136.26883223758767,-0.0001618862152099,0.0978845432400703,0,0,0
12691,444628.5805635512,2010-10-27 16:54:42,900.4539712992381,7,39,-1.0993878841400146,3.732612848281861,38.102037711283394,37.41671781771928,152.2795661011771,136.30307752732142,-0.0001942634553415,0.0978845432400703,0,0,0
12692,444658.5957342471,2010-10-27 16:55:12,930.4691419850242,7,39,-1.0993878841400146,3.726946830749512,38.102037711283394,37.42588518966003,152.2795661011771,136.33726989500553,-0.0001295089750783,0.0978845432400703,0,0,0
12693,444688.6108669432,2010-10-27 16:55:42,960.4842746911532,7,39,-1.099929690361023,3.721118927001953,38.102037711283394,37.4350525586213,152.2795661011771,136.3714109482758,-0.0002266406954731,0.0978845432400703,0,0,0
12694,444718.626008341,2010-10-27 16:56:12,990.499416124032,7,39,-1.0993878841400146,3.7156147956848153,38.102037711283394,37.4442199700346,152.2795661011771,136.40550028090544,-0.0001618862152099,0.0978845432400703,0,0,0
12695,444748.64116985386,2010-10-27 16:56:42,1020.5145775918444,7,39,-1.099568486213684,3.710110664367676,38.102037711283394,37.45338745618029,152.2795661011771,136.4395383097772,-0.0001295089750783,0.0978845432400703,0,0,0
12696,444778.65636173246,2010-10-27 16:57:12,1050.5297694955118,7,39,-1.099568486213684,3.704606533050537,38.102037711283394,37.46255492688053,152.2795661011771,136.47352570871425,-0.0001295089750783,0.0978845432400703,0,0,0
12697,444808.6714847996,2010-10-27 16:57:42,1080.5448925475805,7,39,-1.099568486213684,3.6991024017333984,38.102037711283394,37.47172237455512,152.2795661011771,136.50746265139486,-0.0001618862152099,0.0978845432400703,0,0,0
12698,444838.68663688906,2010-10-27 16:58:12,1110.5600446470432,7,39,-1.099568486213684,3.69343638420105,38.102037711283394,37.48088980997301,152.2795661011771,136.5413499102261,-0.0001942634553415,0.0978845432400703,0,0,0
12699,444868.7017663871,2010-10-27 16:58:42,1140.5751741351523,7,39,-1.0992072820663452,3.688417911529541,38.102037711283394,37.490057179242,152.2795661011771,136.5751876744404,-0.0001295089750783,0.0978845432400703,0,0,0
12700,444898.71693963936,2010-10-27 16:59:12,1170.5903472971097,7,39,-1.0993878841400146,3.6832375526428223,38.102037711283394,37.49922455110332,152.2795661011771,136.6089771056569,-0.0001295089750783,0.0978845432400703,0,0,0
12701,444928.7321234127,2010-10-27 16:59:42,1200.605531190814,7,39,-1.099568486213684,3.678057193756104,38.102037711283394,37.50839195619822,152.2795661011771,136.64271878325886,-0.0001295089750783,0.0978845432400703,0,0,0
12702,444958.74719080114,2010-10-27 17:00:12,1230.620598483914,7,39,-1.099568486213684,3.6728768348693848,38.102037711283394,37.51755929707962,152.2795661011771,136.67641257650274,-9.713172767078504e-05,0.0978845432400703,0,0,0
12703,444988.76234178274,2010-10-27 17:00:42,1260.635749555816,7,39,-1.0992072820663452,3.668020486831665,38.102037711283394,37.52672670009295,152.2795661011771,136.71005959377177,-9.713172767078504e-05,0.0978845432400703,0,0,0
12704,445018.7775039272,2010-10-27 17:01:12,1290.6509116802647,7,39,-1.099568486213684,3.6628401279449454,38.102037711283394,37.535894090401406,152.2795661011771,136.7436623195835,-0.0001295089750783,0.0978845432400703,0,0,0
12705,445048.7926761519,2010-10-27 17:01:42,1320.6660840001234,7,39,-1.099568486213684,3.6581454277038574,38.102037711283394,37.54506156748477,152.2795661011771,136.77722107297,-0.0001618862152099,0.0978845432400703,0,0,0
12706,445078.8078230534,2010-10-27 17:02:12,1350.6812308264446,7,39,-1.099568486213684,3.653288841247559,38.102037711283394,37.55422894264045,152.2795661011771,136.81073548474373,-0.0001618862152099,0.0978845432400703,0,0,0
12707,445108.8229729925,2010-10-27 17:02:42,1380.6963807655234,7,39,-1.099568486213684,3.6485941410064697,38.102037711283394,37.5633963783294,152.2795661011771,136.84420649882253,-0.0001618862152099,0.0978845432400703,0,0,0
12708,445138.8381577082,2010-10-27 17:03:12,1410.711565456214,7,39,-1.099568486213684,3.644061326980591,38.102037711283394,37.572563721997966,152.2795661011771,136.87763400212836,-0.0001295089750783,0.0978845432400703,0,0,0
12709,445168.8533124893,2010-10-27 17:03:42,1440.726720217311,7,39,-1.099568486213684,3.639204740524292,38.102037711283394,37.58173107480208,152.2795661011771,136.91101897903764,-0.0001942634553415,0.0978845432400703,0,0,0
12710,445198.8684324938,2010-10-27 17:04:12,1470.7418402518583,7,39,-1.099568486213684,3.634995698928833,38.102037711283394,37.59089837843992,152.2795661011771,136.94436226114277,-0.0001295089750783,0.0978845432400703,0,0,0
12711,445228.88360947033,2010-10-27 17:04:42,1500.7570172182975,7,39,-1.0993878841400146,3.630462884902954,38.102037711283394,37.60006574460383,152.2795661011771,136.97766501588018,-0.0001618862152099,0.0978845432400703,0,0,0
12712,445258.89874932927,2010-10-27 17:05:12,1530.7721569920418,7,39,-1.0992072820663452,3.626253843307495,38.102037711283394,37.60923313415906,152.2795661011771,137.0109274818201,-6.47544875391759e-05,0.0978845432400703,0,0,0
12713,445288.91387252166,2010-10-27 17:05:42,1560.7872802696722,7,39,-1.099568486213684,3.621882915496826,38.102037711283394,37.61840041540272,152.2795661011771,137.04414993325068,-0.0001295089750783,0.0978845432400703,0,0,0
12714,445318.9290303103,2010-10-27 17:06:12,1590.8024380583147,7,39,-1.099568486213684,3.617511987686157,38.102037711283394,37.62756785041245,152.2795661011771,137.07733398660545,-0.0001618862152099,0.0978845432400703,0,0,0
12715,445348.9441837431,2010-10-27 17:06:42,1620.817591501126,7,39,-1.0997490882873535,3.613464832305908,38.102037711283394,37.63673524412047,152.2795661011771,137.11047982701544,-0.0001618862152099,0.0978845432400703,0,0,0
12716,445378.963857918,2010-10-27 17:07:12,1650.8372657010548,7,39,-1.099568486213684,3.609579563140869,38.102037711283394,37.645904014143085,152.2795661011771,137.1435937604769,-9.713172767078504e-05,0.0978845432400703,0,0,0
12717,445408.9745483776,2010-10-27 17:07:42,1680.847956135677,7,39,-1.099568486213684,3.60569429397583,38.102037711283394,37.65507008071136,152.2795661011771,137.17666181158168,-0.0001295089750783,0.0978845432400703,0,0,0
12718,445438.9896539712,2010-10-27 17:08:12,1710.8630617192075,7,39,-1.099568486213684,3.601809024810791,38.102037711283394,37.66423739015252,152.2795661011771,137.2096985513366,-6.47544875391759e-05,0.0978845432400703,0,0,0
12719,445469.00477947947,2010-10-27 17:08:42,1740.8781872173724,7,39,-1.099568486213684,3.598085641860962,38.102037711283394,37.67340473808182,152.2795661011771,137.24270012463555,-9.713172767078504e-05,0.0978845432400703,0,0,0
12720,445499.01996514754,2010-10-27 17:09:12,1770.8933728654492,7,39,-1.099568486213684,3.594200372695923,38.102037711283394,37.68257209168263,152.2795661011771,137.27566766045973,-0.0001295089750783,0.0978845432400703,0,0,0
12721,445529.03507766325,2010-10-27 17:09:42,1800.908485421358,7,39,-1.099568486213684,3.590639114379883,38.102037711283394,37.69173947106421,152.2795661011771,137.30860153571058,-9.713172767078504e-05,0.0978845432400703,0,0,0
12722,445559.0502220987,2010-10-27 17:10:12,1830.92362983667,7,39,-1.0992072820663452,3.587077617645264,38.102037711283394,37.70090686718408,152.2795661011771,137.34150229776355,-9.713172767078504e-05,0.0978845432400703,0,0,0
12723,445589.0654277917,2010-10-27 17:10:42,1860.938835549755,7,39,-1.0993878841400146,3.5836780071258545,38.102037711283394,37.71007424469652,152.2795661011771,137.3743709381067,-9.713172767078504e-05,0.0978845432400703,0,0,0
12724,445619.08053387154,2010-10-27 17:11:12,1890.953941629523,7,39,-1.099568486213684,3.580116510391236,38.102037711283394,37.7192415924296,152.2795661011771,137.40720764831667,-9.713172767078504e-05,0.0978845432400703,0,0,0
12725,445649.0959430867,2010-10-27 17:11:42,1920.9693508598352,7,39,-1.0993878841400146,3.576878786087036,38.102037711283394,37.72840900809073,152.2795661011771,137.4400128817658,-6.47544875391759e-05,0.0978845432400703,0,0,0
12726,445679.1109030373,2010-10-27 17:12:12,1950.984310785342,7,39,-1.099568486213684,3.573317289352417,38.102037711283394,37.737576295271374,152.2795661011771,137.47278692438195,-9.713172767078504e-05,0.0978845432400703,0,0,0
12727,445709.1259662202,2010-10-27 17:12:42,1980.9993739681977,7,39,-1.099568486213684,3.570241451263428,38.102037711283394,37.746743569735365,152.2795661011771,137.50553068124714,-6.47544875391759e-05,0.0978845432400703,0,0,0
12728,445739.14129674935,2010-10-27 17:13:12,2011.0147045374624,7,39,-1.099568486213684,3.5668418407440186,38.102037711283394,37.75591096819787,152.2795661011771,137.53824463646103,-9.713172767078504e-05,0.0978845432400703,0,0,0
12729,445769.1563096469,2010-10-27 17:13:42,2041.0297174199543,7,39,-1.0993878841400146,3.5634422302246094,38.102037711283394,37.76507830299503,152.2795661011771,137.5709282906387,-0.0001295089750783,0.0978845432400703,0,0,0
12730,445799.1715792191,2010-10-27 17:14:12,2071.044986987183,7,39,-1.0993878841400146,3.56052827835083,38.102037711283394,37.77424566523824,152.2795661011771,137.60358306592755,-6.47544875391759e-05,0.0978845432400703,0,0,0
12731,445829.18655734,2010-10-27 17:14:42,2101.0599650879885,7,39,-1.0993878841400146,3.557452440261841,38.102037711283394,37.783412999808256,152.2795661011771,137.63620926547455,-9.713172767078504e-05,0.0978845432400703,0,0,0
12732,445859.2017500256,2010-10-27 17:15:12,2131.075157673355,7,39,-1.0993878841400146,3.554376602172852,38.102037711283394,37.792580391231866,152.2795661011771,137.6688068533101,-6.47544875391759e-05,0.0978845432400703,0,0,0
12733,445889.2168553886,2010-10-27 17:15:42,2161.0902631365866,7,39,-1.0993878841400146,3.5511388778686523,38.102037711283394,37.80174770041093,152.2795661011771,137.70137533633854,-0.0001295089750783,0.0978845432400703,0,0,0
12734,445919.23201818974,2010-10-27 17:16:12,2191.105425947747,7,39,-1.0993878841400146,3.547901153564453,38.102037711283394,37.81091502412601,152.2795661011771,137.73391522297632,-9.713172767078504e-05,0.0978845432400703,0,0,0
12735,445949.2322200636,2010-10-27 17:16:42,2221.105627811623,7,39,-1.0993878841400146,3.544825315475464,38.102037711283394,37.82007784931254,152.2795661011771,137.76641038722784,-6.47544875391759e-05,0.0978845432400703,0,0,0
12736,445979.2471424255,2010-10-27 17:17:12,2251.1205501835343,7,39,-1.099568486213684,3.5415875911712646,38.102037711283394,37.82924514627626,152.2795661011771,137.7988921852376,-9.713172767078504e-05,0.0978845432400703,0,0,0
12737,446009.2618683578,2010-10-27 17:17:42,2281.135276105833,7,39,-1.0997490882873535,3.538349866867065,38.102037711283394,37.8384124722008,152.2795661011771,137.83134491583868,-6.47544875391759e-05,0.0978845432400703,0,0,0
12738,446039.27697586606,2010-10-27 17:18:12,2311.150383614161,7,39,-1.0993878841400146,3.535274028778076,38.102037711283394,37.84757993126127,152.2795661011771,137.8637688512678,-6.47544875391759e-05,0.0978845432400703,0,0,0
12739,446069.292127725,2010-10-27 17:18:42,2341.1655355081125,7,39,-1.0997490882873535,3.531874418258667,38.102037711283394,37.856747358934456,152.2795661011771,137.89616328070892,-9.713172767078504e-05,0.0978845432400703,0,0,0
12740,446099.307270802,2010-10-27 17:19:12,2371.1806785500016,7,39,-1.099568486213684,3.528636693954468,38.102037711283394,37.86591475257162,152.2795661011771,137.92852811850426,-9.713172767078504e-05,0.0978845432400703,0,0,0
12741,446129.3225821784,2010-10-27 17:19:42,2401.195989926432,7,39,-1.099568486213684,3.525398969650269,38.102037711283394,37.87508207148283,152.2795661011771,137.96086270691475,-9.713172767078504e-05,0.0978845432400703,0,0,0
12742,446159.3375768405,2010-10-27 17:20:12,2431.210984518338,7,39,-1.099568486213684,3.52199935913086,38.102037711283394,37.88424862827053,152.2795661011771,137.99316433848747,-0.0001295089750783,0.0978845432400703,0,0,0
12743,446189.3526970204,2010-10-27 17:20:42,2461.226104768423,7,39,-1.0997490882873535,3.51876163482666,38.102037711283394,37.89341548855754,152.2795661011771,138.02543588069724,-9.713172767078504e-05,0.0978845432400703,0,0,0
12744,446219.36789783125,2010-10-27 17:21:12,2491.241305669515,7,39,-1.099568486213684,3.515200138092041,38.102037711283394,37.90258285913636,152.2795661011771,138.05767657820573,-6.47544875391759e-05,0.0978845432400703,0,0,0
12745,446249.383066091,2010-10-27 17:21:42,2521.2564738390297,7,39,-1.099568486213684,3.511315107345581,38.102037711283394,37.91175028453223,152.2795661011771,138.08988357276212,-9.70840483205393e-05,0.0978845432400703,0,0,0
12746,446279.3981920905,2010-10-27 17:22:12,2551.271599838444,7,39,-1.099568486213684,3.507591724395752,38.102037711283394,37.92091768093322,152.2795661011771,138.12205570604235,-6.47544875391759e-05,0.0978845432400703,0,0,0
12747,446309.41337162326,2010-10-27 17:22:42,2581.286779311129,7,39,-1.0993878841400146,3.503220796585083,38.102037711283394,37.930085101938,152.2795661011771,138.1541909430575,-0.0001295089750783,0.0978845432400703,0,0,0
12748,446339.4284924298,2010-10-27 17:23:12,2611.3019001777507,7,39,-1.0993878841400146,3.498849868774414,38.102037711283394,37.93925244676192,152.2795661011771,138.18628695261287,-0.0001618862152099,0.0978845432400703,0,0,0
12749,446369.4479134588,2010-10-27 17:23:42,2641.3213212417872,7,39,-1.0993878841400146,3.494155168533325,38.102037711283394,37.94842120582068,152.2795661011771,138.21834664225193,-0.0001618862152099,0.0978845432400703,0,0,0
12750,446399.45880471886,2010-10-27 17:24:12,2671.3322124768656,7,39,-1.099568486213684,3.4892985820770264,38.102037711283394,37.957587295185306,152.2795661011771,138.25035256181073,-0.0001295089750783,0.0978845432400703,0,0,0
12751,446429.4739618008,2010-10-27 17:24:42,2701.3473694584964,7,39,-1.0993878841400146,3.483794450759888,38.102037711283394,37.96675470237392,152.2795661011771,138.28231569695794,-0.0001618862152099,0.0978845432400703,0,0,0
12752,446459.4890743115,2010-10-27 17:25:12,2731.3624820595173,7,39,-1.099568486213684,3.477804660797119,38.102037711283394,37.97592204621999,152.2795661011771,138.31422582824507,-0.0001618862152099,0.0978845432400703,0,0,0
12753,446489.5042656638,2010-10-27 17:25:42,2761.377673411811,7,39,-1.099568486213684,3.471005439758301,38.102037711283394,37.98508947188089,152.2795661011771,138.3460775709658,-0.0001942634553415,0.0978845432400703,0,0,0
12754,446519.51937327744,2010-10-27 17:26:13,2791.3927810254017,7,39,-1.0993878841400146,3.4635586738586426,38.102037711283394,37.99425677879755,152.2795661011771,138.37786401797536,-0.0002266406954731,0.0978845432400703,0,0,0
12755,446549.5346874859,2010-10-27 17:26:43,2821.408095233891,7,39,-1.0993878841400146,3.4548168182373047,38.102037711283394,38.00342419156605,152.2795661011771,138.4095768887977,-0.0002590179501567,0.0978845432400703,0,0,0
12756,446579.5497923677,2010-10-27 17:27:13,2851.4232000104107,7,39,-1.0993878841400146,3.444941759109497,38.102037711283394,38.01259158227825,152.2795661011771,138.44120452882976,-0.0002913951757363,0.0978845432400703,0,0,0
12757,446609.5648442524,2010-10-27 17:27:43,2881.4382519151577,7,39,-1.0992072820663452,3.43344783782959,38.102037711283394,38.02175897305532,152.2795661011771,138.47273382392825,-0.0003237724304199,0.0978845432400703,0,0,0
12758,446639.580022888,2010-10-27 17:28:13,2911.4534306359697,7,39,-1.0993878841400146,3.4195258617401123,38.102037711283394,38.03092638037086,152.2795661011771,138.50414710869526,-0.0004209041653666,0.0978845432400703,0,0,0
12759,446669.5951307973,2010-10-27 17:28:43,2941.4685385553225,7,39,-1.099568486213684,3.4026896953582764,38.102037711283394,38.04009375488029,152.2795661011771,138.53542071029597,-0.0004856586456298,0.0978845432400703,0,0,0
12760,446699.61027764366,2010-10-27 17:29:13,2971.4836853916686,7,39,-1.099568486213684,3.381644487380981,38.102037711283394,38.0492611474378,152.2795661011771,138.5665228900434,-0.0006475448608398,0.0978845432400703,0,0,0
12761,446729.6254458733,2010-10-27 17:29:43,3001.498853621333,7,39,-1.099568486213684,3.355095148086548,38.102037711283394,38.05842854958349,152.2795661011771,138.59740790336798,-0.0008094310760498,0.0978845432400703,0,0,0
12762,446759.64057410834,2010-10-27 17:30:13,3031.513981856319,7,39,-1.099568486213684,3.3198041915893555,38.102037711283394,38.067595969279004,152.2795661011771,138.6280123272053,-0.0011008263099938,0.0978845432400703,0,0,0
12763,446789.65576514986,2010-10-27 17:30:43,3061.529172907862,7,39,-1.0992072820663452,3.272209644317627,38.102037711283394,38.076763323397785,152.2795661011771,138.6582395731699,-0.0014245987404137,0.0978845432400703,0,0,0
12764,446819.6708763173,2010-10-27 17:31:13,3091.5442840753108,7,39,-1.099568486213684,3.2048652172088623,38.102037711283394,38.085930710228624,152.2795661011771,138.68794642050767,-0.0021368979942053,0.0978845432400703,0,0,0
12765,446849.6860711733,2010-10-27 17:31:43,3121.559478921311,7,39,-1.0993878841400146,3.1049818992614746,38.102037711283394,38.09509809473224,152.2795661011771,138.71690124243617,-0.0032052993774414,0.0978845432400703,0,0,0
12766,446879.7012344106,2010-10-27 17:32:13,3151.5746421685585,7,39,-1.099568486213684,2.929821491241455,38.102037711283394,38.10426551096159,152.2795661011771,138.7446603245131,-0.0064106462523341,0.0978845432400703,0,0,0
12767,446898.076111488,2010-10-27 17:32:31,3169.949519256069,7,39,-1.099568486213684,2.729568719863892,38.102037711283394,38.10987770246171,152.2795661011771,138.76058232146045,-0.0103283403441309,0.0978845432400703,0,0,0
12768,446900.3258779633,2010-10-27 17:32:33,3172.1992857113114,7,39,-1.099568486213684,2.699943780899048,38.102037711283394,38.11056483731805,152.2795661011771,138.76244785146187,-0.0104901790618896,0.0978845432400703,0,0,0
12769,446960.32736400847,2010-10-27 17:33:33,60.01059478199512,8,39,0.0,3.362380027770996,38.102037711283394,38.11056483731805,152.2795661011771,138.76244785146187,0.0013274669181555,0.0978845432400703,0,0,0
12770,446960.5066709925,2010-10-27 17:33:34,0.187461591967673,9,39,-1.9243103452026844e-05,3.362703800201416,38.102037711283394,38.11056483832008,152.2795661011771,138.76244785483144,0.0,0.0939245000481605,0,0,0
12771,446965.3347894042,2010-10-27 17:33:39,5.01557998858694,9,39,0.0003419754502829,3.370636224746704,38.10203860302296,38.11056483848703,152.27956910394624,138.76244785539288,0.0011332035064697,0.0939245000481605,0,0,0
