Data_Point,Test_Time(s),Date_Time,Step_Time(s),Step_Index,Cycle_Index,Current(A),Voltage(V),Charge_Capacity(Ah),Discharge_Capacity(Ah),Charge_Energy(Wh),Discharge_Energy(Wh),dV/dt(V/s),Internal_Resistance(Ohm),Is_FC_Data,AC_Impedance(Ohm),ACI_Phase_Angle(Deg)
14079,493066.1906206477,2010-10-28 06:22:05,30.015252249066904,1,44,0.0,3.4010708332061768,42.00858287049322,42.01757581120292,167.89245965384555,152.99456311605718,0.0008094310760498,0.0924721807241439,0,0,0
14080,493096.2213964411,2010-10-28 06:22:35,60.04602801752059,1,44,0.0,3.425029993057251,42.00858287049322,42.01757581120292,167.89245965384555,152.99456311605718,0.0006151676061563,0.0924721807241439,0,0,0
14081,493126.2362879712,2010-10-28 06:23:05,90.0609195475647,1,44,0.0,3.4431610107421875,42.00858287049322,42.01757581120292,167.89245965384555,152.99456311605718,0.0004856586456298,0.0924721807241439,0,0,0
14082,493156.1892958532,2010-10-28 06:23:35,120.01392742951664,1,44,0.0,3.457406997680664,42.00858287049322,42.01757581120292,167.89245965384555,152.99456311605718,0.0003561496851034,0.0924721807241439,0,0,0
14083,493186.2084562907,2010-10-28 06:24:06,30.015013288503656,2,44,0.550297200679779,3.615083694458008,42.01317005454187,42.01757581120292,167.90888312590022,152.99456311605718,0.0017807483673095,0.0924721807241439,0,0,0
14084,493216.2236830062,2010-10-28 06:24:36,60.03024001897035,2,44,0.5501165986061096,3.6615450382232666,42.017757266302205,42.01757581120292,167.92557955525248,152.99456311605718,0.0011979580158367,0.0924721807241439,0,0,0
14085,493246.23871407897,2010-10-28 06:25:06,90.04527108177304,2,44,0.550297200679779,3.695055246353149,42.02233969604508,42.01757581120292,167.94243876876803,152.99456311605718,0.0009065627818927,0.0924721807241439,0,0,0
14086,493276.2539812953,2010-10-28 06:25:36,120.06053829313056,2,44,0.5501165986061096,3.721118927001953,42.02693162453476,42.01757581120292,167.95946843860503,152.99456311605718,0.0006799221155233,0.0924721807241439,0,0,0
14087,493306.2691317157,2010-10-28 06:26:06,150.0756887134088,2,44,0.550297200679779,3.742326021194458,42.03151876984747,42.01757581120292,167.97658843858093,152.99456311605718,0.0005827903514727,0.0924721807241439,0,0,0
14088,493336.2842841158,2010-10-28 06:26:36,180.09084111863413,2,44,0.5504778623580933,3.7598094940185542,42.0361059397109,42.01757581120292,167.99379684778333,152.99456311605718,0.0004856586456298,0.0924721807241439,0,0,0
14089,493366.29940909776,2010-10-28 06:27:06,210.10596609549955,2,44,0.5501165986061096,3.772112846374512,42.04069313725086,42.01757581120292,168.01107385817647,152.99456311605718,0.0003237724304199,0.0924721807241439,0,0,0
14090,493396.3144583609,2010-10-28 06:27:36,240.12101535866316,2,44,0.550297200679779,3.77972149848938,42.04527787799574,42.01757581120292,168.02838692876017,152.99456311605718,0.0001942634553415,0.0924721807241439,0,0,0
14091,493426.3298028599,2010-10-28 06:28:06,270.1363598676702,2,44,0.550297200679779,3.7847399711608887,42.04986742519581,42.01757581120292,168.04574608815238,152.99456311605718,0.0001618862152099,0.0924721807241439,0,0,0
14092,493456.3449063282,2010-10-28 06:28:36,300.15146333091707,2,44,0.5501165986061096,3.788949012756348,42.05445213243822,42.01757581120292,168.06310739968194,152.99456311605718,0.0001295089750783,0.0924721807241439,0,0,0
14093,493486.3599500575,2010-10-28 06:29:06,330.1665070602887,2,44,0.550297200679779,3.7928342819213863,42.05903933284156,42.01757581120292,168.08049648719026,152.99456311605718,0.0001295089750783,0.0924721807241439,0,0,0
14094,493516.3752304417,2010-10-28 06:29:36,360.18178744948955,2,44,0.5501165986061096,3.796557664871216,42.06362885186179,42.01757581120292,168.09791206348146,152.99456311605718,0.0001295089750783,0.0924721807241439,0,0,0
14095,493546.3902995944,2010-10-28 06:30:06,390.196856592199,2,44,0.5501165986061096,3.800119161605835,42.06821596661504,42.01757581120292,168.11533567714093,152.99456311605718,9.713172767078504e-05,0.0924721807241439,0,0,0
14096,493576.4055067511,2010-10-28 06:30:36,420.2120637739443,2,44,0.5501165986061096,3.804004430770874,42.07280317665254,42.01757581120292,168.1327766669836,152.99456311605718,0.0001295089750783,0.0924721807241439,0,0,0
14097,493606.4206631112,2010-10-28 06:31:06,450.2272201089638,2,44,0.5501165986061096,3.807404041290283,42.07739040938286,42.01757581120292,168.1502343238119,152.99456311605718,9.713172767078504e-05,0.0924721807241439,0,0,0
14098,493636.4358024288,2010-10-28 06:31:36,480.24235939649583,2,44,0.550297200679779,3.811127424240112,42.081977624233815,42.01757581120292,168.1677081953268,152.99456311605718,0.0001295089750783,0.0924721807241439,0,0,0
14099,493666.4510309237,2010-10-28 06:32:06,510.25758792644746,2,44,0.5501165986061096,3.8145270347595215,42.08656479186582,42.01757581120292,168.1851979470796,152.99456311605718,6.47544875391759e-05,0.0924721807241439,0,0,0
14100,493696.4662282859,2010-10-28 06:32:36,540.2727854641568,2,44,0.5504778623580933,3.81792664527893,42.091151968551415,42.01757581120292,168.20270351694103,152.99456311605718,0.0001295089750783,0.0924721807241439,0,0,0
14101,493726.48127773457,2010-10-28 06:33:06,570.2878347423579,2,44,0.5501165986061096,3.82132625579834,42.09573913916029,42.01757581120292,168.22022441835023,152.99456311605718,9.713172767078504e-05,0.0924721807241439,0,0,0
14102,493756.49653866026,2010-10-28 06:33:36,600.3030956730621,2,44,0.550297200679779,3.824563980102539,42.10032635661135,42.01757581120292,168.2377605735511,152.99456311605718,9.713172767078504e-05,0.0924721807241439,0,0,0
14103,493786.5116782636,2010-10-28 06:34:06,630.318235416731,2,44,0.5499359965324402,3.8274779319763184,42.10491346253775,42.01757581120292,168.25531126513866,152.99456311605718,3.237724376958795e-05,0.0924721807241439,0,0,0
14104,493816.5267772456,2010-10-28 06:34:36,660.3333341682347,2,44,0.5499359965324402,3.830877542495728,42.10950060968691,42.01757581120292,168.27287699044638,152.99456311605718,6.47544875391759e-05,0.0924721807241439,0,0,0
14105,493846.5420084222,2010-10-28 06:35:06,690.3485656004195,2,44,0.5501165986061096,3.834115028381348,42.11408778846709,42.01757581120292,168.29045771143203,152.99456311605718,9.713172767078504e-05,0.0924721807241439,0,0,0
14106,493876.55720191984,2010-10-28 06:35:36,720.3637590830223,2,44,0.5501165986061096,3.837514638900757,42.11867492642037,42.01757581120292,168.3080533473794,152.99456311605718,9.713172767078504e-05,0.0924721807241439,0,0,0
14107,493906.5724191366,2010-10-28 06:36:06,750.3789761995281,2,44,0.550297200679779,3.841076135635376,42.12326210925976,42.01757581120292,168.32566437039188,152.99456311605718,0.0001295089750783,0.0924721807241439,0,0,0
14108,493936.5874080896,2010-10-28 06:36:36,780.3939650972424,2,44,0.550297200679779,3.844151973724365,42.12784928388455,42.01757581120292,168.3432908390801,152.99456311605718,9.713172767078504e-05,0.0924721807241439,0,0,0
14109,493966.6060544677,2010-10-28 06:37:06,810.4126116459483,2,44,0.550297200679779,3.8478753566741934,42.1324369265562,42.01757581120292,168.36093469853787,152.99456311605718,0.0001618862152099,0.0924721807241439,0,0,0
14110,493996.6177751501,2010-10-28 06:37:36,840.4243323282642,2,44,0.5501165986061096,3.850951194763184,42.13702355294478,42.01757581120292,168.37859030784327,152.99456311605718,3.237724376958795e-05,0.0924721807241439,0,0,0
14111,494026.63294692856,2010-10-28 06:38:06,870.4395041067737,2,44,0.5501165986061096,3.8543508052825928,42.141610750790335,42.01757581120292,168.39626368961652,152.99456311605718,6.47544875391759e-05,0.0924721807241439,0,0,0
14112,494056.6480583867,2010-10-28 06:38:36,900.4546155649464,2,44,0.550297200679779,3.857912302017212,42.14619788677967,42.01757581120292,168.41395231038132,152.99456311605718,0.0001295089750783,0.0924721807241439,0,0,0
14113,494086.6632459044,2010-10-28 06:39:06,930.469803082683,2,44,0.550297200679779,3.861150026321411,42.15078504598358,42.01757581120292,168.43165620376527,152.99456311605718,9.713172767078504e-05,0.0924721807241439,0,0,0
14114,494116.6783255483,2010-10-28 06:39:36,960.4848825511276,2,44,0.5501165986061096,3.8643877506256095,42.15537221310943,42.01757581120292,168.4493750727781,152.99456311605718,9.713172767078504e-05,0.0924721807241439,0,0,0
14115,494146.693650268,2010-10-28 06:40:06,990.5002074462506,2,44,0.5499359965324402,3.8674635887146,42.15995935083263,42.01757581120292,168.46710846539497,152.99456311605718,9.713172767078504e-05,0.0924721807241439,0,0,0
14116,494176.7086359928,2010-10-28 06:40:36,1020.5151930006324,2,44,0.5501165986061096,3.870539426803589,42.164546524709046,42.01757581120292,168.48485638282693,152.99456311605718,9.713172767078504e-05,0.0924721807241439,0,0,0
14117,494206.7238396307,2010-10-28 06:41:06,1050.5303966335327,2,44,0.550297200679779,3.873615264892578,42.16913371200966,42.01757581120292,168.5026183692555,152.99456311605718,9.713172767078504e-05,0.0924721807241439,0,0,0
14118,494236.73885677394,2010-10-28 06:41:36,1080.5454137716308,2,44,0.550297200679779,3.876529216766357,42.17372087397926,42.01757581120292,168.520393816781,152.99456311605718,6.47544875391759e-05,0.0924721807241439,0,0,0
14119,494266.7540778803,2010-10-28 06:42:06,1110.560634863043,2,44,0.5501165986061096,3.879281282424927,42.1783080274726,42.01757581120292,168.53818238270304,152.99456311605718,9.713172767078504e-05,0.0924721807241439,0,0,0
14120,494296.76931711694,2010-10-28 06:42:36,1140.5758742951664,2,44,0.550297200679779,3.882033348083496,42.18289513808796,42.01757581120292,168.555983406786,152.99456311605718,9.713172767078504e-05,0.0924721807241439,0,0,0
14121,494326.7844527354,2010-10-28 06:43:06,1170.5910098884913,2,44,0.550297200679779,3.8844616413116455,42.18748228717117,42.01757581120292,168.5737965765601,152.99456311605718,3.237724376958795e-05,0.0924721807241439,0,0,0
14122,494356.7997688486,2010-10-28 06:43:36,1200.6063261470897,2,44,0.550297200679779,3.887051820755005,42.19206944289258,42.01757581120292,168.59162112302468,152.99456311605718,9.713172767078504e-05,0.0924721807241439,0,0,0
14123,494386.8146109053,2010-10-28 06:44:06,1230.6211679131063,2,44,0.5501165986061096,3.8891563415527344,42.19665653401571,42.01757581120292,168.60945624529924,152.99456311605718,6.47544875391759e-05,0.0924721807241439,0,0,0
14124,494416.8298796104,2010-10-28 06:44:36,1260.6364367986366,2,44,0.5501165986061096,3.891422748565674,42.20124373261606,42.01757581120292,168.62730194217133,152.99456311605718,6.47544875391759e-05,0.0924721807241439,0,0,0
14125,494446.8449238961,2010-10-28 06:45:06,1290.6514808939205,2,44,0.550297200679779,3.893365383148194,42.20583091996441,42.01757581120292,168.6451571080489,152.99456311605718,3.237724376958795e-05,0.0924721807241439,0,0,0
14126,494476.86035059,2010-10-28 06:45:36,1320.6669077732197,2,44,0.550297200679779,3.894984245300293,42.210418133711656,42.01757581120292,168.66302112773533,152.99456311605718,3.237724376958795e-05,0.0924721807241439,0,0,0
14127,494506.8752514934,2010-10-28 06:46:06,1350.6818084761253,2,44,0.550297200679779,3.896926879882813,42.21500522920583,42.01757581120292,168.68089271569843,152.99456311605718,3.237724376958795e-05,0.0924721807241439,0,0,0
14128,494536.8904996974,2010-10-28 06:46:36,1380.6970568755976,2,44,0.5501165986061096,3.898383855819702,42.21959240965236,42.01757581120292,168.69877243747823,152.99456311605718,0.0,0.0924721807241439,0,0,0
14129,494566.9056613959,2010-10-28 06:47:06,1410.7122185739845,2,44,0.550297200679779,3.9000027179718018,42.2241795001026,42.01757581120292,168.7166591391589,152.99456311605718,0.0,0.0924721807241439,0,0,0
14130,494596.9207954202,2010-10-28 06:47:36,1440.7273525131866,2,44,0.5501165986061096,3.901621580123901,42.228766591629565,42.01757581120292,168.7345526805426,152.99456311605718,3.237724376958795e-05,0.0924721807241439,0,0,0
14131,494626.9362349911,2010-10-28 06:48:06,1470.742792324717,2,44,0.5501165986061096,3.903078556060791,42.23335375046196,42.01757581120292,168.75245310191323,152.99456311605718,6.47544875391759e-05,0.0924721807241439,0,0,0
14132,494656.951218761,2010-10-28 06:48:36,1500.757775939264,2,44,0.550297200679779,3.904373645782471,42.23794088874359,42.01757581120292,168.77035983592495,152.99456311605718,3.237724376958795e-05,0.0924721807241439,0,0,0
14133,494686.9662796833,2010-10-28 06:49:06,1530.7728368614855,2,44,0.550297200679779,3.9056687355041504,42.24252806073579,42.01757581120292,168.78827280944756,152.99456311605718,3.237724376958795e-05,0.0924721807241439,0,0,0
14134,494716.9815710699,2010-10-28 06:49:36,1560.7881284034825,2,44,0.5501165986061096,3.90696382522583,42.24711516271912,42.01757581120292,168.80619160266247,152.99456311605718,3.237724376958795e-05,0.0924721807241439,0,0,0
14135,494746.99668771593,2010-10-28 06:50:06,1590.803245049585,2,44,0.5501165986061096,3.90842080116272,42.25170228314126,42.01757581120292,168.82411643936788,152.99456311605718,6.47544875391759e-05,0.0924721807241439,0,0,0
14136,494777.0118408179,2010-10-28 06:50:36,1620.8183981615718,2,44,0.5501165986061096,3.9095540046691895,42.25628935228967,42.01757581120292,168.84204702493895,152.99456311605718,3.237724376958795e-05,0.0924721807241439,0,0,0
14137,494807.027142846,2010-10-28 06:51:06,1650.833700174666,2,44,0.550297200679779,3.911010980606079,42.26087654667161,42.01757581120292,168.85998405744297,152.99456311605718,6.47544875391759e-05,0.0924721807241439,0,0,0
14138,494837.0422284448,2010-10-28 06:51:36,1680.848785663114,2,44,0.5501165986061096,3.912144184112549,42.26546371979646,42.01757581120292,168.87792701518975,152.99456311605718,3.237724376958795e-05,0.0924721807241439,0,0,0
14139,494867.05729272537,2010-10-28 06:52:06,1710.863850069018,2,44,0.5501165986061096,3.913439273834229,42.270050900812805,42.01757581120292,168.89587598572507,152.99456311605718,0.0,0.0924721807241439,0,0,0
14140,494897.076458027,2010-10-28 06:52:36,1740.883015360591,2,44,0.5501165986061096,3.914734125137329,42.274638686846494,42.01757581120292,168.9138334064668,152.99456311605718,3.237724376958795e-05,0.0924721807241439,0,0,0
14141,494927.0878467269,2010-10-28 06:53:06,1770.8944040605047,2,44,0.550297200679779,3.9161911010742183,42.27922531617665,42.01757581120292,168.9317921991528,152.99456311605718,6.47544875391759e-05,0.0924721807241439,0,0,0
14142,494957.1029261352,2010-10-28 06:53:36,1800.909483478824,2,44,0.5504778623580933,3.917648077011109,42.283812474286336,42.01757581120292,168.9497592288702,152.99456311605718,9.713172767078504e-05,0.0924721807241439,0,0,0
14143,494987.1179013287,2010-10-28 06:54:06,1830.9244586623583,2,44,0.550297200679779,3.918781280517578,42.28839962751827,42.01757581120292,168.96773238541843,152.99456311605718,0.0,0.0924721807241439,0,0,0
14144,495017.1331115631,2010-10-28 06:54:36,1860.9396689067369,2,44,0.5501165986061096,3.920238256454468,42.29298677481242,42.01757581120292,168.98571171068676,152.99456311605718,6.47544875391759e-05,0.0924721807241439,0,0,0
14145,495047.1483582784,2010-10-28 06:55:07,1890.954915622012,2,44,0.550297200679779,3.921533346176148,42.29757396213562,42.01757581120292,169.00369735336042,152.99456311605718,3.237724376958795e-05,0.0924721807241439,0,0,0
14146,495077.1634344837,2010-10-28 06:55:37,1920.969991792236,2,44,0.550297200679779,3.922990322113037,42.30216109284268,42.01757581120292,169.02168909386586,152.99456311605718,6.47544875391759e-05,0.0924721807241439,0,0,0
14147,495107.17855062353,2010-10-28 06:56:07,1950.9851079521268,2,44,0.5501165986061096,3.924285411834717,42.306748269455404,42.01757581120292,169.0396873712336,152.99456311605718,3.237724376958795e-05,0.0924721807241439,0,0,0
14148,495137.1936805477,2010-10-28 06:56:37,1981.00023785126,2,44,0.5501165986061096,3.9257423877716064,42.31133540162875,42.01757581120292,169.057691801339,152.99456311605718,6.47544875391759e-05,0.0924721807241439,0,0,0
14149,495167.2093021624,2010-10-28 06:57:07,2011.0158595761743,2,44,0.5499359965324402,3.927037477493286,42.3159226208261,42.01757581120292,169.07570286435055,152.99456311605718,3.237724376958795e-05,0.0924721807241439,0,0,0
14150,495197.224018611,2010-10-28 06:57:37,2041.030575944662,2,44,0.5501165986061096,3.928494453430176,42.32050969368099,42.01757581120292,169.0937198473752,152.99456311605718,6.47544875391759e-05,0.0924721807241439,0,0,0
14151,495227.2392489805,2010-10-28 06:58:07,2071.045806324224,2,44,0.550297200679779,3.9299514293670654,42.32509682733047,42.01757581120292,169.11174359541317,152.99456311605718,3.237724376958795e-05,0.0924721807241439,0,0,0
14152,495257.2542896022,2010-10-28 06:58:37,2101.060847041087,2,44,0.5501165986061096,3.931408405303955,42.3296840287108,42.01757581120292,169.12977424270852,152.99456311605718,6.47544875391759e-05,0.0924721807241439,0,0,0
14153,495287.26947238814,2010-10-28 06:59:07,2131.076029716756,2,44,0.5501165986061096,3.9327034950256343,42.33427116810305,42.01757581120292,169.14781126870906,152.99456311605718,3.237724376958795e-05,0.0924721807241439,0,0,0
14154,495317.2845685432,2010-10-28 06:59:37,2161.0911259820627,2,44,0.550297200679779,3.934160470962525,42.33885832000232,42.01757581120292,169.16585505330943,152.99456311605718,0.0,0.0924721807241439,0,0,0
14155,495347.2997245775,2010-10-28 07:00:07,2191.1062818258583,2,44,0.5501165986061096,3.935779333114624,42.343445519348165,42.01757581120292,169.18390583094967,152.99456311605718,3.237724376958795e-05,0.0924721807241439,0,0,0
14156,495377.3148577096,2010-10-28 07:00:37,2221.121415043262,2,44,0.5501165986061096,3.9372363090515137,42.34803263615345,42.01757581120292,169.2019629210209,152.99456311605718,3.237724376958795e-05,0.0924721807241439,0,0,0
14157,495407.3300265208,2010-10-28 07:01:07,2251.1365838243005,2,44,0.5501165986061096,3.9386932849884033,42.35261968586368,42.01757581120292,169.22002679350553,152.99456311605718,3.237724376958795e-05,0.0924721807241439,0,0,0
14158,495437.34515190864,2010-10-28 07:01:37,2281.151709242265,2,44,0.5501165986061096,3.940312147140503,42.35720672891432,42.01757581120292,169.23809748816078,152.99456311605718,6.47544875391759e-05,0.0924721807241439,0,0,0
14159,495467.3603305943,2010-10-28 07:02:07,2311.16688792799,2,44,0.5501165986061096,3.9417691230773926,42.36179382445079,42.01757581120292,169.25617538907997,152.99456311605718,6.47544875391759e-05,0.0924721807241439,0,0,0
14160,495497.3756308831,2010-10-28 07:02:37,2341.1821882268114,2,44,0.5501165986061096,3.943387985229492,42.36638093647056,42.01757581120292,169.27426032768673,152.99456311605718,3.237724376958795e-05,0.0924721807241439,0,0,0
14161,495527.3906285728,2010-10-28 07:03:07,2371.197185906413,2,44,0.5501165986061096,3.944844961166382,42.370968077391616,42.01757581120292,169.29235239209393,152.99456311605718,6.47544875391759e-05,0.0924721807241439,0,0,0
14162,495557.40558722016,2010-10-28 07:03:37,2401.212144528672,2,44,0.5501165986061096,3.9464638233184814,42.3755528275732,42.01757581120292,169.31044221519875,152.99456311605718,6.47544875391759e-05,0.0924721807241439,0,0,0
14163,495587.42091015534,2010-10-28 07:04:07,2431.227467458897,2,44,0.5501165986061096,3.947920799255371,42.38014234079791,42.01757581120292,169.32855787615765,152.99456311605718,3.237724376958795e-05,0.0924721807241439,0,0,0
14164,495617.43605225993,2010-10-28 07:04:37,2461.2426095634505,2,44,0.550297200679779,3.9497015476226807,42.3847294967117,42.01757581120292,169.3466715421012,152.99456311605718,6.47544875391759e-05,0.0924721807241439,0,0,0
14165,495647.4512446098,2010-10-28 07:05:07,2491.25780195333,2,44,0.5501165986061096,3.9511585235595694,42.38931664239633,42.01757581120292,169.36479246765992,152.99456311605718,3.237724376958795e-05,0.0924721807241439,0,0,0
14166,495677.4663512509,2010-10-28 07:05:37,2521.272908584472,2,44,0.5501165986061096,3.95277738571167,42.39390380771589,42.01757581120292,169.38292083718775,152.99456311605718,3.237724376958795e-05,0.0924721807241439,0,0,0
14167,495707.4815248238,2010-10-28 07:06:07,2551.288082137404,2,44,0.5499359965324402,3.9543962478637695,42.39849092430461,42.01757581120292,169.40105643327956,152.99456311605718,3.237724376958795e-05,0.0924721807241439,0,0,0
14168,495737.49667003605,2010-10-28 07:06:37,2581.303227369752,2,44,0.550297200679779,3.956015110015869,42.403078117657934,42.01757581120292,169.41919986851764,152.99456311605718,3.237724376958795e-05,0.0924721807241439,0,0,0
14169,495767.51184569433,2010-10-28 07:07:07,2611.3184030279317,2,44,0.550297200679779,3.9577958583831783,42.40766532592011,42.01757581120292,169.43735092007364,152.99456311605718,6.47544875391759e-05,0.0924721807241439,0,0,0
14170,495797.5268187526,2010-10-28 07:07:37,2641.3333760611063,2,44,0.5499359965324402,3.9594147205352783,42.41225247638194,42.01757581120292,169.4555094011444,152.99456311605718,6.47544875391759e-05,0.0924721807241439,0,0,0
14171,495827.5420564203,2010-10-28 07:08:07,2671.348613668682,2,44,0.5501165986061096,3.961195468902588,42.41683956373803,42.01757581120292,169.47367532774047,152.99456311605718,6.47544875391759e-05,0.0924721807241439,0,0,0
14172,495857.5572248605,2010-10-28 07:08:37,2701.363782194084,2,44,0.5501165986061096,3.962814331054688,42.42142666552131,42.01757581120292,169.49184908997324,152.99456311605718,6.47544875391759e-05,0.0924721807241439,0,0,0
14173,495887.5766446664,2010-10-28 07:09:07,2731.383201984947,2,44,0.550297200679779,3.964595079421997,42.426014388596265,42.01757581120292,169.51003317513536,152.99456311605718,6.47544875391759e-05,0.0924721807241439,0,0,0
14174,495917.58738765697,2010-10-28 07:09:37,2761.3939449354543,2,44,0.550297200679779,3.9662139415740967,42.43060079276761,42.01757581120292,169.5282198187134,152.99456311605718,3.237724376958795e-05,0.0924721807241439,0,0,0
14175,495947.60253405233,2010-10-28 07:10:07,2791.409091360776,2,44,0.550297200679779,3.9679946899414062,42.43518786185684,42.01757581120292,169.54641687244717,152.99456311605718,9.713172767078504e-05,0.0924721807241439,0,0,0
14176,495977.6177104221,2010-10-28 07:10:37,2821.424267730729,2,44,0.5501165986061096,3.969613552093506,42.43977489819988,42.01757581120292,169.56462169296884,152.99456311605718,3.237724376958795e-05,0.0924721807241439,0,0,0
14177,496007.6328445168,2010-10-28 07:11:07,2851.439401795243,2,44,0.5501165986061096,3.971070528030396,42.4443619899667,42.01757581120292,169.58283461776372,152.99456311605718,0.0,0.0924721807241439,0,0,0
14178,496037.6479634185,2010-10-28 07:11:37,2881.4545207270426,2,44,0.5501165986061096,3.973013162612915,42.44894843632984,42.01757581120292,169.60105285894392,152.99456311605718,3.237724376958795e-05,0.0924721807241439,0,0,0
14179,496067.6631367709,2010-10-28 07:12:07,2911.469694059425,2,44,0.5501165986061096,3.9747939109802246,42.45353471214907,42.01757581120292,169.61927843896058,152.99456311605718,3.237724376958795e-05,0.0924721807241439,0,0,0
14180,496097.6786353289,2010-10-28 07:12:37,2941.4851926474444,2,44,0.5501165986061096,3.976574659347534,42.45812110230908,42.01757581120292,169.63751259303092,152.99456311605718,6.47544875391759e-05,0.0924721807241439,0,0,0
14181,496127.69361877296,2010-10-28 07:13:07,2971.5001760815417,2,44,0.550297200679779,3.978193521499634,42.46270741946866,42.01757581120292,169.65575421320216,152.99456311605718,6.47544875391759e-05,0.0924721807241439,0,0,0
14182,496157.7087288728,2010-10-28 07:13:37,3001.515286191354,2,44,0.5501165986061096,3.980136156082153,42.46729433913036,42.01757581120292,169.67400674135249,152.99456311605718,6.47544875391759e-05,0.0924721807241439,0,0,0
14183,496187.72388375417,2010-10-28 07:14:07,3031.530441188038,2,44,0.5501165986061096,3.981916904449463,42.47188135265496,42.01757581120292,169.69226802846617,152.99456311605718,0.0,0.0924721807241439,0,0,0
14184,496217.7389106917,2010-10-28 07:14:37,3061.5454680002467,2,44,0.550297200679779,3.9838595390319824,42.47646832062128,42.01757581120292,169.7105374222906,152.99456311605718,6.47544875391759e-05,0.0924721807241439,0,0,0
14185,496247.75404203945,2010-10-28 07:15:07,3091.5605993479903,2,44,0.5501165986061096,3.985640287399292,42.48105528452701,42.01757581120292,169.72881527609488,152.99456311605718,3.237724376958795e-05,0.0924721807241439,0,0,0
14186,496277.7692120135,2010-10-28 07:15:37,3121.575769322002,2,44,0.5501165986061096,3.9874210357666016,42.48564233881558,42.01757581120292,169.74710208538383,152.99456311605718,3.237724376958795e-05,0.0924721807241439,0,0,0
14187,496307.7843717619,2010-10-28 07:16:07,3151.59092905048,2,44,0.5499359965324402,3.989363670349121,42.49022935723818,42.01757581120292,169.7653972900651,152.99456311605718,3.237724376958795e-05,0.0924721807241439,0,0,0
14188,496337.7994708544,2010-10-28 07:16:37,3181.6060281628825,2,44,0.550297200679779,3.9913063049316406,42.49481626257329,42.01757581120292,169.78370077564037,152.99456311605718,6.47544875391759e-05,0.0924721807241439,0,0,0
14189,496367.81464773056,2010-10-28 07:17:07,3211.6212050390973,2,44,0.5501165986061096,3.99324893951416,42.49940323483197,42.01757581120292,169.80201337349322,152.99456311605718,3.237724376958795e-05,0.0924721807241439,0,0,0
14190,496397.8297959905,2010-10-28 07:17:37,3241.636353309016,2,44,0.5501165986061096,3.9951913356781006,42.503990216156936,42.01757581120292,169.8203348208332,152.99456311605718,3.237724376958795e-05,0.0924721807241439,0,0,0
14191,496427.8449155288,2010-10-28 07:18:07,3271.651472807227,2,44,0.5501165986061096,3.99713397026062,42.50857720832175,42.01757581120292,169.8386652279443,152.99456311605718,6.47544875391759e-05,0.0924721807241439,0,0,0
14192,496457.8600848813,2010-10-28 07:18:37,3301.66664219979,2,44,0.5501165986061096,3.99907660484314,42.51316427138708,42.01757581120292,169.8570048199848,152.99456311605718,3.237724376958795e-05,0.0924721807241439,0,0,0
14193,496487.8752663238,2010-10-28 07:19:07,3331.681823512061,2,44,0.5501165986061096,4.001019477844238,42.51775126085883,42.01757581120292,169.8753532264122,152.99456311605718,3.24249267578125e-05,0.0924721807241439,0,0,0
14194,496517.8903671705,2010-10-28 07:19:37,3361.696924449011,2,44,0.5501165986061096,4.003123760223389,42.52233826578877,42.01757581120292,169.89371085858656,152.99456311605718,3.23295607813634e-05,0.0924721807241439,0,0,0
14195,496547.9055948784,2010-10-28 07:20:07,3391.712152186989,2,44,0.5501165986061096,4.005066394805908,42.52692522278733,42.01757581120292,169.9120775821434,152.99456311605718,3.23295607813634e-05,0.0924721807241439,0,0,0
14196,496577.92067585065,2010-10-28 07:20:37,3421.727232853419,2,44,0.550297200679779,4.007332801818848,42.53151227097571,42.01757581120292,169.93045416061753,152.99456311605718,6.47544875391759e-05,0.0924721807241439,0,0,0
14197,496607.9358739648,2010-10-28 07:21:07,3451.7424312733274,2,44,0.5501165986061096,4.009275436401367,42.53609927722114,42.01757581120292,169.9488401419625,152.99456311605718,6.47544875391759e-05,0.0924721807241439,0,0,0
14198,496637.95111575775,2010-10-28 07:21:37,3481.757673041272,2,44,0.5501165986061096,4.011541843414307,42.5406862479017,42.01757581120292,169.96723572924066,152.99456311605718,6.47544875391759e-05,0.0924721807241439,0,0,0
14199,496667.9661946999,2010-10-28 07:22:07,3511.772752038542,2,44,0.5501165986061096,4.013646602630615,42.54527326693136,42.01757581120292,169.98564140883346,152.99456311605718,6.47544875391759e-05,0.0924721807241439,0,0,0
14200,496697.98126273486,2010-10-28 07:22:37,3541.787820013341,2,44,0.5501165986061096,4.015913009643555,42.54986028108663,42.01757581120292,170.00405704334202,152.99456311605718,6.47544875391759e-05,0.0924721807241439,0,0,0
14201,496727.9966133942,2010-10-28 07:23:07,3571.8031708130266,2,44,0.550297200679779,4.018341064453125,42.55444727699905,42.01757581120292,170.02248270999343,152.99456311605718,9.70840483205393e-05,0.0924721807241439,0,0,0
14202,496758.0116193795,2010-10-28 07:23:37,3601.8181766980783,2,44,0.5501165986061096,4.020445823669434,42.55903429697847,42.01757581120292,170.04091859959124,152.99456311605718,0.0001295089750783,0.0924721807241439,0,0,0
14203,496788.02690061583,2010-10-28 07:24:07,3631.8334580045657,2,44,0.5501165986061096,4.022550106048584,42.56362129415897,42.01757581120292,170.0593647742934,152.99456311605718,6.47544875391759e-05,0.0924721807241439,0,0,0
14204,496818.0457422708,2010-10-28 07:24:37,3661.852299574324,2,44,0.550297200679779,4.024816513061523,42.56820883464748,42.01757581120292,170.07782355190878,152.99456311605718,6.47544875391759e-05,0.0924721807241439,0,0,0
14205,496848.0572695962,2010-10-28 07:25:07,3691.863826914772,2,44,0.550297200679779,4.027082920074463,42.57279533399974,42.01757581120292,170.09628874827516,152.99456311605718,6.47544875391759e-05,0.0924721807241439,0,0,0
14206,496878.0720329768,2010-10-28 07:25:37,3721.8785898693664,2,44,0.5501165986061096,4.029511451721191,42.57738221557981,42.01757581120292,170.11476616741902,152.99456311605718,6.47544875391759e-05,0.0924721807241439,0,0,0
14207,496908.0873091004,2010-10-28 07:26:07,3751.893866408973,2,44,0.5501165986061096,4.031615734100342,42.58196929314802,42.01757581120292,170.13325503963733,152.99456311605718,6.47544875391759e-05,0.0924721807241439,0,0,0
14208,496938.10245559085,2010-10-28 07:26:37,3781.9090128994567,2,44,0.5501165986061096,4.034205913543701,42.58655618610872,42.01757581120292,170.15175396189207,152.99456311605718,6.47544875391759e-05,0.0924721807241439,0,0,0
14209,496968.1176471938,2010-10-28 07:27:08,3811.9242045023752,2,44,0.5501165986061096,4.036472320556641,42.59114313106747,42.01757581120292,170.1702639918585,152.99456311605718,6.47544875391759e-05,0.0924721807241439,0,0,0
14210,496998.1327710929,2010-10-28 07:27:38,3841.939328401555,2,44,0.5501165986061096,4.038900375366211,42.59573010180156,42.01757581120292,170.18878512619276,152.99456311605718,3.23295607813634e-05,0.0924721807241439,0,0,0
14211,497028.1479421297,2010-10-28 07:28:08,3871.95449944824,2,44,0.550297200679779,4.04149055480957,42.60031715376122,42.01757581120292,170.20731754046642,152.99456311605718,9.70840483205393e-05,0.0924721807241439,0,0,0
14212,497058.16306245496,2010-10-28 07:28:38,3901.969619763488,2,44,0.5501165986061096,4.043919086456299,42.604904113175074,42.01757581120292,170.22586075045072,152.99456311605718,9.71794142969884e-05,0.0924721807241439,0,0,0
14213,497088.17818524136,2010-10-28 07:29:08,3931.9847425599182,2,44,0.5501165986061096,4.046347141265869,42.60948866652695,42.01757581120292,170.2444055121904,152.99456311605718,9.70840483205393e-05,0.0924721807241439,0,0,0
14214,497118.1934017564,2010-10-28 07:29:38,3961.999959064901,2,44,0.5504778623580933,4.0489373207092285,42.6140780378345,42.01757581120292,170.26298116102046,152.99456311605718,0.0001295089750783,0.0924721807241439,0,0,0
14215,497148.2085172898,2010-10-28 07:30:08,3992.0150745982296,2,44,0.5499359965324402,4.051365852355957,42.618665061548384,42.01757581120292,170.28155878926373,152.99456311605718,9.71794142969884e-05,0.0924721807241439,0,0,0
14216,497178.22368227626,2010-10-28 07:30:38,4022.030239584811,2,44,0.5501165986061096,4.053793907165527,42.62325199309948,42.01757581120292,170.30014755303395,152.99456311605718,6.47544875391759e-05,0.0924721807241439,0,0,0
14217,497208.2388341402,2010-10-28 07:31:08,4052.045391448687,2,44,0.5501165986061096,4.056384086608887,42.62783899886196,42.01757581120292,170.31874828041353,152.99456311605718,6.47544875391759e-05,0.0924721807241439,0,0,0
14218,497238.2539838186,2010-10-28 07:31:38,4082.0605410970416,2,44,0.550297200679779,4.059136390686035,42.632426086951405,42.01757581120292,170.33736112845102,152.99456311605718,0.0001295089750783,0.0924721807241439,0,0,0
14219,497268.2691456022,2010-10-28 07:32:08,4112.0757028906655,2,44,0.5504778623580933,4.0615644454956055,42.637013170788464,42.01757581120292,170.35598559437113,152.99456311605718,0.0001295089750783,0.0924721807241439,0,0,0
14220,497298.28426174703,2010-10-28 07:32:38,4142.090819065594,2,44,0.550297200679779,4.064154624938965,42.641600138306345,42.01757581120292,170.3746214184068,152.99456311605718,6.47544875391759e-05,0.0924721807241439,0,0,0
14221,497328.2997856281,2010-10-28 07:33:08,4172.106342956677,2,44,0.550297200679779,4.066744804382324,42.64618711710898,42.01757581120292,170.39326933550484,152.99456311605718,9.70840483205393e-05,0.0924721807241439,0,0,0
14222,497358.31454238726,2010-10-28 07:33:38,4202.121099705805,2,44,0.550297200679779,4.069497108459473,42.65077405124784,42.01757581120292,170.4119292555712,152.99456311605718,9.71794142969884e-05,0.0924721807241439,0,0,0
14223,497388.329692206,2010-10-28 07:34:08,4232.13624949451,2,44,0.5501165986061096,4.072087287902832,42.65536101355947,42.01757581120292,170.4306016001416,152.99456311605718,6.47544875391759e-05,0.0924721807241439,0,0,0
14224,497418.34484333807,2010-10-28 07:34:38,4262.151400646611,2,44,0.550297200679779,4.075001239776611,42.65994792519288,42.01757581120292,170.4492862840197,152.99456311605718,9.71794142969884e-05,0.0924721807241439,0,0,0
14225,497448.3600396628,2010-10-28 07:35:08,4292.166596971298,2,44,0.5501165986061096,4.077591419219971,42.66453489877869,42.01757581120292,170.4679838800402,152.99456311605718,6.47544875391759e-05,0.0924721807241439,0,0,0
14226,497478.3751788399,2010-10-28 07:35:38,4322.181736118479,2,44,0.5501165986061096,4.080343246459961,42.66912187791719,42.01757581120292,170.48669425227948,152.99456311605718,9.70840483205393e-05,0.0924721807241439,0,0,0
14227,497508.3902783082,2010-10-28 07:36:08,4352.196835596796,2,44,0.5501165986061096,4.08325719833374,42.67370883258351,42.01757581120292,170.50541722401437,152.99456311605718,9.70840483205393e-05,0.0924721807241439,0,0,0
14228,497538.4054373501,2010-10-28 07:36:38,4382.211994628536,2,44,0.5501165986061096,4.08617115020752,42.678295772684685,42.01757581120292,170.52415310181772,152.99456311605718,0.0001295089750783,0.0924721807241439,0,0,0
14229,497568.4206113391,2010-10-28 07:37:08,4412.227168647629,2,44,0.5499359965324402,4.088923454284668,42.68288271014368,42.01757581120292,170.5429020738817,152.99456311605718,9.71794142969884e-05,0.0924721807241439,0,0,0
14230,497598.4357703608,2010-10-28 07:37:38,4442.242327679371,2,44,0.5501165986061096,4.091837406158447,42.68746966977178,42.01757581120292,170.56166430494574,152.99456311605718,0.0001295089750783,0.0924721807241439,0,0,0
14231,497628.4508869769,2010-10-28 07:38:08,4472.257444285373,2,44,0.5501165986061096,4.0945892333984375,42.69205663628158,42.01757581120292,170.58043969483106,152.99456311605718,6.47544875391759e-05,0.0924721807241439,0,0,0
14232,497658.4660605097,2010-10-28 07:38:38,4502.272617818255,2,44,0.5501165986061096,4.097503185272217,42.69664369830086,42.01757581120292,170.59922879673078,152.99456311605718,9.70840483205393e-05,0.0924721807241439,0,0,0
14233,497688.48148326366,2010-10-28 07:39:08,4532.288040582297,2,44,0.550297200679779,4.100579261779785,42.7012306866752,42.01757581120292,170.61803120069473,152.99456311605718,9.71794142969884e-05,0.0924721807241439,0,0,0
14234,497718.4963463127,2010-10-28 07:39:38,4562.302903631358,2,44,0.550297200679779,4.103654861450195,42.70581760821036,42.01757581120292,170.6368469080612,152.99456311605718,0.0001295089750783,0.0924721807241439,0,0,0
14235,497748.5114709839,2010-10-28 07:40:08,4592.318028262362,2,44,0.5501165986061096,4.106407165527344,42.71040456468278,42.01757581120292,170.65567643165565,152.99456311605718,6.47544875391759e-05,0.0924721807241439,0,0,0
14236,497778.5267438243,2010-10-28 07:40:38,4622.3333011428485,2,44,0.5501165986061096,4.109482765197754,42.71499157958048,42.01757581120292,170.67452003372804,152.99456311605718,6.47544875391759e-05,0.0924721807241439,0,0,0
14237,497808.54637779394,2010-10-28 07:41:08,4652.352935112511,2,44,0.5501165986061096,4.112720489501953,42.71957926038423,42.01757581120292,170.69338031531035,152.99456311605718,0.0001295089750783,0.0924721807241439,0,0,0
14238,497838.55692836,2010-10-28 07:41:38,4682.363485638438,2,44,0.5501165986061096,4.115634441375732,42.724165541948246,42.01757581120292,170.71224871554932,152.99456311605718,0.0001295089750783,0.0924721807241439,0,0,0
14239,497868.5720994768,2010-10-28 07:42:08,4712.378656785373,2,44,0.5501165986061096,4.118548393249512,42.728752580215634,42.01757581120292,170.73113431865778,152.99456311605718,9.71794142969884e-05,0.0924721807241439,0,0,0
14240,497898.5872435112,2010-10-28 07:42:38,4742.393800819735,2,44,0.5499359965324402,4.121786117553711,42.7333395917597,42.01757581120292,170.7500340686815,152.99456311605718,6.47544875391759e-05,0.0924721807241439,0,0,0
14241,497928.6025486972,2010-10-28 07:43:08,4772.409105995713,2,44,0.5501165986061096,4.12502384185791,42.73792668474732,42.01757581120292,170.76894846567177,152.99456311605718,9.71794142969884e-05,0.0924721807241439,0,0,0
14242,497958.6175050087,2010-10-28 07:43:38,4802.424062317237,2,44,0.550297200679779,4.1279377937316895,42.74251361446885,42.01757581120292,170.7878766414093,152.99456311605718,3.24249267578125e-05,0.0924721807241439,0,0,0
14243,497988.6326567773,2010-10-28 07:44:08,4832.439214085876,2,44,0.550297200679779,4.13133716583252,42.74710059687974,42.01757581120292,170.8068196275725,152.99456311605718,9.70840483205393e-05,0.0924721807241439,0,0,0
14244,498018.6478051274,2010-10-28 07:44:38,4862.454362435995,2,44,0.5501165986061096,4.134574890136719,42.75168761232676,42.01757581120292,170.82577742943005,152.99456311605718,9.70840483205393e-05,0.0924721807241439,0,0,0
14245,498048.6631577266,2010-10-28 07:45:08,4892.469715045189,2,44,0.550297200679779,4.137812614440918,42.75627462990756,42.01757581120292,170.84475006109486,152.99456311605718,0.0001295089750783,0.0924721807241439,0,0,0
14246,498078.67822962615,2010-10-28 07:45:38,4922.484786959807,2,44,0.5501165986061096,4.141212463378906,42.760861586511545,42.01757581120292,170.8637373486436,152.99456311605718,0.0001619339018361,0.0924721807241439,0,0,0
14247,498108.6932882528,2010-10-28 07:46:08,4952.499845561245,2,44,0.5499359965324402,4.144288063049316,42.76544858970558,42.01757581120292,170.8827398570153,152.99456311605718,9.70840483205393e-05,0.0924721807241439,0,0,0
14248,498138.7083978212,2010-10-28 07:46:38,4982.514955129708,2,44,0.5501165986061096,4.147525787353516,42.77003552757564,42.01757581120292,170.90175759813033,152.99456311605718,3.23295607813634e-05,0.0924721807241439,0,0,0
14249,498168.72359947406,2010-10-28 07:47:08,5012.530156782674,2,44,0.5501165986061096,4.151087284088135,42.774622481913454,42.01757581120292,170.92079066370198,152.99456311605718,9.70840483205393e-05,0.0924721807241439,0,0,0
14250,498198.7387093834,2010-10-28 07:47:38,5042.545266691986,2,44,0.550297200679779,4.154487133026123,42.779209461711375,42.01757581120292,170.93983917206117,152.99456311605718,0.0001295089750783,0.0924721807241439,0,0,0
14251,498228.753847092,2010-10-28 07:48:08,5072.560404370508,2,44,0.5499359965324402,4.157724857330322,42.78379639822746,42.01757581120292,170.95890302750564,152.99456311605718,6.47544875391759e-05,0.0924721807241439,0,0,0
14252,498258.76902423886,2010-10-28 07:48:38,5102.575581547472,2,44,0.5501165986061096,4.161124229431152,42.78838341130741,42.01757581120292,170.97798290370292,152.99456311605718,3.23295607813634e-05,0.0924721807241439,0,0,0
14253,498288.78422117006,2010-10-28 07:49:08,5132.59077847867,2,44,0.550297200679779,4.1648478507995605,42.79297044331762,42.01757581120292,170.99707858390914,152.99456311605718,0.0001295089750783,0.0924721807241439,0,0,0
14254,498318.79930122,2010-10-28 07:49:38,5162.605858528564,2,44,0.5501165986061096,4.16808557510376,42.79755741906874,42.01757581120292,171.016189862995,152.99456311605718,9.71794142969884e-05,0.0924721807241439,0,0,0
14255,498348.8144751338,2010-10-28 07:50:08,5192.621032322095,2,44,0.5501165986061096,4.17148494720459,42.80214436829393,42.01757581120292,171.03531696986096,152.99456311605718,6.47544875391759e-05,0.0924721807241439,0,0,0
14256,498378.82958836143,2010-10-28 07:50:38,5222.636145639903,2,44,0.550297200679779,4.175208568572998,42.80673133270505,42.01757581120292,171.05446019734256,152.99456311605718,9.71794142969884e-05,0.0924721807241439,0,0,0
14257,498408.8447661699,2010-10-28 07:51:08,5252.651323478515,2,44,0.5501165986061096,4.178607940673828,42.81131832592414,42.01757581120292,171.07361975681434,152.99456311605718,9.70840483205393e-05,0.0924721807241439,0,0,0
14258,498438.8599017132,2010-10-28 07:51:38,5282.666459021715,2,44,0.550297200679779,4.182331562042236,42.815905360950346,42.01757581120292,171.09279577444264,152.99456311605718,9.71794142969884e-05,0.0924721807241439,0,0,0
14259,498468.875064394,2010-10-28 07:52:08,5312.681621702551,2,44,0.550297200679779,4.185893058776856,42.82049243470279,42.01757581120292,171.1119882700042,152.99456311605718,0.0001295089750783,0.0924721807241439,0,0,0
14260,498498.89038758987,2010-10-28 07:52:38,5342.696944933527,2,44,0.5501165986061096,4.1892924308776855,42.825079389709295,42.01757581120292,171.1311968256771,152.99456311605718,6.47544875391759e-05,0.0924721807241439,0,0,0
14261,498528.9053572447,2010-10-28 07:53:08,5372.711914553194,2,44,0.5499359965324402,4.192853927612305,42.8296663665646,42.01757581120292,171.15042209300657,152.99456311605718,3.23295607813634e-05,0.0924721807241439,0,0,0
14262,498558.92052812094,2010-10-28 07:53:38,5402.727085464543,2,44,0.550297200679779,4.196900844573975,42.834253406401615,42.01757581120292,171.1696643848613,152.99456311605718,0.0001295089750783,0.0924721807241439,0,0,0
14263,498584.51394522126,2010-10-28 07:54:04,5428.320502414479,2,44,0.5501165986061096,4.200138568878174,42.838164664226525,42.01757581120292,171.18608513599077,152.99456311605718,0.0001618385285837,0.0924721807241439,0,0,0
14264,498614.5255481282,2010-10-28 07:54:34,30.01511510726734,3,44,0.0,4.1111016273498535,42.838164664226525,42.01757581120292,171.18608513599077,152.99456311605718,-0.0003885269106831,0.0924721807241439,0,0,0
14265,498644.5407006086,2010-10-28 07:55:04,60.03026759269256,3,44,0.0,4.099607944488525,42.838164664226525,42.01757581120292,171.18608513599077,152.99456311605718,-0.0002913475036621,0.0924721807241439,0,0,0
14266,498674.5560580247,2010-10-28 07:55:34,90.0456251091181,3,44,0.0,4.093132495880127,42.838164664226525,42.01757581120292,171.18608513599077,152.99456311605718,-0.0001942634553415,0.0924721807241439,0,0,0
14267,498704.5241482365,2010-10-28 07:56:04,120.01371519055184,3,44,0.0,4.088761329650879,42.838164664226525,42.01757581120292,171.18608513599077,152.99456311605718,-6.47544875391759e-05,0.0924721807241439,0,0,0
14268,498704.5382571304,2010-10-28 07:56:04,2.832058361e-06,4,44,0.9985694289207458,4.199814796447754,42.83816466501209,42.01757581120292,171.18608513928996,152.99456311605718,0.0,0.0924721807241439,0,0,0
14269,498705.30397064914,2010-10-28 07:56:05,0.76571647606342,4,44,0.947998821735382,4.199653148651123,42.83837002354847,42.01757581120292,171.18694758991563,152.99456311605718,-3.23295607813634e-05,0.0924721807241439,0,0,0
14270,498707.3507382186,2010-10-28 07:56:07,2.81248405564638,4,44,0.8979700803756714,4.199653148651123,42.838893658665256,42.01757581120292,171.18914670498856,152.99456311605718,-3.23295607813634e-05,0.0924721807241439,0,0,0
14271,498710.5225464256,2010-10-28 07:56:10,5.984292262639193,4,44,0.8479413390159607,4.199653148651123,42.839661655246886,42.01757581120292,171.19237208011947,152.99456311605718,0.0,0.0924721807241439,0,0,0
14272,498714.8974365429,2010-10-28 07:56:15,10.359182254619204,4,44,0.7975513339042664,4.199814796447754,42.840660202914165,42.01757581120292,171.19656571297122,152.99456311605718,3.23295607813634e-05,0.0924721807241439,0,0,0
14273,498720.6629962117,2010-10-28 07:56:20,16.124741983481908,4,44,0.7473419308662415,4.199653148651123,42.84189574982357,42.01757581120292,171.20175466625187,152.99456311605718,0.0,0.0924721807241439,0,0,0
14274,498728.1785014933,2010-10-28 07:56:28,23.640247305206824,4,44,0.6973131895065308,4.199653148651123,42.843401219201,42.01757581120292,171.20807724803953,152.99456311605718,0.0,0.0924721807241439,0,0,0
14275,498738.28885974194,2010-10-28 07:56:38,33.750605543816896,4,44,0.646742582321167,4.199976921081543,42.84528429363639,42.01757581120292,171.21598568004293,152.99456311605718,6.47544875391759e-05,0.0924721807241439,0,0,0
14276,498752.2721661891,2010-10-28 07:56:52,47.7339119308893,4,44,0.5967137813568115,4.199976921081543,42.84769357587757,42.01757581120292,171.22610421088987,152.99456311605718,3.24249267578125e-05,0.0924721807241439,0,0,0
14277,498773.5215750843,2010-10-28 07:57:13,68.98332088628581,4,44,0.5466850399971008,4.199814796447754,42.851057495183696,42.01757581120292,171.24023200920237,152.99456311605718,-3.24249267578125e-05,0.0924721807241439,0,0,0
14278,498810.45853570045,2010-10-28 07:57:50,105.9202815123847,4,44,0.4966562688350677,4.199653148651123,42.85638563588319,42.01757581120292,171.26260909521258,152.99456311605718,-3.23295607813634e-05,0.0924721807241439,0,0,0
14279,498879.1448976838,2010-10-28 07:58:59,174.60664351074985,4,44,0.4466274976730346,4.199653148651123,42.86534270384453,42.01757581120292,171.3002269300775,152.99456311605718,-3.23295607813634e-05,0.0924721807241439,0,0,0
14280,498984.56520874094,2010-10-28 08:00:44,280.02695456291065,4,44,0.3964181244373321,4.199814796447754,42.87765987060521,42.01757581120292,171.35195667880436,152.99456311605718,0.0,0.0924721807241439,0,0,0
14281,499116.6097587938,2010-10-28 08:02:56,412.0715044503224,4,44,0.3463893532752991,4.199814796447754,42.89126486795512,42.01757581120292,171.40909512476165,152.99456311605718,0.0,0.0924721807241439,0,0,0
14282,499274.2325046007,2010-10-28 08:05:34,569.6942503925168,4,44,0.296360582113266,4.199653148651123,42.905314844061216,42.01757581120292,171.46810236009378,152.99456311605718,-3.23295607813634e-05,0.0924721807241439,0,0,0
14283,499463.1667227008,2010-10-28 08:08:43,758.6284680916285,4,44,0.2461511939764022,4.199653148651123,42.9195284658892,42.01757581120292,171.5277968726539,152.99456311605718,-3.23295607813634e-05,0.0924721807241439,0,0,0
14284,499696.5067884716,2010-10-28 08:12:36,991.9685339627224,4,44,0.1961224377155304,4.199653148651123,42.933825331997966,42.01757581120292,171.58784092675037,152.99456311605718,0.0,0.0924721807241439,0,0,0
14285,500002.3459422422,2010-10-28 08:17:42,1297.807688044048,4,44,0.1460936665534973,4.199653148651123,42.94827740825732,42.01757581120292,171.64853690904593,152.99456311605718,-6.47544875391759e-05,0.0924721807241439,0,0,0
14286,500457.1669182292,2010-10-28 08:25:17,1752.628664046161,4,44,0.0960648953914642,4.199814796447754,42.96335288278905,42.01757581120292,171.7118510573544,152.99456311605718,0.0,0.0924721807241439,0,0,0
14287,501247.919836034,2010-10-28 08:38:28,2543.3815818459084,4,44,0.0498289167881011,4.199814796447754,42.97878851508597,42.01757581120292,171.77667780047042,152.99456311605718,0.0,0.0924721807241439,0,0,0
14288,501277.9425800362,2010-10-28 08:38:58,30.015220214226225,5,44,0.0,4.191397190093994,42.97878851508597,42.01757581120292,171.77667780047042,152.99456311605718,-6.47544875391759e-05,0.0924721807241439,0,0,0
14289,501307.9423575123,2010-10-28 08:39:28,60.01499774553503,5,44,0.0,4.1901021003723145,42.97878851508597,42.01757581120292,171.77667780047042,152.99456311605718,-3.23295607813634e-05,0.0924721807241439,0,0,0
14290,501308.1381898082,2010-10-28 08:39:28,0.187668823452296,6,44,-1.9243103452026844e-05,4.1901021003723145,42.97878851508597,42.01757581220606,171.77667780047042,152.99456312026047,0.0,0.0971632748842239,0,0,0
14291,501312.96601524967,2010-10-28 08:39:33,5.015494114562448,6,44,0.0008838032954372,4.1901021003723145,42.97878965419098,42.01757581237215,171.77668257365673,152.99456312095637,-6.47544875391759e-05,0.0971632748842239,0,0,0
14292,501342.9728246359,2010-10-28 08:40:03,30.013900725654707,7,44,-1.0993878841400146,4.004742622375488,42.97878965419098,42.02674203569712,171.77668257365673,153.0314793807937,-0.0011332512367516,0.0971632748842239,0,0,0
14293,501372.9879428409,2010-10-28 08:40:33,60.02901890056757,7,44,-1.0992072820663452,3.9759271144866943,42.97878965419098,42.03590862912045,171.77668257365673,153.06804788515035,-0.0007122993702068,0.0971632748842239,0,0,0
14294,501403.00311240886,2010-10-28 08:41:03,90.04418849864278,7,44,-1.0993878841400146,3.955691337585449,42.97878965419098,42.04507516862797,171.77668257365673,153.10439537941738,-0.0005504131549969,0.0971632748842239,0,0,0
14295,501433.0182613506,2010-10-28 08:41:33,120.0593374201857,7,44,-1.099568486213684,3.939988374710083,42.97878965419098,42.05424175899999,171.77668257365673,153.1405807060029,-0.0004532813909463,0.0971632748842239,0,0,0
14296,501463.0334220614,2010-10-28 08:42:03,150.07449812108638,7,44,-1.0992072820663452,3.926875591278076,42.97878965419098,42.06340826457783,171.77668257365673,153.17663510892598,-0.0003885269106831,0.0971632748842239,0,0,0
14297,501493.048672907,2010-10-28 08:42:33,180.0897490167803,7,44,-1.0992072820663452,3.915543556213379,42.97878965419098,42.07257484068313,171.77668257365673,153.21257841168364,-0.0003561496851034,0.0971632748842239,0,0,0
14298,501523.0636891478,2010-10-28 08:43:03,210.10476523759212,7,44,-1.099568486213684,3.905183076858521,42.97878965419098,42.081741371361744,171.77668257365673,153.2484227549258,-0.0003561496851034,0.0971632748842239,0,0,0
14299,501553.07906487474,2010-10-28 08:43:33,240.12014094435364,7,44,-1.099568486213684,3.895631790161133,42.97878965419098,42.09090793209961,171.77668257365673,153.2841756846767,-0.0002590179501567,0.0971632748842239,0,0,0
14300,501583.09398955735,2010-10-28 08:44:03,270.13506564707427,7,44,-1.0993878841400146,3.886566162109375,42.97878965419098,42.10007434962122,171.77668257365673,153.31984232068373,-0.0002266406954731,0.0971632748842239,0,0,0
14301,501613.10913191753,2010-10-28 08:44:33,300.1502080974892,7,44,-1.0993878841400146,3.877500534057617,42.97878965419098,42.10924087223761,171.77668257365673,153.35542647671997,-0.0002590179501567,0.0971632748842239,0,0,0
14302,501643.1243420918,2010-10-28 08:45:03,330.1654181714427,7,44,-1.0993878841400146,3.8687586784362793,42.97878965419098,42.11840747906204,171.77668257365673,153.3909295985938,-0.0002590179501567,0.0971632748842239,0,0,0
14303,501673.1395066171,2010-10-28 08:45:33,360.18058271692524,7,44,-1.099568486213684,3.860016822814941,42.97878965419098,42.127574138544446,171.77668257365673,153.42635380955633,-0.0002913951757363,0.0971632748842239,0,0,0
14304,501703.1545937246,2010-10-28 08:46:03,390.1956698143835,7,44,-1.0993878841400146,3.8519225120544434,42.97878965419098,42.13674071025742,171.77668257365673,153.46170080962693,-0.0002913951757363,0.0971632748842239,0,0,0
14305,501733.1697757788,2010-10-28 08:46:33,420.21085199381525,7,44,-1.099568486213684,3.843666315078736,42.97878965419098,42.145907312686965,171.77668257365673,153.4969722974128,-0.0002266406954731,0.0971632748842239,0,0,0
14306,501763.1848874776,2010-10-28 08:47:03,450.2259636625127,7,44,-1.099568486213684,3.8357338905334473,42.97878965419098,42.15507393398831,171.77668257365673,153.53216960777996,-0.0002266406954731,0.0971632748842239,0,0,0
14307,501793.2000515318,2010-10-28 08:47:33,480.24112759145873,7,44,-1.0993878841400146,3.827963590621948,42.97878965419098,42.16424051453949,171.77668257365673,153.56729449503976,-0.0002590179501567,0.0971632748842239,0,0,0
14308,501823.2153310588,2010-10-28 08:48:03,510.2564071385608,7,44,-1.0993878841400146,3.82035493850708,42.97878965419098,42.173407123262415,171.77668257365673,153.60234835533046,-0.0001942634553415,0.0971632748842239,0,0,0
14309,501853.230468978,2010-10-28 08:48:33,540.2715450576823,7,44,-1.099568486213684,3.812584400177002,42.97878965419098,42.1825737355878,171.77668257365673,153.6373318921949,-0.0002590179501567,0.0971632748842239,0,0,0
14310,501883.24551146926,2010-10-28 08:49:03,570.2865875289182,7,44,-1.0993878841400146,3.805137634277344,42.97878965419098,42.19174021772555,171.77668257365673,153.67224637173413,-0.0002590179501567,0.0971632748842239,0,0,0
14311,501913.2606523307,2010-10-28 08:49:33,600.301728300148,7,44,-1.0993878841400146,3.7980146408081055,42.97878965419098,42.20090679738113,171.77668257365673,153.7070940602614,-0.0001942634553415,0.0971632748842239,0,0,0
14312,501943.2757717788,2010-10-28 08:50:03,630.3168478384589,7,44,-1.0993878841400146,3.791053533554077,42.97878965419098,42.210073373386685,171.77668257365673,153.7418760365785,-0.0001618862152099,0.0971632748842239,0,0,0
14313,501973.2909576023,2010-10-28 08:50:33,660.3320335717481,7,44,-1.0993878841400146,3.784092426300049,42.97878965419098,42.21923999434812,171.77668257365673,153.7765942789523,-0.0001942634553415,0.0971632748842239,0,0,0
14314,502003.30636625626,2010-10-28 08:51:03,690.3474423659736,7,44,-1.0992072820663452,3.7772932052612314,42.97878965419098,42.228406584872246,171.77668257365673,153.8112489904377,-0.0001618862152099,0.0971632748842239,0,0,0
14315,502033.32131770055,2010-10-28 08:51:33,720.3623938253801,7,44,-1.0993878841400146,3.770493984222412,42.97878965419098,42.23757311771317,171.77668257365673,153.8458416266018,-0.0001942634553415,0.0971632748842239,0,0,0
14316,502063.3364000813,2010-10-28 08:52:03,750.3774761409205,7,44,-1.0993878841400146,3.763856649398804,42.97878965419098,42.24673968030522,171.77668257365673,153.880373517661,-0.0001942634553415,0.0971632748842239,0,0,0
14317,502093.3515670628,2010-10-28 08:52:33,780.3926431224744,7,44,-1.099568486213684,3.757381200790405,42.97878965419098,42.25590627351698,171.77668257365673,153.9148454892132,-0.0002266406954731,0.0971632748842239,0,0,0
14318,502123.3666711426,2010-10-28 08:53:03,810.407747232333,7,44,-1.099568486213684,3.751067876815796,42.97878965419098,42.26507292523787,171.77668257365673,153.94925926787846,-0.0002266406954731,0.0971632748842239,0,0,0
14319,502153.3819850704,2010-10-28 08:53:33,840.4230611801721,7,44,-1.0993878841400146,3.7450780868530273,42.97878965419098,42.27423960600914,171.77668257365673,153.9836159729759,-0.0001618862152099,0.0971632748842239,0,0,0
14320,502183.3969420435,2010-10-28 08:54:03,870.4380181583331,7,44,-1.0993878841400146,3.738764524459839,42.97878965419098,42.28340616199582,171.77668257365673,154.01791553480652,-0.0001618862152099,0.0971632748842239,0,0,0
14321,502213.4122659162,2010-10-28 08:54:33,900.4533419958204,7,44,-1.099568486213684,3.7327747344970703,42.97878965419098,42.29257283473306,171.77668257365673,154.052159828493,-0.0001618862152099,0.0971632748842239,0,0,0
14322,502243.43112096447,2010-10-28 08:55:03,930.472197089284,7,44,-1.0992072820663452,3.726946830749512,42.97878965419098,42.30174053506001,171.77668257365673,154.0863538026176,-0.0001942634553415,0.0971632748842239,0,0,0
14323,502273.44264210446,2010-10-28 08:55:33,960.483718219254,7,44,-1.099568486213684,3.721280813217163,42.97878965419098,42.31090603402441,171.77668257365673,154.12048693974387,-0.0001295089750783,0.0971632748842239,0,0,0
14324,502303.4575751429,2010-10-28 08:56:03,990.4986512226626,7,44,-1.0993878841400146,3.7156147956848153,42.97878965419098,42.32007255357068,171.77668257365673,154.154571733864,-0.0001942634553415,0.0971632748842239,0,0,0
14325,502333.47269011487,2010-10-28 08:56:33,1020.5137662146428,7,44,-1.0993878841400146,3.709948778152466,42.97878965419098,42.329239126751126,171.77668257365673,154.18860505082688,-0.0001942634553415,0.0971632748842239,0,0,0
14326,502363.48785404384,2010-10-28 08:57:03,1050.5289301135138,7,44,-1.099568486213684,3.704444646835327,42.97878965419098,42.33840560913816,171.77668257365673,154.22258729941353,-0.0001295089750783,0.0971632748842239,0,0,0
14327,502393.5032012395,2010-10-28 08:57:34,1080.5442773493166,7,44,-1.0993878841400146,3.6991024017333984,42.97878965419098,42.34757219408768,171.77668257365673,154.25652025626877,-0.0001618862152099,0.0971632748842239,0,0,0
14328,502423.51813822286,2010-10-28 08:58:04,1110.559214307582,7,44,-1.0993878841400146,3.6937601566314697,42.97878965419098,42.35673870869162,171.77668257365673,154.29040410195094,-0.0001618862152099,0.0971632748842239,0,0,0
14329,502453.5334968822,2010-10-28 08:58:34,1140.5745729568307,7,44,-1.0993878841400146,3.688741683959961,42.97878965419098,42.365905348249,171.77668257365673,154.32423993595654,-0.0001295089750783,0.0971632748842239,0,0,0
14330,502483.5484669228,2010-10-28 08:59:04,1170.5895430376477,7,44,-1.0993878841400146,3.683399438858032,42.97878965419098,42.37507181621263,171.77668257365673,154.3580272479182,-0.0001295089750783,0.0971632748842239,0,0,0
14331,502513.56390286976,2010-10-28 08:59:34,1200.6049789795336,7,44,-1.0993878841400146,3.6782190799713135,42.97878965419098,42.38423841485231,171.77668257365673,154.39176806769916,-0.0001618862152099,0.0971632748842239,0,0,0
14332,502543.57887280016,2010-10-28 09:00:04,1230.6199489099756,7,44,-1.099568486213684,3.6732006072998047,42.97878965419098,42.39340484981816,171.77668257365673,154.4254623055616,-0.0001295089750783,0.0971632748842239,0,0,0
14333,502573.593887843,2010-10-28 09:00:34,1260.6349639678892,7,44,-1.099568486213684,3.668182373046875,42.97878965419098,42.40257137491842,171.77668257365673,154.45911109461218,-0.0001618862152099,0.0971632748842239,0,0,0
14334,502603.6090243136,2010-10-28 09:01:04,1290.6501004283757,7,44,-1.0993878841400146,3.663325786590576,42.97878965419098,42.41173788559749,171.77668257365673,154.49271457040388,-0.0001618862152099,0.0971632748842239,0,0,0
14335,502633.6241997061,2010-10-28 09:01:34,1320.6652758309172,7,44,-1.099568486213684,3.658469200134277,42.97878965419098,42.42090443008248,171.77668257365673,154.52627329204088,-0.0001295089750783,0.0971632748842239,0,0,0
14336,502663.63945905794,2010-10-28 09:02:04,1350.6805351676487,7,44,-1.0993878841400146,3.6536126136779785,42.97878965419098,42.43007093460316,171.77668257365673,154.55978762166856,-0.0001942634553415,0.0971632748842239,0,0,0
14337,502693.65447742905,2010-10-28 09:02:34,1380.6955535438324,7,44,-1.0993878841400146,3.6492416858673096,42.97878965419098,42.43923738995779,171.77668257365673,154.593258143209,-9.713172767078504e-05,0.0971632748842239,0,0,0
14338,502723.6696668064,2010-10-28 09:03:04,1410.7107428009035,7,44,-1.099568486213684,3.644223213195801,42.97878965419098,42.44840384371963,171.77668257365673,154.62668554030662,-0.0001942634553415,0.0971632748842239,0,0,0
14339,502753.6847878184,2010-10-28 09:03:34,1440.7258639131376,7,44,-1.099568486213684,3.639690399169922,42.97878965419098,42.45757023186376,171.77668257365673,154.6600706213152,-0.0001295089750783,0.0971632748842239,0,0,0
14340,502783.6999206448,2010-10-28 09:04:04,1470.7409967395663,7,44,-1.0993878841400146,3.635319471359253,42.97878965419098,42.46673671567256,171.77668257365673,154.6934144317158,-0.0001295089750783,0.0971632748842239,0,0,0
14341,502813.71512396686,2010-10-28 09:04:34,1500.7562000566795,7,44,-1.0993878841400146,3.630948543548584,42.97878965419098,42.475903233894805,171.77668257365673,154.7267178275439,-0.0001295089750783,0.0971632748842239,0,0,0
14342,502843.73021671845,2010-10-28 09:05:04,1530.771292833292,7,44,-1.099568486213684,3.626577615737915,42.97878965419098,42.48506976408082,171.77668257365673,154.75998095970135,-0.0001295089750783,0.0971632748842239,0,0,0
14343,502873.7453855697,2010-10-28 09:05:34,1560.7864615692188,7,44,-1.0993878841400146,3.622368574142456,42.97878965419098,42.49423623803785,171.77668257365673,154.79320421016573,-9.713172767078504e-05,0.0971632748842239,0,0,0
14344,502903.7605086418,2010-10-28 09:06:04,1590.801584731562,7,44,-1.0993878841400146,3.618159532546997,42.97878965419098,42.50340269598048,171.77668257365673,154.826388460405,-9.713172767078504e-05,0.0971632748842239,0,0,0
14345,502933.7757315477,2010-10-28 09:06:34,1620.8168075773467,7,44,-1.0993878841400146,3.613950490951538,42.97878965419098,42.512569266690285,171.77668257365673,154.85953478362174,-0.0001295089750783,0.0971632748842239,0,0,0
14346,502963.79086675006,2010-10-28 09:07:04,1650.8319428749346,7,44,-1.099568486213684,3.609903335571289,42.97878965419098,42.521735791459335,171.77668257365673,154.89264379611996,-9.713172767078504e-05,0.0971632748842239,0,0,0
14347,502993.8059867946,2010-10-28 09:07:34,1680.8470627891822,7,44,-1.0993878841400146,3.60601806640625,42.97878965419098,42.53090236094335,171.77668257365673,154.92571640733584,-9.713172767078504e-05,0.0971632748842239,0,0,0
14348,503023.82113718987,2010-10-28 09:08:04,1710.8622133046977,7,44,-1.0993878841400146,3.602132797241211,42.97878965419098,42.54006887076007,171.77668257365673,154.95875322618153,-0.0001295089750783,0.0971632748842239,0,0,0
14349,503053.83635920857,2010-10-28 09:08:34,1740.877435318409,7,44,-1.0993878841400146,3.598571300506592,42.97878965419098,42.54923545541315,171.77668257365673,154.9917560715205,-9.713172767078504e-05,0.0971632748842239,0,0,0
14350,503083.85143443645,2010-10-28 09:09:04,1770.8925105061846,7,44,-1.0992072820663452,3.5948479175567627,42.97878965419098,42.5584020004787,171.77668257365673,155.0247251286531,-9.713172767078504e-05,0.0971632748842239,0,0,0
14351,503113.86656740325,2010-10-28 09:09:34,1800.9076434027886,7,44,-1.0993878841400146,3.5912866592407227,42.97878965419098,42.56756857546228,171.77668257365673,155.05766089283603,-9.713172767078504e-05,0.0971632748842239,0,0,0
14352,503143.8817720036,2010-10-28 09:10:04,1830.92284810335,7,44,-1.0993878841400146,3.587887048721313,42.97878965419098,42.57673516167478,171.77668257365673,155.09056375985568,-6.47544875391759e-05,0.0971632748842239,0,0,0
14353,503173.8968573517,2010-10-28 09:10:34,1860.9379334664857,7,44,-1.0993878841400146,3.5841636657714844,42.97878965419098,42.58590171782445,171.77668257365673,155.12343422284104,-9.713172767078504e-05,0.0971632748842239,0,0,0
14354,503203.9121097261,2010-10-28 09:11:04,1890.953185825828,7,44,-1.0993878841400146,3.580764055252075,42.97878965419098,42.59506827104274,171.77668257365673,155.15627353164228,-9.713172767078504e-05,0.0971632748842239,0,0,0
14355,503233.93158943625,2010-10-28 09:11:34,1920.9726655610907,7,44,-1.099568486213684,3.577526330947876,42.97878965419098,42.60423615609653,171.77668257365673,155.18908696325877,-9.713172767078504e-05,0.0971632748842239,0,0,0
14356,503263.9423052892,2010-10-28 09:12:04,1950.983381283738,7,44,-1.0993878841400146,3.574126720428467,42.97878965419098,42.61340128128295,171.77668257365673,155.22186052580602,-0.0001295089750783,0.0971632748842239,0,0,0
14357,503293.95743810566,2010-10-28 09:12:34,1980.9985141051543,7,44,-1.0993878841400146,3.571050882339477,42.97878965419098,42.622567746147205,171.77668257365673,155.25460880436393,-9.713172767078504e-05,0.0971632748842239,0,0,0
14358,503323.97261106205,2010-10-28 09:13:04,2011.0136871518248,7,44,-1.0993878841400146,3.5676512718200684,42.97878965419098,42.63173427798839,171.77668257365673,155.28732771845895,-9.713172767078504e-05,0.0971632748842239,0,0,0
14359,503353.9878130559,2010-10-28 09:13:34,2041.02888918574,7,44,-1.0993878841400146,3.564737319946289,42.97878965419098,42.6409007905055,171.77668257365673,155.32001734434067,-6.47544875391759e-05,0.0971632748842239,0,0,0
14360,503384.00289148174,2010-10-28 09:14:04,2071.043967596549,7,44,-1.0992072820663452,3.5616614818573,42.97878965419098,42.65006724929203,171.77668257365673,155.3526781195161,-3.237724376958795e-05,0.0971632748842239,0,0,0
14361,503414.0180522328,2010-10-28 09:14:34,2101.059128257349,7,44,-1.099568486213684,3.55826187133789,42.97878965419098,42.65923372592931,171.77668257365673,155.38531107542522,-0.0001295089750783,0.0971632748842239,0,0,0
14362,503444.0331915754,2010-10-28 09:15:04,2131.0742676902432,7,44,-1.0993878841400146,3.5553479194641118,42.97878965419098,42.66840028054485,171.77668257365673,155.41791559618716,-9.713172767078504e-05,0.0971632748842239,0,0,0
14363,503474.04852855066,2010-10-28 09:15:34,2161.0896046203616,7,44,-1.0993878841400146,3.552272081375122,42.97878965419098,42.6775668762715,171.77668257365673,155.45049190393723,-9.713172767078504e-05,0.0971632748842239,0,0,0
14364,503504.0635054736,2010-10-28 09:16:04,2191.1045815582684,7,44,-1.0993878841400146,3.549196243286133,42.97878965419098,42.68673339633238,171.77668257365673,155.4830392804899,-6.47544875391759e-05,0.0971632748842239,0,0,0
14365,503534.07862955314,2010-10-28 09:16:34,2221.119705677997,7,44,-1.0993878841400146,3.5459585189819336,42.97878965419098,42.69589994219963,171.77668257365673,155.51555820402953,-9.713172767078504e-05,0.0971632748842239,0,0,0
14366,503564.0938076474,2010-10-28 09:17:04,2251.134883641923,7,44,-1.0992072820663452,3.5427207946777344,42.97878965419098,42.70506647808264,171.77668257365673,155.54804889820204,-0.0001618862152099,0.0971632748842239,0,0,0
14367,503594.10902122007,2010-10-28 09:17:34,2281.1500973098337,7,44,-1.0992072820663452,3.539806842803955,42.97878965419098,42.71423299222466,171.77668257365673,155.58051098587492,-9.713172767078504e-05,0.0971632748842239,0,0,0
14368,503624.124110077,2010-10-28 09:18:04,2311.165186161664,7,44,-1.099568486213684,3.536569118499756,42.97878965419098,42.72339952599957,171.77668257365673,155.61294426901347,-9.713172767078504e-05,0.0971632748842239,0,0,0
14369,503654.1393792732,2010-10-28 09:18:34,2341.1804554782693,7,44,-1.0993878841400146,3.5333313941955566,42.97878965419098,42.73256621522596,171.77668257365673,155.64534831277476,-0.0001295089750783,0.0971632748842239,0,0,0
14370,503684.1544530825,2010-10-28 09:19:04,2371.195529192372,7,44,-1.0993878841400146,3.5299317836761475,42.97878965419098,42.74173276392104,171.77668257365673,155.67772128450696,-9.713172767078504e-05,0.0971632748842239,0,0,0
14371,503714.17019507225,2010-10-28 09:19:34,2401.211271182023,7,44,-1.0993878841400146,3.5263702869415283,42.97878965419098,42.75089954718396,171.77668257365673,155.71006372571213,-0.0001295089750783,0.0971632748842239,0,0,0
14372,503744.1846886755,2010-10-28 09:20:04,2431.2257647903234,7,44,-1.099568486213684,3.522970676422119,42.97878965419098,42.76006594025365,171.77668257365673,155.74237301243556,-9.713172767078504e-05,0.0971632748842239,0,0,0
14373,503774.1998659126,2010-10-28 09:20:34,2461.240942007388,7,44,-1.0993878841400146,3.5194091796875,42.97878965419098,42.76923247396558,171.77668257365673,155.77464979169923,-0.0001295089750783,0.0971632748842239,0,0,0
14374,503804.2149868544,2010-10-28 09:21:04,2491.2560628489464,7,44,-1.0993878841400146,3.515847682952881,42.97878965419098,42.778398970255765,171.77668257365673,155.80689331641625,-9.713172767078504e-05,0.0971632748842239,0,0,0
14375,503834.23019602615,2010-10-28 09:21:34,2521.271272150976,7,44,-1.0993878841400146,3.512124300003052,42.97878965419098,42.78756560779031,171.77668257365673,155.83910331836407,-6.47544875391759e-05,0.0971632748842239,0,0,0
14376,503864.2452710586,2010-10-28 09:22:04,2551.28634705304,7,44,-1.0993878841400146,3.508077383041382,42.97878965419098,42.79673217283793,171.77668257365673,155.87127761627698,-9.713172767078504e-05,0.0971632748842239,0,0,0
14377,503894.26043340354,2010-10-28 09:22:34,2581.3015094030507,7,44,-1.0993878841400146,3.503706455230713,42.97878965419098,42.80589885068501,171.77668257365673,155.90341475051457,-0.0001295089750783,0.0971632748842239,0,0,0
14378,503924.2757081136,2010-10-28 09:23:04,2611.3167841130976,7,44,-1.0993878841400146,3.499335527420044,42.97878965419098,42.81506554633441,171.77668257365673,155.93551255209186,-0.0001295089750783,0.0971632748842239,0,0,0
14379,503954.2907425397,2010-10-28 09:23:34,2641.331818629508,7,44,-1.0993878841400146,3.494640827178955,42.97878965419098,42.82423213511417,171.77668257365673,155.96756806328338,-9.713172767078504e-05,0.0971632748842239,0,0,0
14380,503984.3060426732,2010-10-28 09:24:04,2671.3471187679293,7,44,-1.0993878841400146,3.4896223545074463,42.97878965419098,42.833398797063495,171.77668257365673,155.99957876185428,-0.0001295089750783,0.0971632748842239,0,0,0
14381,504014.32105050806,2010-10-28 09:24:34,2701.362126622891,7,44,-1.0993878841400146,3.4839563369750977,42.97878965419098,42.842565343729554,171.77668257365673,156.0315405916918,-0.0001942634553415,0.0971632748842239,0,0,0
14382,504044.3361747532,2010-10-28 09:25:04,2731.377250837857,7,44,-1.0993878841400146,3.477804660797119,42.97878965419098,42.85173192307662,171.77668257365673,156.06344873840632,-0.0001942634553415,0.0971632748842239,0,0,0
14383,504074.3513979147,2010-10-28 09:25:34,2761.3924740094544,7,44,-1.0993878841400146,3.471005439758301,42.97878965419098,42.860898532365056,171.77668257365673,156.09529774211052,-0.0002266406954731,0.0971632748842239,0,0,0
14384,504104.36652237526,2010-10-28 09:26:04,2791.4075984900837,7,44,-1.099568486213684,3.4633967876434326,42.97878965419098,42.87006511416241,171.77668257365673,156.12708090614174,-0.0001942634553415,0.0971632748842239,0,0,0
14385,504134.38182461896,2010-10-28 09:26:34,2821.422900743777,7,44,-1.0993878841400146,3.4546549320220947,42.97878965419098,42.87923175981751,171.77668257365673,156.15878925044328,-0.0002590179501567,0.0971632748842239,0,0,0
14386,504164.40064651467,2010-10-28 09:27:04,2851.4417226395017,7,44,-1.0993878841400146,3.444456100463867,42.97878965419098,42.88839949538146,171.77668257365673,156.1904151917538,-0.0003237724304199,0.0971632748842239,0,0,0
14387,504194.412024167,2010-10-28 09:27:34,2881.4531002618064,7,44,-1.0993878841400146,3.43263840675354,42.97878965419098,42.89756497322192,171.77668257365673,156.22193347982235,-0.0003885269106831,0.0971632748842239,0,0,0
14388,504224.42707409686,2010-10-28 09:28:04,2911.468150186619,7,44,-1.0997490882873535,3.4185545444488525,42.97878965419098,42.906731619200364,171.77668257365673,156.2533372638233,-0.0004209041653666,0.0971632748842239,0,0,0
14389,504254.4422318103,2010-10-28 09:28:34,2941.483307809849,7,44,-1.0993878841400146,3.4012327194213867,42.97878965419098,42.91589824617537,171.77668257365673,156.28459812347782,-0.0005827903514727,0.0971632748842239,0,0,0
14390,504284.4573658548,2010-10-28 09:29:04,2971.4984418593262,7,44,-1.0993878841400146,3.380025625228882,42.97878965419098,42.92506486985182,171.77668257365673,156.31568350771605,-0.0007122993702068,0.0971632748842239,0,0,0
14391,504314.4725345556,2010-10-28 09:29:35,3001.513610575203,7,44,-1.099568486213684,3.3525049686431885,42.97878965419098,42.934231474375,171.77668257365673,156.3465469722376,-0.0008741855854168,0.0971632748842239,0,0,0
14392,504344.4876658131,2010-10-28 09:30:05,3031.5287418427465,7,44,-1.0993878841400146,3.316566467285156,42.97878965419098,42.94339804375774,171.77668257365673,156.37712135983813,-0.0011655807029455,0.0971632748842239,0,0,0
14393,504374.5028162184,2010-10-28 09:30:35,3061.5438923332,7,44,-1.0993878841400146,3.267515182495117,42.97878965419098,42.95256460315948,171.77668257365673,156.40730917451756,-0.0016188144218176,0.0971632748842239,0,0,0
14394,504404.5179883628,2010-10-28 09:31:05,3091.559064382383,7,44,-1.0993878841400146,3.198227882385254,42.97878965419098,42.96173117507744,171.77668257365673,156.4369625255102,-0.0022987842094153,0.0971632748842239,0,0,0
14395,504434.5335210658,2010-10-28 09:31:35,3121.574597095453,7,44,-1.0993878841400146,3.095268726348877,42.97878965419098,42.97089793423499,171.77668257365673,156.46584188534305,-0.0034643174149096,0.0971632748842239,0,0,0
14396,504464.5484171923,2010-10-28 09:32:05,3151.589493221953,7,44,-1.0993878841400146,2.91201400756836,42.97878965419098,42.98006448932136,171.77668257365673,156.49348040539132,-0.0071229934692382,0.0971632748842239,0,0,0
14397,504482.3935255332,2010-10-28 09:32:22,3169.4346013171285,7,44,-1.099568486213684,2.711761236190796,42.97878965419098,42.98551434439822,171.77668257365673,156.50884048978105,-0.0118824485689401,0.0971632748842239,0,0,0
14398,504483.28237711976,2010-10-28 09:32:23,3170.3234532346,7,44,-1.0993878841400146,2.699943780899048,42.97878965419098,42.98578579749874,171.77668257365673,156.50957501010285,-0.0120119098573923,0.0971632748842239,0,0,0
14399,504543.30537564046,2010-10-28 09:33:23,60.01103652796199,8,44,0.0,3.363189458847046,42.97878965419098,42.98578579749874,171.77668257365673,156.50957501010285,0.0014569759368896,0.0971632748842239,0,0,0
14400,504543.50523145776,2010-10-28 09:33:24,0.187158441423239,9,44,-1.9243103452026844e-05,3.363189458847046,42.97878965419098,42.98578579849916,171.77668257365673,156.50957501346744,0.0,0.0923885703086853,0,0,0
14401,504548.3332578901,2010-10-28 09:33:29,5.015184898901878,9,44,0.0010644125286489,3.371283769607544,42.978790806974295,42.98578579866636,171.7766864561078,156.5095750140298,0.0012303352123126,0.0923885703086853,0,0,0
