Data_Point,Test_Time(s),Date_Time,Step_Time(s),Step_Index,Cycle_Index,Current(A),Voltage(V),Charge_Capacity(Ah),Discharge_Capacity(Ah),Charge_Energy(Wh),Discharge_Energy(Wh),dV/dt(V/s),Internal_Resistance(Ohm),Is_FC_Data,AC_Impedance(Ohm),ACI_Phase_Angle(Deg)
15692,550564.451670396,2010-10-28 22:20:30,30.01517021962429,1,49,0.0,3.3868248462677,46.85060900142778,46.860644509968935,187.27960275541608,170.58488670806355,0.0007446765666827,0.0930307656526565,0,0,0
15693,550594.466808676,2010-10-28 22:21:00,60.03030849463278,1,49,0.0,3.4104602336883545,46.85060900142778,46.860644509968935,187.27960275541608,170.58488670806355,0.0005180359003134,0.0930307656526565,0,0,0
15694,550624.4819592417,2010-10-28 22:21:30,90.04545909034825,1,49,0.0,3.42859148979187,46.85060900142778,46.860644509968935,187.27960275541608,170.58488670806355,0.0004856586456298,0.0930307656526565,0,0,0
15695,550654.4502559381,2010-10-28 22:22:00,120.01375575665506,1,49,0.0,3.442837238311768,46.85060900142778,46.860644509968935,187.27960275541608,170.58488670806355,0.0003561496851034,0.0930307656526565,0,0,0
15696,550684.4723723055,2010-10-28 22:22:30,30.014724914787624,2,49,0.5501165986061096,3.602294683456421,46.855195204472686,46.860644509968935,187.2959577135364,170.58488670806355,0.0016512393485754,0.0930307656526565,0,0,0
15697,550714.4875547907,2010-10-28 22:23:00,60.029907394969,2,49,0.5497553944587708,3.650698661804199,46.85978150690903,46.860644509968935,187.312596764424,170.58488670806355,0.0010360718006268,0.0930307656526565,0,0,0
15698,550744.5026735471,2010-10-28 22:23:30,90.04502613128103,2,49,0.5501165986061096,3.685989618301392,46.86436776949815,46.860644509968935,187.32942474003568,170.58488670806355,0.0008418083307333,0.0930307656526565,0,0,0
15699,550774.5179593097,2010-10-28 22:24:00,120.06031189387396,2,49,0.5501165986061096,3.713510274887085,46.86895407606332,46.860644509968935,187.3463949814756,170.58488670806355,0.0006475448608398,0.0930307656526565,0,0,0
15700,550804.5332251576,2010-10-28 22:24:30,150.07557774183348,2,49,0.5501165986061096,3.7356886863708496,46.87354040915172,46.860644509968935,187.36347910211853,170.58488670806355,0.0005180359003134,0.0930307656526565,0,0,0
15701,550834.5481634241,2010-10-28 22:25:00,180.09051603843426,2,49,0.5501165986061096,3.754305362701416,46.87812659618248,46.860644509968935,187.38065611001085,170.58488670806355,0.0004208564641885,0.0930307656526565,0,0,0
15702,550864.5634046156,2010-10-28 22:25:30,210.10575720487984,2,49,0.5499359965324402,3.7683894634246826,46.88271286482147,46.860644509968935,187.39790855802465,170.58488670806355,0.0002913951757363,0.0930307656526565,0,0,0
15703,550894.5787948286,2010-10-28 22:26:00,240.12114743784508,2,49,0.5501165986061096,3.7772932052612314,46.88729913362411,46.860644509968935,187.41521338541017,170.58488670806355,0.0001618862152099,0.0930307656526565,0,0,0
15704,550924.593578981,2010-10-28 22:26:30,270.13593156520864,2,49,0.5501165986061096,3.782635450363159,46.89188526007624,46.860644509968935,187.43254947712109,170.58488670806355,0.0001295089750783,0.0930307656526565,0,0,0
15705,550954.6087290905,2010-10-28 22:27:00,300.15108166969986,2,49,0.5501165986061096,3.787006378173828,46.89647156134371,46.860644509968935,187.4499081389208,170.58488670806355,9.713172767078504e-05,0.0930307656526565,0,0,0
15706,550984.6238734958,2010-10-28 22:27:30,330.1662260749869,2,49,0.5499359965324402,3.790891647338867,46.901057857099886,46.860644509968935,187.46728557090847,170.58488670806355,9.713172767078504e-05,0.0930307656526565,0,0,0
15707,551014.6391762106,2010-10-28 22:28:00,360.18152879484256,2,49,0.5499359965324402,3.794615030288696,46.905644118890045,46.860644509968935,187.4846807335332,170.58488670806355,6.47544875391759e-05,0.0930307656526565,0,0,0
15708,551044.6543080547,2010-10-28 22:28:30,390.1966606688978,2,49,0.5501165986061096,3.798662185668945,46.91023041501392,46.860644509968935,187.5020935638894,170.58488670806355,0.0001295089750783,0.0930307656526565,0,0,0
15709,551074.6693336437,2010-10-28 22:29:00,420.211686232996,2,49,0.5501165986061096,3.8023855686187744,46.91481660384627,46.860644509968935,187.51952314186352,170.58488670806355,0.0001295089750783,0.0930307656526565,0,0,0
15710,551104.6844803347,2010-10-28 22:29:30,450.22683292397977,2,49,0.5501165986061096,3.8059470653533936,46.91940283832032,46.860644509968935,187.536969688338,170.58488670806355,9.713172767078504e-05,0.0930307656526565,0,0,0
15711,551134.6996417625,2010-10-28 22:30:00,480.24199434166695,2,49,0.5501165986061096,3.8093466758728023,46.92398911225227,46.860644509968935,187.5544328540341,170.58488670806355,9.713172767078504e-05,0.0930307656526565,0,0,0
15712,551164.7147739072,2010-10-28 22:30:31,510.2571264914093,2,49,0.5501165986061096,3.813070058822632,46.92857542561968,46.860644509968935,187.57191218421684,170.58488670806355,0.0001295089750783,0.0930307656526565,0,0,0
15713,551194.7299164579,2010-10-28 22:31:01,540.2722690470866,2,49,0.5501165986061096,3.816469669342041,46.93316170255554,46.860644509968935,187.58940743439933,170.58488670806355,0.0001295089750783,0.0930307656526565,0,0,0
15714,551224.7452511574,2010-10-28 22:31:31,570.2876037767205,2,49,0.550297200679779,3.81970739364624,46.93774802782583,46.860644509968935,187.60691829646169,170.58488670806355,6.47544875391759e-05,0.0930307656526565,0,0,0
15715,551254.7603817483,2010-10-28 22:32:01,600.3027343375028,2,49,0.5499359965324402,3.8231070041656494,46.942334337251744,46.860644509968935,187.62444434610703,170.58488670806355,9.713172767078504e-05,0.0930307656526565,0,0,0
15716,551284.7753853728,2010-10-28 22:32:31,630.3177379769579,2,49,0.5501165986061096,3.8263447284698486,46.94692053652146,46.860644509968935,187.64198509643504,170.58488670806355,9.713172767078504e-05,0.0930307656526565,0,0,0
15717,551314.7905193571,2010-10-28 22:33:01,660.3328719462352,2,49,0.5501165986061096,3.829582452774048,46.9515068033211,46.860644509968935,187.6595412057885,170.58488670806355,9.713172767078504e-05,0.0930307656526565,0,0,0
15718,551344.8056703538,2010-10-28 22:33:31,690.3480229329251,2,49,0.5499359965324402,3.832820177078247,46.95609310929213,46.860644509968935,187.67711255580824,170.58488670806355,6.47544875391759e-05,0.0930307656526565,0,0,0
15719,551374.8208337715,2010-10-28 22:34:01,720.3631863556093,2,49,0.5501165986061096,3.836219549179077,46.96067936220911,46.860644509968935,187.69469884867107,170.58488670806355,9.713172767078504e-05,0.0930307656526565,0,0,0
15720,551404.8359612896,2010-10-28 22:34:31,750.378313898871,2,49,0.5497553944587708,3.8396191596984863,46.96526558978896,46.860644509968935,187.7123004789576,170.58488670806355,6.47544875391759e-05,0.0930307656526565,0,0,0
15721,551434.8511356796,2010-10-28 22:35:01,780.3934882688394,2,49,0.5501165986061096,3.843018770217896,46.96985182514646,46.860644509968935,187.7299177950516,170.58488670806355,9.713172767078504e-05,0.0930307656526565,0,0,0
15722,551464.8662599396,2010-10-28 22:35:31,810.4086125239057,2,49,0.5499359965324402,3.8464183807373047,46.97443807440414,46.860644509968935,187.74755098519955,170.58488670806355,6.47544875391759e-05,0.0930307656526565,0,0,0
15723,551494.8816084939,2010-10-28 22:36:01,840.4239612183442,2,49,0.5501165986061096,3.849979877471924,46.97902437886285,46.860644509968935,187.76520042543083,170.58488670806355,6.47544875391759e-05,0.0930307656526565,0,0,0
15724,551524.8965544094,2010-10-28 22:36:31,870.4389070186464,2,49,0.5501165986061096,3.853379487991333,46.98361060047828,46.860644509968935,187.78286547193272,170.58488670806355,6.47544875391759e-05,0.0930307656526565,0,0,0
15725,551554.9121985702,2010-10-28 22:37:01,900.4545512446405,2,49,0.5501165986061096,3.857102870941162,46.98819693662669,46.860644509968935,187.80054665298485,170.58488670806355,0.0001295089750783,0.0930307656526565,0,0,0
15726,551584.9268659566,2010-10-28 22:37:31,930.4692185408248,2,49,0.5501165986061096,3.860178709030152,46.992783127028346,46.860644509968935,187.81824284768743,170.58488670806355,6.47544875391759e-05,0.0930307656526565,0,0,0
15727,551614.942010813,2010-10-28 22:38:01,960.4843633972362,2,49,0.5501165986061096,3.863578319549561,46.99736942864788,46.860644509968935,187.8359548238464,170.58488670806355,6.47544875391759e-05,0.0930307656526565,0,0,0
15728,551644.9571636042,2010-10-28 22:38:31,990.4995161884236,2,49,0.5501165986061096,3.8669779300689697,47.00195576842311,46.860644509968935,187.85368192426745,170.58488670806355,0.0001295089750783,0.0930307656526565,0,0,0
15729,551674.9722868267,2010-10-28 22:39:01,1020.514639435979,2,49,0.5499359965324402,3.870053768157959,47.00654196112518,46.860644509968935,187.871423240404,170.58488670806355,9.713172767078504e-05,0.0930307656526565,0,0,0
15730,551704.9874289013,2010-10-28 22:39:31,1050.5297814853943,2,49,0.550297200679779,3.873291492462158,47.01112824580692,46.860644509968935,187.8891793837523,170.58488670806355,0.0001295089750783,0.0930307656526565,0,0,0
15731,551735.0025903389,2010-10-28 22:40:01,1080.5449429431817,2,49,0.5499359965324402,3.8762054443359375,47.01571454014651,46.860644509968935,187.9069495333441,170.58488670806355,9.713172767078504e-05,0.0930307656526565,0,0,0
15732,551765.0177242782,2010-10-28 22:40:31,1110.5600768924087,2,49,0.5501165986061096,3.878957509994507,47.02030073907907,46.860644509968935,187.9247329781151,170.58488670806355,6.47544875391759e-05,0.0930307656526565,0,0,0
15733,551795.0328745331,2010-10-28 22:41:01,1140.5752271171996,2,49,0.5497553944587708,3.881871461868286,47.024886957964426,46.860644509968935,187.942529557852,170.58488670806355,6.47544875391759e-05,0.0930307656526565,0,0,0
15734,551825.0480152591,2010-10-28 22:41:31,1170.590367873392,2,49,0.5501165986061096,3.8844616413116455,47.02947324224873,46.860644509968935,187.96033900332492,170.58488670806355,6.47544875391759e-05,0.0930307656526565,0,0,0
15735,551855.0632520197,2010-10-28 22:42:01,1200.605604598769,2,49,0.5501165986061096,3.887051820755005,47.03405953533319,46.860644509968935,187.9781603142271,170.58488670806355,6.47544875391759e-05,0.0930307656526565,0,0,0
15736,551885.0784342341,2010-10-28 22:42:31,1230.620786818301,2,49,0.5501165986061096,3.8894801139831534,47.03864585171672,46.860644509968935,187.9959930086821,170.58488670806355,3.237724376958795e-05,0.0930307656526565,0,0,0
15737,551915.0961613713,2010-10-28 22:43:01,1260.6385140758507,2,49,0.5497553944587708,3.891584634780884,47.043232605865896,46.860644509968935,188.01383796402996,170.58488670806355,6.47544875391759e-05,0.0930307656526565,0,0,0
15738,551945.1086134716,2010-10-28 22:43:31,1290.6509660808476,2,49,0.550297200679779,3.8938510417938232,47.04781848848018,46.860644509968935,188.0316894826049,170.58488670806355,6.47544875391759e-05,0.0930307656526565,0,0,0
15739,551975.12389554,2010-10-28 22:44:01,1320.6662481492333,2,49,0.5499359965324402,3.895631790161133,47.05240481576976,46.860644509968935,188.04955176129195,170.58488670806355,6.47544875391759e-05,0.0930307656526565,0,0,0
15740,552005.1388892797,2010-10-28 22:44:31,1350.6812418639531,2,49,0.5499359965324402,3.897250652313232,47.056990749046406,46.860644509968935,188.0674210297923,170.58488670806355,0.0,0.0930307656526565,0,0,0
15741,552035.1540341813,2010-10-28 22:45:01,1380.6963867704897,2,49,0.5501165986061096,3.899193286895752,47.06157619407444,46.860644509968935,188.0852964036679,170.58488670806355,6.47544875391759e-05,0.0930307656526565,0,0,0
15742,552065.1693130067,2010-10-28 22:45:31,1410.7116656008052,2,49,0.5499359965324402,3.9006502628326416,47.0661618383126,46.860644509968935,188.103180126074,170.58488670806355,6.47544875391759e-05,0.0930307656526565,0,0,0
15743,552095.184319794,2010-10-28 22:46:01,1440.7266723830933,2,49,0.5499359965324402,3.902269124984741,47.07074716801056,46.860644509968935,188.12106979744104,170.58488670806355,3.237724376958795e-05,0.0930307656526565,0,0,0
15744,552125.1994592719,2010-10-28 22:46:31,1470.7418118611,2,49,0.5499359965324402,3.903726100921631,47.0753325753438,46.860644509968935,188.13896664740685,170.58488670806355,6.47544875391759e-05,0.0930307656526565,0,0,0
15745,552155.2147213254,2010-10-28 22:47:01,1500.7570739146026,2,49,0.550297200679779,3.905183076858521,47.07991800244047,46.860644509968935,188.1568702131649,170.58488670806355,3.237724376958795e-05,0.0930307656526565,0,0,0
15746,552185.2297095765,2010-10-28 22:47:31,1530.7720621857552,2,49,0.550297200679779,3.90664005279541,47.08450354025927,46.860644509968935,188.1747804873469,170.58488670806355,6.47544875391759e-05,0.0930307656526565,0,0,0
15747,552215.2450183214,2010-10-28 22:48:01,1560.7873709105772,2,49,0.550297200679779,3.90793514251709,47.08908981696188,46.860644509968935,188.1927001218092,170.58488670806355,6.47544875391759e-05,0.0930307656526565,0,0,0
15748,552245.2602652622,2010-10-28 22:48:31,1590.8026178814891,2,49,0.5501165986061096,3.9092302322387695,47.09367606742333,46.860644509968935,188.21062584449152,170.58488670806355,3.237724376958795e-05,0.0930307656526565,0,0,0
15749,552275.2752284007,2010-10-28 22:49:01,1620.8175809849165,2,49,0.5501165986061096,3.910525321960449,47.09826226787356,46.860644509968935,188.22855757370172,170.58488670806355,3.237724376958795e-05,0.0930307656526565,0,0,0
15750,552305.2903087062,2010-10-28 22:49:31,1650.8326613104969,2,49,0.5501165986061096,3.911820411682129,47.10284852616801,46.860644509968935,188.2464956349106,170.58488670806355,0.0,0.0930307656526565,0,0,0
15751,552335.3054631215,2010-10-28 22:50:01,1680.8478157407692,2,49,0.5501165986061096,3.9132773876190186,47.1074348630707,46.860644509968935,188.2644401761306,170.58488670806355,6.47544875391759e-05,0.0930307656526565,0,0,0
15752,552365.320595206,2010-10-28 22:50:31,1710.8629478203368,2,49,0.5499359965324402,3.914410352706909,47.11202118392469,46.860644509968935,188.28239082208304,170.58488670806355,0.0,0.0930307656526565,0,0,0
15753,552395.3357448142,2010-10-28 22:51:01,1740.8780974185663,2,49,0.5501165986061096,3.915867328643799,47.11660758678666,46.860644509968935,188.30034789513252,170.58488670806355,3.237724376958795e-05,0.0930307656526565,0,0,0
15754,552425.3508447789,2010-10-28 22:51:31,1770.8931973680558,2,49,0.5499359965324402,3.9171624183654794,47.121194706298986,46.860644509968935,188.31831405777504,170.58488670806355,-3.237724376958795e-05,0.0930307656526565,0,0,0
15755,552455.366240716,2010-10-28 22:52:01,1800.90859343055,2,49,0.5501165986061096,3.918457508087158,47.12578186728501,46.860644509968935,188.3362866314622,170.58488670806355,0.0,0.0930307656526565,0,0,0
15756,552485.3813120743,2010-10-28 22:52:31,1830.9236647837688,2,49,0.5501165986061096,3.920076370239258,47.13036884219108,46.860644509968935,188.354264772696,170.58488670806355,3.237724376958795e-05,0.0930307656526565,0,0,0
15757,552515.3962895535,2010-10-28 22:53:01,1860.9386421377128,2,49,0.550297200679779,3.921533346176148,47.134955949598336,46.860644509968935,188.3722497011641,170.58488670806355,6.47544875391759e-05,0.0930307656526565,0,0,0
15758,552545.4115643839,2010-10-28 22:53:31,1890.9539169730715,2,49,0.5504778623580933,3.922828435897827,47.13954315023161,46.860644509968935,188.39024137906733,170.58488670806355,3.237724376958795e-05,0.0930307656526565,0,0,0
15759,552575.4266202936,2010-10-28 22:54:01,1920.9689728828,2,49,0.5501165986061096,3.924123525619507,47.1441302813953,46.860644509968935,188.40823918808312,170.58488670806355,3.237724376958795e-05,0.0930307656526565,0,0,0
15760,552605.4417442279,2010-10-28 22:54:31,1950.9840968120548,2,49,0.5499359965324402,3.9254186153411865,47.148716916515525,46.860644509968935,188.42624146931036,170.58488670806355,0.0,0.0930307656526565,0,0,0
15761,552635.4568881419,2010-10-28 22:55:01,1980.9992407261177,2,49,0.5499359965324402,3.927037477493286,47.15330337138846,46.860644509968935,188.4442494514144,170.58488670806355,6.47544875391759e-05,0.0930307656526565,0,0,0
15762,552665.4720245271,2010-10-28 22:55:31,2011.014377111416,2,49,0.5501165986061096,3.9286563396453857,47.1578898593568,46.860644509968935,188.46226416109252,170.58488670806355,6.47544875391759e-05,0.0930307656526565,0,0,0
15763,552695.4874294116,2010-10-28 22:56:01,2041.0297820109347,2,49,0.5501165986061096,3.9299514293670654,47.16247640616856,46.860644509968935,188.48028566986008,170.58488670806355,3.237724376958795e-05,0.0930307656526565,0,0,0
15764,552725.502285373,2010-10-28 22:56:31,2071.0446379572936,2,49,0.5501165986061096,3.931408405303955,47.16706290125218,46.860644509968935,188.4983136202372,170.58488670806355,6.47544875391759e-05,0.0930307656526565,0,0,0
15765,552755.5176059274,2010-10-28 22:57:01,2101.0599585466857,2,49,0.5501165986061096,3.9328653812408447,47.17164943564136,46.860644509968935,188.5163484150068,170.58488670806355,0.0,0.0930307656526565,0,0,0
15766,552785.532623246,2010-10-28 22:57:31,2131.0749758552083,2,49,0.550297200679779,3.934484243392944,47.17623591690008,46.860644509968935,188.53438978868016,170.58488670806355,3.237724376958795e-05,0.0930307656526565,0,0,0
15767,552815.5492156501,2010-10-28 22:58:01,2161.091568354592,2,49,0.5501165986061096,3.935941219329834,47.18082256407386,46.860644509968935,188.55243863101103,170.58488670806355,3.237724376958795e-05,0.0930307656526565,0,0,0
15768,552845.5630637797,2010-10-28 22:58:31,2191.105416393936,2,49,0.5499359965324402,3.9372363090515137,47.18540884407915,46.860644509968935,188.57049273692016,170.58488670806355,3.237724376958795e-05,0.0930307656526565,0,0,0
15769,552875.5780805268,2010-10-28 22:59:01,2221.120433141059,2,49,0.550297200679779,3.938855171203613,47.1899953051275,46.860644509968935,188.5885546124972,170.58488670806355,6.47544875391759e-05,0.0930307656526565,0,0,0
15770,552905.5932411675,2010-10-28 22:59:31,2251.1355937818103,2,49,0.5501165986061096,3.940474033355713,47.194581711352285,46.860644509968935,188.60662316183596,170.58488670806355,6.47544875391759e-05,0.0930307656526565,0,0,0
15771,552935.6084960933,2010-10-28 23:00:01,2281.1508486874977,2,49,0.5499359965324402,3.9419310092926025,47.19916822854896,46.860644509968935,188.62469918442304,170.58488670806355,6.47544875391759e-05,0.0930307656526565,0,0,0
15772,552965.6236514108,2010-10-28 23:00:31,2311.1660040300444,2,49,0.550297200679779,3.943549871444702,47.20375472092739,46.860644509968935,188.6427821773706,170.58488670806355,6.47544875391759e-05,0.0930307656526565,0,0,0
15773,552995.6386581229,2010-10-28 23:01:01,2341.18101070707,2,49,0.550297200679779,3.945006847381592,47.20834126878754,46.860644509968935,188.66087251102132,170.58488670806355,3.237724376958795e-05,0.0930307656526565,0,0,0
15774,553025.653810859,2010-10-28 23:01:31,2371.196163468182,2,49,0.5501165986061096,3.9464638233184814,47.21292777602185,46.860644509968935,188.6789698717141,170.58488670806355,0.0,0.0930307656526565,0,0,0
15775,553055.6689686326,2010-10-28 23:02:01,2401.211321241787,2,49,0.5501165986061096,3.948244571685791,47.21751424362344,46.860644509968935,188.6970741329084,170.58488670806355,6.47544875391759e-05,0.0930307656526565,0,0,0
15776,553085.6840939453,2010-10-28 23:02:32,2431.226446554489,2,49,0.5497553944587708,3.949539661407471,47.2221007915438,46.860644509968935,188.71518604717303,170.58488670806355,0.0,0.0930307656526565,0,0,0
15777,553115.6992539695,2010-10-28 23:03:02,2461.2416065486286,2,49,0.5501165986061096,3.9514822959899902,47.22668728014949,46.860644509968935,188.7333050389533,170.58488670806355,3.237724376958795e-05,0.0930307656526565,0,0,0
15778,553145.7144058082,2010-10-28 23:03:32,2491.25675842253,2,49,0.5501165986061096,3.95293927192688,47.231273766867815,46.860644509968935,188.75143128335816,170.58488670806355,6.47544875391759e-05,0.0930307656526565,0,0,0
15779,553175.7295338026,2010-10-28 23:04:02,2521.2718863868413,2,49,0.5499359965324402,3.9543962478637695,47.23586023029424,46.860644509968935,188.7695648504877,170.58488670806355,0.0,0.0930307656526565,0,0,0
15780,553205.7446763283,2010-10-28 23:04:32,2551.287028912443,2,49,0.5499359965324402,3.956176996231079,47.24044671891543,46.860644509968935,188.7877059564921,170.58488670806355,0.0,0.0930307656526565,0,0,0
15781,553235.7598351595,2010-10-28 23:05:02,2581.3021877486967,2,49,0.5501165986061096,3.9577958583831783,47.245033269316274,46.860644509968935,188.80585471995465,170.58488670806355,6.47544875391759e-05,0.0930307656526565,0,0,0
15782,553265.7749535048,2010-10-28 23:05:32,2611.3173061140847,2,49,0.5501165986061096,3.9594147205352783,47.24961974139282,46.860644509968935,188.8240107457511,170.58488670806355,6.47544875391759e-05,0.0930307656526565,0,0,0
15783,553295.790114326,2010-10-28 23:06:02,2641.3324669402973,2,49,0.5501165986061096,3.961195468902588,47.25420624912348,46.860644509968935,188.84217456163577,170.58488670806355,6.47544875391759e-05,0.0930307656526565,0,0,0
15784,553325.8053418385,2010-10-28 23:06:32,2671.34769454795,2,49,0.550297200679779,3.962814331054688,47.25879279531852,46.860644509968935,188.8603462014296,170.58488670806355,6.47544875391759e-05,0.0930307656526565,0,0,0
15785,553355.8204068558,2010-10-28 23:07:02,2701.362759470141,2,49,0.550297200679779,3.964595079421997,47.263379219714736,46.860644509968935,188.87852513311464,170.58488670806355,9.713172767078504e-05,0.0930307656526565,0,0,0
15786,553385.8356553706,2010-10-28 23:07:32,2731.378007969863,2,49,0.5501165986061096,3.966375827789306,47.267965717022754,46.860644509968935,188.89671210854857,170.58488670806355,6.47544875391759e-05,0.0930307656526565,0,0,0
15787,553415.8508906424,2010-10-28 23:08:02,2761.393243341867,2,49,0.550297200679779,3.9679946899414062,47.27255229189144,46.860644509968935,188.91490716602172,170.58488670806355,9.713172767078504e-05,0.0930307656526565,0,0,0
15788,553445.8658185381,2010-10-28 23:08:32,2791.4081711222584,2,49,0.5501165986061096,3.969613552093506,47.27713880650527,46.860644509968935,188.93310981923736,170.58488670806355,3.237724376958795e-05,0.0930307656526565,0,0,0
15789,553475.8810874035,2010-10-28 23:09:02,2821.423439997764,2,49,0.5501165986061096,3.9712324142456055,47.28172544424207,46.860644509968935,188.9513208829806,170.58488670806355,3.237724376958795e-05,0.0930307656526565,0,0,0
15790,553505.8960977197,2010-10-28 23:09:32,2851.4384503038345,2,49,0.5501165986061096,3.973013162612915,47.28631202625446,46.860644509968935,188.96953970721927,170.58488670806355,6.47544875391759e-05,0.0930307656526565,0,0,0
15791,553535.9112972523,2010-10-28 23:10:02,2881.4536498315038,2,49,0.5499359965324402,3.974632024765015,47.290898603822505,46.860644509968935,188.98776652464875,170.58488670806355,-3.237724376958795e-05,0.0930307656526565,0,0,0
15792,553565.9263975727,2010-10-28 23:10:32,2911.4687501569297,2,49,0.5501165986061096,3.976736545562744,47.29548517668318,46.860644509968935,189.00600143186784,170.58488670806355,9.713172767078504e-05,0.0930307656526565,0,0,0
15793,553595.941531953,2010-10-28 23:11:02,2941.483884562293,2,49,0.5501165986061096,3.978031635284424,47.30007180799564,46.860644509968935,189.02424441172488,170.58488670806355,3.237724376958795e-05,0.0930307656526565,0,0,0
15794,553625.9566803583,2010-10-28 23:11:32,2971.499032937475,2,49,0.5499359965324402,3.980136156082153,47.30465833467771,46.860644509968935,189.0424955354572,170.58488670806355,3.237724376958795e-05,0.0930307656526565,0,0,0
15795,553655.9718398913,2010-10-28 23:12:02,3001.514192475477,2,49,0.5501165986061096,3.982078790664673,47.309244865781785,46.860644509968935,189.06075501778807,170.58488670806355,6.47544875391759e-05,0.0930307656526565,0,0,0
15796,553685.9869669534,2010-10-28 23:12:32,3031.52931953754,2,49,0.5501165986061096,3.9838595390319824,47.31383131466436,46.860644509968935,189.0790224805335,170.58488670806355,3.237724376958795e-05,0.0930307656526565,0,0,0
15797,553716.0021105917,2010-10-28 23:13:02,3061.544463175915,2,49,0.5501165986061096,3.985640287399292,47.31841779116322,46.860644509968935,189.09729847329407,170.58488670806355,6.47544875391759e-05,0.0930307656526565,0,0,0
15798,553746.0172727864,2010-10-28 23:13:32,3091.559625395601,2,49,0.5501165986061096,3.987582921981812,47.32300429691834,46.860644509968935,189.1155830739565,170.58488670806355,6.47544875391759e-05,0.0930307656526565,0,0,0
15799,553776.0324893364,2010-10-28 23:14:02,3121.574841920633,2,49,0.5501165986061096,3.989525556564331,47.32759081276421,46.860644509968935,189.13387616296865,170.58488670806355,6.47544875391759e-05,0.0930307656526565,0,0,0
15800,553806.0475401133,2010-10-28 23:14:32,3151.5898926975697,2,49,0.5499359965324402,3.991144418716431,47.33217723028521,46.860644509968935,189.15217749403945,170.58488670806355,3.237724376958795e-05,0.0930307656526565,0,0,0
15801,553836.0654654396,2010-10-28 23:15:02,3181.607818144066,2,49,0.5501165986061096,3.99324893951416,47.33676413398606,46.860644509968935,189.1704895500956,170.58488670806355,3.237724376958795e-05,0.0930307656526565,0,0,0
15802,553866.07783936,2010-10-28 23:15:32,3211.620191944153,2,49,0.550297200679779,3.9951913356781006,47.34135015108698,46.860644509968935,189.18880673865536,170.58488670806355,3.237724376958795e-05,0.0930307656526565,0,0,0
15803,553896.0931920394,2010-10-28 23:16:02,3241.6355446385605,2,49,0.5501165986061096,3.99697208404541,47.34593672780088,46.860644509968935,189.2071351027808,170.58488670806355,3.237724376958795e-05,0.0930307656526565,0,0,0
15804,553926.108235483,2010-10-28 23:16:32,3271.650588082221,2,49,0.5501165986061096,3.99907660484314,47.35052324758949,46.860644509968935,189.22547211444103,170.58488670806355,6.47544875391759e-05,0.0930307656526565,0,0,0
15805,553956.1232756334,2010-10-28 23:17:02,3301.6656282226472,2,49,0.5501165986061096,4.001019477844238,47.35510970418745,46.860644509968935,189.24381793197537,170.58488670806355,6.47544875391759e-05,0.0930307656526565,0,0,0
15806,553986.1385202183,2010-10-28 23:17:32,3331.680872817638,2,49,0.5501165986061096,4.002962112426758,47.35969621425967,46.860644509968935,189.26217312149777,170.58488670806355,9.71794142969884e-05,0.0930307656526565,0,0,0
15807,554016.1535701182,2010-10-28 23:18:02,3361.695922747463,2,49,0.5501165986061096,4.005066394805908,47.364282691260016,46.860644509968935,189.28053740785836,170.58488670806355,6.47544875391759e-05,0.0930307656526565,0,0,0
15808,554046.1691355477,2010-10-28 23:18:32,3391.711488187097,2,49,0.5501165986061096,4.007009029388428,47.36886924227037,46.860644509968935,189.29891145195725,170.58488670806355,6.47544875391759e-05,0.0930307656526565,0,0,0
15809,554076.1839250134,2010-10-28 23:19:02,3421.726277642741,2,49,0.5499359965324402,4.008951663970947,47.37345569966115,46.860644509968935,189.317294631775,170.58488670806355,0.0,0.0930307656526565,0,0,0
15810,554106.1989957802,2010-10-28 23:19:32,3451.7413484997223,2,49,0.5501165986061096,4.011380195617676,47.378042156904094,46.860644509968935,189.33568742946184,170.58488670806355,6.47544875391759e-05,0.0930307656526565,0,0,0
15811,554136.2141810723,2010-10-28 23:20:02,3481.756533656575,2,49,0.5501165986061096,4.013484477996826,47.38262864341791,46.860644509968935,189.35409000004427,170.58488670806355,6.47544875391759e-05,0.0930307656526565,0,0,0
15812,554166.2294928248,2010-10-28 23:20:32,3511.77184542398,2,49,0.5499359965324402,4.015589237213135,47.387215168616684,46.860644509968935,189.3725025832219,170.58488670806355,6.47544875391759e-05,0.0930307656526565,0,0,0
15813,554196.2447279711,2010-10-28 23:21:02,3541.7870806305714,2,49,0.5499359965324402,4.017693519592285,47.391801668667455,46.860644509968935,189.39092506533973,170.58488670806355,6.47544875391759e-05,0.0930307656526565,0,0,0
15814,554226.2595680329,2010-10-28 23:21:32,3571.801920617153,2,49,0.5501165986061096,4.019959926605225,47.39638813788115,46.860644509968935,189.4093574160804,170.58488670806355,6.47544875391759e-05,0.0930307656526565,0,0,0
15815,554256.2748010341,2010-10-28 23:22:02,3601.8171536132363,2,49,0.550297200679779,4.022226333618164,47.400974598825016,46.860644509968935,189.427799932054,170.58488670806355,6.47544875391759e-05,0.0930307656526565,0,0,0
15816,554286.2898320918,2010-10-28 23:22:32,3631.832184671026,2,49,0.5499359965324402,4.024492740631104,47.40556100091105,46.860644509968935,189.4462524732171,170.58488670806355,6.47544875391759e-05,0.0930307656526565,0,0,0
15817,554316.3050552786,2010-10-28 23:23:02,3661.847407892749,2,49,0.5499359965324402,4.026597499847412,47.41014746598868,46.860644509968935,189.46471563467395,170.58488670806355,3.24249267578125e-05,0.0930307656526565,0,0,0
15818,554346.3201185014,2010-10-28 23:23:32,3691.8624710906415,2,49,0.5501165986061096,4.029025554656982,47.41473397763434,46.860644509968935,189.4831895564901,170.58488670806355,6.47544875391759e-05,0.0930307656526565,0,0,0
15819,554376.3355726287,2010-10-28 23:24:02,3721.8779252128384,2,49,0.5501165986061096,4.031291961669922,47.41932051279783,46.860644509968935,189.5016740495572,170.58488670806355,6.47544875391759e-05,0.0930307656526565,0,0,0
15820,554406.3505282284,2010-10-28 23:24:32,3751.892880842639,2,49,0.550297200679779,4.03372049331665,47.423906946348446,46.860644509968935,189.52016882147856,170.58488670806355,9.71794142969884e-05,0.0930307656526565,0,0,0
15821,554436.3657613948,2010-10-28 23:25:02,3781.9081139941086,2,49,0.5501165986061096,4.036148548126221,47.42849349259826,46.860644509968935,189.53867486374887,170.58488670806355,6.47544875391759e-05,0.0930307656526565,0,0,0
15822,554466.3808625274,2010-10-28 23:25:32,3811.923215126546,2,49,0.550297200679779,4.03841495513916,47.433079964552434,46.860644509968935,189.55719150483912,170.58488670806355,3.24249267578125e-05,0.0930307656526565,0,0,0
15823,554496.3959275347,2010-10-28 23:26:02,3841.9382801489874,2,49,0.550297200679779,4.04100513458252,47.43766650422605,46.860644509968935,189.57571934566337,170.58488670806355,9.71794142969884e-05,0.0930307656526565,0,0,0
15824,554526.4109913541,2010-10-28 23:26:32,3871.953343938354,2,49,0.5501165986061096,4.04343318939209,47.4422529446884,46.860644509968935,189.59425782549417,170.58488670806355,9.70840483205393e-05,0.0930307656526565,0,0,0
15825,554556.4261567417,2010-10-28 23:27:02,3901.9685093610233,2,49,0.550297200679779,4.045699596405029,47.44683953334251,46.860644509968935,189.61280811488808,170.58488670806355,6.47544875391759e-05,0.0930307656526565,0,0,0
15826,554586.4412959942,2010-10-28 23:27:32,3931.98364857838,2,49,0.5499359965324402,4.047966003417969,47.45142607002804,46.860644509968935,189.63136947557612,170.58488670806355,3.23295607813634e-05,0.0930307656526565,0,0,0
15827,554616.4566553602,2010-10-28 23:28:02,3961.9990080647153,2,49,0.550297200679779,4.050718307495117,47.456012688065,46.860644509968935,189.6499425925712,170.58488670806355,6.47544875391759e-05,0.0930307656526565,0,0,0
15828,554646.4715567899,2010-10-28 23:28:32,3992.013909374132,2,49,0.5501165986061096,4.053146362304688,47.460599185246025,46.860644509968935,189.66852668028903,170.58488670806355,6.47544875391759e-05,0.0930307656526565,0,0,0
15829,554676.4867874752,2010-10-28 23:29:02,4022.029140084519,2,49,0.5499359965324402,4.055736541748047,47.4651857148297,46.860644509968935,189.68712241292323,170.58488670806355,6.47544875391759e-05,0.0930307656526565,0,0,0
15830,554706.5018443775,2010-10-28 23:29:32,4052.0441969616586,2,49,0.5501165986061096,4.058165073394775,47.469772269866425,46.860644509968935,189.70572988978697,170.58488670806355,3.24249267578125e-05,0.0930307656526565,0,0,0
15831,554736.5170260306,2010-10-28 23:30:02,4082.0593786147774,2,49,0.5501165986061096,4.060755252838135,47.47435884098151,46.860644509968935,189.724349211411,170.58488670806355,9.71794142969884e-05,0.0930307656526565,0,0,0
15832,554766.5321325264,2010-10-28 23:30:32,4112.074485110583,2,49,0.550297200679779,4.063345432281494,47.47894531311662,46.860644509968935,189.7429795612973,170.58488670806355,6.47544875391759e-05,0.0930307656526565,0,0,0
15833,554796.5473038087,2010-10-28 23:31:02,4142.089656422931,2,49,0.550297200679779,4.0659356117248535,47.48353183785857,46.860644509968935,189.76162224802212,170.58488670806355,6.47544875391759e-05,0.0930307656526565,0,0,0
15834,554826.5625394214,2010-10-28 23:31:32,4172.104892020498,2,49,0.5499359965324402,4.068687438964844,47.488118310965696,46.860644509968935,189.78027678463016,170.58488670806355,9.70840483205393e-05,0.0930307656526565,0,0,0
15835,554856.5776986134,2010-10-28 23:32:02,4202.120051202613,2,49,0.550297200679779,4.071439743041992,47.492704785281305,46.860644509968935,189.7989434982105,170.58488670806355,9.71794142969884e-05,0.0930307656526565,0,0,0
15836,554886.5928242118,2010-10-28 23:32:32,4232.135176831102,2,49,0.5499359965324402,4.073706150054932,47.49729124743072,46.860644509968935,189.8176223182356,170.58488670806355,0.0,0.0930307656526565,0,0,0
15837,554916.6078466381,2010-10-28 23:33:02,4262.15019925738,2,49,0.5501165986061096,4.076620101928711,47.50187768523226,46.860644509968935,189.83631339842552,170.58488670806355,6.47544875391759e-05,0.0930307656526565,0,0,0
15838,554946.6229887225,2010-10-28 23:33:32,4292.165341311807,2,49,0.5501165986061096,4.079371929168701,47.50646420677839,46.860644509968935,189.85501725843827,170.58488670806355,6.47544875391759e-05,0.0930307656526565,0,0,0
15839,554976.6381453583,2010-10-28 23:34:02,4322.180497967627,2,49,0.5499359965324402,4.08212423324585,47.51105069903279,46.860644509968935,189.87373363490195,170.58488670806355,6.47544875391759e-05,0.0930307656526565,0,0,0
15840,555006.6533044704,2010-10-28 23:34:33,4352.195657054505,2,49,0.5501165986061096,4.085038185119629,47.51563716986305,46.860644509968935,189.89246267793348,170.58488670806355,9.71794142969884e-05,0.0930307656526565,0,0,0
15841,555036.6684298532,2010-10-28 23:35:03,4382.210782442395,2,49,0.5501165986061096,4.087790012359619,47.52022367631124,46.860644509968935,189.9112047172176,170.58488670806355,9.70840483205393e-05,0.0930307656526565,0,0,0
15842,555066.6836322631,2010-10-28 23:35:33,4412.225984977559,2,49,0.5501165986061096,4.090542316436768,47.52481015543988,46.860644509968935,189.9299596299793,170.58488670806355,6.47544875391759e-05,0.0930307656526565,0,0,0
15843,555096.698713551,2010-10-28 23:36:03,4442.241066145239,2,49,0.5501165986061096,4.093456268310547,47.52939667504652,46.860644509968935,189.9487277996428,170.58488670806355,9.71794142969884e-05,0.0930307656526565,0,0,0
15844,555126.7139683915,2010-10-28 23:36:33,4472.256320990777,2,49,0.5501165986061096,4.096370220184326,47.53398318702638,46.860644509968935,189.96750920818505,170.58488670806355,3.24249267578125e-05,0.0930307656526565,0,0,0
15845,555156.7289915847,2010-10-28 23:37:03,4502.271344178954,2,49,0.5501165986061096,4.0992841720581055,47.53856963550406,46.860644509968935,189.98630369183127,170.58488670806355,9.71794142969884e-05,0.0930307656526565,0,0,0
15846,555186.7442685554,2010-10-28 23:37:33,4532.286621154647,2,49,0.5501165986061096,4.102359771728516,47.54315615521397,46.860644509968935,190.00511195204072,170.58488670806355,6.47544875391759e-05,0.0930307656526565,0,0,0
15847,555216.7594624441,2010-10-28 23:38:03,4562.301815073337,2,49,0.5501165986061096,4.105112075805664,47.54774266012816,46.860644509968935,190.02393363796145,170.58488670806355,6.47544875391759e-05,0.0930307656526565,0,0,0
15848,555246.7744102393,2010-10-28 23:38:33,4592.316762828511,2,49,0.5501165986061096,4.108349800109863,47.552329173676895,46.860644509968935,190.04276910120703,170.58488670806355,0.0001295089750783,0.0930307656526565,0,0,0
15849,555276.7895740179,2010-10-28 23:39:03,4622.33192660207,2,49,0.5499359965324402,4.111263751983643,47.55691573236573,46.860644509968935,190.0616186430776,170.58488670806355,9.71794142969884e-05,0.0930307656526565,0,0,0
15850,555306.8047110297,2010-10-28 23:39:33,4652.34706361393,2,49,0.550297200679779,4.114339351654053,47.56150227249973,46.860644509968935,190.08048210206584,170.58488670806355,9.70840483205393e-05,0.0930307656526565,0,0,0
15851,555336.8201014532,2010-10-28 23:40:03,4682.362454152658,2,49,0.5501165986061096,4.117414951324463,47.566088857287056,46.860644509968935,190.09935974988065,170.58488670806355,9.70840483205393e-05,0.0930307656526565,0,0,0
15852,555366.8350079355,2010-10-28 23:40:33,4712.3773605497545,2,49,0.5501165986061096,4.120491027832031,47.570675361876106,46.860644509968935,190.11825124666,170.58488670806355,9.71794142969884e-05,0.0930307656526565,0,0,0
15853,555396.8501254086,2010-10-28 23:41:03,4742.392477992844,2,49,0.5501165986061096,4.123728752136231,47.57526193101068,46.860644509968935,190.13715737278287,170.58488670806355,0.0001295089750783,0.0930307656526565,0,0,0
15854,555426.8654167452,2010-10-28 23:41:33,4772.407769344366,2,49,0.550297200679779,4.126804351806641,47.579848451089575,46.860644509968935,190.1560777089884,170.58488670806355,9.70840483205393e-05,0.0930307656526565,0,0,0
15855,555456.8805796866,2010-10-28 23:42:03,4802.422932315926,2,49,0.550297200679779,4.13004207611084,47.58443502207419,46.860644509968935,190.17501287876613,170.58488670806355,9.70840483205393e-05,0.0930307656526565,0,0,0
15856,555486.8955525694,2010-10-28 23:42:33,4832.437905158626,2,49,0.5501165986061096,4.133279800415039,47.58902150378956,46.860644509968935,190.1939624765756,170.58488670806355,9.70840483205393e-05,0.0930307656526565,0,0,0
15857,555516.9107144081,2010-10-28 23:43:03,4862.453067022425,2,49,0.5501165986061096,4.136517524719238,47.59360810259901,46.860644509968935,190.21292733113324,170.58488670806355,9.70840483205393e-05,0.0930307656526565,0,0,0
15858,555546.9258587282,2010-10-28 23:43:33,4892.468211347512,2,49,0.5501165986061096,4.1397552490234375,47.598194649864205,46.860644509968935,190.231906828582,170.58488670806355,9.70840483205393e-05,0.0930307656526565,0,0,0
15859,555576.940998938,2010-10-28 23:44:03,4922.483351522255,2,49,0.5501165986061096,4.142992973327637,47.60278122119514,46.860644509968935,190.250901496847,170.58488670806355,6.47544875391759e-05,0.0930307656526565,0,0,0
15860,555606.9561240904,2010-10-28 23:44:33,4952.49847669962,2,49,0.550297200679779,4.146392822265625,47.607367712368216,46.860644509968935,190.26991112735777,170.58488670806355,9.71794142969884e-05,0.0930307656526565,0,0,0
15861,555636.9714159631,2010-10-28 23:45:03,4982.513768577454,2,49,0.5501165986061096,4.149792194366455,47.61195422448364,46.860644509968935,190.2889362751129,170.58488670806355,9.70840483205393e-05,0.0930307656526565,0,0,0
15862,555666.9864052921,2010-10-28 23:45:33,5012.528757871156,2,49,0.5501165986061096,4.153192043304443,47.61654075705263,46.860644509968935,190.3079769643286,170.58488670806355,9.71794142969884e-05,0.0930307656526565,0,0,0
15863,555697.0015670254,2010-10-28 23:46:03,5042.543919609642,2,49,0.550297200679779,4.156591415405273,47.62112729318015,46.860644509968935,190.32703322035223,170.58488670806355,9.70840483205393e-05,0.0930307656526565,0,0,0
15864,555727.0166976263,2010-10-28 23:46:33,5072.559050210524,2,49,0.5499359965324402,4.159829139709473,47.625713802179725,46.860644509968935,190.34610500208052,170.58488670806355,9.70840483205393e-05,0.0930307656526565,0,0,0
15865,555757.0327863051,2010-10-28 23:47:03,5102.575138979457,2,49,0.5501165986061096,4.163390636444092,47.63030050454925,46.860644509968935,190.36519330220457,170.58488670806355,9.70840483205393e-05,0.0930307656526565,0,0,0
15866,555787.0351810493,2010-10-28 23:47:33,5132.57753373369,2,49,0.5501165986061096,4.16679048538208,47.63488506864979,46.860644509968935,190.38428842971848,170.58488670806355,6.47544875391759e-05,0.0930307656526565,0,0,0
15867,555817.0466468413,2010-10-28 23:48:03,5162.588999545791,2,49,0.5501165986061096,4.170351982116699,47.63947103555155,46.860644509968935,190.4034053874857,170.58488670806355,0.0001295089750783,0.0930307656526565,0,0,0
15868,555847.0617648609,2010-10-28 23:48:33,5192.60411745003,2,49,0.5497553944587708,4.173751354217529,47.644057508122216,46.860644509968935,190.42254049384908,170.58488670806355,9.70840483205393e-05,0.0930307656526565,0,0,0
15869,555877.0768055225,2010-10-28 23:49:03,5222.6191581368175,2,49,0.550297200679779,4.177312850952148,47.648643967560496,46.860644509968935,190.44169162048416,170.58488670806355,6.47544875391759e-05,0.0930307656526565,0,0,0
15870,555907.091910269,2010-10-28 23:49:33,5252.634262853188,2,49,0.5501165986061096,4.180874347686768,47.65323044759539,46.860644509968935,190.4608591338008,170.58488670806355,9.70840483205393e-05,0.0930307656526565,0,0,0
15871,555937.1071458966,2010-10-28 23:50:03,5282.649498510904,2,49,0.5501165986061096,4.184597969055176,47.65781697063127,46.860644509968935,190.4800432436982,170.58488670806355,0.0001295089750783,0.0930307656526565,0,0,0
15872,555967.1221839669,2010-10-28 23:50:33,5312.664536581172,2,49,0.5499359965324402,4.188159465789795,47.66240347669191,46.860644509968935,190.4992438032847,170.58488670806355,0.0001295089750783,0.0930307656526565,0,0,0
15873,555997.1373433144,2010-10-28 23:51:03,5342.6796959036365,2,49,0.5501165986061096,4.191882610321045,47.6669898896089,46.860644509968935,190.5184606823709,170.58488670806355,0.0001295089750783,0.0930307656526565,0,0,0
15874,556027.1524513139,2010-10-28 23:51:33,5372.694803898177,2,49,0.5501165986061096,4.195444107055664,47.67157634164042,46.860644509968935,190.5376945387551,170.58488670806355,9.71794142969884e-05,0.0930307656526565,0,0,0
15875,556057.1675966767,2010-10-28 23:52:03,5402.709949265863,2,49,0.5499359965324402,4.199005603790283,47.676162736398574,46.860644509968935,190.5569449797248,170.58488670806355,6.47544875391759e-05,0.0930307656526565,0,0,0
15876,556063.4956800626,2010-10-28 23:52:09,5409.038032661788,2,49,0.5501165986061096,4.200138568878174,47.67712972500743,46.860644509968935,190.56100589834097,170.58488670806355,0.0001295089750783,0.0930307656526565,0,0,0
15877,556093.5422931545,2010-10-28 23:52:39,30.015165307381476,3,49,0.0,4.109806537628174,47.67712972500743,46.860644509968935,190.56100589834097,170.58488670806355,-0.0004532813909463,0.0930307656526565,0,0,0
15878,556123.5574432038,2010-10-28 23:53:09,60.030315406860176,3,49,0.0,4.098474502563477,47.67712972500743,46.860644509968935,190.56100589834097,170.58488670806355,-0.0002266883820993,0.0930307656526565,0,0,0
15879,556153.5725831029,2010-10-28 23:53:40,90.04545525579135,3,49,0.0,4.091513633728027,47.67712972500743,46.860644509968935,190.56100589834097,170.58488670806355,-0.0001942634553415,0.0930307656526565,0,0,0
15880,556183.5408150378,2010-10-28 23:54:09,120.01368719578024,3,49,0.0,4.087142467498779,47.67712972500743,46.860644509968935,190.56100589834097,170.58488670806355,-0.0001295089750783,0.0930307656526565,0,0,0
15881,556183.5431403327,2010-10-28 23:54:10,0.015753768237762,4,49,0.9900808334350586,4.199814796447754,47.67713408808115,46.860644509968935,190.56102422244248,170.58488670806355,0.0,0.0930307656526565,0,0,0
15882,556184.5431431375,2010-10-28 23:54:11,1.015756572920201,4,49,0.9398714303970336,4.199814796447754,47.67740046448461,46.860644509968935,190.56214293862152,170.58488670806355,0.0,0.0930307656526565,0,0,0
15883,556186.7773551863,2010-10-28 23:54:13,3.249968616783368,4,49,0.889842689037323,4.199653148651123,47.677967069916924,46.860644509968935,190.56452253904925,170.58488670806355,-3.23295607813634e-05,0.0930307656526565,0,0,0
15884,556190.1680513093,2010-10-28 23:54:16,6.640664749838058,4,49,0.8394526839256287,4.199653148651123,47.67878025025468,46.860644509968935,190.56793771026503,170.58488670806355,-3.23295607813634e-05,0.0930307656526565,0,0,0
15885,556194.8084619504,2010-10-28 23:54:21,11.281075390974427,4,49,0.7888820767402649,4.199653148651123,47.67982843780224,46.860644509968935,190.5723398605133,170.58488670806355,0.0,0.0930307656526565,0,0,0
15886,556200.8553590536,2010-10-28 23:54:27,17.327972509176718,4,49,0.73867267370224,4.199653148651123,47.68110990029796,46.860644509968935,190.57772172048217,170.58488670806355,-3.23295607813634e-05,0.0930307656526565,0,0,0
15887,556208.7955257121,2010-10-28 23:54:35,25.268139242805145,4,49,0.6886439323425293,4.199653148651123,47.68268178108772,46.860644509968935,190.5843232901382,170.58488670806355,-3.23295607813634e-05,0.0930307656526565,0,0,0
15888,556219.3549314552,2010-10-28 23:54:45,35.827544895740154,4,49,0.6386151313781738,4.199653148651123,47.68462511522406,46.860644509968935,190.59248486332373,170.58488670806355,-3.23295607813634e-05,0.0930307656526565,0,0,0
15889,556234.4329602724,2010-10-28 23:55:01,50.9055737179586,4,49,0.5885863900184631,4.199814796447754,47.6871891745062,46.860644509968935,190.60325333526663,170.58488670806355,3.23295607813634e-05,0.0930307656526565,0,0,0
15890,556257.7450663438,2010-10-28 23:55:24,74.21767978924395,4,49,0.5385576486587524,4.199814796447754,47.690826106228826,46.860644509968935,190.61852767505044,170.58488670806355,0.0,0.0930307656526565,0,0,0
15891,556299.1351476568,2010-10-28 23:56:05,115.60776121757304,4,49,0.488528847694397,4.199653148651123,47.69670272748599,46.860644509968935,190.643208173658,170.58488670806355,0.0,0.0930307656526565,0,0,0
15892,556374.5243093342,2010-10-28 23:57:21,190.99692276481383,4,49,0.4385000765323639,4.199491024017334,47.7063726484714,46.860644509968935,190.68381968685583,170.58488670806355,-3.24249267578125e-05,0.0930307656526565,0,0,0
15893,556486.8662592653,2010-10-28 23:59:13,303.3388727308831,4,49,0.3884713053703308,4.199653148651123,47.71925815128858,46.860644509968935,190.73793594983616,170.58488670806355,-3.23295607813634e-05,0.0930307656526565,0,0,0
15894,556624.7869483195,2010-10-29 00:01:31,441.25956185030384,4,49,0.3384425342082977,4.199653148651123,47.73316908758585,46.860644509968935,190.79635883873505,170.58488670806355,-6.47544875391759e-05,0.0930307656526565,0,0,0
15895,556790.0020116878,2010-10-29 00:04:16,606.4746251133594,4,49,0.2884137630462646,4.199653148651123,47.74753488635634,46.860644509968935,190.85669207324128,170.58488670806355,-3.23295607813634e-05,0.0930307656526565,0,0,0
15896,556988.7644264532,2010-10-29 00:07:35,805.2370398786205,4,49,0.2383850067853927,4.199653148651123,47.762052698018906,46.860644509968935,190.91766366576417,170.58488670806355,-3.23295607813634e-05,0.0930307656526565,0,0,0
15897,557236.3698324863,2010-10-29 00:11:42,1052.8424459217588,4,49,0.1883562356233596,4.199814796447754,47.77668021028104,46.860644509968935,190.9790960284153,170.58488670806355,3.23295607813634e-05,0.0930307656526565,0,0,0
15898,557564.0522666726,2010-10-29 00:17:10,1380.5248801031032,4,49,0.1383274644613266,4.199653148651123,47.79146140819836,46.860644509968935,191.04117386196603,170.58488670806355,-3.23295607813634e-05,0.0930307656526565,0,0,0
15899,558063.2160075037,2010-10-29 00:25:29,1879.6886209792096,4,49,0.0882986932992935,4.199814796447754,47.80695078488813,46.860644509968935,191.10622575773624,170.58488670806355,0.0,0.0930307656526565,0,0,0
15900,558782.6105454444,2010-10-29 00:37:29,2599.083158919924,4,49,0.0498289167881011,4.199653148651123,47.82041947415179,46.860644509968935,191.16279135972985,170.58488670806355,0.0,0.0930307656526565,0,0,0
15901,558812.6228661,2010-10-29 00:37:59,30.015162219685987,5,49,0.0,4.191397190093994,47.82041947415179,46.860644509968935,191.16279135972985,170.58488670806355,-3.23295607813634e-05,0.0930307656526565,0,0,0
15902,558842.6223791122,2010-10-29 00:38:29,60.01467525679385,5,49,0.0,4.1901021003723145,47.82041947415179,46.860644509968935,191.16279135972985,170.58488670806355,0.0,0.0930307656526565,0,0,0
15903,558842.8237505243,2010-10-29 00:38:29,0.187624437829668,6,49,-1.9243103452026844e-05,4.1901021003723145,47.82041947415179,46.860644510971845,191.16279135972985,170.58488671226584,0.0,0.096440702676773,0,0,0
15904,558847.6517424958,2010-10-29 00:38:34,5.015616419383695,6,49,0.0001613661734154,4.189939975738525,47.82042044821526,46.86064451105575,191.162795441167,170.58488671261742,-6.47544875391759e-05,0.096440702676773,0,0,0
15905,558877.6649822961,2010-10-29 00:39:04,30.015109277738365,7,49,-1.099568486213684,4.000533580780029,47.82042044821526,46.869811646349696,191.162795441167,170.62177291941717,-0.0010360718006268,0.096440702676773,0,0,0
15906,558907.6801446662,2010-10-29 00:39:34,60.03027165281162,7,49,-1.099568486213684,3.970746755599976,47.82042044821526,46.878978702147215,191.162795441167,170.65830120203478,-0.0006475448608398,0.096440702676773,0,0,0
15907,558937.6952681442,2010-10-29 00:40:04,90.04539512592923,7,49,-1.099568486213684,3.9500253200531006,47.82042044821526,46.88814564740149,191.162795441167,170.6946012644453,-0.0004856586456298,0.096440702676773,0,0,0
15908,558967.7104106499,2010-10-29 00:40:34,120.06053763148154,7,49,-1.0993878841400146,3.933836698532105,47.82042044821526,46.89731265072602,191.162795441167,170.73073380451527,-0.0003885269106831,0.096440702676773,0,0,0
15909,558997.7255536717,2010-10-29 00:41:04,150.07568068339555,7,49,-1.099568486213684,3.920562028884888,47.82042044821526,46.906479730011775,191.162795441167,170.76673234203125,-0.0002913951757363,0.096440702676773,0,0,0
15910,559027.7409146468,2010-10-29 00:41:34,180.09104171859096,7,49,-1.099568486213684,3.9089064598083496,47.82042044821526,46.91564677322036,191.162795441167,170.8026170589963,-0.0002590179501567,0.096440702676773,0,0,0
15911,559057.7558554998,2010-10-29 00:42:04,210.1059824813381,7,49,-1.099568486213684,3.898221969604492,47.82042044821526,46.92481371773589,191.162795441167,170.8384004231742,-0.0002913951757363,0.096440702676773,0,0,0
15912,559087.7709771533,2010-10-29 00:42:34,240.12110413993332,7,49,-1.099568486213684,3.888670682907105,47.82042044821526,46.93398068587265,191.162795441167,170.87409199614876,-0.0002590179501567,0.096440702676773,0,0,0
15913,559117.7862416278,2010-10-29 00:43:04,270.1363686295074,7,49,-1.0993878841400146,3.8794431686401367,47.82042044821526,46.943147794376,191.162795441167,170.90969717413108,-0.0002266406954731,0.096440702676773,0,0,0
15914,559147.8013060688,2010-10-29 00:43:34,300.1514330504488,7,49,-1.0997490882873535,3.870377540588379,47.82042044821526,46.95231482000492,191.162795441167,170.9452187720954,-0.0002266406954731,0.096440702676773,0,0,0
15915,559177.8164187501,2010-10-29 00:44:04,330.16654575673215,7,49,-1.099568486213684,3.861797571182251,47.82042044821526,46.96148181887891,191.162795441167,170.98065996813594,-0.0002590179501567,0.096440702676773,0,0,0
15916,559207.8315429148,2010-10-29 00:44:34,360.1816698965113,7,49,-1.099568486213684,3.853379487991333,47.82042044821526,46.97064885435992,191.162795441167,171.0160224712702,-0.0002266406954731,0.096440702676773,0,0,0
15917,559237.8466792,2010-10-29 00:45:04,390.1968062166477,7,49,-1.0993878841400146,3.845123291015625,47.82042044821526,46.979815913707526,191.162795441167,171.0513087476895,-0.0002590179501567,0.096440702676773,0,0,0
15918,559267.8619969373,2010-10-29 00:45:34,420.2121239489188,7,49,-1.099568486213684,3.837190866470337,47.82042044821526,46.98898301167883,191.162795441167,171.08652071551035,-0.0001942634553415,0.096440702676773,0,0,0
15919,559297.8769411435,2010-10-29 00:46:04,450.2270681652735,7,49,-1.099568486213684,3.829420566558838,47.82042044821526,46.99815000825249,191.162795441167,171.1216599559492,-0.0001618862152099,0.096440702676773,0,0,0
15920,559327.8920844962,2010-10-29 00:46:34,480.2422114878621,7,49,-1.0993878841400146,3.8218119144439697,47.82042044821526,47.007317101851285,191.162795441167,171.15672870368255,-0.0001618862152099,0.096440702676773,0,0,0
15921,559357.90735069,2010-10-29 00:47:04,510.2574777919584,7,49,-1.099568486213684,3.8142032623291016,47.82042044821526,47.0164842043037,191.162795441167,171.19172800108916,-0.0001942634553415,0.096440702676773,0,0,0
15922,559387.9224445292,2010-10-29 00:47:34,540.2725715409945,7,49,-1.0993878841400146,3.8065946102142334,47.82042044821526,47.02565130961616,191.162795441167,171.22665755020358,-0.0001942634553415,0.096440702676773,0,0,0
15923,559417.9376748587,2010-10-29 00:48:04,570.2878018604059,7,49,-1.0993878841400146,3.799309730529785,47.82042044821526,47.03481839731069,191.162795441167,171.26151896289602,-0.0001618862152099,0.096440702676773,0,0,0
15924,559447.9526889242,2010-10-29 00:48:34,600.302815905796,7,49,-1.0993878841400146,3.792186737060547,47.82042044821526,47.04398548131835,191.162795441167,171.29631354387126,-0.0001618862152099,0.096440702676773,0,0,0
15925,559477.9678471239,2010-10-29 00:49:04,630.3179741104753,7,49,-1.0993878841400146,3.7850637435913086,47.82042044821526,47.053152579082784,191.162795441167,171.33104283926355,-0.0001618862152099,0.096440702676773,0,0,0
15926,559507.9832309257,2010-10-29 00:49:34,660.3333580527623,7,49,-1.099568486213684,3.7779407501220703,47.82042044821526,47.06231980863297,191.162795441167,171.36570834802478,-0.0001942634553415,0.096440702676773,0,0,0
15927,559537.9981231677,2010-10-29 00:50:04,690.3482501642555,7,49,-1.0993878841400146,3.771303415298462,47.82042044821526,47.07148685624211,191.162795441167,171.4003106112009,-0.0001618862152099,0.096440702676773,0,0,0
15928,559568.0132469115,2010-10-29 00:50:34,720.3633738980228,7,49,-1.099568486213684,3.7646660804748535,47.82042044821526,47.08065393002782,191.162795441167,171.4348518494383,-0.0001618862152099,0.096440702676773,0,0,0
15929,559598.0283860185,2010-10-29 00:51:04,750.3785130051051,7,49,-1.099568486213684,3.758190631866455,47.82042044821526,47.08982108048803,191.162795441167,171.46933307578504,-0.0001618862152099,0.096440702676773,0,0,0
15930,559628.0436745279,2010-10-29 00:51:34,780.3938015295814,7,49,-1.0993878841400146,3.7518773078918457,47.82042044821526,47.09898834021893,191.162795441167,171.50375567888187,-0.0001618862152099,0.096440702676773,0,0,0
15931,559658.058668002,2010-10-29 00:52:05,810.4087949836517,7,49,-1.0993878841400146,3.745563745498657,47.82042044821526,47.10815547462539,191.162795441167,171.53812034079402,-0.0001618862152099,0.096440702676773,0,0,0
15932,559688.0742564892,2010-10-29 00:52:35,840.4243834907769,7,49,-1.099568486213684,3.7395739555358887,47.82042044821526,47.11732271886144,191.162795441167,171.57242907104333,-9.713172767078504e-05,0.096440702676773,0,0,0
15933,559718.089000326,2010-10-29 00:53:05,870.439127312687,7,49,-1.0997490882873535,3.73342227935791,47.82042044821526,47.1264897551338,191.162795441167,171.6066808872205,-0.0001618862152099,0.096440702676773,0,0,0
15934,559748.1041201701,2010-10-29 00:53:35,900.4542471818224,7,49,-1.099568486213684,3.727594375610352,47.82042044821526,47.13565690882854,191.162795441167,171.64087833618754,-0.0001618862152099,0.096440702676773,0,0,0
15935,559778.1192569264,2010-10-29 00:54:05,930.4693840332828,7,49,-1.099568486213684,3.721766471862793,47.82042044821526,47.14482401812386,191.162795441167,171.67502280995316,-0.0001618862152099,0.096440702676773,0,0,0
15936,559808.1343823342,2010-10-29 00:54:35,960.4845093209228,7,49,-1.099568486213684,3.7159385681152335,47.82042044821526,47.153991165264536,191.162795441167,171.70911468208774,-0.0001942634553415,0.096440702676773,0,0,0
15937,559838.14965735,2010-10-29 00:55:05,990.4997843968816,7,49,-1.099568486213684,3.710434436798096,47.82042044821526,47.16315841278047,191.162795441167,171.74315514520154,-0.0001618862152099,0.096440702676773,0,0,0
15938,559868.164680483,2010-10-29 00:55:35,1020.5148074948332,7,49,-1.099568486213684,3.704768419265747,47.82042044821526,47.172325609432406,191.162795441167,171.77714394099596,-0.0001942634553415,0.096440702676773,0,0,0
15939,559898.1798250638,2010-10-29 00:56:05,1050.5299520755575,7,49,-1.099568486213684,3.6994261741638175,47.82042044821526,47.18149282598888,191.162795441167,171.8110825162601,-0.0001618862152099,0.096440702676773,0,0,0
15940,559928.1949544466,2010-10-29 00:56:35,1080.545081438354,7,49,-1.099568486213684,3.6940839290618896,47.82042044821526,47.19066000979415,191.162795441167,171.84497150378093,-0.0001295089750783,0.096440702676773,0,0,0
15941,559958.2100898294,2010-10-29 00:57:05,1110.5602168662667,7,49,-1.099568486213684,3.688903570175171,47.82042044821526,47.1998272172671,191.162795441167,171.87881216343564,-0.0001295089750783,0.096440702676773,0,0,0
15942,559988.2254589048,2010-10-29 00:57:35,1140.575585886363,7,49,-1.099568486213684,3.683723211288452,47.82042044821526,47.20899442152013,191.162795441167,171.9126050240259,-0.0001295089750783,0.096440702676773,0,0,0
15943,560018.2403735373,2010-10-29 00:58:05,1170.590500523998,7,49,-1.099568486213684,3.678542852401733,47.82042044821526,47.21816157092712,191.162795441167,171.94635035018658,-0.0001295089750783,0.096440702676773,0,0,0
15944,560048.2555074263,2010-10-29 00:58:35,1200.6056344080632,7,49,-1.0993878841400146,3.673362493515015,47.82042044821526,47.22732871266537,191.162795441167,171.98004866280246,-0.0001295089750783,0.096440702676773,0,0,0
15945,560078.2707708282,2010-10-29 00:59:05,1230.620897850026,7,49,-1.099568486213684,3.668344259262085,47.82042044821526,47.2364959217397,191.162795441167,172.01370028552003,-0.0001295089750783,0.096440702676773,0,0,0
15946,560108.2858190989,2010-10-29 00:59:35,1260.635946080616,7,49,-1.099568486213684,3.663325786590576,47.82042044821526,47.24566304589015,191.162795441167,172.04730582186636,-0.0001618862152099,0.096440702676773,0,0,0
15947,560138.3009438803,2010-10-29 01:00:05,1290.651070887057,7,49,-1.099568486213684,3.658469200134277,47.82042044821526,47.25483020130099,191.162795441167,172.08086600646251,-0.0001295089750783,0.096440702676773,0,0,0
15948,560168.3160771228,2010-10-29 01:00:35,1320.6662041345353,7,49,-1.099568486213684,3.6536126136779785,47.82042044821526,47.263997337195136,191.162795441167,172.11438148346392,-0.0001295089750783,0.096440702676773,0,0,0
15949,560198.3312097638,2010-10-29 01:01:05,1350.6813367504396,7,49,-1.099568486213684,3.6489179134368896,47.82042044821526,47.27316444345702,191.162795441167,172.14785357108096,-0.0001618862152099,0.096440702676773,0,0,0
15950,560228.3464631557,2010-10-29 01:01:35,1380.6965903528794,7,49,-1.099568486213684,3.6443850994110103,47.82042044821526,47.28233154435826,191.162795441167,172.18128267556077,-9.713172767078504e-05,0.096440702676773,0,0,0
15951,560258.3615182033,2010-10-29 01:02:05,1410.7116452149974,7,49,-1.099568486213684,3.639528512954712,47.82042044821526,47.29149862732783,191.162795441167,172.21466937604507,-0.0001618862152099,0.096440702676773,0,0,0
15952,560288.3766726587,2010-10-29 01:02:35,1440.726799680357,7,49,-1.0993878841400146,3.635319471359253,47.82042044821526,47.300665712067214,191.162795441167,172.24801443051808,-9.713172767078504e-05,0.096440702676773,0,0,0
15953,560318.3918049287,2010-10-29 01:03:05,1470.741931915312,7,49,-1.099568486213684,3.630786657333374,47.82042044821526,47.30983281129523,191.162795441167,172.2813186398633,-0.0001295089750783,0.096440702676773,0,0,0
15954,560348.4069281411,2010-10-29 01:03:35,1500.7570551227675,7,49,-1.099568486213684,3.626577615737915,47.82042044821526,47.31899995139353,191.162795441167,172.31458269644608,-9.713172767078504e-05,0.096440702676773,0,0,0
15955,560378.4220706116,2010-10-29 01:04:05,1530.7721976233074,7,49,-1.0993878841400146,3.622206687927246,47.82042044821526,47.32816711659532,191.162795441167,172.34780719322308,-9.713172767078504e-05,0.096440702676773,0,0,0
15956,560408.4400123337,2010-10-29 01:04:35,1560.790139430581,7,49,-1.099568486213684,3.617997646331787,47.82042044821526,47.3373351424224,191.162795441167,172.38099628302894,-9.713172767078504e-05,0.096440702676773,0,0,0
15957,560438.4523461591,2010-10-29 01:05:05,1590.8024731758385,7,49,-1.099568486213684,3.613788604736328,47.82042044821526,47.34650139218584,191.162795441167,172.41414089085762,-0.0001618862152099,0.096440702676773,0,0,0
15958,560468.4676273854,2010-10-29 01:05:35,1620.8177543971128,7,49,-1.099568486213684,3.609903335571289,47.82042044821526,47.35566858459986,191.162795441167,172.44725167298296,-9.713172767078504e-05,0.096440702676773,0,0,0
15959,560498.4827545077,2010-10-29 01:06:05,1650.8328815093,7,49,-1.0993878841400146,3.60585618019104,47.82042044821526,47.364835729387664,191.162795441167,172.48032600127817,-9.713172767078504e-05,0.096440702676773,0,0,0
15960,560528.4977895353,2010-10-29 01:06:35,1680.8479165470094,7,49,-1.099568486213684,3.602132797241211,47.82042044821526,47.37400281887472,191.162795441167,172.51336413169102,-9.713172767078504e-05,0.096440702676773,0,0,0
15961,560558.5128990688,2010-10-29 01:07:05,1710.8630260553225,7,49,-1.099568486213684,3.598409414291382,47.82042044821526,47.38316995981189,191.162795441167,172.546367511334,-6.47544875391759e-05,0.096440702676773,0,0,0
15962,560588.5281273631,2010-10-29 01:07:35,1740.8782543998118,7,49,-1.0993878841400146,3.594362258911133,47.82042044821526,47.39233712573894,191.162795441167,172.5793362647348,-9.713172767078504e-05,0.096440702676773,0,0,0
15963,560618.5433161339,2010-10-29 01:08:05,1770.893443135584,7,49,-1.099568486213684,3.590639114379883,47.82042044821526,47.40150428275541,191.162795441167,172.61227102798122,-9.713172767078504e-05,0.096440702676773,0,0,0
15964,560648.5583180741,2010-10-29 01:08:35,1800.9084450557543,7,49,-1.0993878841400146,3.5872395038604736,47.82042044821526,47.41067141732892,191.162795441167,172.6451723612134,-9.713172767078504e-05,0.096440702676773,0,0,0
15965,560678.573511236,2010-10-29 01:09:05,1830.9236382275824,7,49,-1.099568486213684,3.5836780071258545,47.82042044821526,47.41983863613562,191.162795441167,172.67804102760576,-9.713172767078504e-05,0.096440702676773,0,0,0
15966,560708.5886402178,2010-10-29 01:09:35,1860.938767234492,7,49,-1.099568486213684,3.580116510391236,47.82042044821526,47.429005785317,191.162795441167,172.71087756302768,-0.0001618862152099,0.096440702676773,0,0,0
15967,560738.603983564,2010-10-29 01:10:05,1890.9541105906253,7,49,-1.099568486213684,3.576878786087036,47.82042044821526,47.4381736490808,191.162795441167,172.7436851157038,-9.713172767078504e-05,0.096440702676773,0,0,0
15968,560768.6188865224,2010-10-29 01:10:35,1920.969013539128,7,49,-1.0997490882873535,3.573641061782837,47.82042044821526,47.4473415236251,191.162795441167,172.77646213191602,-6.47544875391759e-05,0.096440702676773,0,0,0
15969,560798.634025404,2010-10-29 01:11:05,1950.9841524005983,7,49,-1.0993878841400146,3.5704033374786377,47.82042044821526,47.4565088249486,191.162795441167,172.80920742767967,-6.47544875391759e-05,0.096440702676773,0,0,0
15970,560828.6491959795,2010-10-29 01:11:35,1980.9993229660847,7,49,-1.0993878841400146,3.5671656131744385,47.82042044821526,47.46567593676399,191.162795441167,172.8419221660248,-3.237724376958795e-05,0.096440702676773,0,0,0
15971,560858.6643281342,2010-10-29 01:12:05,2011.014455125852,7,49,-1.0997490882873535,3.5637660026550293,47.82042044821526,47.4748431162151,191.162795441167,172.87460745542222,-9.713172767078504e-05,0.096440702676773,0,0,0
15972,560888.6794702489,2010-10-29 01:12:35,2041.02959724043,7,49,-1.099568486213684,3.56069016456604,47.82042044821526,47.48401019360893,191.162795441167,172.9072633450711,-9.713172767078504e-05,0.096440702676773,0,0,0
15973,560918.6946879869,2010-10-29 01:13:05,2071.0448149985345,7,49,-1.0993878841400146,3.5577762126922607,47.82042044821526,47.49317730619491,191.162795441167,172.93989059816772,-3.237724376958795e-05,0.096440702676773,0,0,0
15974,560948.7097613551,2010-10-29 01:13:35,2101.059888366776,7,49,-1.0993878841400146,3.554538488388061,47.82042044821526,47.50234446865186,191.162795441167,172.97248942752896,-6.47544875391759e-05,0.096440702676773,0,0,0
15975,560978.7248689536,2010-10-29 01:14:05,2131.074995965329,7,49,-1.0993878841400146,3.5513007640838623,47.82042044821526,47.511511618485976,191.162795441167,173.00505943882436,-9.713172767078504e-05,0.096440702676773,0,0,0
15976,561008.7400621857,2010-10-29 01:14:35,2161.0901891672324,7,49,-1.0993878841400146,3.548386812210083,47.82042044821526,47.5206788691559,191.162795441167,173.03760115103756,-6.47544875391759e-05,0.096440702676773,0,0,0
15977,561038.7551984405,2010-10-29 01:15:05,2191.105325447269,7,49,-1.0997490882873535,3.544987201690674,47.82042044821526,47.5298460748372,191.162795441167,173.0701138874105,-9.713172767078504e-05,0.096440702676773,0,0,0
15978,561068.7703542945,2010-10-29 01:15:35,2221.120481331164,7,49,-1.0993878841400146,3.541911363601685,47.82042044821526,47.539013318807854,191.162795441167,173.1025975995582,-9.713172767078504e-05,0.096440702676773,0,0,0
15979,561098.7855653107,2010-10-29 01:16:05,2251.1356923524786,7,49,-1.0993878841400146,3.5388355255126958,47.82042044821526,47.548180534549566,191.162795441167,173.13505233978,-6.47544875391759e-05,0.096440702676773,0,0,0
15980,561128.8007420866,2010-10-29 01:16:35,2281.150869073306,7,49,-1.099568486213684,3.535435914993286,47.82042044821526,47.55734776264987,191.162795441167,173.1674776949666,-9.713172767078504e-05,0.096440702676773,0,0,0
15981,561158.8157711845,2010-10-29 01:17:05,2311.165898171211,7,49,-1.099568486213684,3.532036304473877,47.82042044821526,47.56651500381334,191.162795441167,173.1998732299619,-9.713172767078504e-05,0.096440702676773,0,0,0
15982,561188.8311572372,2010-10-29 01:17:35,2341.1812842337827,7,49,-1.099568486213684,3.5287985801696777,47.82042044821526,47.5756822936596,191.162795441167,173.232238805177,-9.713172767078504e-05,0.096440702676773,0,0,0
15983,561218.8460298952,2010-10-29 01:18:05,2371.1961569068294,7,49,-1.0993878841400146,3.5255608558654785,47.82042044821526,47.58484944775447,191.162795441167,173.26457319407666,-9.713172767078504e-05,0.096440702676773,0,0,0
15984,561248.8611747716,2010-10-29 01:18:35,2401.2113017582283,7,49,-1.0997490882873535,3.52199935913086,47.82042044821526,47.59401665691484,191.162795441167,173.2968766067896,-0.0001295089750783,0.096440702676773,0,0,0
15985,561278.8763363196,2010-10-29 01:19:05,2431.226463336315,7,49,-1.099568486213684,3.51859974861145,47.82042044821526,47.603183813528254,191.162795441167,173.32914787863996,-9.713172767078504e-05,0.096440702676773,0,0,0
15986,561308.8915923381,2010-10-29 01:19:35,2461.241719339739,7,49,-1.099568486213684,3.514714479446411,47.82042044821526,47.61235110283542,191.162795441167,173.36138704334903,-0.0001295089750783,0.096440702676773,0,0,0
15987,561338.9067222021,2010-10-29 01:20:05,2491.256849203785,7,49,-1.0993878841400146,3.511315107345581,47.82042044821526,47.62151831585889,191.162795441167,173.3935922696456,-6.47544875391759e-05,0.096440702676773,0,0,0
15988,561368.9217572098,2010-10-29 01:20:35,2521.271884196381,7,49,-1.0993878841400146,3.507267951965332,47.82042044821526,47.63068561124599,191.162795441167,173.4257631193258,-0.0001295089750783,0.096440702676773,0,0,0
15989,561398.9368792993,2010-10-29 01:21:05,2551.287006286052,7,49,-1.099568486213684,3.503382682800293,47.82042044821526,47.63985286240358,191.162795441167,173.45789769515406,-9.713172767078504e-05,0.096440702676773,0,0,0
15990,561428.9521578941,2010-10-29 01:21:35,2581.30228488078,7,49,-1.0993878841400146,3.499173641204834,47.82042044821526,47.64902017724312,191.162795441167,173.48999441519035,-9.713172767078504e-05,0.096440702676773,0,0,0
15991,561458.9672941943,2010-10-29 01:22:05,2611.317421195904,7,49,-1.099568486213684,3.494478940963745,47.82042044821526,47.65818746843871,191.162795441167,173.5220509679584,-0.0001295089750783,0.096440702676773,0,0,0
15992,561488.9823025905,2010-10-29 01:22:35,2641.3324296022392,7,49,-1.099568486213684,3.489784240722656,47.82042044821526,47.66735465356453,191.162795441167,173.55406434098447,-0.0001295089750783,0.096440702676773,0,0,0
15993,561518.9975713608,2010-10-29 01:23:05,2671.3476983925325,7,49,-1.099568486213684,3.4842801094055176,47.82042044821526,47.67652194333153,191.162795441167,173.58603229908658,-0.0002266406954731,0.096440702676773,0,0,0
15994,561549.0125656069,2010-10-29 01:23:35,2701.362692603489,7,49,-1.0993878841400146,3.478775978088379,47.82042044821526,47.6856891795455,191.162795441167,173.61794995646204,-0.0001618862152099,0.096440702676773,0,0,0
15995,561579.0277181924,2010-10-29 01:24:06,2731.377845204201,7,49,-1.099568486213684,3.4723005294799805,47.82042044821526,47.69485644359823,191.162795441167,173.64981227105503,-0.0001942634553415,0.096440702676773,0,0,0
15996,561609.0428798257,2010-10-29 01:24:36,2761.393006832413,7,49,-1.099568486213684,3.465339422225952,47.82042044821526,47.70402372523386,191.162795441167,173.68161328215456,-0.0001942634553415,0.096440702676773,0,0,0
15997,561639.0581826158,2010-10-29 01:25:06,2791.408309722693,7,49,-1.0997490882873535,3.457245111465454,47.82042044821526,47.7131910680224,191.162795441167,173.7133456038941,-0.0002266406954731,0.096440702676773,0,0,0
15998,561669.0733084999,2010-10-29 01:25:36,2821.42343550657,7,49,-1.0993878841400146,3.4481794834136963,47.82042044821526,47.72235831613047,191.162795441167,173.74499862609284,-0.0002266406954731,0.096440702676773,0,0,0
15999,561699.0883272821,2010-10-29 01:26:06,2851.438454298791,7,49,-1.099568486213684,3.437333106994629,47.82042044821526,47.73152553530897,191.162795441167,173.77655999388327,-0.0002913951757363,0.096440702676773,0,0,0
16000,561729.1034533116,2010-10-29 01:26:36,2881.453580313242,7,49,-1.0993878841400146,3.424868106842041,47.82042044821526,47.74069281175238,191.162795441167,173.8080148131739,-0.0003237724304199,0.096440702676773,0,0,0
16001,561759.1185869751,2010-10-29 01:27:06,2911.46871396172,7,49,-1.099568486213684,3.4093270301818848,47.82042044821526,47.7498600766241,191.162795441167,173.83934208085793,-0.0004856586456298,0.096440702676773,0,0,0
16002,561789.13375132,2010-10-29 01:27:36,2941.4838783067025,7,49,-1.099568486213684,3.3907101154327397,47.82042044821526,47.75902730310407,191.162795441167,173.870514242844,-0.0005504131549969,0.096440702676773,0,0,0
16003,561819.1488629887,2010-10-29 01:28:06,2971.4989899804127,7,49,-1.099568486213684,3.367236614227295,47.82042044821526,47.76819458344419,191.162795441167,173.90149449645355,-0.0006799221155233,0.096440702676773,0,0,0
16004,561849.1640067123,2010-10-29 01:28:36,3001.5141337240507,7,49,-1.099568486213684,3.3366403579711914,47.82042044821526,47.77736113912744,191.162795441167,173.93222637750398,-0.0009065627818927,0.096440702676773,0,0,0
16005,561879.1791465813,2010-10-29 01:29:06,3031.5292735729818,7,49,-1.0993878841400146,3.296330690383911,47.82042044821526,47.78652758201303,191.162795441167,173.96263572131784,-0.0011655807029455,0.096440702676773,0,0,0
16006,561909.1945327241,2010-10-29 01:29:36,3061.5446598009653,7,49,-1.099568486213684,3.2408039569854736,47.82042044821526,47.79569491693387,191.162795441167,173.99261319607345,-0.0016836166614666,0.096440702676773,0,0,0
16007,561939.2094560935,2010-10-29 01:30:06,3091.5595830851503,7,49,-1.099568486213684,3.161318063735962,47.82042044821526,47.80486220908574,191.162795441167,174.02198117367126,-0.0024930476211011,0.096440702676773,0,0,0
16008,561969.22467318,2010-10-29 01:30:36,3121.574800191632,7,49,-1.099568486213684,3.0381228923797607,47.82042044821526,47.81402957835565,191.162795441167,174.05044412142666,-0.0041119097732007,0.096440702676773,0,0,0
16009,561995.099188679,2010-10-29 01:31:02,3147.4493156906447,7,49,-1.099568486213684,2.8378703594207764,47.82042044821526,47.82193228832249,191.162795441167,174.07375492334972,-0.0081590171903371,0.096440702676773,0,0,0
16010,562006.5989904134,2010-10-29 01:31:13,3158.9491173999045,7,49,-1.099568486213684,2.699943780899048,47.82042044821526,47.82544462048046,191.162795441167,174.08348853065667,-0.0101987840607762,0.096440702676773,0,0,0
16011,562066.5843633811,2010-10-29 01:32:13,60.01441732895832,8,49,0.0,3.366912841796875,47.82042044821526,47.82544462048046,191.162795441167,174.08348853065667,0.0013274669181555,0.096440702676773,0,0,0
16012,562066.759323555,2010-10-29 01:32:14,0.187411261528733,9,49,-1.9243103452026844e-05,3.367236614227295,47.82042044821526,47.82544462148224,191.162795441167,174.08348853402987,0.0,0.0923885703086853,0,0,0
16013,562071.5874816907,2010-10-29 01:32:18,5.015569402202412,9,49,0.0005225847125984,3.375169038772583,47.82042134703728,47.82544462156678,191.16279847184452,174.08348853431454,0.0011655807029455,0.0923885703086853,0,0,0
