Data_Point,Test_Time(s),Date_Time,Step_Time(s),Step_Index,Cycle_Index,Current(A),Voltage(V),Charge_Capacity(Ah),Discharge_Capacity(Ah),Charge_Energy(Wh),Discharge_Energy(Wh),dV/dt(V/s),Internal_Resistance(Ohm),Is_FC_Data,AC_Impedance(Ohm),ACI_Phase_Angle(Deg)
2300,81058.97246034197,2010-10-23 11:54:32,30.01517330230729,1,8,0.0,3.375654697418213,6.868766124366649,6.882047436603524,27.47699304464583,25.056260678275297,0.0008094310760498,0.0930307656526565,0,0,0
2301,81088.98764065174,2010-10-23 11:55:03,60.03035361709183,1,8,0.0,3.4010708332061768,6.868766124366649,6.882047436603524,27.47699304464583,25.056260678275297,0.0006799221155233,0.0930307656526565,0,0,0
2302,81119.00283828971,2010-10-23 11:55:33,90.04555125003856,1,8,0.0,3.420173406600952,6.868766124366649,6.882047436603524,27.47699304464583,25.056260678275297,0.0004856586456298,0.0930307656526565,0,0,0
2303,81148.9711310162,2010-10-23 11:56:02,120.01384400660106,1,8,0.0,3.4352285861968994,6.868766124366649,6.882047436603524,27.47699304464583,25.056260678275297,0.0003237724304199,0.0930307656526565,0,0,0
2304,81178.99041011305,2010-10-23 11:56:33,30.015376303248097,2,8,0.5501165986061096,3.5912866592407227,6.873352764801044,6.882047436603524,27.49329901537926,25.056260678275297,0.0016188621520996,0.0930307656526565,0,0,0
2305,81209.00540732649,2010-10-23 11:57:03,60.03037342646288,2,8,0.5501165986061096,3.640176057815552,6.877939279567312,6.882047436603524,27.50989027054511,25.056260678275297,0.0011008263099938,0.0930307656526565,0,0,0
2306,81239.02057871403,2010-10-23 11:57:33,90.0455448691354,2,8,0.5501165986061096,3.675628900527954,6.882525869238785,6.882047436603524,27.526672017903348,25.056260678275297,0.000841760658659,0.0930307656526565,0,0,0
2307,81269.03586907308,2010-10-23 11:58:03,120.06083517805916,2,8,0.5501165986061096,3.7034733295440674,6.887112459515548,6.882047436603524,27.543596914405345,25.056260678275297,0.0006799221155233,0.0930307656526565,0,0,0
2308,81299.05106059079,2010-10-23 11:58:33,150.07602673085228,2,8,0.5501165986061096,3.725813627243042,6.89169900942164,6.882047436603524,27.5606361393776,25.056260678275297,0.0005504131549969,0.0930307656526565,0,0,0
2309,81329.06613669584,2010-10-23 11:59:03,180.09110279581418,2,8,0.5499359965324402,3.744430541992188,6.896285604492522,6.882047436603524,27.577769361291445,25.056260678275297,0.0004532813909463,0.0930307656526565,0,0,0
2310,81359.0813023942,2010-10-23 11:59:33,210.10626849417008,2,8,0.5501165986061096,3.758838176727295,6.900872166588946,6.882047436603524,27.594978462805305,25.056260678275297,0.0003561496851034,0.0930307656526565,0,0,0
2311,81389.09648763125,2010-10-23 12:00:03,240.1214537512724,2,8,0.5501165986061096,3.768065690994263,6.905458707580786,6.882047436603524,27.612241999750104,25.056260678275297,0.0001618862152099,0.0930307656526565,0,0,0
2312,81419.11170240691,2010-10-23 12:00:33,270.13666850689407,2,8,0.550297200679779,3.773893594741821,6.910045264044658,6.882047436603524,27.629538550715157,25.056260678275297,0.0001942634553415,0.0930307656526565,0,0,0
2313,81449.1269457989,2010-10-23 12:01:03,300.15191189888645,2,8,0.5501165986061096,3.7779407501220703,6.914631867253317,6.882047436603524,27.646856733458357,25.056260678275297,0.0001295089750783,0.0930307656526565,0,0,0
2314,81479.14199922244,2010-10-23 12:01:33,330.16696534748144,2,8,0.5501165986061096,3.7815022468566895,6.919218453192213,6.882047436603524,27.6641925928308,25.056260678275297,9.713172767078504e-05,0.0930307656526565,0,0,0
2315,81509.15718539181,2010-10-23 12:02:03,360.1821514917949,2,8,0.5497553944587708,3.7850637435913086,6.923805003651605,6.882047436603524,27.681545091056066,25.056260678275297,9.713172767078504e-05,0.0930307656526565,0,0,0
2316,81539.17238034308,2010-10-23 12:02:33,390.1973464380456,2,8,0.5499359965324402,3.788625240325928,6.928391514547247,6.882047436603524,27.698913922469515,25.056260678275297,9.713172767078504e-05,0.0930307656526565,0,0,0
2317,81569.18756696358,2010-10-23 12:03:03,420.2125330635584,2,8,0.5501165986061096,3.792186737060547,6.932978039189265,6.882047436603524,27.71629896901508,25.056260678275297,6.47544875391759e-05,0.0930307656526565,0,0,0
2318,81599.20273401531,2010-10-23 12:03:33,450.22770011528735,2,8,0.550297200679779,3.795586347579956,6.937564578419398,6.882047436603524,27.73369993699404,25.056260678275297,9.713172767078504e-05,0.0930307656526565,0,0,0
2319,81629.21791406945,2010-10-23 12:04:03,480.24288022455966,2,8,0.5501165986061096,3.798985958099365,6.942151097169324,6.882047436603524,27.75111630524664,25.056260678275297,0.0001295089750783,0.0930307656526565,0,0,0
2320,81659.2331030809,2010-10-23 12:04:33,510.258069205944,2,8,0.5501165986061096,3.802223682403565,6.946737627287635,6.882047436603524,27.768547905730856,25.056260678275297,6.47544875391759e-05,0.0930307656526565,0,0,0
2321,81689.24827435316,2010-10-23 12:05:03,540.2732404531292,2,8,0.5501165986061096,3.805461406707764,6.951324216975923,6.882047436603524,27.78599465770816,25.056260678275297,6.47544875391759e-05,0.0930307656526565,0,0,0
2322,81719.26358713309,2010-10-23 12:05:33,570.2885533433326,2,8,0.5501165986061096,3.808537244796753,6.955910884543618,6.882047436603524,27.803456343928183,25.056260678275297,3.237724376958795e-05,0.0930307656526565,0,0,0
2323,81749.27865884219,2010-10-23 12:06:03,600.3036250674759,2,8,0.550297200679779,3.811936855316162,6.960497512182865,6.882047436603524,27.82093237575204,25.056260678275297,9.713172767078504e-05,0.0930307656526565,0,0,0
2324,81779.29393992311,2010-10-23 12:06:33,630.3189061484006,2,8,0.550297200679779,3.815012693405152,6.965084139053399,6.882047436603524,27.83842296155705,25.056260678275297,9.713172767078504e-05,0.0930307656526565,0,0,0
2325,81809.30900583779,2010-10-23 12:07:03,660.3339719377526,2,8,0.5501165986061096,3.8180885314941406,6.969670740179724,6.882047436603524,27.855928010366892,25.056260678275297,9.713172767078504e-05,0.0930307656526565,0,0,0
2326,81839.32418160624,2010-10-23 12:07:33,690.3491477312687,2,8,0.5501165986061096,3.82132625579834,6.974257269862751,6.882047436603524,27.87344717762987,25.056260678275297,9.713172767078504e-05,0.0930307656526565,0,0,0
2327,81869.33935824684,2010-10-23 12:08:03,720.3643243468337,2,8,0.5499359965324402,3.824402093887329,6.978843836932746,6.882047436603524,27.89098112797513,25.056260678275297,6.47544875391759e-05,0.0930307656526565,0,0,0
2328,81899.35455264674,2010-10-23 12:08:33,750.3795187467225,2,8,0.5501165986061096,3.8278017044067374,6.983430402697667,6.882047436603524,27.908529983255896,25.056260678275297,9.713172767078504e-05,0.0930307656526565,0,0,0
2329,81929.36971628998,2010-10-23 12:09:03,780.3946823899565,2,8,0.550297200679779,3.831363201141357,6.988016924165314,6.882047436603524,27.926093912893062,25.056260678275297,0.0001618862152099,0.0930307656526565,0,0,0
2330,81959.38583094845,2010-10-23 12:09:33,810.410797048413,2,8,0.5501165986061096,3.8346006870269775,6.992603563206822,6.882047436603524,27.94367371514521,25.056260678275297,9.713172767078504e-05,0.0930307656526565,0,0,0
2331,81989.38716110437,2010-10-23 12:10:03,840.4121273296523,2,8,0.550297200679779,3.8380002975463863,6.997187937395523,6.882047436603524,27.96126063083124,25.056260678275297,9.713172767078504e-05,0.0930307656526565,0,0,0
2332,82019.39986455104,2010-10-23 12:10:33,870.4248306760696,2,8,0.5499359965324402,3.841238021850586,7.001774052719159,6.882047436603524,27.978870032783853,25.056260678275297,3.237724376958795e-05,0.0930307656526565,0,0,0
2333,82049.41484505283,2010-10-23 12:11:03,900.439811192896,2,8,0.5499359965324402,3.844799518585205,7.006360535466452,6.882047436603524,27.996496596080355,25.056260678275297,6.47544875391759e-05,0.0930307656526565,0,0,0
2334,82079.43001406443,2010-10-23 12:11:33,930.4549801644096,2,8,0.5501165986061096,3.8481991291046143,7.010947036571431,6.882047436603524,28.01413877004417,25.056260678275297,6.47544875391759e-05,0.0930307656526565,0,0,0
2335,82109.44520586284,2010-10-23 12:12:03,960.47017199289,2,8,0.5501165986061096,3.851598739624024,7.015533561212757,6.882047436603524,28.0317963238634,25.056260678275297,0.0001295089750783,0.0930307656526565,0,0,0
2336,82139.46039751088,2010-10-23 12:12:33,990.4853636409204,2,8,0.5501165986061096,3.8546745777130127,7.020120075893883,6.882047436603524,28.049468743236893,25.056260678275297,6.47544875391759e-05,0.0930307656526565,0,0,0
2337,82169.47578497192,2010-10-23 12:13:03,1020.5007510719022,2,8,0.5501165986061096,3.857912302017212,7.02470664308965,6.882047436603524,28.06715615742704,25.056260678275297,9.713172767078504e-05,0.0930307656526565,0,0,0
2338,82199.49073487245,2010-10-23 12:13:33,1050.515700997486,2,8,0.5499359965324402,3.860826253890991,7.029293137627408,6.882047436603524,28.08485761723253,25.056260678275297,3.237724376958795e-05,0.0930307656526565,0,0,0
2339,82229.50593109187,2010-10-23 12:14:03,1080.5308971918475,2,8,0.5499359965324402,3.863902091979981,7.033879667192597,6.882047436603524,28.102573235584835,25.056260678275297,6.47544875391759e-05,0.0930307656526565,0,0,0
2340,82259.52121978678,2010-10-23 12:14:33,1110.5461858967735,2,8,0.5499359965324402,3.8669779300689697,7.038466220518409,6.882047436603524,28.12030251345917,25.056260678275297,9.713172767078504e-05,0.0930307656526565,0,0,0
2341,82289.53628623276,2010-10-23 12:15:03,1140.5612523577993,2,8,0.5501165986061096,3.869891881942749,7.043052704225945,6.882047436603524,28.13804470366736,25.056260678275297,0.0001295089750783,0.0930307656526565,0,0,0
2342,82319.55145690852,2010-10-23 12:15:33,1170.5764230335606,2,8,0.5501165986061096,3.872482061386109,7.047639182539961,6.882047436603524,28.155799450325738,25.056260678275297,6.47544875391759e-05,0.0930307656526565,0,0,0
2343,82349.56665871186,2010-10-23 12:16:03,1200.5916248669762,2,8,0.5501165986061096,3.874910354614258,7.052225729566549,6.882047436603524,28.17356644414359,25.056260678275297,3.237724376958795e-05,0.0930307656526565,0,0,0
2344,82379.5818276082,2010-10-23 12:16:33,1230.6067937633024,2,8,0.5501165986061096,3.877500534057617,7.056812251641667,6.882047436603524,28.19134469701404,25.056260678275297,9.713172767078504e-05,0.0930307656526565,0,0,0
2345,82409.59701409836,2010-10-23 12:17:03,1260.6219802234027,2,8,0.5501165986061096,3.8796050548553462,7.061398759214491,6.882047436603524,28.209133683796544,25.056260678275297,6.47544875391759e-05,0.0930307656526565,0,0,0
2346,82439.6123140413,2010-10-23 12:17:33,1290.6372801513,2,8,0.5501165986061096,3.881871461868286,7.065985323232026,6.882047436603524,28.226933066473617,25.056260678275297,3.237724376958795e-05,0.0930307656526565,0,0,0
2347,82469.62748126846,2010-10-23 12:18:03,1320.6524473684417,2,8,0.5501165986061096,3.883975982666016,7.07057183802288,6.882047436603524,28.244741761839386,25.056260678275297,9.713172767078504e-05,0.0930307656526565,0,0,0
2348,82499.64254720819,2010-10-23 12:18:33,1350.6675133131805,2,8,0.5499359965324402,3.8855948448181152,7.075158387791666,6.882047436603524,28.26255939179976,25.056260678275297,3.237724376958795e-05,0.0930307656526565,0,0,0
2349,82529.65774861052,2010-10-23 12:19:03,1380.6827147105091,2,8,0.5501165986061096,3.887375593185425,7.079744945852092,6.882047436603524,28.28038531450457,25.056260678275297,3.237724376958795e-05,0.0930307656526565,0,0,0
2350,82559.67293390272,2010-10-23 12:19:33,1410.697900002699,2,8,0.5501165986061096,3.8891563415527344,7.084331549533681,6.882047436603524,28.298219150504355,25.056260678275297,9.713172767078504e-05,0.0930307656526565,0,0,0
2351,82589.68809429285,2010-10-23 12:20:03,1440.7130604128752,2,8,0.5499359965324402,3.890451431274414,7.088918153829343,6.882047436603524,28.31606018401736,25.056260678275297,3.237724376958795e-05,0.0930307656526565,0,0,0
2352,82619.70329085813,2010-10-23 12:20:33,1470.7282569831737,2,8,0.5499359965324402,3.8920702934265137,7.093504687184972,6.882047436603524,28.333907749494717,25.056260678275297,3.237724376958795e-05,0.0930307656526565,0,0,0
2353,82649.71846549878,2010-10-23 12:21:03,1500.7434316087788,2,8,0.5499359965324402,3.893365383148194,7.098091244161062,6.882047436603524,28.35176188555817,25.056260678275297,3.237724376958795e-05,0.0930307656526565,0,0,0
2354,82679.7336328312,2010-10-23 12:21:33,1530.758598956245,2,8,0.5501165986061096,3.894822359085083,7.102677799470209,6.882047436603524,28.36962232709833,25.056260678275297,6.47544875391759e-05,0.0930307656526565,0,0,0
2355,82709.74893875404,2010-10-23 12:22:03,1560.7739048490082,2,8,0.5499359965324402,3.8959555625915527,7.107264384182554,6.882047436603524,28.38748845818741,25.056260678275297,3.237724376958795e-05,0.0930307656526565,0,0,0
2356,82739.76400214742,2010-10-23 12:22:33,1590.7889682774762,2,8,0.5501165986061096,3.8974125385284415,7.111850827865034,6.882047436603524,28.40536019165059,25.056260678275297,3.237724376958795e-05,0.0930307656526565,0,0,0
2357,82769.77922115865,2010-10-23 12:23:03,1620.8041872836918,2,8,0.5497553944587708,3.898545742034912,7.116437437224052,6.882047436603524,28.42323842624496,25.056260678275297,3.237724376958795e-05,0.0930307656526565,0,0,0
2358,82799.79435705773,2010-10-23 12:23:33,1650.8193231627288,2,8,0.5501165986061096,3.899840831756592,7.121023928453924,6.882047436603524,28.44112205892596,25.056260678275297,0.0,0.0930307656526565,0,0,0
2359,82829.80954179354,2010-10-23 12:24:03,1680.8345079436442,2,8,0.5501165986061096,3.9009740352630615,7.125610541011604,6.882047436603524,28.45901191118071,25.056260678275297,0.0,0.0930307656526565,0,0,0
2360,82859.82478866921,2010-10-23 12:24:34,1710.8497548443816,2,8,0.5501165986061096,3.902431011199951,7.130197036835805,6.882047436603524,28.476907128872693,25.056260678275297,6.47544875391759e-05,0.0930307656526565,0,0,0
2361,82889.83991567112,2010-10-23 12:25:04,1740.8648817811315,2,8,0.5499359965324402,3.903402328491211,7.134783561822615,6.882047436603524,28.494808214671902,25.056260678275297,0.0,0.0930307656526565,0,0,0
2362,82919.85509060751,2010-10-23 12:25:34,1770.8800567275362,2,8,0.5501165986061096,3.9048593044281006,7.139370042615542,6.882047436603524,28.51271499441111,25.056260678275297,3.237724376958795e-05,0.0930307656526565,0,0,0
2363,82949.87026324315,2010-10-23 12:26:04,1800.895229343132,2,8,0.5501165986061096,3.90615439414978,7.143956621469084,6.882047436603524,28.53062787700127,25.056260678275297,3.237724376958795e-05,0.0930307656526565,0,0,0
2364,82979.88541215968,2010-10-23 12:26:34,1830.9103782596624,2,8,0.5501165986061096,3.90728759765625,7.148542851038729,6.882047436603524,28.54854532349285,25.056260678275297,0.0,0.0930307656526565,0,0,0
2365,83009.90060421874,2010-10-23 12:27:04,1860.9255703137048,2,8,0.5499359965324402,3.90874457359314,7.153128461510734,6.882047436603524,28.56646607998045,25.056260678275297,6.47544875391759e-05,0.0930307656526565,0,0,0
2366,83039.91574774183,2010-10-23 12:27:34,1890.9407138768936,2,8,0.5501165986061096,3.9100396633148193,7.157714192348894,6.882047436603524,28.584393302883377,25.056260678275297,3.237724376958795e-05,0.0930307656526565,0,0,0
2367,83069.93096204633,2010-10-23 12:28:04,1920.9559281463032,2,8,0.5499359965324402,3.911172866821289,7.162299838836337,6.882047436603524,28.60232607546189,25.056260678275297,0.0,0.0930307656526565,0,0,0
2368,83099.94626817969,2010-10-23 12:28:34,1950.9712343047288,2,8,0.5499359965324402,3.9126298427581783,7.166885461906043,6.882047436603524,28.62026480724049,25.056260678275297,0.0,0.0930307656526565,0,0,0
2369,83129.96134635992,2010-10-23 12:29:04,1980.9863124649123,2,8,0.5501165986061096,3.914086580276489,7.171471152699823,6.882047436603524,28.638209847947984,25.056260678275297,6.47544875391759e-05,0.0930307656526565,0,0,0
2370,83159.97648497579,2010-10-23 12:29:34,2011.0014511008203,2,8,0.5501165986061096,3.915381669998169,7.176056934067612,6.882047436603524,28.656161433774557,25.056260678275297,6.47544875391759e-05,0.0930307656526565,0,0,0
2371,83189.99172347557,2010-10-23 12:30:04,2041.0166895705447,2,8,0.5501165986061096,3.9166767597198486,7.180643582450922,6.882047436603524,28.67412251974551,25.056260678275297,6.47544875391759e-05,0.0930307656526565,0,0,0
2372,83220.00686362026,2010-10-23 12:30:34,2071.031829715213,2,8,0.5497553944587708,3.917971849441528,7.185230103041312,6.882047436603524,28.692089383578647,25.056260678275297,6.47544875391759e-05,0.0930307656526565,0,0,0
2373,83250.02210951348,2010-10-23 12:31:04,2101.047075698664,2,8,0.5501165986061096,3.919428825378418,7.18981669280468,6.882047436603524,28.71006277146712,25.056260678275297,3.237724376958795e-05,0.0930307656526565,0,0,0
2374,83280.0374221681,2010-10-23 12:31:34,2131.0623882780933,2,8,0.5501165986061096,3.9207239151000977,7.194403236454038,6.882047436603524,28.728042335031372,25.056260678275297,3.237724376958795e-05,0.0930307656526565,0,0,0
2375,83310.05248039358,2010-10-23 12:32:04,2161.077446488556,2,8,0.5501165986061096,3.922019004821777,7.198989740021738,6.882047436603524,28.74602803657996,25.056260678275297,0.0,0.0930307656526565,0,0,0
2376,83340.06777441678,2010-10-23 12:32:34,2191.0927406119868,2,8,0.5501165986061096,3.923475980758667,7.203576284099589,6.882047436603524,28.764020358088725,25.056260678275297,3.237724376958795e-05,0.0930307656526565,0,0,0
2377,83370.08283161973,2010-10-23 12:33:04,2221.107797714689,2,8,0.550297200679779,3.9249329566955566,7.208162791639843,6.882047436603524,28.782018983092712,25.056260678275297,0.0,0.0930307656526565,0,0,0
2378,83400.0981424899,2010-10-23 12:33:34,2251.123108594883,2,8,0.5501165986061096,3.9263899326324463,7.212749414418343,6.882047436603524,28.80002454920113,25.056260678275297,6.47544875391759e-05,0.0930307656526565,0,0,0
2379,83430.1131770865,2010-10-23 12:34:04,2281.13814318648,2,8,0.5499359965324402,3.927685022354126,7.217335852212123,6.882047436603524,28.81803590627263,25.056260678275297,0.0,0.0930307656526565,0,0,0
2380,83460.12836147645,2010-10-23 12:34:34,2311.1533275714087,2,8,0.550297200679779,3.9293038845062256,7.22192238145259,6.882047436603524,28.83605423628064,25.056260678275297,3.237724376958795e-05,0.0930307656526565,0,0,0
2381,83490.14355886879,2010-10-23 12:35:04,2341.168524963756,2,8,0.5501165986061096,3.9307608604431152,7.226509020571191,6.882047436603524,28.85407975509104,25.056260678275297,6.47544875391759e-05,0.0930307656526565,0,0,0
2382,83520.15872359973,2010-10-23 12:35:34,2371.1836897247754,2,8,0.5501165986061096,3.932379722595215,7.23109558646131,6.882047436603524,28.87211160253072,25.056260678275297,9.713172767078504e-05,0.0930307656526565,0,0,0
2383,83550.17391490692,2010-10-23 12:36:04,2401.1988810319567,2,8,0.550297200679779,3.9336748123168954,7.235682130453809,6.882047436603524,28.89015017386316,25.056260678275297,3.237724376958795e-05,0.0930307656526565,0,0,0
2384,83580.18909878557,2010-10-23 12:36:34,2431.214064935686,2,8,0.5501165986061096,3.935293674468994,7.240268635957381,6.882047436603524,28.908195359557627,25.056260678275297,6.47544875391759e-05,0.0930307656526565,0,0,0
2385,83610.20429901501,2010-10-23 12:37:04,2461.2292651099665,2,8,0.5501165986061096,3.936750650405884,7.244855218863646,6.882047436603524,28.926247677601907,25.056260678275297,3.237724376958795e-05,0.0930307656526565,0,0,0
2386,83640.21945959561,2010-10-23 12:37:34,2491.2444257206425,2,8,0.5501165986061096,3.938207626342773,7.249441781281758,6.882047436603524,28.94430684791635,25.056260678275297,3.237724376958795e-05,0.0930307656526565,0,0,0
2387,83670.23477382414,2010-10-23 12:38:04,2521.2597399090814,2,8,0.5499359965324402,3.939664602279663,7.25402833866321,6.882047436603524,28.96237295338814,25.056260678275297,3.237724376958795e-05,0.0930307656526565,0,0,0
2388,83700.25000210849,2010-10-23 12:38:34,2551.274968213471,2,8,0.5501165986061096,3.9411215782165527,7.258614909605485,6.882047436603524,28.980446199524145,25.056260678275297,0.0,0.0930307656526565,0,0,0
2389,83730.26503346702,2010-10-23 12:39:04,2581.289999602085,2,8,0.5501165986061096,3.942740440368652,7.263201396795366,6.882047436603524,28.998526134596084,25.056260678275297,0.0,0.0930307656526565,0,0,0
2390,83760.28021254874,2010-10-23 12:39:34,2611.305178698834,2,8,0.5501165986061096,3.944359302520752,7.267787922385572,6.882047436603524,29.016613372203263,25.056260678275297,6.47544875391759e-05,0.0930307656526565,0,0,0
2391,83790.29537552029,2010-10-23 12:40:04,2641.320341640319,2,8,0.5501165986061096,3.9458162784576416,7.272374413517263,6.882047436603524,29.03470765987445,25.056260678275297,3.237724376958795e-05,0.0930307656526565,0,0,0
2392,83820.31057467703,2010-10-23 12:40:34,2671.335540802076,2,8,0.5501165986061096,3.9472732543945312,7.276960978299059,6.882047436603524,29.052809475553342,25.056260678275297,3.237724376958795e-05,0.0930307656526565,0,0,0
2393,83850.32575987901,2010-10-23 12:41:04,2701.3507259739663,2,8,0.5501165986061096,3.949054002761841,7.28154747409524,6.882047436603524,29.07091832958336,25.056260678275297,3.237724376958795e-05,0.0930307656526565,0,0,0
2394,83880.3409235523,2010-10-23 12:41:34,2731.365889647275,2,8,0.5501165986061096,3.9508347511291504,7.286134008227394,6.882047436603524,29.08903469618887,25.056260678275297,3.237724376958795e-05,0.0930307656526565,0,0,0
2395,83910.3587294258,2010-10-23 12:42:04,2761.38369564106,2,8,0.5501165986061096,3.95245361328125,7.290720925357674,6.882047436603524,29.107160086179057,25.056260678275297,6.47544875391759e-05,0.0930307656526565,0,0,0
2396,83940.37152138306,2010-10-23 12:42:34,2791.3964875331594,2,8,0.5501165986061096,3.9540724754333496,7.295307085440832,6.882047436603524,29.12529000042876,25.056260678275297,3.237724376958795e-05,0.0930307656526565,0,0,0
2397,83970.38649676708,2010-10-23 12:43:04,2821.411462892131,2,8,0.5499359965324402,3.955691337585449,7.299893574174683,6.882047436603524,29.143428783138404,25.056260678275297,3.237724376958795e-05,0.0930307656526565,0,0,0
2398,84000.40165855069,2010-10-23 12:43:34,2851.42662467573,2,8,0.5501165986061096,3.957310199737549,7.304480163363447,6.882047436603524,29.16157557800966,25.056260678275297,6.47544875391759e-05,0.0930307656526565,0,0,0
2399,84030.41685875505,2010-10-23 12:44:04,2881.4418248500106,2,8,0.5501165986061096,3.9590909481048575,7.309066711375029,6.882047436603524,29.179729903462416,25.056260678275297,3.237724376958795e-05,0.0930307656526565,0,0,0
2400,84060.43218631682,2010-10-23 12:44:34,2911.457152421805,2,8,0.5501165986061096,3.960547924041748,7.313653271061869,6.882047436603524,29.19789205216227,25.056260678275297,3.237724376958795e-05,0.0930307656526565,0,0,0
2401,84090.44742286173,2010-10-23 12:45:04,2941.4723889817697,2,8,0.550297200679779,3.962490558624268,7.318239836240758,6.882047436603524,29.21606202613173,25.056260678275297,6.47544875391759e-05,0.0930307656526565,0,0,0
2402,84120.462520305,2010-10-23 12:45:34,2971.4874865002,2,8,0.5501165986061096,3.964271306991577,7.322826404775055,6.882047436603524,29.23423984661112,25.056260678275297,6.47544875391759e-05,0.0930307656526565,0,0,0
2403,84150.4775973524,2010-10-23 12:46:04,3001.502563472424,2,8,0.5499359965324402,3.9658901691436768,7.327412982453386,6.882047436603524,29.252425602623152,25.056260678275297,0.0,0.0930307656526565,0,0,0
2404,84180.49277861956,2010-10-23 12:46:34,3031.517744844844,2,8,0.5501165986061096,3.967509031295776,7.331999559630575,6.882047436603524,29.270619337896303,25.056260678275297,3.237724376958795e-05,0.0930307656526565,0,0,0
2405,84210.50796027268,2010-10-23 12:47:04,3061.532926372652,2,8,0.5501165986061096,3.969289779663086,7.336586206360511,6.882047436603524,29.28882131112333,25.056260678275297,3.237724376958795e-05,0.0930307656526565,0,0,0
2406,84240.52315111872,2010-10-23 12:47:34,3091.5481172437458,2,8,0.5501165986061096,3.9712324142456055,7.341172791274426,6.882047436603524,29.307031123400915,25.056260678275297,9.713172767078504e-05,0.0930307656526565,0,0,0
2407,84270.53831081711,2010-10-23 12:48:04,3121.563276912073,2,8,0.5501165986061096,3.972851276397705,7.345759370847142,6.882047436603524,29.325249129167823,25.056260678275297,3.237724376958795e-05,0.0930307656526565,0,0,0
2408,84300.5535089062,2010-10-23 12:48:34,3151.5784750362445,2,8,0.5499359965324402,3.974632024765015,7.35034594780702,6.882047436603524,29.34347540905144,25.056260678275297,3.237724376958795e-05,0.0930307656526565,0,0,0
2409,84330.56869346656,2010-10-23 12:49:04,3181.59365961666,2,8,0.5501165986061096,3.976574659347534,7.354932537859946,6.882047436603524,29.361710048741475,25.056260678275297,6.47544875391759e-05,0.0930307656526565,0,0,0
2410,84360.58386714982,2010-10-23 12:49:34,3211.608833269842,2,8,0.5501165986061096,3.9785172939300537,7.359519155694743,6.882047436603524,29.379952859978832,25.056260678275297,0.0001295089750783,0.0930307656526565,0,0,0
2411,84390.5991633835,2010-10-23 12:50:04,3241.6241294834817,2,8,0.550297200679779,3.980459928512573,7.364105679169811,6.882047436603524,29.398204126828784,25.056260678275297,6.47544875391759e-05,0.0930307656526565,0,0,0
2412,84420.61447553687,2010-10-23 12:50:34,3271.639441742111,2,8,0.5501165986061096,3.982240676879883,7.368692189725496,6.882047436603524,29.41646398277288,25.056260678275297,9.713172767078504e-05,0.0930307656526565,0,0,0
2413,84450.6294381992,2010-10-23 12:51:04,3301.654404294164,2,8,0.5499359965324402,3.984021425247192,7.373278637717688,6.882047436603524,29.43473220026325,25.056260678275297,6.47544875391759e-05,0.0930307656526565,0,0,0
2414,84480.64460370707,2010-10-23 12:51:34,3331.669569807057,2,8,0.5501165986061096,3.985964059829712,7.377865168429,6.882047436603524,29.45300946657001,25.056260678275297,6.47544875391759e-05,0.0930307656526565,0,0,0
2415,84510.65978270357,2010-10-23 12:52:04,3361.6847488035564,2,8,0.5499359965324402,3.9880685806274414,7.382451727571743,6.882047436603524,29.47129574847592,25.056260678275297,6.47544875391759e-05,0.0930307656526565,0,0,0
2416,84540.67498457708,2010-10-23 12:52:34,3391.699950702134,2,8,0.5501165986061096,3.989849328994751,7.387038214295706,6.882047436603524,29.489590526294787,25.056260678275297,6.47544875391759e-05,0.0930307656526565,0,0,0
2417,84570.69016717256,2010-10-23 12:53:04,3421.715133297603,2,8,0.5501165986061096,3.991953849792481,7.391624679823026,6.882047436603524,29.507894314383417,25.056260678275297,6.47544875391759e-05,0.0930307656526565,0,0,0
2418,84600.70533400375,2010-10-23 12:53:34,3451.730300098708,2,8,0.5501165986061096,3.993896484375,7.396211177450488,6.882047436603524,29.5262073791024,25.056260678275297,6.47544875391759e-05,0.0930307656526565,0,0,0
2419,84630.72064676863,2010-10-23 12:54:04,3481.7456128886606,2,8,0.5501165986061096,3.995838880538941,7.400797679508671,6.882047436603524,29.54452972359769,25.056260678275297,6.47544875391759e-05,0.0930307656526565,0,0,0
2420,84660.73572954032,2010-10-23 12:54:34,3511.760695660338,2,8,0.550297200679779,3.99810528755188,7.405384192652632,6.882047436603524,29.56286149766234,25.056260678275297,9.713172767078504e-05,0.0930307656526565,0,0,0
2421,84690.75090382005,2010-10-23 12:55:04,3541.775869940081,2,8,0.5501165986061096,3.9998860359191895,7.409970724282326,6.882047436603524,29.58120270229967,25.056260678275297,3.237724376958795e-05,0.0930307656526565,0,0,0
2422,84720.76608354336,2010-10-23 12:55:34,3571.791049663392,2,8,0.5501165986061096,4.002152442932129,7.414557256265232,6.882047436603524,29.59955352037541,25.056260678275297,9.70840483205393e-05,0.0930307656526565,0,0,0
2423,84750.78128957225,2010-10-23 12:56:04,3601.806255692264,2,8,0.5501165986061096,4.0042572021484375,7.419143811714242,6.882047436603524,29.617914122906264,25.056260678275297,9.71794142969884e-05,0.0930307656526565,0,0,0
2424,84780.79643826821,2010-10-23 12:56:35,3631.821404368194,2,8,0.550297200679779,4.006361484527588,7.423730277375458,6.882047436603524,29.63628415789483,25.056260678275297,6.47544875391759e-05,0.0930307656526565,0,0,0
2425,84810.81180209036,2010-10-23 12:57:05,3661.836768200361,2,8,0.5501165986061096,4.0084662437438965,7.428316864376612,6.882047436603524,29.654664666574945,25.056260678275297,3.24249267578125e-05,0.0930307656526565,0,0,0
2426,84840.82680619597,2010-10-23 12:57:35,3691.851772321016,2,8,0.5499359965324402,4.010570526123047,7.432903333895697,6.882047436603524,29.67305460191605,25.056260678275297,3.23295607813634e-05,0.0930307656526565,0,0,0
2427,84870.84209334203,2010-10-23 12:58:05,3721.867059436981,2,8,0.5501165986061096,4.012999057769775,7.437489862318747,6.882047436603524,29.69145490905247,25.056260678275297,6.47544875391759e-05,0.0930307656526565,0,0,0
2428,84900.85717644452,2010-10-23 12:58:35,3751.882142559533,2,8,0.5501165986061096,4.015265464782715,7.442076490308709,6.882047436603524,29.709865894174847,25.056260678275297,9.71794142969884e-05,0.0930307656526565,0,0,0
2429,84930.87237736065,2010-10-23 12:59:05,3781.8973434806753,2,8,0.5501165986061096,4.017369747161865,7.446663062831076,6.882047436603524,29.72828695422899,25.056260678275297,3.23295607813634e-05,0.0930307656526565,0,0,0
2430,84960.88754561538,2010-10-23 12:59:35,3811.912511740414,2,8,0.550297200679779,4.019636154174805,7.451249548404991,6.882047436603524,29.746717955321547,25.056260678275297,9.70840483205393e-05,0.0930307656526565,0,0,0
2431,84990.90270767467,2010-10-23 13:00:05,3841.9276737997006,2,8,0.5499359965324402,4.021902561187744,7.455836039952347,6.882047436603524,29.76515956655309,25.056260678275297,6.47544875391759e-05,0.0930307656526565,0,0,0
2432,85020.91801586816,2010-10-23 13:00:35,3871.9429819831735,2,8,0.5501165986061096,4.024331092834473,7.460422586011774,6.882047436603524,29.78361200012297,25.056260678275297,3.24249267578125e-05,0.0930307656526565,0,0,0
2433,85050.93338274791,2010-10-23 13:01:05,3901.958348958173,2,8,0.5501165986061096,4.026759147644043,7.465009121491337,6.882047436603524,29.802075063137163,25.056260678275297,9.70840483205393e-05,0.0930307656526565,0,0,0
2434,85080.94874011398,2010-10-23 13:01:35,3931.973706233998,2,8,0.5501165986061096,4.029025554656982,7.469595693448132,6.882047436603524,29.82054911435784,25.056260678275297,6.47544875391759e-05,0.0930307656526565,0,0,0
2435,85110.96352408093,2010-10-23 13:02:05,3961.988490180912,2,8,0.5499359965324402,4.031454086303711,7.474182149678204,6.882047436603524,29.839033467443468,25.056260678275297,9.71794142969884e-05,0.0930307656526565,0,0,0
2436,85140.97880769818,2010-10-23 13:02:35,3992.0037738382575,2,8,0.5499359965324402,4.03372049331665,7.478768705365256,6.882047436603524,29.85752926811985,25.056260678275297,6.47544875391759e-05,0.0930307656526565,0,0,0
2437,85170.99387742234,2010-10-23 13:03:05,4022.0188435223167,2,8,0.5501165986061096,4.036310195922852,7.483355226099449,6.882047436603524,29.876035922878124,25.056260678275297,9.70840483205393e-05,0.0930307656526565,0,0,0
2438,85201.00909133085,2010-10-23 13:03:35,4052.03405745589,2,8,0.5501165986061096,4.038576602935791,7.487941759407708,6.882047436603524,29.8945537865394,25.056260678275297,3.23295607813634e-05,0.0930307656526565,0,0,0
2439,85231.02423258328,2010-10-23 13:04:05,4082.049198688269,2,8,0.5501165986061096,4.04100513458252,7.492528278752316,6.882047436603524,29.913082763254017,25.056260678275297,3.24249267578125e-05,0.0930307656526565,0,0,0
2440,85261.03941382037,2010-10-23 13:04:35,4112.064379950415,2,8,0.5499359965324402,4.043595314025879,7.49711487179945,6.882047436603524,29.93162348099075,25.056260678275297,3.24249267578125e-05,0.0930307656526565,0,0,0
2441,85291.05462602463,2010-10-23 13:05:05,4142.079592124603,2,8,0.5499359965324402,4.046023368835449,7.501701394775353,6.882047436603524,29.95017535152349,25.056260678275297,6.47544875391759e-05,0.0930307656526565,0,0,0
2442,85321.0699293911,2010-10-23 13:05:35,4172.094895621395,2,8,0.5501165986061096,4.048613548278809,7.506287935258428,6.882047436603524,29.9687388483915,25.056260678275297,3.23295607813634e-05,0.0930307656526565,0,0,0
2443,85351.08497253903,2010-10-23 13:06:05,4202.109938638992,2,8,0.5501165986061096,4.051042079925537,7.510874453077057,6.882047436603524,29.98731388594516,25.056260678275297,3.24249267578125e-05,0.0930307656526565,0,0,0
2444,85381.10016060312,2010-10-23 13:06:35,4232.125127555215,2,8,0.5499359965324402,4.053793907165527,7.515460955181452,6.882047436603524,30.00590057341633,25.056260678275297,9.70840483205393e-05,0.0930307656526565,0,0,0
2445,85411.11533106836,2010-10-23 13:07:05,4262.14029717334,2,8,0.5499359965324402,4.056222438812256,7.520047478932965,6.882047436603524,30.02449922694045,25.056260678275297,3.24249267578125e-05,0.0930307656526565,0,0,0
2446,85441.13054718236,2010-10-23 13:07:35,4292.155513282334,2,8,0.5501165986061096,4.058974266052246,7.524633965605392,6.882047436603524,30.043109728514445,25.056260678275297,6.47544875391759e-05,0.0930307656526565,0,0,0
2447,85471.14576025879,2010-10-23 13:08:05,4322.170726388846,2,8,0.5501165986061096,4.0615644454956055,7.529220548183005,6.882047436603524,30.061732507002457,25.056260678275297,9.70840483205393e-05,0.0930307656526565,0,0,0
2448,85501.16093103982,2010-10-23 13:08:35,4352.185897169869,2,8,0.5499359965324402,4.064154624938965,7.533807007262062,6.882047436603524,30.0803668266478,25.056260678275297,6.47544875391759e-05,0.0930307656526565,0,0,0
2449,85531.17611819165,2010-10-23 13:09:05,4382.201084321694,2,8,0.550297200679779,4.067068576812744,7.538393484963541,6.882047436603524,30.09901354582937,25.056260678275297,6.47544875391759e-05,0.0930307656526565,0,0,0
2450,85561.19128516318,2010-10-23 13:09:35,4412.2162512631485,2,8,0.550297200679779,4.069820880889893,7.542979993031659,6.882047436603524,30.11767286683609,25.056260678275297,9.71794142969884e-05,0.0930307656526565,0,0,0
2451,85591.20673051852,2010-10-23 13:10:05,4442.231696738795,2,8,0.5499359965324402,4.072248935699463,7.547566536439064,6.882047436603524,30.136344901092983,25.056260678275297,3.23295607813634e-05,0.0930307656526565,0,0,0
2452,85621.22164379276,2010-10-23 13:10:35,4472.246609897745,2,8,0.5501165986061096,4.075325012207031,7.552152885489377,6.882047436603524,30.15502881344525,25.056260678275297,6.47544875391759e-05,0.0930307656526565,0,0,0
2453,85651.23684231292,2010-10-23 13:11:05,4502.261808417903,2,8,0.5501165986061096,4.0782389640808105,7.556739374918655,6.882047436603524,30.173726140870333,25.056260678275297,0.0001295089750783,0.0930307656526565,0,0,0
2454,85681.2520161616,2010-10-23 13:11:35,4532.27698226156,2,8,0.550297200679779,4.08082914352417,7.561325848085871,6.882047436603524,30.19243633542473,25.056260678275297,6.47544875391759e-05,0.0930307656526565,0,0,0
2455,85711.26749085505,2010-10-23 13:12:05,4562.292457090364,2,8,0.5501165986061096,4.083743095397949,7.565912378721237,6.882047436603524,30.211159678782245,25.056260678275297,9.71794142969884e-05,0.0930307656526565,0,0,0
2456,85741.28241088612,2010-10-23 13:12:35,4592.307377011166,2,8,0.5501165986061096,4.08649492263794,7.570498764486247,6.882047436603524,30.229895580204644,25.056260678275297,6.47544875391759e-05,0.0930307656526565,0,0,0
2457,85771.29757737144,2010-10-23 13:13:05,4622.322543471421,2,8,0.550297200679779,4.089570999145508,7.575085247229648,6.882047436603524,30.2486450791451,25.056260678275297,0.0001295089750783,0.0930307656526565,0,0,0
2458,85801.3127468442,2010-10-23 13:13:35,4652.337712969246,2,8,0.5501165986061096,4.092484951019287,7.579671725109027,6.882047436603524,30.267407992508183,25.056260678275297,9.71794142969884e-05,0.0930307656526565,0,0,0
2459,85831.33054225662,2010-10-23 13:14:05,4682.355508386671,2,8,0.5501165986061096,4.095236778259277,7.584258529122721,6.882047436603524,30.28618568488779,25.056260678275297,6.47544875391759e-05,0.0930307656526565,0,0,0
2460,85861.34339320593,2010-10-23 13:14:35,4712.368359340973,2,8,0.5501165986061096,4.098150730133057,7.58884467470638,6.882047436603524,30.30497426888507,25.056260678275297,6.47544875391759e-05,0.0930307656526565,0,0,0
2461,85891.3583241592,2010-10-23 13:15:05,4742.383290259184,2,8,0.550297200679779,4.101388454437256,7.593431180505028,6.882047436603524,30.323778069014967,25.056260678275297,9.70840483205393e-05,0.0930307656526565,0,0,0
2462,85921.37363574616,2010-10-23 13:15:35,4772.3986018561645,2,8,0.5501165986061096,4.104302406311035,7.598017720418514,6.882047436603524,30.34259577391001,25.056260678275297,6.47544875391759e-05,0.0930307656526565,0,0,0
2463,85951.38867061345,2010-10-23 13:16:05,4802.413636718437,2,8,0.5499359965324402,4.107216358184815,7.602604100003749,6.882047436603524,30.36142680615814,25.056260678275297,3.23295607813634e-05,0.0930307656526565,0,0,0
2464,85981.40397884704,2010-10-23 13:16:35,4832.428944957047,2,8,0.5499359965324402,4.110454082489014,7.607190618814538,6.882047436603524,30.38027243765524,25.056260678275297,9.70840483205393e-05,0.0930307656526565,0,0,0
2465,86011.4192637124,2010-10-23 13:17:05,4862.444229807365,2,8,0.5499359965324402,4.113530158996582,7.611777122429476,6.882047436603524,30.39913214946713,25.056260678275297,6.47544875391759e-05,0.0930307656526565,0,0,0
2466,86041.43424319665,2010-10-23 13:17:35,4892.459209296631,2,8,0.5499359965324402,4.116605758666992,7.616363548138126,6.882047436603524,30.41800582070412,25.056260678275297,6.47544875391759e-05,0.0930307656526565,0,0,0
2467,86071.44943119059,2010-10-23 13:18:05,4922.474397330655,2,8,0.5501165986061096,4.120005130767822,7.620950019353421,6.882047436603524,30.43689403707281,25.056260678275297,0.0001295089750783,0.0930307656526565,0,0,0
2468,86101.46459884882,2010-10-23 13:18:35,4952.489564948795,2,8,0.5501165986061096,4.122919082641602,7.625536513751637,6.882047436603524,30.45579685337476,25.056260678275297,9.70840483205393e-05,0.0930307656526565,0,0,0
2469,86131.47980787516,2010-10-23 13:19:05,4982.504773975138,2,8,0.5501165986061096,4.126156806945801,7.630123104105922,6.882047436603524,30.4747146384152,25.056260678275297,6.47544875391759e-05,0.0930307656526565,0,0,0
2470,86161.4949706813,2010-10-23 13:19:35,5012.519936781286,2,8,0.5501165986061096,4.129556655883789,7.63470958040074,6.882047436603524,30.493646733765576,25.056260678275297,0.0001295089750783,0.0930307656526565,0,0,0
2471,86191.51027797758,2010-10-23 13:20:05,5042.535244087572,2,8,0.5501165986061096,4.132632255554199,7.639296083287697,6.882047436603524,30.51259383439441,25.056260678275297,6.47544875391759e-05,0.0930307656526565,0,0,0
2472,86221.52533087981,2010-10-23 13:20:35,5072.55029697978,2,8,0.5501165986061096,4.136032104492188,7.643882600758205,6.882047436603524,30.53155600767352,25.056260678275297,9.71794142969884e-05,0.0930307656526565,0,0,0
2473,86251.54053024205,2010-10-23 13:21:05,5102.56549634705,2,8,0.5501165986061096,4.139269828796387,7.648469088105065,6.882047436603524,30.550533252341364,25.056260678275297,9.71794142969884e-05,0.0930307656526565,0,0,0
2474,86281.55569960455,2010-10-23 13:21:35,5132.5806657145495,2,8,0.5499359965324402,4.142669200897217,7.653055642477071,6.882047436603524,30.569526073569715,25.056260678275297,9.70840483205393e-05,0.0930307656526565,0,0,0
2475,86311.57101335189,2010-10-23 13:22:05,5162.595979507002,2,8,0.550297200679779,4.146069049835205,7.65764218391431,6.882047436603524,30.58853430611072,25.056260678275297,6.47544875391759e-05,0.0930307656526565,0,0,0
2476,86341.58623179671,2010-10-23 13:22:35,5192.6111979067055,2,8,0.5497553944587708,4.149468421936035,7.662228687028759,6.882047436603524,30.607558050291185,25.056260678275297,0.0001295089750783,0.0930307656526565,0,0,0
2477,86371.60132590163,2010-10-23 13:23:05,5222.626292001604,2,8,0.5501165986061096,4.152868270874023,7.666815142337581,6.882047436603524,30.626597234396517,25.056260678275297,9.71794142969884e-05,0.0930307656526565,0,0,0
2478,86401.61654020612,2010-10-23 13:23:35,5252.641506316127,2,8,0.5499359965324402,4.1562676429748535,7.671401602818337,6.882047436603524,30.645652141156653,25.056260678275297,9.70840483205393e-05,0.0930307656526565,0,0,0
2479,86431.6316024767,2010-10-23 13:24:05,5282.656568626808,2,8,0.5499359965324402,4.159505367279053,7.675988106711184,6.882047436603524,30.66472308109207,25.056260678275297,3.23295607813634e-05,0.0930307656526565,0,0,0
2480,86461.64691932678,2010-10-23 13:24:35,5312.6718854518185,2,8,0.5501165986061096,4.163390636444092,7.680574627039689,6.882047436603524,30.683810050328496,25.056260678275297,9.70840483205393e-05,0.0930307656526565,0,0,0
2481,86491.66196295591,2010-10-23 13:25:05,5342.686929055878,2,8,0.5501165986061096,4.16679048538208,7.685161150592425,6.882047436603524,30.702913018766072,25.056260678275297,6.47544875391759e-05,0.0930307656526565,0,0,0
2482,86521.67718639315,2010-10-23 13:25:35,5372.702152493137,2,8,0.5499359965324402,4.170351982116699,7.689747746133629,6.882047436603524,30.722032431390343,25.056260678275297,0.0001295089750783,0.0930307656526565,0,0,0
2483,86551.69251686719,2010-10-23 13:26:05,5402.717482967164,2,8,0.5501165986061096,4.173913478851318,7.694334299479568,6.882047436603524,30.741167963737997,25.056260678275297,9.71794142969884e-05,0.0930307656526565,0,0,0
2484,86581.7075602908,2010-10-23 13:26:35,5432.732526390774,2,8,0.5499359965324402,4.1774749755859375,7.698920874574942,6.882047436603524,30.76031997320168,25.056260678275297,6.47544875391759e-05,0.0930307656526565,0,0,0
2485,86611.7227528912,2010-10-23 13:27:05,5462.747719016241,2,8,0.5501165986061096,4.181036472320557,7.703507480818159,6.882047436603524,30.779488707593057,25.056260678275297,9.71794142969884e-05,0.0930307656526565,0,0,0
2486,86641.7380543028,2010-10-23 13:27:35,5492.763020412798,2,8,0.5499359965324402,4.184597969055176,7.708094149505109,6.882047436603524,30.7986743227058,25.056260678275297,6.47544875391759e-05,0.0930307656526565,0,0,0
2487,86671.75323358501,2010-10-23 13:28:05,5522.778199695009,2,8,0.5501165986061096,4.188321113586426,7.712680729291517,6.882047436603524,30.81787618897311,25.056260678275297,9.70840483205393e-05,0.0930307656526565,0,0,0
2488,86701.7683118655,2010-10-23 13:28:36,5552.793277965468,2,8,0.5501165986061096,4.191882610321045,7.717267307747106,6.882047436603524,30.83709490567793,25.056260678275297,6.47544875391759e-05,0.0930307656526565,0,0,0
2489,86731.78364250994,2010-10-23 13:29:06,5582.80860860992,2,8,0.5499359965324402,4.195605754852295,7.721853885639507,6.882047436603524,30.856330637979703,25.056260678275297,9.70840483205393e-05,0.0930307656526565,0,0,0
2490,86761.79868134212,2010-10-23 13:29:36,5612.823647442086,2,8,0.550297200679779,4.199491024017334,7.726440428058891,6.882047436603524,30.875583352344258,25.056260678275297,6.47544875391759e-05,0.0930307656526565,0,0,0
2491,86764.95486934374,2010-10-23 13:29:39,5615.979835483821,2,8,0.5501165986061096,4.200138568878174,7.726922728362483,6.882047436603524,30.87760888527655,25.056260678275297,0.0001295089750783,0.0930307656526565,0,0,0
2492,86794.97065089509,2010-10-23 13:30:09,30.015169402587983,3,8,0.0,4.115796089172363,7.726922728362483,6.882047436603524,30.87760888527655,25.056260678275297,-0.0003885269106831,0.0930307656526565,0,0,0
2493,86824.98582614223,2010-10-23 13:30:39,60.03034465976742,3,8,0.0,4.105435848236084,7.726922728362483,6.882047436603524,30.87760888527655,25.056260678275297,-0.0002265930233988,0.0930307656526565,0,0,0
2494,86855.00104531887,2010-10-23 13:31:09,90.04556382638269,3,8,0.0,4.0992841720581055,7.726922728362483,6.882047436603524,30.87760888527655,25.056260678275297,-0.0001295089750783,0.0930307656526565,0,0,0
2495,86884.96934865681,2010-10-23 13:31:39,120.01386721945464,3,8,0.0,4.095236778259277,7.726922728362483,6.882047436603524,30.87760888527655,25.056260678275297,-9.71794142969884e-05,0.0930307656526565,0,0,0
2496,86884.97169642033,2010-10-23 13:31:39,2.66163361e-06,4,8,0.9958603382110596,4.199653148651123,7.726922729098765,6.882047436603524,30.87760888836868,25.056260678275297,0.0,0.0930307656526565,0,0,0
2497,86885.83104832971,2010-10-23 13:31:40,0.859354555970264,4,8,0.9452897310256958,4.199653148651123,7.727152801055215,6.882047436603524,30.87857511954004,25.056260678275297,0.0,0.0930307656526565,0,0,0
2498,86887.87790774317,2010-10-23 13:31:42,2.906213979456492,4,8,0.8950803279876709,4.199491024017334,7.727674822718545,6.882047436603524,30.88076743171334,25.056260678275297,-3.24249267578125e-05,0.0930307656526565,0,0,0
2499,86891.01854769429,2010-10-23 13:31:45,6.046854015777784,4,8,0.844870924949646,4.199653148651123,7.728432631774202,6.882047436603524,30.88394999731475,25.056260678275297,0.0,0.0930307656526565,0,0,0
2500,86895.33090282515,2010-10-23 13:31:49,10.35920905140504,4,8,0.7948421835899353,4.199653148651123,7.729413413578326,6.882047436603524,30.88806897458336,25.056260678275297,0.0,0.0930307656526565,0,0,0
2501,86900.97146562318,2010-10-23 13:31:55,15.999771859480552,4,8,0.7448134422302246,4.199814796447754,7.730617978060087,6.882047436603524,30.893127798308992,25.056260678275297,3.23295607813634e-05,0.0930307656526565,0,0,0
2502,86908.3307295533,2010-10-23 13:32:02,23.359035789583267,4,8,0.6946040391921997,4.199814796447754,7.732086975795423,6.882047436603524,30.89929716436719,25.056260678275297,6.47544875391759e-05,0.0930307656526565,0,0,0
2503,86918.04945230576,2010-10-23 13:32:12,33.077758532033684,4,8,0.6443946361541748,4.199814796447754,7.733891570433626,6.882047436603524,30.90687595093161,25.056260678275297,3.23295607813634e-05,0.0930307656526565,0,0,0
2504,86931.5960339053,2010-10-23 13:32:26,46.624340141583644,4,8,0.5941852927207947,4.199653148651123,7.736217833441764,6.882047436603524,30.916645608982368,25.056260678275297,-3.23295607813634e-05,0.0930307656526565,0,0,0
2505,86952.2675696729,2010-10-23 13:32:46,67.29587589916406,4,8,0.5441564917564392,4.199814796447754,7.739476397803048,6.882047436603524,30.93033065120977,25.056260678275297,3.23295607813634e-05,0.0930307656526565,0,0,0
2506,86986.92331123918,2010-10-23 13:33:21,101.95161746545236,4,8,0.4941277503967285,4.199814796447754,7.744451283454553,6.882047436603524,30.95122375374924,25.056260678275297,3.23295607813634e-05,0.0930307656526565,0,0,0
2507,87049.15708494712,2010-10-23 13:34:23,164.18539129869828,4,8,0.4437377452850342,4.199653148651123,7.752524429628,6.882047436603524,30.98512866400993,25.056260678275297,0.0,0.0930307656526565,0,0,0
2508,87146.01473243201,2010-10-23 13:36:00,261.0430386933588,4,8,0.3937089741230011,4.199491024017334,7.763768619039474,6.882047436603524,31.032351026647305,25.056260678275297,-6.47544875391759e-05,0.0930307656526565,0,0,0
2509,87267.59110823864,2010-10-23 13:38:02,382.61941457015945,4,8,0.343680202960968,4.199814796447754,7.776208515042213,6.882047436603524,31.08459511449835,25.056260678275297,3.23295607813634e-05,0.0930307656526565,0,0,0
2510,87411.46398536701,2010-10-23 13:40:25,526.4922915932787,4,8,0.2936514317989349,4.199491024017334,7.788934354889816,6.882047436603524,31.138039992364423,25.056260678275297,-6.47544875391759e-05,0.0930307656526565,0,0,0
2511,87585.5707779304,2010-10-23 13:43:20,700.5990841566673,4,8,0.243622675538063,4.199653148651123,7.801901551810935,6.882047436603524,31.19249855292935,25.056260678275297,0.0,0.0930307656526565,0,0,0
2512,87798.56765637398,2010-10-23 13:46:53,913.5959626002498,4,8,0.1935939043760299,4.199491024017334,7.814799551689837,6.882047436603524,31.246666820013537,25.056260678275297,-3.24249267578125e-05,0.0930307656526565,0,0,0
2513,88082.98538759333,2010-10-23 13:51:37,1198.0136938496714,4,8,0.1435651332139969,4.199653148651123,7.828037406338613,6.882047436603524,31.302262134976843,25.056260678275297,0.0,0.0930307656526565,0,0,0
2514,88510.57286807508,2010-10-23 13:58:45,1625.6011743013355,4,8,0.0935363620519638,4.199653148651123,7.841929120684599,6.882047436603524,31.360603459550404,25.056260678275297,0.0,0.0930307656526565,0,0,0
2515,89215.31255384498,2010-10-23 14:10:29,2330.3408600712546,4,8,0.0498289167881011,4.199653148651123,7.855508243806519,6.882047436603524,31.41763194349683,25.056260678275297,-3.23295607813634e-05,0.0930307656526565,0,0,0
2516,89245.32506227579,2010-10-23 14:10:59,30.01507583438724,5,8,0.0,4.192044734954834,7.855508243806519,6.882047436603524,31.41763194349683,25.056260678275297,-3.23295607813634e-05,0.0930307656526565,0,0,0
2517,89275.32460661091,2010-10-23 14:11:29,60.01462017451186,5,8,0.0,4.190911293029785,7.855508243806519,6.882047436603524,31.41763194349683,25.056260678275297,0.0,0.0930307656526565,0,0,0
2518,89275.5104434197,2010-10-23 14:11:30,0.187517822110491,6,8,-1.9243103452026844e-05,4.190749645233154,7.855508243806519,6.882047437605865,31.41763194349683,25.056260682475852,0.0,0.0923051163554191,0,0,0
2519,89280.33858518454,2010-10-23 14:11:35,5.01565956190814,6,8,0.0007031940040178,4.190749645233154,7.855509198695192,6.882047437772735,31.417635945318725,25.056260683175168,-6.47544875391759e-05,0.0923051163554191,0,0,0
2520,89310.35194422222,2010-10-23 14:12:05,30.01509055106573,7,8,-1.0997490882873535,4.016722202301025,7.855509198695192,6.891215880013976,31.417635945318725,25.093282091305102,-0.0009065627818927,0.0923051163554191,0,0,0
2521,89340.36721015538,2010-10-23 14:12:35,60.03035649426263,7,8,-1.099568486213684,3.990173101425171,7.855509198695192,6.900384334428795,31.417635945318725,25.129978055967378,-0.0005827903514727,0.0923051163554191,0,0,0
2522,89370.3823666959,2010-10-23 14:13:05,90.04551304983191,7,8,-1.099568486213684,3.9717180728912354,7.855509198695192,6.909552654326323,31.417635945318725,25.16647210208296,-0.0004209041653666,0.0923051163554191,0,0,0
2523,89400.3976352456,2010-10-23 14:13:35,120.06078157446252,7,8,-1.099568486213684,3.957148313522339,7.855509198695192,6.918720990805323,31.417635945318725,25.202817691620155,-0.0003561496851034,0.0923051163554191,0,0,0
2524,89430.41269017791,2010-10-23 14:14:05,150.0758365067553,7,8,-1.0997490882873535,3.9451687335968018,7.855509198695192,6.927889291950073,31.417635945318725,25.2390423833616,-0.0003237724304199,0.0923051163554191,0,0,0
2525,89460.42789737969,2010-10-23 14:14:35,180.091043743638,7,8,-1.0997490882873535,3.9343223571777344,7.855509198695192,6.937057566105197,31.417635945318725,25.275162689716783,-0.0002590179501567,0.0923051163554191,0,0,0
2526,89490.44306701787,2010-10-23 14:15:05,210.10621335173812,7,8,-1.099568486213684,3.924447298049927,7.855509198695192,6.94622583601461,31.417635945318725,25.31118792771192,-0.0002266406954731,0.0923051163554191,0,0,0
2527,89520.45825968344,2010-10-23 14:15:35,240.1214060072797,7,8,-1.0997490882873535,3.914896011352539,7.855509198695192,6.955394168746341,31.417635945318725,25.34712424105071,-0.0002590179501567,0.0923051163554191,0,0,0
2528,89550.47346653936,2010-10-23 14:16:05,270.1366128632129,7,8,-1.099568486213684,3.90615439414978,7.855509198695192,6.964562514493667,31.417635945318725,25.38297663672189,-0.0002266406954731,0.0923051163554191,0,0,0
2529,89580.48876726927,2010-10-23 14:16:35,300.151913593109,7,8,-1.099568486213684,3.897574424743652,7.855509198695192,6.973730864154349,31.417635945318725,25.418748808470607,-0.0001942634553415,0.0923051163554191,0,0,0
2530,89610.50383992572,2010-10-23 14:17:05,330.1669862846633,7,8,-1.0997490882873535,3.888994455337525,7.855509198695192,6.982899100696293,31.417635945318725,25.45444269392229,-0.0002266406954731,0.0923051163554191,0,0,0
2531,89640.51900500253,2010-10-23 14:17:35,360.1821513313951,7,8,-1.0997490882873535,3.880738258361816,7.855509198695192,6.992067375641921,31.417635945318725,25.49006065782309,-0.0002266406954731,0.0923051163554191,0,0,0
2532,89670.53415972354,2010-10-23 14:18:05,390.1973060874796,7,8,-1.099568486213684,3.872482061386109,7.855509198695192,7.001235691355855,31.417635945318725,25.52560314349635,-0.0002266406954731,0.0923051163554191,0,0,0
2533,89700.54950011226,2010-10-23 14:18:35,420.21264644614274,7,8,-1.099568486213684,3.8647115230560303,7.855509198695192,7.010404072733013,31.417635945318725,25.561071634227687,-0.0001942634553415,0.0923051163554191,0,0,0
2534,89730.56456070869,2010-10-23 14:19:05,450.22770705758967,7,8,-1.0997490882873535,3.856779098510742,7.855509198695192,7.019572352783801,31.417635945318725,25.596467802895635,-0.0002266406954731,0.0923051163554191,0,0,0
2535,89760.5798771778,2010-10-23 14:19:35,480.2430236169376,7,8,-1.099568486213684,3.849008560180664,7.855509198695192,7.028740773259452,31.417635945318725,25.63179311592889,-0.0002266406954731,0.0923051163554191,0,0,0
2536,89790.59483070235,2010-10-23 14:20:05,510.2579770262038,7,8,-1.099568486213684,3.841561794281006,7.855509198695192,7.037904383072606,31.417635945318725,25.667029511351565,-0.0001618862152099,0.0923051163554191,0,0,0
2537,89820.61015373784,2010-10-23 14:20:35,540.2733001017922,7,8,-1.099568486213684,3.834115028381348,7.855509198695192,7.047077412015537,31.417635945318725,25.70223314838207,-0.0001618862152099,0.0923051163554191,0,0,0
2538,89850.62541347057,2010-10-23 14:21:05,570.2885598044357,7,8,-1.0997490882873535,3.8265066146850586,7.855509198695192,7.056245774669451,31.417635945318725,25.737351301244644,-0.0002266406954731,0.0923051163554191,0,0,0
2539,89880.64047322488,2010-10-23 14:21:35,600.3036195487215,7,8,-1.0997490882873535,3.8195455074310303,7.855509198695192,7.065414067042488,31.417635945318725,25.772402322815,-0.0001942634553415,0.0923051163554191,0,0,0
2540,89910.65566429646,2010-10-23 14:22:05,630.3188106203153,7,8,-1.0997490882873535,3.812098741531372,7.855509198695192,7.074582446703563,31.417635945318725,25.80738798272896,-0.0002590179501567,0.0923051163554191,0,0,0
2541,89940.67086123268,2010-10-23 14:22:35,660.3340075866005,7,8,-1.0997490882873535,3.8052995204925537,7.855509198695192,7.083750786852803,31.417635945318725,25.842308368764247,-0.0001942634553415,0.0923051163554191,0,0,0
2542,89970.6860597829,2010-10-23 14:23:05,690.3492061067583,7,8,-1.099568486213684,3.798500299453736,7.855509198695192,7.092919132750634,31.417635945318725,25.877165311019077,-0.0001942634553415,0.0923051163554191,0,0,0
2543,90000.70375302568,2010-10-23 14:23:35,720.366899474845,7,8,-1.0997490882873535,3.791862964630127,7.855509198695192,7.10208828630382,31.417635945318725,25.91196305088913,-0.0001618862152099,0.0923051163554191,0,0,0
2544,90030.7166448318,2010-10-23 14:24:05,750.3797911907369,7,8,-1.099568486213684,3.7850637435913086,7.855509198695192,7.111255912917486,31.417635945318725,25.94669400564348,-0.0001942634553415,0.0923051163554191,0,0,0
2545,90060.7316226519,2010-10-23 14:24:35,780.3947689807675,7,8,-1.099568486213684,3.77858829498291,7.855509198695192,7.120424319018979,31.417635945318725,25.981368301024784,-0.0001942634553415,0.0923051163554191,0,0,0
2546,90090.74679825996,2010-10-23 14:25:05,810.4099446239088,7,8,-1.0997490882873535,3.772436618804932,7.855509198695192,7.129592682783292,31.417635945318725,26.015984100544262,-0.0001618862152099,0.0923051163554191,0,0,0
2547,90120.76197705595,2010-10-23 14:25:35,840.4251234048708,7,8,-1.0997490882873535,3.766284942626953,7.855509198695192,7.138761114897909,31.417635945318725,26.05054302828901,-0.0001618862152099,0.0923051163554191,0,0,0
2548,90150.77728620684,2010-10-23 14:26:05,870.4404325407168,7,8,-1.0997490882873535,3.760133266448975,7.855509198695192,7.14792957010015,31.417635945318725,26.08504667419175,-0.0002266406954731,0.0923051163554191,0,0,0
2549,90180.79257416991,2010-10-23 14:26:35,900.4557205188315,7,8,-1.0997490882873535,3.754305362701416,7.855509198695192,7.157098002637548,31.417635945318725,26.11949531856514,-0.0001618862152099,0.0923051163554191,0,0,0
2550,90210.80766843024,2010-10-23 14:27:05,930.4708147641044,7,8,-1.099568486213684,3.748477697372437,7.855509198695192,7.166266372668717,31.417635945318725,26.153889139950216,-0.0001295089750783,0.0923051163554191,0,0,0
2551,90240.8227254377,2010-10-23 14:27:35,960.4858717715692,7,8,-1.099568486213684,3.742811679840088,7.855509198695192,7.175434776137895,31.417635945318725,26.188229658463644,-9.713172767078504e-05,0.0923051163554191,0,0,0
2552,90270.83790963716,2010-10-23 14:28:05,990.5010559610106,7,8,-1.099568486213684,3.736983776092529,7.855509198695192,7.184603192312113,31.417635945318725,26.222517988622617,-0.0001942634553415,0.0923051163554191,0,0,0
2553,90300.8532382666,2010-10-23 14:28:35,1020.5163846155032,7,8,-1.099568486213684,3.7316415309906006,7.855509198695192,7.193771628563552,31.417635945318725,26.256755173006965,-0.0001295089750783,0.0923051163554191,0,0,0
2554,90330.86830950952,2010-10-23 14:29:05,1050.5314558383973,7,8,-1.099568486213684,3.726137399673462,7.855509198695192,7.202939988175237,31.417635945318725,26.29094173555061,-0.0001295089750783,0.0923051163554191,0,0,0
2555,90360.88359916184,2010-10-23 14:29:35,1080.5467455207595,7,8,-1.099568486213684,3.7206332683563232,7.855509198695192,7.212108446724263,31.417635945318725,26.325079371766048,-0.0001295089750783,0.0923051163554191,0,0,0
2556,90390.89869909627,2010-10-23 14:30:05,1110.5618454501987,7,8,-1.0997490882873535,3.715452909469605,7.855509198695192,7.221276804198216,31.417635945318725,26.35916799584656,-0.0001295089750783,0.0923051163554191,0,0,0
2557,90420.91386498512,2010-10-23 14:30:35,1140.5770113089543,7,8,-1.0997490882873535,3.710434436798096,7.855509198695192,7.230445131544651,31.417635945318725,26.39320880609031,-9.713172767078504e-05,0.0923051163554191,0,0,0
2558,90450.92903767088,2010-10-23 14:31:05,1170.5921839947252,7,8,-1.099568486213684,3.705254077911377,7.855509198695192,7.239613578735299,31.417635945318725,26.42720281020183,-9.713172767078504e-05,0.0923051163554191,0,0,0
2559,90480.94435321268,2010-10-23 14:31:35,1200.6074995465622,7,8,-1.099568486213684,3.699911832809448,7.855509198695192,7.248782055383275,31.417635945318725,26.461150148869283,-0.0001295089750783,0.0923051163554191,0,0,0
2560,90510.95941661108,2010-10-23 14:32:05,1230.62256293493,7,8,-1.0997490882873535,3.695055246353149,7.855509198695192,7.257950471319423,31.417635945318725,26.495050760770503,-0.0001295089750783,0.0923051163554191,0,0,0
2561,90540.97462348203,2010-10-23 14:32:35,1260.6377697958758,7,8,-1.099568486213684,3.6901986598968506,7.855509198695192,7.26711888017286,31.417635945318725,26.52890564895849,-9.713172767078504e-05,0.0923051163554191,0,0,0
2562,90570.98978441852,2010-10-23 14:33:05,1290.652930777476,7,8,-1.0997490882873535,3.685018301010132,7.855509198695192,7.276287270817452,31.417635945318725,26.562715534611,-0.0001618862152099,0.0923051163554191,0,0,0
2563,90601.00500018668,2010-10-23 14:33:35,1320.668146510534,7,8,-1.099568486213684,3.680485486984253,7.855509198695192,7.285455689282829,31.417635945318725,26.596481405929257,-9.713172767078504e-05,0.0923051163554191,0,0,0
2564,90631.0201726519,2010-10-23 14:34:05,1350.683318975755,7,8,-1.0997490882873535,3.675790786743164,7.855509198695192,7.294624062135544,31.417635945318725,26.63020415060764,-0.0001295089750783,0.0923051163554191,0,0,0
2565,90661.035367929,2010-10-23 14:34:35,1380.69851425283,7,8,-1.0997490882873535,3.6710963249206543,7.855509198695192,7.303792483449441,31.417635945318725,26.66388458083151,-0.0001618862152099,0.0923051163554191,0,0,0
2566,90691.05054883024,2010-10-23 14:35:05,1410.7136951540765,7,8,-1.099568486213684,3.666725397109986,7.855509198695192,7.312960916906011,31.417635945318725,26.697522690089155,-9.713172767078504e-05,0.0923051163554191,0,0,0
2567,90721.0658764772,2010-10-23 14:35:35,1440.7290229113328,7,8,-1.099568486213684,3.6621925830841056,7.855509198695192,7.3221294123416,31.417635945318725,26.73111970390326,-0.0001295089750783,0.0923051163554191,0,0,0
2568,90751.08091507378,2010-10-23 14:36:05,1470.744061397637,7,8,-1.0997490882873535,3.657659769058228,7.855509198695192,7.331297774865472,31.417635945318725,26.764675286646728,-0.0001295089750783,0.0923051163554191,0,0,0
2569,90781.09612820036,2010-10-23 14:36:35,1500.7592745241989,7,8,-1.099568486213684,3.653450727462769,7.855509198695192,7.340466251221772,31.417635945318725,26.798190838305604,-6.47544875391759e-05,0.0923051163554191,0,0,0
2570,90811.11131465044,2010-10-23 14:37:05,1530.7744609792867,7,8,-1.0997490882873535,3.6490797996521,7.855509198695192,7.34963460719802,31.417635945318725,26.83166652210455,-0.0001295089750783,0.0923051163554191,0,0,0
2571,90841.12661023752,2010-10-23 14:37:35,1560.7897565663654,7,8,-1.099568486213684,3.6448707580566406,7.855509198695192,7.358802974732583,31.417635945318725,26.865103022661867,-9.713172767078504e-05,0.0923051163554191,0,0,0
2572,90871.14179301844,2010-10-23 14:38:06,1590.804939342284,7,8,-1.099568486213684,3.6406617164611816,7.855509198695192,7.367971368822535,31.417635945318725,26.89850102836799,-9.713172767078504e-05,0.0923051163554191,0,0,0
2573,90901.15686645184,2010-10-23 14:38:36,1620.820012785712,7,8,-1.0997490882873535,3.6366145610809326,7.855509198695192,7.377139719124727,31.417635945318725,26.93186114941004,-0.0001295089750783,0.0923051163554191,0,0,0
2574,90931.17217279572,2010-10-23 14:39:06,1650.8353191195747,7,8,-1.099568486213684,3.632567405700684,7.855509198695192,7.386308115397489,31.417635945318725,26.965184730366698,-0.0001295089750783,0.0923051163554191,0,0,0
2575,90961.18723950736,2010-10-23 14:39:36,1680.850385856288,7,8,-1.0997490882873535,3.628682136535645,7.855509198695192,7.395476408744676,31.417635945318725,26.99847210364401,-6.47544875391759e-05,0.0923051163554191,0,0,0
2576,90991.20254776604,2010-10-23 14:40:06,1710.865694094898,7,8,-1.099568486213684,3.624958753585816,7.855509198695192,7.404644787352143,31.417635945318725,27.031724450694355,-9.713172767078504e-05,0.0923051163554191,0,0,0
2577,91021.21763713416,2010-10-23 14:40:36,1740.880783468028,7,8,-1.099568486213684,3.6212353706359854,7.855509198695192,7.413813155722083,31.417635945318725,27.06494263995832,-9.713172767078504e-05,0.0923051163554191,0,0,0
2578,91051.23292310728,2010-10-23 14:41:06,1770.8960694261082,7,8,-1.0997490882873535,3.617673873901367,7.855509198695192,7.422981561214733,31.417635945318725,27.09812712326929,-6.47544875391759e-05,0.0923051163554191,0,0,0
2579,91081.24799303194,2010-10-23 14:41:36,1800.9111393557787,7,8,-1.0997490882873535,3.614112377166748,7.855509198695192,7.432149870457421,31.417635945318725,27.131278528153032,-9.713172767078504e-05,0.0923051163554191,0,0,0
2580,91111.26318040933,2010-10-23 14:42:06,1830.9263267431909,7,8,-1.099568486213684,3.610712766647339,7.855509198695192,7.441318238433931,31.417635945318725,27.16439815473685,-6.47544875391759e-05,0.0923051163554191,0,0,0
2581,91141.27856698316,2010-10-23 14:42:36,1860.941713307012,7,8,-1.0997490882873535,3.60715126991272,7.855509198695192,7.450486691346774,31.417635945318725,27.197486716033005,-9.713172767078504e-05,0.0923051163554191,0,0,0
2582,91171.29357423662,2010-10-23 14:43:06,1890.9567205704989,7,8,-1.099568486213684,3.603913545608521,7.855509198695192,7.459655016120887,31.417635945318725,27.230543889025764,-6.47544875391759e-05,0.0923051163554191,0,0,0
2583,91201.3087450076,2010-10-23 14:43:36,1920.9718913314723,7,8,-1.0997490882873535,3.6008377075195312,7.855509198695192,7.468823444594439,31.417635945318725,27.263571257794336,-6.47544875391759e-05,0.0923051163554191,0,0,0
2584,91231.324023061,2010-10-23 14:44:06,1950.9871694349763,7,8,-1.099568486213684,3.597599983215332,7.855509198695192,7.477991885687673,31.417635945318725,27.296569302079828,-6.47544875391759e-05,0.0923051163554191,0,0,0
2585,91261.33933102894,2010-10-23 14:44:36,1981.002477382862,7,8,-1.0997490882873535,3.594200372695923,7.855509198695192,7.48716036733625,31.417635945318725,27.329538454891544,-9.713172767078504e-05,0.0923051163554191,0,0,0
2586,91291.35431001194,2010-10-23 14:45:06,2011.017456345816,7,8,-1.0997490882873535,3.5911247730255127,7.855509198695192,7.496328755843523,31.417635945318725,27.362478910847745,-9.713172767078504e-05,0.0923051163554191,0,0,0
2587,91321.36962665147,2010-10-23 14:45:36,2041.0327730054137,7,8,-1.0997490882873535,3.588372707366944,7.855509198695192,7.505497139510267,31.417635945318725,27.395391463818243,-3.237724376958795e-05,0.0923051163554191,0,0,0
2588,91351.38480568308,2010-10-23 14:46:06,2071.047951991888,7,8,-1.099568486213684,3.585296869277954,7.855509198695192,7.514665512890786,31.417635945318725,27.428276371832,-6.47544875391759e-05,0.0923051163554191,0,0,0
2589,91381.39988438462,2010-10-23 14:46:36,2101.063030708458,7,8,-1.0997490882873535,3.582221031188965,7.855509198695192,7.523833894847654,31.417635945318725,27.46113417735427,-9.713172767078504e-05,0.0923051163554191,0,0,0
2590,91411.41518285888,2010-10-23 14:47:06,2131.0783291927573,7,8,-1.099929690361023,3.579307079315185,7.855509198695192,7.533002299965824,31.417635945318725,27.49396506081678,-0.0001295089750783,0.0923051163554191,0,0,0
2591,91441.43026053288,2010-10-23 14:47:36,2161.093406861717,7,8,-1.0997490882873535,3.5763931274414062,7.855509198695192,7.542170649359474,31.417635945318725,27.526768463587644,-6.47544875391759e-05,0.0923051163554191,0,0,0
2592,91471.44544342908,2010-10-23 14:48:06,2191.108589742897,7,8,-1.099568486213684,3.573479175567627,7.855509198695192,7.551339064563297,31.417635945318725,27.5595450164318,-3.237724376958795e-05,0.0923051163554191,0,0,0
2593,91501.4607748304,2010-10-23 14:48:36,2221.1239211843363,7,8,-1.099568486213684,3.5707271099090576,7.855509198695192,7.560507494761673,31.417635945318725,27.59229481172084,-6.47544875391759e-05,0.0923051163554191,0,0,0
2594,91531.47583439424,2010-10-23 14:49:06,2251.138980718097,7,8,-1.0997490882873535,3.5676512718200684,7.855509198695192,7.569676066140596,31.417635945318725,27.625017898744208,-3.237724376958795e-05,0.0923051163554191,0,0,0
2595,91561.49116080816,2010-10-23 14:49:36,2281.154307262331,7,8,-1.0997490882873535,3.564575433731079,7.855509198695192,7.578845276424681,31.417635945318725,27.657715668136028,-6.47544875391759e-05,0.0923051163554191,0,0,0
2596,91591.50633859664,2010-10-23 14:50:06,2311.169484930519,7,8,-1.099568486213684,3.5616614818573,7.855509198695192,7.588014251714147,31.417635945318725,27.69038542594797,-9.713172767078504e-05,0.0923051163554191,0,0,0
2597,91621.52141607011,2010-10-23 14:50:36,2341.184562393966,7,8,-1.099568486213684,3.5585856437683105,7.855509198695192,7.597182591378314,31.417635945318725,27.72302600429296,-9.713172767078504e-05,0.0923051163554191,0,0,0
2598,91651.53673846902,2010-10-23 14:51:06,2371.1998847978807,7,8,-1.099568486213684,3.5555098056793213,7.855509198695192,7.606351048231516,31.417635945318725,27.755638744955352,-6.47544875391759e-05,0.0923051163554191,0,0,0
2599,91681.55192312464,2010-10-23 14:51:36,2401.215069468521,7,8,-1.099568486213684,3.552433967590332,7.855509198695192,7.615519465101946,31.417635945318725,27.7882226878514,-9.713172767078504e-05,0.0923051163554191,0,0,0
2600,91711.56700502412,2010-10-23 14:52:06,2431.230151473288,7,8,-1.099568486213684,3.549196243286133,7.855509198695192,7.624687831060896,31.417635945318725,27.820777473606583,-6.47544875391759e-05,0.0923051163554191,0,0,0
2601,91741.58218648676,2010-10-23 14:52:36,2461.245332840695,7,8,-1.099568486213684,3.545796632766724,7.855509198695192,7.633856321883173,31.417635945318725,27.85330274484972,-0.0001295089750783,0.0923051163554191,0,0,0
2602,91771.59734918764,2010-10-23 14:53:06,2491.2604955115057,7,8,-1.0997490882873535,3.5425589084625244,7.855509198695192,7.643024735955013,31.417635945318725,27.88579726196146,-9.713172767078504e-05,0.0923051163554191,0,0,0
2603,91801.61253906126,2010-10-23 14:53:36,2521.275685385114,7,8,-1.099568486213684,3.5391592979431152,7.855509198695192,7.652193148915869,31.417635945318725,27.91826084118764,-6.47544875391759e-05,0.0923051163554191,0,0,0
2604,91831.6277228046,2010-10-23 14:54:06,2551.290869158518,7,8,-1.099568486213684,3.535597801208496,7.855509198695192,7.661361613200707,31.417635945318725,27.950692426796383,-6.47544875391759e-05,0.0923051163554191,0,0,0
2605,91861.64294974558,2010-10-23 14:54:36,2581.3060960694347,7,8,-1.099929690361023,3.531712532043457,7.855509198695192,7.670530087400592,31.417635945318725,27.98309062973599,-0.0001295089750783,0.0923051163554191,0,0,0
2606,91891.65809800048,2010-10-23 14:55:06,2611.321244319304,7,8,-1.0997490882873535,3.527989149093628,7.855509198695192,7.679698574283293,31.417635945318725,28.01545456670569,-9.713172767078504e-05,0.0923051163554191,0,0,0
2607,91921.67588300194,2010-10-23 14:55:36,2641.3390294410683,7,8,-1.099568486213684,3.524103879928589,7.855509198695192,7.688867849757416,31.417635945318725,28.04778526393736,-6.47544875391759e-05,0.0923051163554191,0,0,0
2608,91951.68879097332,2010-10-23 14:56:06,2671.351937297187,7,8,-1.0997490882873535,3.51957106590271,7.855509198695192,7.69803568088496,31.417635945318725,28.080073191733224,-9.713172767078504e-05,0.0923051163554191,0,0,0
2609,91981.7036863229,2010-10-23 14:56:36,2701.366832636725,7,8,-1.099568486213684,3.515362024307251,7.855509198695192,7.70720398563568,31.417635945318725,28.112323447492344,-0.0001295089750783,0.0923051163554191,0,0,0
2610,92011.71885651244,2010-10-23 14:57:06,2731.382002861362,7,8,-1.099568486213684,3.510667562484741,7.855509198695192,7.716372428408998,31.417635945318725,28.144532392745425,-0.0001295089750783,0.0923051163554191,0,0,0
2611,92041.7340369375,2010-10-23 14:57:36,2761.3971832463217,7,8,-1.099568486213684,3.5056490898132324,7.855509198695192,7.725540913065072,31.417635945318725,28.17669683619517,-0.0001295089750783,0.0923051163554191,0,0,0
2612,92071.74940348644,2010-10-23 14:58:06,2791.4125506874825,7,8,-1.099568486213684,3.5001449584960938,7.855509198695192,7.734709388407675,31.417635945318725,28.20881233109804,-0.0001618862152099,0.0923051163554191,0,0,0
2613,92101.76452423778,2010-10-23 14:58:36,2821.4276705516054,7,8,-1.0997490882873535,3.4938313961029053,7.855509198695192,7.743877899817979,31.417635945318725,28.24087464640593,-0.0001942634553415,0.0923051163554191,0,0,0
2614,92131.77971038713,2010-10-23 14:59:06,2851.442856715969,7,8,-1.099568486213684,3.487032175064087,7.855509198695192,7.753046443298727,31.417635945318725,28.272877765542813,-0.0001942634553415,0.0923051163554191,0,0,0
2615,92161.79476390588,2010-10-23 14:59:36,2881.457910224714,7,8,-1.0997490882873535,3.479261636734009,7.855509198695192,7.762214862418517,31.417635945318725,28.304813669927213,-0.0001942634553415,0.0923051163554191,0,0,0
2616,92191.80994435598,2010-10-23 15:00:06,2911.473090679848,7,8,-1.099568486213684,3.470357894897461,7.855509198695192,7.77138326919308,31.417635945318725,28.336672925359636,-0.0002590179501567,0.0923051163554191,0,0,0
2617,92221.82508761845,2010-10-23 15:00:36,2941.488233937275,7,8,-1.099568486213684,3.4601590633392334,7.855509198695192,7.780551699422706,31.417635945318725,28.368444721725066,-0.0002913951757363,0.0923051163554191,0,0,0
2618,92251.84032611824,2010-10-23 15:01:06,2971.503472437074,7,8,-1.099929690361023,3.4478557109832764,7.855509198695192,7.78972017557394,31.417635945318725,28.400114188282235,-0.0003237724304199,0.0923051163554191,0,0,0
2619,92281.8556716498,2010-10-23 15:01:36,3001.518817973642,7,8,-1.099568486213684,3.43344783782959,7.855509198695192,7.798888680022182,31.417635945318725,28.431661293020664,-0.0003561496851034,0.0923051163554191,0,0,0
2620,92311.87084355364,2010-10-23 15:02:06,3031.533989877464,7,8,-1.099568486213684,3.4148311614990234,7.855509198695192,7.808057147237898,31.417635945318725,28.46305848695831,-0.0005827903514727,0.0923051163554191,0,0,0
2621,92341.8859067114,2010-10-23 15:02:36,3061.5490530302445,7,8,-1.099568486213684,3.391357660293579,7.855509198695192,7.817225549677463,31.417635945318725,28.494264226175105,-0.0006799221155233,0.0923051163554191,0,0,0
2622,92371.90108099116,2010-10-23 15:03:06,3091.564227309988,7,8,-1.099568486213684,3.358980417251587,7.855509198695192,7.826394043911625,31.417635945318725,28.52521646762812,-0.0009713172912597,0.0923051163554191,0,0,0
2623,92401.9163914954,2010-10-23 15:03:36,3121.57953784432,7,8,-1.099568486213684,3.313490629196167,7.855509198695192,7.835562550077486,31.417635945318725,28.55581684896913,-0.0014245987404137,0.0923051163554191,0,0,0
2624,92431.93145426724,2010-10-23 15:04:06,3151.5946005860765,7,8,-1.0997490882873535,3.248412609100342,7.855509198695192,7.8447309787514,31.417635945318725,28.585917779799903,-0.0020397664047777,0.0923051163554191,0,0,0
2625,92461.94666026604,2010-10-23 15:04:36,3181.609806584873,7,8,-1.0997490882873535,3.152576208114624,7.855509198695192,7.853899387175527,31.417635945318725,28.615293245787687,-0.0030758380889892,0.0923051163554191,0,0,0
2626,92491.96188123214,2010-10-23 15:05:06,3211.625027550973,7,8,-1.0997490882873535,2.991014242172241,7.855509198695192,7.86306783976937,31.417635945318725,28.64353735009289,-0.005795526318252,0.0923051163554191,0,0,0
2627,92510.13346347636,2010-10-23 15:05:25,3229.796609820244,7,8,-1.0997490882873535,2.7907614707946777,7.855509198695192,7.868618574150266,31.417635945318725,28.659642901175417,-0.0110730174928903,0.0923051163554191,0,0,0
2628,92516.08648425582,2010-10-23 15:05:30,3235.749630574663,7,8,-1.0997490882873535,2.699943780899048,7.855509198695192,7.870437001981457,31.417635945318725,28.664636237122856,-0.0123680587857961,0.0923051163554191,0,0,0
2629,92576.10009123036,2010-10-23 15:06:31,60.01493586631297,8,8,0.0,3.3230419158935547,7.855509198695192,7.870437001981457,31.417635945318725,28.664636237122856,0.0013922214275225,0.0923051163554191,0,0,0
2630,92576.287060352,2010-10-23 15:06:31,0.18762931498504,9,8,-1.9243103452026844e-05,3.3232038021087646,7.855509198695192,7.870437002984393,31.417635945318725,28.664636240455817,0.0,0.0907677188515663,0,0,0
2631,92581.11498082036,2010-10-23 15:06:36,5.015549657993769,9,8,0.0005225847125984,3.3316218852996826,7.855510088963383,7.870437003067663,31.4176389081664,28.664636240732538,0.0011979580158367,0.0907677188515663,0,0,0
