Data_Point,Test_Time(s),Date_Time,Step_Time(s),Step_Index,Cycle_Index,Current(A),Voltage(V),Charge_Capacity(Ah),Discharge_Capacity(Ah),Charge_Energy(Wh),Discharge_Energy(Wh),dV/dt(V/s),Internal_Resistance(Ohm),Is_FC_Data,AC_Impedance(Ohm),ACI_Phase_Angle(Deg)
15369,539086.8787963641,2010-10-28 19:09:11,30.0154005186002,1,48,0.0,3.4065749645233154,45.88270780338339,45.88840732920627,183.4031579934304,167.04508656832394,0.0007770538213662,0.0939245000481605,0,0,0
15370,539116.8937571215,2010-10-28 19:09:41,60.03036124109319,1,48,0.0,3.4305341243743896,45.88270780338339,45.88840732920627,183.4031579934304,167.04508656832394,0.0005504131549969,0.0939245000481605,0,0,0
15371,539146.9088720233,2010-10-28 19:10:11,90.04547614786084,1,48,0.0,3.448503255844116,45.88270780338339,45.88840732920627,183.4031579934304,167.04508656832394,0.0004532813909463,0.0939245000481605,0,0,0
15372,539176.8772219724,2010-10-28 19:10:41,120.01382608693976,1,48,0.0,3.4627492427825928,45.88270780338339,45.88840732920627,183.4031579934304,167.04508656832394,0.0003561496851034,0.0939245000481605,0,0,0
15373,539206.9096261723,2010-10-28 19:11:11,30.01512391421697,2,48,0.550297200679779,3.6194546222686768,45.88729433771238,45.88840732920627,183.4196011883115,167.04508656832394,0.0015541076427325,0.0939245000481605,0,0,0
15374,539236.9246453304,2010-10-28 19:11:41,60.0301430422746,2,48,0.5499359965324402,3.665268421173096,45.89188083267,45.88840732920627,183.43631330746612,167.04508656832394,0.0010360718006268,0.0939245000481605,0,0,0
15375,539266.9397983772,2010-10-28 19:12:11,90.04529608909898,2,48,0.5501165986061096,3.6981310844421382,45.89646734439613,45.88840732920627,183.4532029520372,167.04508656832394,0.0008094310760498,0.0939245000481605,0,0,0
15376,539296.9549360558,2010-10-28 19:12:41,120.06043376260834,2,48,0.550297200679779,3.7238709926605225,45.90105389878822,45.88840732920627,183.47022609808457,167.04508656832394,0.0005827903514727,0.0939245000481605,0,0,0
15377,539326.9700690575,2010-10-28 19:13:12,150.07556676447453,2,48,0.5501165986061096,3.7449162006378174,45.90564039656345,45.88840732920627,183.4873553238679,167.04508656832394,0.0005504131549969,0.0939245000481605,0,0,0
15378,539356.9852088012,2010-10-28 19:13:42,180.09070650814337,2,48,0.5501165986061096,3.761590242385864,45.91022685366178,45.88840732920627,183.50457092439447,167.04508656832394,0.0003885269106831,0.0939245000481605,0,0,0
15379,539387.000371041,2010-10-28 19:14:12,210.1058687729418,2,48,0.550297200679779,3.773569822311402,45.91481336754013,45.88840732920627,183.52185288166635,167.04508656832394,0.0002590179501567,0.0939245000481605,0,0,0
15380,539417.0155152408,2010-10-28 19:14:42,240.12101295266663,2,48,0.5501165986061096,3.7805309295654297,45.91939983334554,45.88840732920627,183.5391775184168,167.04508656832394,6.47544875391759e-05,0.0939245000481605,0,0,0
15381,539447.0306443479,2010-10-28 19:15:12,270.136142059826,2,48,0.550297200679779,3.785711288452149,45.92398634952068,45.88840732920627,183.5565291776462,167.04508656832394,0.0001618862152099,0.0939245000481605,0,0,0
15382,539477.0458060814,2010-10-28 19:15:42,300.1513038183627,2,48,0.5499359965324402,3.789596557617188,45.92857288722024,45.88840732920627,183.5739013586036,167.04508656832394,9.713172767078504e-05,0.0939245000481605,0,0,0
15383,539507.0609317048,2010-10-28 19:16:12,330.16642944685213,2,48,0.5499359965324402,3.7938055992126474,45.93315938027062,45.88840732920627,183.5912919962284,167.04508656832394,0.0001295089750783,0.0939245000481605,0,0,0
15384,539537.0760823557,2010-10-28 19:16:42,360.18158011775506,2,48,0.5497553944587708,3.797528982162476,45.93774588846394,45.88840732920627,183.6087007772252,167.04508656832394,9.713172767078504e-05,0.0939245000481605,0,0,0
15385,539567.0912148664,2010-10-28 19:17:12,390.1967126033345,2,48,0.5499359965324402,3.801414251327514,45.94233234456899,45.88840732920627,183.62612709198345,167.04508656832394,9.713172767078504e-05,0.0939245000481605,0,0,0
15386,539597.1064203088,2010-10-28 19:17:42,420.21191814098216,2,48,0.5501165986061096,3.805137634277344,45.9469188597929,45.88840732920627,183.64357092542124,167.04508656832394,6.47544875391759e-05,0.0939245000481605,0,0,0
15387,539627.1216565329,2010-10-28 19:18:12,450.22715424481015,2,48,0.5501165986061096,3.808861017227173,45.95150534143308,45.88840732920627,183.66103163412893,167.04508656832394,0.0001295089750783,0.0939245000481605,0,0,0
15388,539657.1368688525,2010-10-28 19:18:42,480.2423665643604,2,48,0.5499359965324402,3.812422513961792,45.956091900334165,45.88840732920627,183.67850917769388,167.04508656832394,9.713172767078504e-05,0.0939245000481605,0,0,0
15389,539687.151829941,2010-10-28 19:19:12,510.25732769286526,2,48,0.5501165986061096,3.815984010696411,45.96067833849598,45.88840732920627,183.6960028234571,167.04508656832394,6.47544875391759e-05,0.0939245000481605,0,0,0
15390,539717.1669313591,2010-10-28 19:19:42,540.2724290709152,2,48,0.5501165986061096,3.81938362121582,45.96526486570434,45.88840732920627,183.7135128152705,167.04508656832394,9.713172767078504e-05,0.0939245000481605,0,0,0
15391,539747.1820665112,2010-10-28 19:20:12,570.2875642181282,2,48,0.5501165986061096,3.82294511795044,45.96985136261099,45.88840732920627,183.7310382595656,167.04508656832394,0.0001295089750783,0.0939245000481605,0,0,0
15392,539777.1972327661,2010-10-28 19:20:42,600.3027305029458,2,48,0.5501165986061096,3.8260209560394287,45.97443781425946,45.88840732920627,183.74857891407544,167.04508656832394,6.47544875391759e-05,0.0939245000481605,0,0,0
15393,539807.2123639183,2010-10-28 19:21:12,630.3178616251273,2,48,0.5501165986061096,3.829420566558838,45.979024273503605,45.88840732920627,183.76613484731965,167.04508656832394,9.713172767078504e-05,0.0939245000481605,0,0,0
15394,539837.2275030455,2010-10-28 19:21:42,660.3330007823345,2,48,0.5501165986061096,3.832658290863037,45.98361075490087,45.88840732920627,183.7837061079894,167.04508656832394,6.47544875391759e-05,0.0939245000481605,0,0,0
15395,539867.2426397064,2010-10-28 19:22:12,690.3481374082328,2,48,0.5501165986061096,3.836057662963867,45.98819727000857,45.88840732920627,183.80129271673596,167.04508656832394,6.47544875391759e-05,0.0939245000481605,0,0,0
15396,539897.2578088182,2010-10-28 19:22:42,720.3633065551837,2,48,0.5501165986061096,3.839457273483277,45.99278377185263,45.88840732920627,183.81889476236148,167.04508656832394,3.237724376958795e-05,0.0939245000481605,0,0,0
15397,539927.2729256599,2010-10-28 19:23:12,750.378423371711,2,48,0.5501165986061096,3.843018770217896,45.99737020906888,45.88840732920627,183.83651223639865,167.04508656832394,9.713172767078504e-05,0.0939245000481605,0,0,0
15398,539957.2881926657,2010-10-28 19:23:42,780.3936903825688,2,48,0.5499359965324402,3.8464183807373047,46.0019566937092,45.88840732920627,183.85414569722224,167.04508656832394,9.713172767078504e-05,0.0939245000481605,0,0,0
15399,539987.303213869,2010-10-28 19:24:12,810.408711580786,2,48,0.5501165986061096,3.849817991256714,46.00654318288585,45.88840732920627,183.8717952063028,167.04508656832394,6.47544875391759e-05,0.0939245000481605,0,0,0
15400,540017.3183632868,2010-10-28 19:24:42,840.4238609985657,2,48,0.5501165986061096,3.853217601776123,46.011129685816286,45.88840732920627,183.88946078608808,167.04508656832394,6.47544875391759e-05,0.0939245000481605,0,0,0
15401,540047.333624839,2010-10-28 19:25:12,870.4391225558313,2,48,0.5499359965324402,3.856779098510742,46.0157161874806,45.88840732920627,183.90714217951017,167.04508656832394,9.713172767078504e-05,0.0939245000481605,0,0,0
15402,540077.3513989082,2010-10-28 19:25:42,900.4568966200376,2,48,0.5501165986061096,3.860016822814941,46.0203030182772,45.88840732920627,183.92484055057676,167.04508656832394,6.47544875391759e-05,0.0939245000481605,0,0,0
15403,540107.3638194848,2010-10-28 19:26:12,930.4693171967056,2,48,0.5499359965324402,3.863416433334351,46.02488905848526,45.88840732920627,183.9425513580533,167.04508656832394,9.713172767078504e-05,0.0939245000481605,0,0,0
15404,540137.3790690722,2010-10-28 19:26:42,960.4845667891514,2,48,0.5499359965324402,3.86681604385376,46.02947555148572,45.88840732920627,183.9602790267507,167.04508656832394,9.713172767078504e-05,0.0939245000481605,0,0,0
15405,540167.3940729222,2010-10-28 19:27:12,990.4995706291064,2,48,0.5499359965324402,3.869891881942749,46.03406204243193,45.88840732920627,183.9780216216419,167.04508656832394,6.47544875391759e-05,0.0939245000481605,0,0,0
15406,540197.4093357928,2010-10-28 19:27:42,1020.5148335497702,2,48,0.5501165986061096,3.873129606246948,46.03864861372184,45.88840732920627,183.9957790702248,167.04508656832394,3.237724376958795e-05,0.0939245000481605,0,0,0
15407,540227.4243585399,2010-10-28 19:28:12,1050.529856271785,2,48,0.550297200679779,3.8762054443359375,46.04323514449816,45.88840732920627,184.0135504581459,167.04508656832394,6.47544875391759e-05,0.0939245000481605,0,0,0
15408,540257.4395191807,2010-10-28 19:28:42,1080.5450168924858,2,48,0.5501165986061096,3.879119396209717,46.04782154743622,45.88840732920627,184.03133509947543,167.04508656832394,6.47544875391759e-05,0.0939245000481605,0,0,0
15409,540287.4546532702,2010-10-28 19:29:12,1110.5601509820633,2,48,0.5499359965324402,3.881709575653076,46.05240808188917,45.88840732920627,184.049133511342,167.04508656832394,3.237724376958795e-05,0.0939245000481605,0,0,0
15410,540317.4698108232,2010-10-28 19:29:42,1140.5753085651934,2,48,0.5501165986061096,3.884623527526856,46.05699466527592,45.88840732920627,184.06694478182413,167.04508656832394,6.47544875391759e-05,0.0939245000481605,0,0,0
15411,540347.4849263165,2010-10-28 19:30:12,1170.59042405341,2,48,0.550297200679779,3.887213706970215,46.06158115019499,45.88840732920627,184.08476772623712,167.04508656832394,6.47544875391759e-05,0.0939245000481605,0,0,0
15412,540377.5000869522,2010-10-28 19:30:42,1200.6055846590732,2,48,0.5501165986061096,3.889642000198364,46.06616755567842,45.88840732920627,184.1026018162563,167.04508656832394,6.47544875391759e-05,0.0939245000481605,0,0,0
15413,540407.5154370603,2010-10-28 19:31:12,1230.6209348121472,2,48,0.5499359965324402,3.891908407211304,46.0707541065328,45.88840732920627,184.12044723328424,167.04508656832394,6.47544875391759e-05,0.0939245000481605,0,0,0
15414,540437.530363818,2010-10-28 19:31:42,1260.63586152989,2,48,0.550297200679779,3.894336700439453,46.07534057723252,45.88840732920627,184.1383024727166,167.04508656832394,6.47544875391759e-05,0.0939245000481605,0,0,0
15415,540467.5455016168,2010-10-28 19:32:12,1290.6509993337245,2,48,0.5501165986061096,3.8959555625915527,46.079927154772086,45.88840732920627,184.156167276578,167.04508656832394,6.47544875391759e-05,0.0939245000481605,0,0,0
15416,540497.560784778,2010-10-28 19:32:42,1320.6662825249082,2,48,0.5501165986061096,3.897574424743652,46.0845137227593,45.88840732920627,184.1740408874016,167.04508656832394,0.0,0.0939245000481605,0,0,0
15417,540527.5758207982,2010-10-28 19:33:12,1350.681318535041,2,48,0.5499359965324402,3.899517059326172,46.08910023420996,45.88840732920627,184.1919226129494,167.04508656832394,0.0,0.0939245000481605,0,0,0
15418,540557.5910612729,2010-10-28 19:33:42,1380.696558989713,2,48,0.5501165986061096,3.9014596939086914,46.09368684909645,45.88840732920627,184.2098124699292,167.04508656832394,9.713172767078504e-05,0.0939245000481605,0,0,0
15419,540587.6060801252,2010-10-28 19:34:12,1410.7115778571208,2,48,0.5501165986061096,3.902916669845581,46.09827334992482,45.88840732920627,184.22770923001693,167.04508656832394,9.713172767078504e-05,0.0939245000481605,0,0,0
15420,540617.6214799271,2010-10-28 19:34:42,1440.7269776589346,2,48,0.5501165986061096,3.904373645782471,46.10285992990886,45.88840732920627,184.24561329789103,167.04508656832394,3.237724376958795e-05,0.0939245000481605,0,0,0
15421,540647.6364985639,2010-10-28 19:35:12,1470.7419962907554,2,48,0.5499359965324402,3.9056687355041504,46.107446478806736,45.88840732920627,184.26352381400497,167.04508656832394,3.237724376958795e-05,0.0939245000481605,0,0,0
15422,540677.6515059175,2010-10-28 19:35:42,1500.7570036194052,2,48,0.5501165986061096,3.90712571144104,46.11203293406524,45.88840732920627,184.28144042249252,167.04508656832394,0.0,0.0939245000481605,0,0,0
15423,540707.6668225821,2010-10-28 19:36:12,1530.7723203241155,2,48,0.5501165986061096,3.9082589149475098,46.11661941615614,45.88840732920627,184.2993633778213,167.04508656832394,0.0,0.0939245000481605,0,0,0
15424,540737.6819362709,2010-10-28 19:36:42,1560.7874339877849,2,48,0.5499359965324402,3.9097158908844,46.12120587126195,45.88840732920627,184.31729244957657,167.04508656832394,3.237724376958795e-05,0.0939245000481605,0,0,0
15425,540767.696922512,2010-10-28 19:37:12,1590.8024202238655,2,48,0.5501165986061096,3.911010980606079,46.12579238965469,45.88840732920627,184.3352278780861,167.04508656832394,3.237724376958795e-05,0.0939245000481605,0,0,0
15426,540797.7120648021,2010-10-28 19:37:42,1620.8175625088684,2,48,0.5501165986061096,3.9126298427581783,46.13037887709288,45.88840732920627,184.35316933251065,167.04508656832394,6.47544875391759e-05,0.0939245000481605,0,0,0
15427,540827.7271270927,2010-10-28 19:38:12,1650.8326248045128,2,48,0.5499359965324402,3.913762807846069,46.13496536402027,45.88840732920627,184.37111689584623,167.04508656832394,3.23295607813634e-05,0.0939245000481605,0,0,0
15428,540857.7425403631,2010-10-28 19:38:42,1680.8480381951942,2,48,0.5501165986061096,3.915219783782959,46.13955197348893,45.88840732920627,184.3890711352224,167.04508656832394,3.237724376958795e-05,0.0939245000481605,0,0,0
15429,540887.7573699838,2010-10-28 19:39:12,1710.8628677257163,2,48,0.5501165986061096,3.916514873504639,46.14413850917504,45.88840732920627,184.40703099528068,167.04508656832394,3.237724376958795e-05,0.0939245000481605,0,0,0
15430,540917.772633531,2010-10-28 19:39:42,1740.8781312428669,2,48,0.5499359965324402,3.917971849441528,46.148724959916144,45.88840732920627,184.424996812482,167.04508656832394,6.47544875391759e-05,0.0939245000481605,0,0,0
15431,540947.7872530882,2010-10-28 19:40:12,1770.8927507950584,2,48,0.5501165986061096,3.919105052947998,46.153285196845374,45.88840732920627,184.44286607972785,167.04508656832394,3.237724376958795e-05,0.0939245000481605,0,0,0
15432,540977.7873487023,2010-10-28 19:40:42,1800.892846444215,2,48,0.5499359965324402,3.920562028884888,46.15789554166796,45.88840732920627,184.46093803371568,167.04508656832394,3.237724376958795e-05,0.0939245000481605,0,0,0
15433,541007.8026112169,2010-10-28 19:41:12,1830.908108928792,2,48,0.5499359965324402,3.921857118606568,46.16248204705405,45.88840732920627,184.47892277756185,167.04508656832394,0.0,0.0939245000481605,0,0,0
15434,541037.8176265305,2010-10-28 19:41:42,1860.9231242423425,2,48,0.5501165986061096,3.923314094543457,46.16706846250784,45.88840732920627,184.4969135420962,167.04508656832394,6.47544875391759e-05,0.0939245000481605,0,0,0
15435,541067.8328529652,2010-10-28 19:42:12,1890.938350677072,2,48,0.5501165986061096,3.9247710704803462,46.17165496382307,45.88840732920627,184.51491098929372,167.04508656832394,6.47544875391759e-05,0.0939245000481605,0,0,0
15436,541097.8479359775,2010-10-28 19:42:42,1920.953433689349,2,48,0.5501165986061096,3.9260661602020255,46.176241477083394,45.88840732920627,184.5329149267117,167.04508656832394,3.237724376958795e-05,0.0939245000481605,0,0,0
15437,541127.8632625067,2010-10-28 19:43:12,1950.9687603087696,2,48,0.5497553944587708,3.927361249923706,46.18082798678897,45.88840732920627,184.5509251985736,167.04508656832394,3.237724376958795e-05,0.0939245000481605,0,0,0
15438,541157.8783377847,2010-10-28 19:43:42,1980.9838354915328,2,48,0.5501165986061096,3.928818225860596,46.185414432322425,45.88840732920627,184.5689417202676,167.04508656832394,3.237724376958795e-05,0.0939245000481605,0,0,0
15439,541187.8934489873,2010-10-28 19:44:12,2010.9989468193803,2,48,0.550297200679779,3.930598974227905,46.19000091881677,45.88840732920627,184.58696498421224,167.04508656832394,9.713172767078504e-05,0.0939245000481605,0,0,0
15440,541217.9084807017,2010-10-28 19:44:42,2041.0139784235323,2,48,0.5504778623580933,3.932055950164795,46.19458739985852,45.88840732920627,184.60499480491032,167.04508656832394,9.713172767078504e-05,0.0939245000481605,0,0,0
15441,541247.9236527156,2010-10-28 19:45:12,2071.0291504526667,2,48,0.550297200679779,3.9333510398864746,46.19917390357832,45.88840732920627,184.62303132822092,167.04508656832394,3.237724376958795e-05,0.0939245000481605,0,0,0
15442,541277.9387679684,2010-10-28 19:45:43,2101.044265680234,2,48,0.5499359965324402,3.934484243392944,46.203760386840656,45.88840732920627,184.6410744113603,167.04508656832394,3.237724376958795e-05,0.0939245000481605,0,0,0
15443,541307.9539365338,2010-10-28 19:46:13,2131.059434240723,2,48,0.5501165986061096,3.936264991760254,46.20834693340305,45.88840732920627,184.65912452765852,167.04508656832394,6.47544875391759e-05,0.0939245000481605,0,0,0
15444,541337.9690797563,2010-10-28 19:46:43,2161.0745775081746,2,48,0.5499359965324402,3.9375600814819336,46.212933453042496,45.88840732920627,184.67718117136684,167.04508656832394,0.0,0.0939245000481605,0,0,0
15445,541367.9842161365,2010-10-28 19:47:13,2191.089713873423,2,48,0.5499359965324402,3.9390170574188232,46.21751999144258,45.88840732920627,184.69524486593795,167.04508656832394,3.237724376958795e-05,0.0939245000481605,0,0,0
15446,541397.9993487324,2010-10-28 19:47:43,2221.1048464392024,2,48,0.5499359965324402,3.940474033355713,46.2221064638536,45.88840732920627,184.71331516391027,167.04508656832394,0.0,0.0939245000481605,0,0,0
15447,541428.0144852981,2010-10-28 19:48:13,2251.119983014976,2,48,0.5499359965324402,3.9422547817230233,46.22669299839621,45.88840732920627,184.7313926186144,167.04508656832394,6.47544875391759e-05,0.0939245000481605,0,0,0
15448,541458.0296360643,2010-10-28 19:48:43,2281.135133801166,2,48,0.550297200679779,3.943873643875122,46.23127949978027,45.88840732920627,184.74947694765328,167.04508656832394,6.47544875391759e-05,0.0939245000481605,0,0,0
15449,541488.0447853516,2010-10-28 19:49:13,2311.1502830886207,2,48,0.5499359965324402,3.9451687335968018,46.23586608968353,45.88840732920627,184.7675686359612,167.04508656832394,3.237724376958795e-05,0.0939245000481605,0,0,0
15450,541518.0599439023,2010-10-28 19:49:43,2341.165441639162,2,48,0.550297200679779,3.9469494819641113,46.24045261628587,45.88840732920627,184.7856671446316,167.04508656832394,6.47544875391759e-05,0.0939245000481605,0,0,0
15451,541548.0750655759,2010-10-28 19:50:13,2371.1805632877326,2,48,0.5501165986061096,3.948406457901001,46.245039141240575,45.88840732920627,184.80377271001493,167.04508656832394,9.713172767078504e-05,0.0939245000481605,0,0,0
15452,541578.090199475,2010-10-28 19:50:43,2401.195697186836,2,48,0.550297200679779,3.9500253200531006,46.24962566467843,45.88840732920627,184.82188554551527,167.04508656832394,3.237724376958795e-05,0.0939245000481605,0,0,0
15453,541608.1055663847,2010-10-28 19:51:13,2431.211064126747,2,48,0.5501165986061096,3.9514822959899902,46.25421225870484,45.88840732920627,184.8400059442436,167.04508656832394,3.237724376958795e-05,0.0939245000481605,0,0,0
15454,541638.1206361491,2010-10-28 19:51:43,2461.226133906043,2,48,0.5501165986061096,3.95310115814209,46.25879872524001,45.88840732920627,184.85813307500828,167.04508656832394,3.237724376958795e-05,0.0939245000481605,0,0,0
15455,541668.1356325404,2010-10-28 19:52:13,2491.241130292421,2,48,0.5501165986061096,3.9548819065094,46.26338518577404,45.88840732920627,184.87626752552188,167.04508656832394,9.713172767078504e-05,0.0939245000481605,0,0,0
15456,541698.1507647353,2010-10-28 19:52:43,2521.256262447176,2,48,0.5501165986061096,3.956338882446289,46.26797167638419,45.88840732920627,184.89440951134392,167.04508656832394,3.237724376958795e-05,0.0939245000481605,0,0,0
15457,541728.1659424386,2010-10-28 19:53:13,2551.271440190552,2,48,0.5501165986061096,3.9579577445983887,46.27255822107959,45.88840732920627,184.9125591256264,167.04508656832394,6.47544875391759e-05,0.0939245000481605,0,0,0
15458,541758.1810561925,2010-10-28 19:53:43,2581.2865539294085,2,48,0.5501165986061096,3.959576606750488,46.2771447264139,45.88840732920627,184.93071618293956,167.04508656832394,3.237724376958795e-05,0.0939245000481605,0,0,0
15459,541788.1961985226,2010-10-28 19:54:13,2611.301696234462,2,48,0.550297200679779,3.961357355117798,46.28173123059766,45.88840732920627,184.9488807924912,167.04508656832394,6.47544875391759e-05,0.0939245000481605,0,0,0
15460,541818.2113551033,2010-10-28 19:54:43,2641.3168528100805,2,48,0.550297200679779,3.9631381034851074,46.286318064052175,45.88840732920627,184.9670543767363,167.04508656832394,9.713172767078504e-05,0.0939245000481605,0,0,0
15461,541848.2264890024,2010-10-28 19:55:13,2671.3319867141954,2,48,0.550297200679779,3.964756965637207,46.29090530169335,45.88840732920627,184.98523726157177,167.04508656832394,6.47544875391759e-05,0.0939245000481605,0,0,0
15462,541878.2416244954,2010-10-28 19:55:43,2701.3471222072703,2,48,0.5501165986061096,3.966375827789306,46.29549254067872,45.88840732920627,185.00342789995096,167.04508656832394,3.237724376958795e-05,0.0939245000481605,0,0,0
15463,541908.2568917919,2010-10-28 19:56:13,2731.362389533915,2,48,0.550297200679779,3.9679946899414062,46.30007981581167,45.88840732920627,185.0216264715336,167.04508656832394,3.237724376958795e-05,0.0939245000481605,0,0,0
15464,541938.2719243334,2010-10-28 19:56:43,2761.3774220453283,2,48,0.5501165986061096,3.969775438308716,46.304666796061206,45.88840732920627,185.0398316759337,167.04508656832394,6.47544875391759e-05,0.0939245000481605,0,0,0
15465,541968.2871933142,2010-10-28 19:57:13,2791.3926910411333,2,48,0.5501165986061096,3.9715561866760254,46.30925335157656,45.88840732920627,185.0580431063615,167.04508656832394,6.47544875391759e-05,0.0939245000481605,0,0,0
15466,541998.302198277,2010-10-28 19:57:43,2821.407696013912,2,48,0.5501165986061096,3.973175048828125,46.31383979153285,45.88840732920627,185.07626209427988,167.04508656832394,6.47544875391759e-05,0.0939245000481605,0,0,0
15467,542028.3182508256,2010-10-28 19:58:13,2851.4237486578086,2,48,0.5501165986061096,3.9749557971954346,46.31842646336191,45.88840732920627,185.09449002243576,167.04508656832394,3.237724376958795e-05,0.0939245000481605,0,0,0
15468,542058.320460654,2010-10-28 19:58:43,2881.425958511212,2,48,0.5501165986061096,3.976898431777954,46.32301100146576,45.88840732920627,185.11271751706056,167.04508656832394,9.713172767078504e-05,0.0939245000481605,0,0,0
15469,542088.3320595227,2010-10-28 19:59:13,2911.437557379932,2,48,0.5501165986061096,3.978355407714844,46.32759697033675,45.88840732920627,185.1309583542846,167.04508656832394,9.713172767078504e-05,0.0939245000481605,0,0,0
15470,542118.3472824587,2010-10-28 19:59:43,2941.452780210679,2,48,0.550297200679779,3.980459928512573,46.33218334099055,45.88840732920627,185.1492093756874,167.04508656832394,6.47544875391759e-05,0.0939245000481605,0,0,0
15471,542148.3623361279,2010-10-28 20:00:13,2971.467833955011,2,48,0.5501165986061096,3.982240676879883,46.336769726757375,45.88840732920627,185.1674686863165,167.04508656832394,9.713172767078504e-05,0.0939245000481605,0,0,0
15472,542178.3774247591,2010-10-28 20:00:43,3001.482922465992,2,48,0.5497553944587708,3.9838595390319824,46.341356163589154,45.88840732920627,185.18573645667075,167.04508656832394,3.237724376958795e-05,0.0939245000481605,0,0,0
15473,542208.3925614251,2010-10-28 20:01:13,3031.498059137003,2,48,0.5501165986061096,3.985640287399292,46.34594253240759,45.88840732920627,185.20401237015943,167.04508656832394,3.237724376958795e-05,0.0939245000481605,0,0,0
15474,542238.4077284067,2010-10-28 20:01:43,3061.513226138607,2,48,0.5501165986061096,3.9874210357666016,46.35052893094098,45.88840732920627,185.2222968263432,167.04508656832394,-3.237724376958795e-05,0.0939245000481605,0,0,0
15475,542268.4228712831,2010-10-28 20:02:13,3091.528369000046,2,48,0.5501165986061096,3.989363670349121,46.35511537639151,45.88840732920627,185.24058980420105,167.04508656832394,3.237724376958795e-05,0.0939245000481605,0,0,0
15476,542298.4380215129,2010-10-28 20:02:43,3121.543519254912,2,48,0.5501165986061096,3.9913063049316406,46.359701765575714,45.88840732920627,185.25889095798303,167.04508656832394,9.713172767078504e-05,0.0939245000481605,0,0,0
15477,542328.4531467354,2010-10-28 20:03:13,3151.558644472377,2,48,0.5501165986061096,3.99308705329895,46.36428816213789,45.88840732920627,185.2772006497756,167.04508656832394,6.47544875391759e-05,0.0939245000481605,0,0,0
15478,542358.4683137671,2010-10-28 20:03:43,3181.5738114890187,2,48,0.5501165986061096,3.99502944946289,46.36887460738063,45.88840732920627,185.2955189008348,167.04508656832394,6.47544875391759e-05,0.0939245000481605,0,0,0
15479,542388.4836744665,2010-10-28 20:04:13,3211.5891722184524,2,48,0.5501165986061096,3.9968101978302,46.37346116438883,45.88840732920627,185.31384618620072,167.04508656832394,3.237724376958795e-05,0.0939245000481605,0,0,0
15480,542418.4985883522,2010-10-28 20:04:43,3241.6040860641137,2,48,0.5501165986061096,3.9985909461975098,46.37804766111682,45.88840732920627,185.33218184422532,167.04508656832394,3.237724376958795e-05,0.0939245000481605,0,0,0
15481,542448.5137266523,2010-10-28 20:05:13,3271.619224364185,2,48,0.5501165986061096,4.000533580780029,46.382634111752814,45.88840732920627,185.35052593345588,167.04508656832394,3.23295607813634e-05,0.0939245000481605,0,0,0
15482,542478.5288892731,2010-10-28 20:05:43,3301.6343870099327,2,48,0.5501165986061096,4.002476215362549,46.38722006466826,45.88840732920627,185.36887678032417,167.04508656832394,6.47544875391759e-05,0.0939245000481605,0,0,0
15483,542508.5440321395,2010-10-28 20:06:13,3331.6495298563345,2,48,0.5501165986061096,4.004418849945068,46.3918056246053,45.88840732920627,185.3872348087036,167.04508656832394,3.23295607813634e-05,0.0939245000481605,0,0,0
15484,542538.5591719433,2010-10-28 20:06:43,3361.6646696551406,2,48,0.5501165986061096,4.006523609161377,46.39639113061464,45.88840732920627,185.405601620017,167.04508656832394,6.47544875391759e-05,0.0939245000481605,0,0,0
15485,542568.5743123034,2010-10-28 20:07:13,3391.679810015346,2,48,0.5499359965324402,4.008304119110107,46.40097665740194,45.88840732920627,185.42397755706065,167.04508656832394,6.47544875391759e-05,0.0939245000481605,0,0,0
15486,542598.5896769727,2010-10-28 20:07:43,3421.6951746845984,2,48,0.5501165986061096,4.010408878326416,46.40556265880072,45.88840732920627,185.4423645040884,167.04508656832394,3.24249267578125e-05,0.0939245000481605,0,0,0
15487,542628.6046017256,2010-10-28 20:08:13,3451.710099432431,2,48,0.5499359965324402,4.012351512908936,46.41014905024812,45.88840732920627,185.46076239732736,167.04508656832394,3.24249267578125e-05,0.0939245000481605,0,0,0
15488,542658.6197529178,2010-10-28 20:08:43,3481.725250654709,2,48,0.5501165986061096,4.014455795288086,46.4147354817633,45.88840732920627,185.47916984166224,167.04508656832394,3.23295607813634e-05,0.0939245000481605,0,0,0
15489,542688.6349010223,2010-10-28 20:09:13,3511.7403987341527,2,48,0.5501165986061096,4.0163984298706055,46.41932198728651,45.88840732920627,185.49758711817083,167.04508656832394,3.23295607813634e-05,0.0939245000481605,0,0,0
15490,542718.6500918332,2010-10-28 20:09:43,3541.755589535072,2,48,0.5497553944587708,4.018503189086914,46.42390848000025,45.88840732920627,185.51601398900604,167.04508656832394,3.24249267578125e-05,0.0939245000481605,0,0,0
15491,542748.6652730854,2010-10-28 20:10:13,3571.770770912505,2,48,0.5501165986061096,4.0207695960998535,46.42849495518206,45.88840732920627,185.534450442948,167.04508656832394,3.24249267578125e-05,0.0939245000481605,0,0,0
15492,542778.6803637869,2010-10-28 20:10:43,3601.7858615237205,2,48,0.550297200679779,4.022873878479004,46.433081359691805,45.88840732920627,185.55289660968643,167.04508656832394,3.23295607813634e-05,0.0939245000481605,0,0,0
15493,542808.6954992749,2010-10-28 20:11:13,3631.8009970117832,2,48,0.5501165986061096,4.025140285491943,46.43766777952568,45.88840732920627,185.57135277916527,167.04508656832394,6.47544875391759e-05,0.0939245000481605,0,0,0
15494,542838.7107861151,2010-10-28 20:11:43,3661.816283827,2,48,0.5501165986061096,4.027406692504883,46.44225423795549,45.88840732920627,185.58981917284032,167.04508656832394,3.23295607813634e-05,0.0939245000481605,0,0,0
15495,542868.7258069274,2010-10-28 20:12:13,3691.831304644267,2,48,0.5501165986061096,4.029673099517822,46.446840594330126,45.88840732920627,185.6082953862657,167.04508656832394,6.47544875391759e-05,0.0939245000481605,0,0,0
15496,542898.7409543953,2010-10-28 20:12:43,3721.846452127225,2,48,0.5501165986061096,4.031939506530762,46.45142702331748,45.88840732920627,185.62678211372045,167.04508656832394,9.70840483205393e-05,0.0939245000481605,0,0,0
15497,542928.7561307251,2010-10-28 20:13:13,3751.86162846209,2,48,0.550297200679779,4.034367561340332,46.45601343299392,45.88840732920627,185.6452792178501,167.04508656832394,9.70840483205393e-05,0.0939245000481605,0,0,0
15498,542958.7714388585,2010-10-28 20:13:43,3781.8769365854127,2,48,0.5499359965324402,4.036472320556641,46.46059995418359,45.88840732920627,185.66378729466777,167.04508656832394,9.71794142969884e-05,0.0939245000481605,0,0,0
15499,542988.7864210295,2010-10-28 20:14:13,3811.891918741325,2,48,0.5501165986061096,4.038900375366211,46.46518640791141,45.88840732920627,185.68230574032853,167.04508656832394,6.47544875391759e-05,0.0939245000481605,0,0,0
15500,543018.8015645376,2010-10-28 20:14:43,3841.907062239351,2,48,0.5501165986061096,4.04100513458252,46.46977289105744,45.88840732920627,185.70083493174732,167.04508656832394,3.24249267578125e-05,0.0939245000481605,0,0,0
15501,543048.8168419342,2010-10-28 20:15:13,3871.92233965113,2,48,0.5501165986061096,4.043595314025879,46.47435932767102,45.88840732920627,185.71937475598173,167.04508656832394,6.47544875391759e-05,0.0939245000481605,0,0,0
15502,543078.8320122442,2010-10-28 20:15:43,3901.9375100662414,2,48,0.5501165986061096,4.045861721038818,46.478945821721325,45.88840732920627,185.73792574295052,167.04508656832394,3.24249267578125e-05,0.0939245000481605,0,0,0
15503,543108.8470341943,2010-10-28 20:16:13,3931.9525319060585,2,48,0.5501165986061096,4.048289775848389,46.48353232078929,45.88840732920627,185.75648773895716,167.04508656832394,6.47544875391759e-05,0.0939245000481605,0,0,0
15504,543138.8622062184,2010-10-28 20:16:43,3961.967703920154,2,48,0.5501165986061096,4.050879955291748,46.4881188704805,45.88840732920627,185.7750610354741,167.04508656832394,9.70840483205393e-05,0.0939245000481605,0,0,0
15505,543168.877334343,2010-10-28 20:17:13,3991.9828320548913,2,48,0.5497553944587708,4.053308486938477,46.492705434515,45.88840732920627,185.7936456076438,167.04508656832394,6.47544875391759e-05,0.0939245000481605,0,0,0
15506,543198.8925025125,2010-10-28 20:17:43,4021.9980002745306,2,48,0.550297200679779,4.055736541748047,46.49729199293756,45.88840732920627,185.81224152922,167.04508656832394,6.47544875391759e-05,0.0939245000481605,0,0,0
15507,543228.9076451785,2010-10-28 20:18:14,4052.0131428853447,2,48,0.5501165986061096,4.058165073394775,46.50187854462064,45.88840732920627,185.83084882247795,167.04508656832394,6.47544875391759e-05,0.0939245000481605,0,0,0
15508,543258.9228036639,2010-10-28 20:18:44,4082.0283014058114,2,48,0.5499359965324402,4.060593128204346,46.50646510085679,45.88840732920627,185.8494677117103,167.04508656832394,0.0,0.0939245000481605,0,0,0
15509,543288.9379727707,2010-10-28 20:19:14,4112.0434705076495,2,48,0.550297200679779,4.063183307647705,46.51105161556374,45.88840732920627,185.86809761394008,167.04508656832394,9.70840483205393e-05,0.0939245000481605,0,0,0
15510,543318.953129632,2010-10-28 20:19:44,4142.058627368981,2,48,0.5499359965324402,4.065611839294434,46.51563805479827,45.88840732920627,185.88673909400848,167.04508656832394,3.24249267578125e-05,0.0939245000481605,0,0,0
15511,543348.9682933504,2010-10-28 20:20:14,4172.073791087402,2,48,0.5499359965324402,4.068363666534424,46.52022446076795,45.88840732920627,185.90539226308584,167.04508656832394,9.70840483205393e-05,0.0939245000481605,0,0,0
15512,543378.9834376255,2010-10-28 20:20:44,4202.08893533229,2,48,0.5499359965324402,4.070953845977783,46.52481091243048,45.88840732920627,185.9240576562273,167.04508656832394,6.47544875391759e-05,0.0939245000481605,0,0,0
15513,543408.9986131483,2010-10-28 20:21:14,4232.104110890219,2,48,0.550297200679779,4.0738677978515625,46.52939733831731,45.88840732920627,185.9427349652088,167.04508656832394,9.70840483205393e-05,0.0939245000481605,0,0,0
15514,543439.0137538193,2010-10-28 20:21:44,4262.119251581249,2,48,0.5499359965324402,4.076296329498291,46.53398380803392,45.88840732920627,185.9614246918651,167.04508656832394,6.47544875391759e-05,0.0939245000481605,0,0,0
15515,543469.0289038585,2010-10-28 20:22:14,4292.134401595516,2,48,0.5501165986061096,4.07888650894165,46.53857026551694,45.88840732920627,185.9801267696353,167.04508656832394,6.47544875391759e-05,0.0939245000481605,0,0,0
15516,543499.0440586046,2010-10-28 20:22:44,4322.1495563115,2,48,0.5501165986061096,4.08180046081543,46.54315675432563,45.88840732920627,185.9988415169752,167.04508656832394,9.71794142969884e-05,0.0939245000481605,0,0,0
15517,543529.0593428886,2010-10-28 20:23:14,4352.164840610444,2,48,0.5499359965324402,4.08455228805542,46.54774315409298,45.88840732920627,186.01756847336432,167.04508656832394,6.47544875391759e-05,0.0939245000481605,0,0,0
15518,543559.0744087982,2010-10-28 20:23:44,4382.1799065401465,2,48,0.5501165986061096,4.087304592132568,46.55232957095554,45.88840732920627,186.036308249202,167.04508656832394,6.47544875391759e-05,0.0939245000481605,0,0,0
15519,543589.0895342964,2010-10-28 20:24:14,4412.195032033298,2,48,0.5501165986061096,4.090056419372559,46.55691599632228,45.88840732920627,186.0550608585523,167.04508656832394,3.23295607813634e-05,0.0939245000481605,0,0,0
15520,543619.1047279043,2010-10-28 20:24:44,4442.210225641214,2,48,0.5501165986061096,4.092808723449707,46.56150251190703,45.88840732920627,186.073826701576,167.04508656832394,3.24249267578125e-05,0.0939245000481605,0,0,0
15521,543649.1198497082,2010-10-28 20:25:14,4472.225347440159,2,48,0.5501165986061096,4.095884323120117,46.56608898109496,45.88840732920627,186.09260526174083,167.04508656832394,9.70840483205393e-05,0.0939245000481605,0,0,0
15522,543679.1350213515,2010-10-28 20:25:44,4502.240519083331,2,48,0.5501165986061096,4.098636627197266,46.570675479033525,45.88840732920627,186.1113970102476,167.04508656832394,9.71794142969884e-05,0.0939245000481605,0,0,0
15523,543709.1501817264,2010-10-28 20:26:14,4532.255679433357,2,48,0.5499359965324402,4.101388454437256,46.575262018092175,45.88840732920627,186.1302021737496,167.04508656832394,6.47544875391759e-05,0.0939245000481605,0,0,0
15524,543739.1653465928,2010-10-28 20:26:44,4562.270844324701,2,48,0.5499359965324402,4.104464530944824,46.579848512125565,45.88840732920627,186.14902041124884,167.04508656832394,6.47544875391759e-05,0.0939245000481605,0,0,0
15525,543769.1805060306,2010-10-28 20:27:14,4592.286003762454,2,48,0.5501165986061096,4.107378482818604,46.58443494979739,45.88840732920627,186.1678518949764,167.04508656832394,6.47544875391759e-05,0.0939245000481605,0,0,0
15526,543799.1956484058,2010-10-28 20:27:44,4622.301146117631,2,48,0.5501165986061096,4.110292434692383,46.5890213650484,45.88840732920627,186.1866968505568,167.04508656832394,9.71794142969884e-05,0.0939245000481605,0,0,0
15527,543829.2108004701,2010-10-28 20:28:14,4652.316298202058,2,48,0.550297200679779,4.113368034362793,46.59360789354114,45.88840732920627,186.20555596257933,167.04508656832394,9.70840483205393e-05,0.0939245000481605,0,0,0
15528,543859.2259625144,2010-10-28 20:28:44,4682.331460251318,2,48,0.5501165986061096,4.116443634033203,46.59819430315986,45.88840732920627,186.2244283498084,167.04508656832394,9.70840483205393e-05,0.0939245000481605,0,0,0
15529,543889.2411166739,2010-10-28 20:29:14,4712.346614405904,2,48,0.5501165986061096,4.119357585906982,46.602780765526006,45.88840732920627,186.2433149217992,167.04508656832394,6.47544875391759e-05,0.0939245000481605,0,0,0
15530,543919.2563013146,2010-10-28 20:29:44,4742.361799016395,2,48,0.550297200679779,4.122433662414551,46.60736721267898,45.88840732920627,186.26221543148492,167.04508656832394,3.24249267578125e-05,0.0939245000481605,0,0,0
15531,543949.2707790082,2010-10-28 20:30:14,4772.376276715044,2,48,0.550297200679779,4.12567138671875,46.611946466874414,45.88840732920627,186.28110034105097,167.04508656832394,6.47544875391759e-05,0.0939245000481605,0,0,0
15532,543979.2709477245,2010-10-28 20:30:44,4802.376445436318,2,48,0.5499359965324402,4.128585338592529,46.616537777595134,45.88840732920627,186.3000493864824,167.04508656832394,3.24249267578125e-05,0.0939245000481605,0,0,0
15533,544009.2889806137,2010-10-28 20:31:14,4832.394478365696,2,48,0.5499359965324402,4.1318230628967285,46.62112463986082,45.88840732920627,186.31899450394184,167.04508656832394,6.47544875391759e-05,0.0939245000481605,0,0,0
15534,544039.3014163382,2010-10-28 20:31:44,4862.406914065055,2,48,0.5501165986061096,4.135222434997559,46.62571073289539,45.88840732920627,186.33795098870172,167.04508656832394,9.70840483205393e-05,0.0939245000481605,0,0,0
15535,544069.3165696105,2010-10-28 20:32:14,4892.422067322404,2,48,0.5501165986061096,4.138298511505127,46.63029720116051,45.88840732920627,186.3569236948015,167.04508656832394,9.71794142969884e-05,0.0939245000481605,0,0,0
15536,544099.3315918513,2010-10-28 20:32:44,4922.437089583269,2,48,0.5501165986061096,4.141536235809326,46.63488356718096,45.88840732920627,186.375910767942,167.04508656832394,9.71794142969884e-05,0.0939245000481605,0,0,0
15537,544129.3469818187,2010-10-28 20:33:14,4952.452479645809,2,48,0.550297200679779,4.144935607910156,46.639469981860415,45.88840732920627,186.3949129781127,167.04508656832394,9.70840483205393e-05,0.0939245000481605,0,0,0
15538,544159.3619073534,2010-10-28 20:33:44,4982.467405070329,2,48,0.5501165986061096,4.148173332214356,46.64405625380012,45.88840732920627,186.41392990771104,167.04508656832394,9.70840483205393e-05,0.0939245000481605,0,0,0
15539,544189.3770830117,2010-10-28 20:34:14,5012.48258071347,2,48,0.550297200679779,4.151411056518555,46.64864258606351,45.88840732920627,186.43296211883683,167.04508656832394,9.70840483205393e-05,0.0939245000481605,0,0,0
15540,544219.3923747692,2010-10-28 20:34:44,5042.497872486042,2,48,0.550297200679779,4.154810905456543,46.653229066480606,45.88840732920627,186.45201011411365,167.04508656832394,9.71794142969884e-05,0.0939245000481605,0,0,0
15541,544249.4073971453,2010-10-28 20:35:14,5072.512894857182,2,48,0.5501165986061096,4.158048629760742,46.657815490491366,45.88840732920627,186.47107316218765,167.04508656832394,6.47544875391759e-05,0.0939245000481605,0,0,0
15542,544279.4227075843,2010-10-28 20:35:44,5102.52820530129,2,48,0.550297200679779,4.161610126495361,46.66240197037877,45.88840732920627,186.49015190718788,167.04508656832394,0.0001295089750783,0.0939245000481605,0,0,0
15543,544309.4377677146,2010-10-28 20:36:14,5132.543265471637,2,48,0.5501165986061096,4.1648478507995605,46.66698843889115,45.88840732920627,186.50924603781027,167.04508656832394,9.71794142969884e-05,0.0939245000481605,0,0,0
15544,544339.4531365844,2010-10-28 20:36:44,5162.558634301258,2,48,0.5501165986061096,4.168247222900391,46.67157491200674,45.88840732920627,186.5283557871816,167.04508656832394,9.70840483205393e-05,0.0939245000481605,0,0,0
15545,544369.4680571217,2010-10-28 20:37:14,5192.573554833585,2,48,0.5501165986061096,4.17180871963501,46.67616142925226,45.88840732920627,186.54748154058257,167.04508656832394,9.70840483205393e-05,0.0939245000481605,0,0,0
15546,544399.4832176422,2010-10-28 20:37:44,5222.588715349024,2,48,0.5499359965324402,4.175208568572998,46.68074793685253,45.88840732920627,186.5666230452612,167.04508656832394,9.71794142969884e-05,0.0939245000481605,0,0,0
15547,544429.4985306828,2010-10-28 20:38:14,5252.604028409652,2,48,0.5499359965324402,4.178770065307617,46.68533439198625,45.88840732920627,186.58578027639408,167.04508656832394,0.0001295089750783,0.0939245000481605,0,0,0
15548,544459.5135471141,2010-10-28 20:38:44,5282.619044820938,2,48,0.5501165986061096,4.182331562042236,46.68992091053304,45.88840732920627,186.60495396715956,167.04508656832394,0.0001295089750783,0.0939245000481605,0,0,0
15549,544489.5287225066,2010-10-28 20:39:14,5312.634220218468,2,48,0.5501165986061096,4.185730934143066,46.69450752234634,45.88840732920627,186.62414431350047,167.04508656832394,9.70840483205393e-05,0.0939245000481605,0,0,0
15550,544519.5439041798,2010-10-28 20:39:44,5342.649401891637,2,48,0.5504778623580933,4.1896162033081055,46.69909401026031,45.88840732920627,186.64335053161903,167.04508656832394,0.0001618385285837,0.0939245000481605,0,0,0
15551,544549.5592028245,2010-10-28 20:40:14,5372.664700536337,2,48,0.5501165986061096,4.192853927612305,46.70368054491896,45.88840732920627,186.66257344905404,167.04508656832394,6.47544875391759e-05,0.0939245000481605,0,0,0
15552,544579.574216494,2010-10-28 20:40:44,5402.679714230852,2,48,0.550297200679779,4.196739196777344,46.708266990262814,45.88840732920627,186.68181263357388,167.04508656832394,0.0001295089750783,0.0939245000481605,0,0,0
15553,544606.042568391,2010-10-28 20:41:11,5429.148066097813,2,48,0.550297200679779,4.200138568878174,46.71231154777205,45.88840732920627,186.6987925799341,167.04508656832394,0.0001618385285837,0.0939245000481605,0,0,0
15554,544636.0519401622,2010-10-28 20:41:41,30.01517005922453,3,48,0.0,4.112235069274902,46.71231154777205,45.88840732920627,186.6987925799341,167.04508656832394,-0.0003885269106831,0.0939245000481605,0,0,0
15555,544666.0672401151,2010-10-28 20:42:11,60.03046999714673,3,48,0.0,4.101226806640625,46.71231154777205,45.88840732920627,186.6987925799341,167.04508656832394,-0.0001942634553415,0.0939245000481605,0,0,0
15556,544696.08226799,2010-10-28 20:42:41,90.04549789706654,3,48,0.0,4.0945892333984375,46.71231154777205,45.88840732920627,186.6987925799341,167.04508656832394,-0.0001619339018361,0.0939245000481605,0,0,0
15557,544726.0505607065,2010-10-28 20:43:11,120.01379057342916,3,48,0.0,4.0903801918029785,46.71231154777205,45.88840732920627,186.6987925799341,167.04508656832394,-0.0001295089750783,0.0939245000481605,0,0,0
15558,544726.0622219405,2010-10-28 20:43:11,0.015615714164533,4,48,0.9926093220710754,4.199653148651123,46.71231585341194,45.88840732920627,186.6988106621282,167.04508656832394,0.0,0.0939245000481605,0,0,0
15559,544727.0153634925,2010-10-28 20:43:12,0.968757291248959,4,48,0.9418581128120422,4.199653148651123,46.712570280203884,45.88840732920627,186.69987916850235,167.04508656832394,0.0,0.0939245000481605,0,0,0
15560,544729.2184385132,2010-10-28 20:43:14,3.171832287007619,4,48,0.8912875652313232,4.199814796447754,46.71313001726646,45.88840732920627,186.70222988546016,167.04508656832394,3.23295607813634e-05,0.0939245000481605,0,0,0
15561,544732.5154511132,2010-10-28 20:43:17,6.468844952034301,4,48,0.8412587642669678,4.199814796447754,46.71392220010456,45.88840732920627,186.70555681074904,167.04508656832394,3.23295607813634e-05,0.0939245000481605,0,0,0
15562,544737.0309516999,2010-10-28 20:43:22,10.984345508806564,4,48,0.7912300229072571,4.199653148651123,46.71494458642453,45.88840732920627,186.70985053216023,167.04508656832394,3.24249267578125e-05,0.0939245000481605,0,0,0
15563,544742.9525856789,2010-10-28 20:43:28,16.905979502760726,4,48,0.7412012219429016,4.199814796447754,46.71620303522015,45.88840732920627,186.71513566278003,167.04508656832394,3.23295607813634e-05,0.0939245000481605,0,0,0
15564,544750.6556252989,2010-10-28 20:43:36,24.609019097597088,4,48,0.6911724805831909,4.199653148651123,46.7177329069824,45.88840732920627,186.721560689648,167.04508656832394,0.0,0.0939245000481605,0,0,0
15565,544760.9679617041,2010-10-28 20:43:46,34.92135547287085,4,48,0.640963077545166,4.199653148651123,46.71963736960844,45.88840732920627,186.729558901078,167.04508656832394,-3.23295607813634e-05,0.0939245000481605,0,0,0
15566,544775.5303524928,2010-10-28 20:44:00,49.48374637172645,4,48,0.5909343361854553,4.199653148651123,46.722122987717,45.88840732920627,186.7399978028023,167.04508656832394,0.0,0.0939245000481605,0,0,0
15567,544798.0923925738,2010-10-28 20:44:23,72.04578640264968,4,48,0.5409055352210999,4.199491024017334,46.72565760744318,45.88840732920627,186.7548422208036,167.04508656832394,-6.47544875391759e-05,0.0939245000481605,0,0,0
15568,544837.669917634,2010-10-28 20:45:03,111.62331140766216,4,48,0.4908767640590668,4.199653148651123,46.73130143304186,45.88840732920627,186.7785447181357,167.04508656832394,0.0,0.0939245000481605,0,0,0
15569,544909.7938030835,2010-10-28 20:46:15,183.7471969123045,4,48,0.4408479928970337,4.199814796447754,46.74059462286099,45.88840732920627,186.81757358084187,167.04508656832394,0.0,0.0939245000481605,0,0,0
15570,545017.2609081562,2010-10-28 20:48:02,291.21430192980966,4,48,0.3908192217350006,4.199653148651123,46.75297889839874,45.88840732920627,186.8695841647522,167.04508656832394,0.0,0.0939245000481605,0,0,0
15571,545149.5089776219,2010-10-28 20:50:14,423.4623714457571,4,48,0.3407904505729675,4.199814796447754,46.7664002693653,45.88840732920627,186.9259502606917,167.04508656832394,3.23295607813634e-05,0.0939245000481605,0,0,0
15572,545307.7566498427,2010-10-28 20:52:53,581.7100436264228,4,48,0.290581077337265,4.199653148651123,46.780257903758525,45.88840732920627,186.98414814646608,167.04508656832394,-3.23295607813634e-05,0.0939245000481605,0,0,0
15573,545497.3319452247,2010-10-28 20:56:02,771.2853390484747,4,48,0.2405523210763931,4.199653148651123,46.79421973833583,45.88840732920627,187.04278404183628,167.04508656832394,0.0,0.0939245000481605,0,0,0
15574,545729.6564204212,2010-10-28 20:59:55,1003.6098142000062,4,48,0.19052354991436,4.199653148651123,46.80809148949772,45.88840732920627,187.10104166137063,167.04508656832394,-3.23295607813634e-05,0.0939245000481605,0,0,0
15575,546038.3237713594,2010-10-28 21:05:03,1312.2771651531507,4,48,0.1403141617774963,4.199491024017334,46.82220789454195,45.88840732920627,187.16032674011169,167.04508656832394,-3.24249267578125e-05,0.0939245000481605,0,0,0
15576,546513.3321129781,2010-10-28 21:12:58,1787.28550675684,4,48,0.0902853980660438,4.199653148651123,46.837197127085,45.88840732920627,187.2232773804513,167.04508656832394,-3.23295607813634e-05,0.0939245000481605,0,0,0
15577,547221.448263086,2010-10-28 21:24:46,2495.4016570051517,4,48,0.0498289167881011,4.199491024017334,46.85060729947392,45.88840732920627,187.27959633111377,167.04508656832394,-6.47544875391759e-05,0.0939245000481605,0,0,0
15578,547251.4641161737,2010-10-28 21:25:17,30.01522494601931,5,48,0.0,4.191558837890625,46.85060729947392,45.88840732920627,187.27959633111377,167.04508656832394,-3.24249267578125e-05,0.0939245000481605,0,0,0
15579,547281.4636471454,2010-10-28 21:25:47,60.01475579752614,5,48,0.0,4.190425872802734,46.85060729947392,45.88840732920627,187.27959633111377,167.04508656832394,0.0,0.0939245000481605,0,0,0
15580,547281.654538273,2010-10-28 21:25:47,0.187617079490422,6,48,-1.9243103452026844e-05,4.190425872802734,46.85060729947392,45.888407330209134,187.27959633111377,167.0450865725264,0.0,0.0956302732229232,0,0,0
15581,547286.4824801094,2010-10-28 21:25:52,5.015558906042753,6,48,0.0008838032954372,4.190425872802734,46.85060816072746,45.88840733045917,187.2795999401324,167.04508657357417,0.0,0.0956302732229232,0,0,0
15582,547316.4697257319,2010-10-28 21:26:22,30.01516730736605,7,48,-1.099568486213684,4.009761333465576,46.85060816072746,45.89757564077988,187.2795999401324,167.08205219616164,-0.0009713172912597,0.0956302732229232,0,0,0
15583,547346.4848849641,2010-10-28 21:26:52,60.0303265396064,7,48,-1.099568486213684,3.982078790664673,46.85060816072746,45.90674392154747,187.2795999401324,167.1186798141369,-0.0006151676061563,0.0956302732229232,0,0,0
15584,547376.5000660608,2010-10-28 21:27:22,90.04550763633979,7,48,-1.0993878841400146,3.9629762172698975,46.85060816072746,45.915912066143605,187.2795999401324,167.1550953725096,-0.0003885269106831,0.0956302732229232,0,0,0
15585,547406.5152404208,2010-10-28 21:27:52,120.06068199628304,7,48,-1.0997490882873535,3.947597026824951,46.85060816072746,45.92508019001247,187.2795999401324,167.19135495404367,-0.0003885269106831,0.0956302732229232,0,0,0
15586,547436.5305539576,2010-10-28 21:28:22,150.07599554813535,7,48,-1.099568486213684,3.934969902038574,46.85060816072746,45.934248425912656,187.2795999401324,167.22748811406134,-0.0002913951757363,0.0956302732229232,0,0,0
15587,547466.5456658268,2010-10-28 21:28:52,180.09110744740738,7,48,-1.099568486213684,3.923799753189087,46.85060816072746,45.943416608297966,187.2795999401324,167.26351207859744,-0.0002590179501567,0.0956302732229232,0,0,0
15588,547496.5607882874,2010-10-28 21:29:22,210.10622985787657,7,48,-1.099929690361023,3.9132773876190186,46.85060816072746,45.95258480205719,187.2795999401324,167.29943836027928,-0.0002913475036621,0.0956302732229232,0,0,0
15589,547526.5759396601,2010-10-28 21:29:52,240.12138126060336,7,48,-1.0997490882873535,3.903887987136841,46.85060816072746,45.96175300625853,187.2795999401324,167.33527399549575,-0.0002590179501567,0.0956302732229232,0,0,0
15590,547556.5912689561,2010-10-28 21:30:22,270.1367105366452,7,48,-1.0997490882873535,3.894660472869873,46.85060816072746,45.97092128617036,187.2795999401324,167.37102415107776,-0.0002913951757363,0.0956302732229232,0,0,0
15591,547586.6063149812,2010-10-28 21:30:52,300.151756556726,7,48,-1.099568486213684,3.886242389678955,46.85060816072746,45.98008949599104,187.2795999401324,167.40669258537105,-0.0001942634553415,0.0956302732229232,0,0,0
15592,547616.6243304721,2010-10-28 21:31:22,330.1697720927543,7,48,-1.0997490882873535,3.877500534057617,46.85060816072746,45.989258623813065,187.2795999401324,167.44228544810252,-0.0002266406954731,0.0956302732229232,0,0,0
15593,547646.6366842574,2010-10-28 21:31:52,360.1821258579074,7,48,-1.099568486213684,3.869244337081909,46.85060816072746,45.99842598917946,187.2795999401324,167.47779419329345,-0.0001942634553415,0.0956302732229232,0,0,0
15594,547676.6519756138,2010-10-28 21:32:22,390.1974171943922,7,48,-1.0997490882873535,3.861150026321411,46.85060816072746,46.00759428970118,187.2795999401324,167.51323114016108,-0.0002266406954731,0.0956302732229232,0,0,0
15595,547706.6670288168,2010-10-28 21:32:52,420.2124703923625,7,48,-1.099568486213684,3.853055715560913,46.85060816072746,46.01676251243112,187.2795999401324,167.54859376198064,-0.0002266406954731,0.0956302732229232,0,0,0
15596,547736.6823009204,2010-10-28 21:33:22,450.2277425109503,7,48,-1.0997490882873535,3.845285177230835,46.85060816072746,46.02593079657279,187.2795999401324,167.58388463898237,-0.0001942634553415,0.0956302732229232,0,0,0
15597,547766.6974756212,2010-10-28 21:33:52,480.24291721174313,7,48,-1.0997490882873535,3.837352752685547,46.85060816072746,46.03509906649388,187.2795999401324,167.61910369819796,-0.0002266406954731,0.0956302732229232,0,0,0
15598,547796.7125505032,2010-10-28 21:34:22,510.25799208373166,7,48,-1.099568486213684,3.8300681114196777,46.85060816072746,46.04426735195838,187.2795999401324,167.65425256877356,-0.0001942634553415,0.0956302732229232,0,0,0
15599,547826.7277105625,2010-10-28 21:34:52,540.2731521380209,7,48,-1.099568486213684,3.8224594593048096,46.85060816072746,46.05343567162597,187.2795999401324,167.68933334585256,-0.0002266406954731,0.0956302732229232,0,0,0
15600,547856.7428842557,2010-10-28 21:35:22,570.2883258313027,7,48,-1.099568486213684,3.8153364658355713,46.85060816072746,46.06260395062678,187.2795999401324,167.72434658721923,-0.0001942634553415,0.0956302732229232,0,0,0
15601,547886.7580528915,2010-10-28 21:35:52,600.3034944719918,7,48,-1.099568486213684,3.807889699935913,46.85060816072746,46.0717721941806,187.2795999401324,167.75929268430264,-0.0002266406954731,0.0956302732229232,0,0,0
15602,547916.7732625795,2010-10-28 21:36:22,630.3187041599833,7,48,-1.099568486213684,3.801090478897095,46.85060816072746,46.0809404878294,187.2795999401324,167.79417324053207,-0.0001618862152099,0.0956302732229232,0,0,0
15603,547946.7886434942,2010-10-28 21:36:52,660.3340852501619,7,48,-1.099568486213684,3.7941293716430655,46.85060816072746,46.090108817127856,187.2795999401324,167.82899007837025,-0.0001942634553415,0.0956302732229232,0,0,0
15604,547976.8037147422,2010-10-28 21:37:22,690.3491563226811,7,48,-1.0993878841400146,3.787330150604248,46.85060816072746,46.09927710315991,187.2795999401324,167.86374403178664,-0.0001618862152099,0.0956302732229232,0,0,0
15605,548006.8188892524,2010-10-28 21:37:52,720.3643308329991,7,48,-1.0997490882873535,3.7805309295654297,46.85060816072746,46.10844545729808,187.2795999401324,167.89843642872904,-0.0001942634553415,0.0956302732229232,0,0,0
15606,548036.8339523302,2010-10-28 21:38:22,750.37939390558,7,48,-1.099568486213684,3.7740554809570312,46.85060816072746,46.11761375624913,187.2795999401324,167.93306867876058,-0.0001942634553415,0.0956302732229232,0,0,0
15607,548066.8491176976,2010-10-28 21:38:52,780.3945592781239,7,48,-1.0997490882873535,3.7679038047790527,46.85060816072746,46.12678198618698,187.2795999401324,167.96764188383938,-0.0001618862152099,0.0956302732229232,0,0,0
15608,548096.8644297657,2010-10-28 21:39:22,810.4098713462784,7,48,-1.099568486213684,3.761590242385864,46.85060816072746,46.13595035313471,187.2795999401324,168.0021575968143,-0.0001295089750783,0.0956302732229232,0,0,0
15609,548126.8795111991,2010-10-28 21:39:52,840.42495277962,7,48,-1.0997490882873535,3.755276679992676,46.85060816072746,46.1451186412179,187.2795999401324,168.03661617544608,-0.0001942634553415,0.0956302732229232,0,0,0
15610,548156.8948745902,2010-10-28 21:40:22,870.4403162809617,7,48,-1.0997490882873535,3.749449014663696,46.85060816072746,46.15428698231685,187.2795999401324,168.07101973755124,-0.0001295089750783,0.0956302732229232,0,0,0
15611,548186.9098423051,2010-10-28 21:40:52,900.4552838805947,7,48,-1.0997490882873535,3.743459224700928,46.85060816072746,46.16345514690933,187.2795999401324,168.10536853197038,-0.0001942634553415,0.0956302732229232,0,0,0
15612,548216.9250004496,2010-10-28 21:41:22,930.4704420251242,7,48,-1.0997490882873535,3.737631320953369,46.85060816072746,46.17262350160643,187.2795999401324,168.13966413244154,-0.0001942634553415,0.0956302732229232,0,0,0
15613,548246.9403007133,2010-10-28 21:41:52,960.4857422938708,7,48,-1.0997490882873535,3.731965303421021,46.85060816072746,46.18179188052593,187.2795999401324,168.1739068991706,-0.0001618862152099,0.0956302732229232,0,0,0
15614,548276.9553717057,2010-10-28 21:42:22,990.5008132811776,7,48,-1.0997490882873535,3.726461172103882,46.85060816072746,46.1909601276635,187.2795999401324,168.20809786586184,-0.0001295089750783,0.0956302732229232,0,0,0
15615,548306.9706638041,2010-10-28 21:42:52,1020.5161054146488,7,48,-1.099568486213684,3.720957040786743,46.85060816072746,46.20012847427737,187.2795999401324,168.24223896381878,-0.0001618862152099,0.0956302732229232,0,0,0
15616,548336.9857263453,2010-10-28 21:43:22,1050.5311679458805,7,48,-1.099568486213684,3.7156147956848153,46.85060816072746,46.20929678991169,187.2795999401324,168.27632957053484,-0.0001618862152099,0.0956302732229232,0,0,0
15617,548367.0008905499,2010-10-28 21:43:52,1080.5463321254513,7,48,-1.099568486213684,3.7102725505828857,46.85060816072746,46.21846511241104,187.2795999401324,168.31037087150133,-0.0001295089750783,0.0956302732229232,0,0,0
15618,548397.0162092696,2010-10-28 21:44:22,1110.561650850196,7,48,-1.0997490882873535,3.704930305480957,46.85060816072746,46.22763348764728,187.2795999401324,168.34436404617028,-0.0001942634553415,0.0956302732229232,0,0,0
15619,548427.0312559964,2010-10-28 21:44:52,1140.5766976923255,7,48,-1.0997490882873535,3.699911832809448,46.85060816072746,46.23680175927012,187.2795999401324,168.37830896494577,-0.0001295089750783,0.0956302732229232,0,0,0
15620,548457.0464154592,2010-10-28 21:45:22,1170.5918570649155,7,48,-1.0997490882873535,3.6947314739227295,46.85060816072746,46.24597009248247,187.2795999401324,168.4122071375821,-0.0001618862152099,0.0956302732229232,0,0,0
15621,548487.0615974884,2010-10-28 21:45:52,1200.6070390638977,7,48,-1.099929690361023,3.6897130012512207,46.85060816072746,46.25513841793354,187.2795999401324,168.44605902799964,-0.0001295089750783,0.0956302732229232,0,0,0
15622,548517.076946614,2010-10-28 21:46:22,1230.622388194423,7,48,-1.099568486213684,3.684856414794922,46.85060816072746,46.264306833343646,187.2795999401324,168.47986552986896,-0.0001295089750783,0.0956302732229232,0,0,0
15623,548547.0921088587,2010-10-28 21:46:52,1260.6375504692464,7,48,-1.099568486213684,3.679999828338623,46.85060816072746,46.27347519397777,187.2795999401324,168.51362696438107,-9.713172767078504e-05,0.0956302732229232,0,0,0
15624,548577.1071463374,2010-10-28 21:47:22,1290.6525879480396,7,48,-1.0997490882873535,3.675143241882324,46.85060816072746,46.28264352115222,187.2795999401324,168.5473436365454,-0.0001295089750783,0.0956302732229232,0,0,0
15625,548607.122309725,2010-10-28 21:47:52,1320.6677513406491,7,48,-1.0997490882873535,3.670286893844605,46.85060816072746,46.29181195682556,187.2795999401324,168.58101692795788,-0.0001295089750783,0.0956302732229232,0,0,0
15626,548637.1376186503,2010-10-28 21:48:22,1350.6830603261203,7,48,-1.099568486213684,3.665592193603516,46.85060816072746,46.30098034272671,187.2795999401324,168.61464673174217,-0.0001618862152099,0.0956302732229232,0,0,0
15627,548667.1527074921,2010-10-28 21:48:52,1380.6981490977514,7,48,-1.0997490882873535,3.661221265792847,46.85060816072746,46.31014867806441,187.2795999401324,168.64823405632674,-9.713172767078504e-05,0.0956302732229232,0,0,0
15628,548697.1678358223,2010-10-28 21:49:22,1410.7132774329868,7,48,-1.099929690361023,3.656364679336548,46.85060816072746,46.31931710721808,187.2795999401324,168.68177977894118,-0.0001942634553415,0.0956302732229232,0,0,0
15629,548727.1831138306,2010-10-28 21:49:52,1440.7285555214537,7,48,-1.099568486213684,3.652155637741089,46.85060816072746,46.32848548916235,187.2795999401324,168.71528427298878,-9.713172767078504e-05,0.0956302732229232,0,0,0
15630,548757.1982112087,2010-10-28 21:50:22,1470.743652824347,7,48,-1.099568486213684,3.64778470993042,46.85060816072746,46.33765388976547,187.2795999401324,168.74874832697455,-9.713172767078504e-05,0.0956302732229232,0,0,0
15631,548787.2133677644,2010-10-28 21:50:53,1500.7588093448287,7,48,-1.099568486213684,3.643413782119751,46.85060816072746,46.34682219433381,187.2795999401324,168.78217158111292,-0.0001295089750783,0.0956302732229232,0,0,0
15632,548817.22855045,2010-10-28 21:51:23,1530.7739920405472,7,48,-1.0997490882873535,3.639042854309082,46.85060816072746,46.35599050200232,187.2795999401324,168.81555550743252,-0.0001295089750783,0.0956302732229232,0,0,0
15633,548847.2437363787,2010-10-28 21:51:53,1560.7891779592985,7,48,-1.0997490882873535,3.634995698928833,46.85060816072746,46.36515880673858,187.2795999401324,168.8489006042058,-9.713172767078504e-05,0.0956302732229232,0,0,0
15634,548877.258918082,2010-10-28 21:52:23,1590.8043596575312,7,48,-1.0997490882873535,3.630786657333374,46.85060816072746,46.37432716909968,187.2795999401324,168.88220812962436,-0.0001618862152099,0.0956302732229232,0,0,0
15635,548907.2740980109,2010-10-28 21:52:53,1620.8195396264534,7,48,-1.099568486213684,3.626901388168335,46.85060816072746,46.38349548889322,187.2795999401324,168.91547832581438,-9.713172767078504e-05,0.0956302732229232,0,0,0
15636,548937.2892609824,2010-10-28 21:53:23,1650.8347025579135,7,48,-1.099929690361023,3.623016119003296,46.85060816072746,46.39266381795413,187.2795999401324,168.9487116443799,-6.47544875391759e-05,0.0956302732229232,0,0,0
15637,548967.304590083,2010-10-28 21:53:53,1680.850031663531,7,48,-1.099568486213684,3.618968963623047,46.85060816072746,46.40183225989638,187.2795999401324,168.9819094198005,-9.713172767078504e-05,0.0956302732229232,0,0,0
15638,548997.3196284539,2010-10-28 21:54:23,1710.8650700345477,7,48,-1.099568486213684,3.615083694458008,46.85060816072746,46.41100055813432,187.2795999401324,169.01507168708605,-0.0001295089750783,0.0956302732229232,0,0,0
15639,549027.3347876862,2010-10-28 21:54:53,1740.8802292617754,7,48,-1.099568486213684,3.611684083938599,46.85060816072746,46.42016886728816,187.2795999401324,169.04820016679028,-6.47544875391759e-05,0.0956302732229232,0,0,0
15640,549057.3501529119,2010-10-28 21:55:23,1770.895594492427,7,48,-1.099568486213684,3.6079607009887695,46.85060816072746,46.4293372657374,187.2795999401324,169.08129572488346,-9.713172767078504e-05,0.0956302732229232,0,0,0
15641,549087.365296866,2010-10-28 21:55:53,1800.910738456615,7,48,-1.0997490882873535,3.6043992042541504,46.85060816072746,46.43850557230532,187.2795999401324,169.1143582625551,-6.47544875391759e-05,0.0956302732229232,0,0,0
15642,549117.3805470751,2010-10-28 21:56:23,1830.9259886756224,7,48,-1.0997490882873535,3.600999593734741,46.85060816072746,46.44767385530064,187.2795999401324,169.14738895918015,-9.713172767078504e-05,0.0956302732229232,0,0,0
15643,549147.3955069053,2010-10-28 21:56:53,1860.940948485841,7,48,-1.099568486213684,3.597599983215332,46.85060816072746,46.45684207299244,187.2795999401324,169.18038794238035,-9.713172767078504e-05,0.0956302732229232,0,0,0
15644,549177.4107014205,2010-10-28 21:57:23,1890.9561429960056,7,48,-1.099929690361023,3.594200372695923,46.85060816072746,46.46601040606336,187.2795999401324,169.21335679585795,-9.713172767078504e-05,0.0956302732229232,0,0,0
15645,549207.4258507981,2010-10-28 21:57:53,1920.9712923736847,7,48,-1.099568486213684,3.5911247730255127,46.85060816072746,46.475178725524565,187.2795999401324,169.24629593261977,-9.713172767078504e-05,0.0956302732229232,0,0,0
15646,549237.4412504646,2010-10-28 21:58:23,1950.986692045174,7,48,-1.099568486213684,3.5880489349365234,46.85060816072746,46.48434711661876,187.2795999401324,169.279206226678,-6.47544875391759e-05,0.0956302732229232,0,0,0
15647,549267.4562148062,2010-10-28 21:58:53,1981.0016563816744,7,48,-1.0997490882873535,3.584973096847534,46.85060816072746,46.49351546264632,187.2795999401324,169.3120876903627,-6.47544875391759e-05,0.0956302732229232,0,0,0
15648,549297.4714321533,2010-10-28 21:59:23,2011.0168737237425,7,48,-1.099568486213684,3.581573486328125,46.85060816072746,46.502683831303386,187.2795999401324,169.34494110533555,-9.713172767078504e-05,0.0956302732229232,0,0,0
15649,549327.4867064322,2010-10-28 21:59:53,2041.0321480077275,7,48,-1.0993878841400146,3.5786595344543457,46.85060816072746,46.51185230977299,187.2795999401324,169.3777669650642,-9.713172767078504e-05,0.0956302732229232,0,0,0
15650,549357.5018355695,2010-10-28 22:00:23,2071.047277170024,7,48,-1.099568486213684,3.5755836963653564,46.85060816072746,46.52102065804347,187.2795999401324,169.41056322464118,-9.713172767078504e-05,0.0956302732229232,0,0,0
15651,549387.5169426918,2010-10-28 22:00:53,2101.062384297403,7,48,-1.0997490882873535,3.5721840858459477,46.85060816072746,46.53018906811119,187.2795999401324,169.44332940759992,-9.713172767078504e-05,0.0956302732229232,0,0,0
15652,549417.5321540791,2010-10-28 22:01:23,2131.0775956746043,7,48,-1.099568486213684,3.568784475326538,46.85060816072746,46.53935749175034,187.2795999401324,169.47606489391657,-9.713172767078504e-05,0.0956302732229232,0,0,0
15653,549447.5472627954,2010-10-28 22:01:53,2161.092704375906,7,48,-1.099929690361023,3.565384864807129,46.85060816072746,46.54852580077247,187.2795999401324,169.50876948632873,-9.713172767078504e-05,0.0956302732229232,0,0,0
15654,549477.5626936395,2010-10-28 22:02:23,2191.108135230112,7,48,-1.099568486213684,3.56230902671814,46.85060816072746,46.55769412768337,187.2795999401324,169.5414435200962,-6.47544875391759e-05,0.0956302732229232,0,0,0
15655,549507.5776475501,2010-10-28 22:02:53,2221.1230891506525,7,48,-1.099568486213684,3.5589094161987305,46.85060816072746,46.566862309871055,187.2795999401324,169.57408686598703,-6.47544875391759e-05,0.0956302732229232,0,0,0
15656,549537.5946149287,2010-10-28 22:03:23,2251.1400566245875,7,48,-1.0997490882873535,3.5555098056793213,46.85060816072746,46.57603107747203,187.2795999401324,169.60670157777434,-6.47544875391759e-05,0.0956302732229232,0,0,0
15657,549567.6080322447,2010-10-28 22:03:53,2281.153473930411,7,48,-1.0997490882873535,3.552110195159912,46.85060816072746,46.585198679591535,187.2795999401324,169.63928129116337,-9.713172767078504e-05,0.0956302732229232,0,0,0
15658,549597.6233626485,2010-10-28 22:04:23,2311.1688042390265,7,48,-1.0993878841400146,3.548710584640503,46.85060816072746,46.59436690092856,187.2795999401324,169.67183229251282,-9.713172767078504e-05,0.0956302732229232,0,0,0
15659,549627.6382988548,2010-10-28 22:04:53,2341.18374043038,7,48,-1.099568486213684,3.5453109741210938,46.85060816072746,46.60353489190448,187.2795999401324,169.7043507873954,-6.47544875391759e-05,0.0956302732229232,0,0,0
15660,549657.6535358509,2010-10-28 22:05:23,2371.198977456507,7,48,-1.099568486213684,3.5417494773864746,46.85060816072746,46.612702971253206,187.2795999401324,169.73683789126696,-6.47544875391759e-05,0.0956302732229232,0,0,0
15661,549687.6686537502,2010-10-28 22:05:53,2401.2140953256576,7,48,-1.099568486213684,3.5381879806518555,46.85060816072746,46.62187104790104,187.2795999401324,169.7692929981527,-9.713172767078504e-05,0.0956302732229232,0,0,0
15662,549717.6839370115,2010-10-28 22:06:23,2431.229378617092,7,48,-1.0997490882873535,3.5344645977020264,46.85060816072746,46.63103914152812,187.2795999401324,169.80171502191862,-0.0001295089750783,0.0956302732229232,0,0,0
15663,549747.6989791921,2010-10-28 22:06:53,2461.244420757503,7,48,-1.099568486213684,3.5309031009674072,46.85060816072746,46.64020708230391,187.2795999401324,169.83410288140433,-9.713172767078504e-05,0.0956302732229232,0,0,0
15664,549777.714373029,2010-10-28 22:07:23,2491.2598146295386,7,48,-1.099929690361023,3.527017831802368,46.85060816072746,46.64937517261864,187.2795999401324,169.8664563921647,-0.0001295089750783,0.0956302732229232,0,0,0
15665,549807.7294504122,2010-10-28 22:07:53,2521.274892022811,7,48,-1.0997490882873535,3.523132562637329,46.85060816072746,46.658543109582986,187.2795999401324,169.89877372536097,-9.713172767078504e-05,0.0956302732229232,0,0,0
15666,549837.7445519557,2010-10-28 22:08:23,2551.289993531185,7,48,-1.099568486213684,3.51908540725708,46.85060816072746,46.66771096140837,187.2795999401324,169.93105413444846,-0.0001295089750783,0.0956302732229232,0,0,0
15667,549867.7599334067,2010-10-28 22:08:53,2581.305374987276,7,48,-1.0997490882873535,3.514714479446411,46.85060816072746,46.676879030990754,187.2795999401324,169.96329740337734,-0.0001295089750783,0.0956302732229232,0,0,0
15668,549897.7748642197,2010-10-28 22:09:23,2611.320305790201,7,48,-1.099568486213684,3.5105056762695312,46.85060816072746,46.68604688814133,187.2795999401324,169.99549977900125,-9.713172767078504e-05,0.0956302732229232,0,0,0
15669,549927.7900894665,2010-10-28 22:09:53,2641.335531046994,7,48,-1.099568486213684,3.5056490898132324,46.85060816072746,46.695214814501405,187.2795999401324,170.02766059455914,-0.0001295089750783,0.0956302732229232,0,0,0
15670,549957.8052204634,2010-10-28 22:10:23,2671.350662043863,7,48,-1.0993878841400146,3.500630617141724,46.85060816072746,46.704382716290326,187.2795999401324,170.0597770448678,-0.0001295089750783,0.0956302732229232,0,0,0
15671,549987.8202879018,2010-10-28 22:10:53,2701.3657294723,7,48,-1.0997490882873535,3.495288372039795,46.85060816072746,46.71355044345452,187.2795999401324,170.09184597220488,-0.0001618862152099,0.0956302732229232,0,0,0
15672,550017.8357974271,2010-10-28 22:11:23,2731.381239102841,7,48,-1.0993878841400146,3.4894604682922363,46.85060816072746,46.72271836639136,187.2795999401324,170.12386394432153,-0.0001618862152099,0.0956302732229232,0,0,0
15673,550047.8506063713,2010-10-28 22:11:53,2761.3960479417933,7,48,-1.099568486213684,3.482985019683838,46.85060816072746,46.73188613419628,187.2795999401324,170.15582505640697,-0.0001942634553415,0.0956302732229232,0,0,0
15674,550077.8659223943,2010-10-28 22:12:23,2791.41136397483,7,48,-1.0993878841400146,3.4757001399993896,46.85060816072746,46.741053925553885,187.2795999401324,170.18772323400623,-0.0002266406954731,0.0956302732229232,0,0,0
15675,550107.8810559475,2010-10-28 22:12:53,2821.4264975280703,7,48,-1.0993878841400146,3.467605829238892,46.85060816072746,46.750221687748585,187.2795999401324,170.2195511027365,-0.0002266406954731,0.0956302732229232,0,0,0
15676,550137.896108925,2010-10-28 22:13:23,2851.4415505907027,7,48,-1.0997490882873535,3.458216428756714,46.85060816072746,46.75938943907164,187.2795999401324,170.251299501751,-0.0002913951757363,0.0956302732229232,0,0,0
15677,550167.9112588491,2010-10-28 22:13:53,2881.456700419507,7,48,-1.099568486213684,3.4475319385528564,46.85060816072746,46.76855726870266,187.2795999401324,170.28295681939602,-0.0002913951757363,0.0956302732229232,0,0,0
15678,550197.9264215749,2010-10-28 22:14:23,2911.47186317553,7,48,-1.0997490882873535,3.434742927551269,46.85060816072746,46.77772499747149,187.2795999401324,170.31450671710974,-0.0003885269106831,0.0956302732229232,0,0,0
15679,550227.9417072874,2010-10-28 22:14:53,2941.4871488930103,7,48,-1.099568486213684,3.4195258617401123,46.85060816072746,46.78689274113286,187.2795999401324,170.34592825244323,-0.0004209041653666,0.0956302732229232,0,0,0
15680,550257.9567141399,2010-10-28 22:15:23,2971.502155710386,7,48,-1.099568486213684,3.400423288345337,46.85060816072746,46.79606044076703,187.2795999401324,170.37719276972462,-0.0005504131549969,0.0956302732229232,0,0,0
15681,550287.971868485,2010-10-28 22:15:53,3001.5173100554457,7,48,-1.099568486213684,3.3764641284942627,46.85060816072746,46.80522820096336,187.2795999401324,170.40826153195076,-0.0006799221155233,0.0956302732229232,0,0,0
15682,550317.9874028822,2010-10-28 22:16:23,3031.532844502838,7,48,-1.0993878841400146,3.3448965549468994,46.85060816072746,46.81439604304677,187.2795999401324,170.4390771957509,-0.0008741855854168,0.0956302732229232,0,0,0
15683,550348.0021816161,2010-10-28 22:16:53,3061.5476232116966,7,48,-1.0993878841400146,3.3021585941314697,46.85060816072746,46.823563651926015,187.2795999401324,170.46955413203978,-0.0012627125252038,0.0956302732229232,0,0,0
15684,550378.0173311142,2010-10-28 22:17:23,3091.562772719701,7,48,-1.0997490882873535,3.2420990467071533,46.85060816072746,46.83273125966649,187.2795999401324,170.49956701244835,-0.0018778800731524,0.0956302732229232,0,0,0
15685,550408.0325113938,2010-10-28 22:17:53,3121.577952994386,7,48,-1.0993878841400146,3.156137704849243,46.85060816072746,46.84189887701283,187.2795999401324,170.52892234227082,-0.0027196884620934,0.0956302732229232,0,0,0
15686,550438.0476879041,2010-10-28 22:18:23,3151.5931294746138,7,48,-1.099568486213684,3.0188586711883545,46.85060816072746,46.85106645588106,187.2795999401324,170.557285003861,-0.0046946527436375,0.0956302732229232,0,0,0
15687,550460.484827645,2010-10-28 22:18:46,3174.030269275733,7,48,-1.0993878841400146,2.818767786026001,46.85060816072746,46.85791953048528,187.2795999401324,170.57736398942066,-0.0091951368376612,0.0956302732229232,0,0,0
15688,550469.4065764834,2010-10-28 22:18:55,3182.9520180538416,7,48,-1.099568486213684,2.699781894683838,46.85060816072746,46.86064450879958,187.2795999401324,170.58488670415315,-0.0110729690641164,0.0956302732229232,0,0,0
15689,550529.4413155171,2010-10-28 22:19:55,60.01467962768746,8,48,0.0,3.34392523765564,46.85060816072746,46.86064450879958,187.2795999401324,170.58488670415315,0.0012950897216796,0.0956302732229232,0,0,0
15690,550529.603057945,2010-10-28 22:19:55,0.187621259909312,9,48,-1.9243103452026844e-05,3.3440871238708496,46.85060816072746,46.86064450980248,187.2795999401324,170.5848867075069,0.0,0.0930307656526565,0,0,0
15691,550534.4309867892,2010-10-28 22:20:00,5.015550094080632,9,48,0.0003419754502829,3.3520193099975586,46.85060900142778,46.860644509968935,187.27960275541608,170.58488670806355,0.0011331557761877,0.0930307656526565,0,0,0
