Data_Point,Test_Time(s),Date_Time,Step_Time(s),Step_Index,Cycle_Index,Current(A),Voltage(V),Charge_Capacity(Ah),Discharge_Capacity(Ah),Charge_Energy(Wh),Discharge_Energy(Wh),dV/dt(V/s),Internal_Resistance(Ohm),Is_FC_Data,AC_Impedance(Ohm),ACI_Phase_Angle(Deg)
13423,470022.33470659633,2010-10-27 23:57:58,30.015441776427405,1,42,0.0,3.3602755069732666,40.04757588991246,40.06497348713206,160.06144459744206,145.88216364793738,0.0008418083307333,0.0931148082017898,0,0,0
13424,470052.3496138305,2010-10-27 23:58:28,60.03034901061106,1,42,0.0,3.3845584392547607,40.04757588991246,40.06497348713206,160.06144459744206,145.88216364793738,0.0006151676061563,0.0931148082017898,0,0,0
13425,470082.3656827951,2010-10-27 23:58:58,90.0464179751843,1,42,0.0,3.4031753540039062,40.04757588991246,40.06497348713206,160.06144459744206,145.88216364793738,0.0004209041653666,0.0931148082017898,0,0,0
13426,470112.3333843331,2010-10-27 23:59:28,120.01411954833584,1,42,0.0,3.4182307720184326,40.04757588991246,40.06497348713206,160.06144459744206,145.88216364793738,0.0004209041653666,0.0931148082017898,0,0,0
13427,470142.3612454228,2010-10-27 23:59:59,30.01519660538573,2,42,0.550297200679779,3.576555013656616,40.05216326385119,40.06497348713206,160.07768001310345,145.88216364793738,0.0017483711708337,0.0931148082017898,0,0,0
13428,470172.3640030013,2010-10-28 00:00:29,60.01795419391407,2,42,0.550297200679779,3.6277108192443848,40.056748706161166,40.06497348713206,160.09420494154352,145.88216364793738,0.0011655807029455,0.0931148082017898,0,0,0
13429,470202.37604557583,2010-10-28 00:00:59,90.02999675845955,2,42,0.550297200679779,3.6651065349578857,40.06133558515946,40.06497348713206,160.11093451822467,145.88216364793738,0.0009713172912597,0.0931148082017898,0,0,0
13430,470232.39122878783,2010-10-28 00:01:29,120.04517998048983,2,42,0.550297200679779,3.6942458152771,40.06592296596257,40.06497348713206,160.12781692922343,145.88216364793738,0.0007446765666827,0.0931148082017898,0,0,0
13431,470262.4064626612,2010-10-28 00:01:59,150.0604138537586,2,42,0.550297200679779,3.718204975128174,40.07051033069649,40.06497348713206,160.14482031150973,145.88216364793738,0.0006475448608398,0.0931148082017898,0,0,0
13432,470292.4216495674,2010-10-28 00:02:29,180.07560073992104,2,42,0.5501165986061096,3.737793207168579,40.07509773201244,40.06497348713206,160.16192379361215,145.88216364793738,0.0005180359003134,0.0931148082017898,0,0,0
13433,470322.4368065791,2010-10-28 00:02:59,210.0907577315772,2,42,0.550297200679779,3.754143476486206,40.07968503601636,40.06497348713206,160.17910923444708,145.88216364793738,0.0004208564641885,0.0931148082017898,0,0,0
13434,470352.4521255094,2010-10-28 00:03:29,240.1060766768716,2,42,0.550297200679779,3.7649898529052734,40.084272357633445,40.06497348713206,160.19635730808145,145.88216364793738,0.0002266406954731,0.0931148082017898,0,0,0
13435,470382.4672186469,2010-10-28 00:03:59,270.121169839446,2,42,0.5501165986061096,3.771465301513672,40.088859713235074,40.06497348713206,160.21364474755407,145.88216364793738,0.0001942634553415,0.0931148082017898,0,0,0
13436,470412.4824221193,2010-10-28 00:04:29,300.1363732718468,2,42,0.5501165986061096,3.775836229324341,40.09344702282499,40.06497348713206,160.2309560821551,145.88216364793738,0.0001295089750783,0.0931148082017898,0,0,0
13437,470442.49728091777,2010-10-28 00:04:59,330.1512320753262,2,42,0.5501165986061096,3.77955961227417,40.09802482652061,40.06497348713206,160.24824998282034,145.88216364793738,9.713172767078504e-05,0.0931148082017898,0,0,0
13438,470472.5128466281,2010-10-28 00:05:29,360.1667978207224,2,42,0.5501165986061096,3.783282995223999,40.1026217232871,40.06497348713206,160.26563318053493,145.88216364793738,9.713172767078504e-05,0.0931148082017898,0,0,0
13439,470502.52799812105,2010-10-28 00:05:59,390.18194930364905,2,42,0.550297200679779,3.786844491958618,40.1072090360008,40.06497348713206,160.28299680042363,145.88216364793738,9.713172767078504e-05,0.0931148082017898,0,0,0
13440,470532.5428371803,2010-10-28 00:06:29,420.19678801705794,2,42,0.550297200679779,3.7905678749084473,40.111796357786645,40.06497348713206,160.30037670128266,145.88216364793738,0.0001295089750783,0.0931148082017898,0,0,0
13441,470562.5429757915,2010-10-28 00:06:59,450.1969269691384,2,42,0.550297200679779,3.7938055992126474,40.116381412393125,40.06497348713206,160.31776381668487,145.88216364793738,6.47544875391759e-05,0.0931148082017898,0,0,0
13442,470592.5579666442,2010-10-28 00:07:29,480.2119177966624,2,42,0.5501165986061096,3.797205209732056,40.12096876603654,40.06497348713206,160.33517517806942,145.88216364793738,0.0001295089750783,0.0931148082017898,0,0,0
13443,470622.5731904924,2010-10-28 00:07:59,510.2271416750208,2,42,0.5501165986061096,3.800442934036255,40.12555612354002,40.06497348713206,160.3526017568435,145.88216364793738,9.713172767078504e-05,0.0931148082017898,0,0,0
13444,470652.5883675341,2010-10-28 00:08:29,540.2423186615102,2,42,0.5501165986061096,3.803518772125244,40.130143546474855,40.06497348713206,160.37004345233876,145.88216364793738,6.47544875391759e-05,0.0931148082017898,0,0,0
13445,470682.6036762739,2010-10-28 00:08:59,570.2576274514945,2,42,0.550297200679779,3.8067564964294434,40.13473093595146,40.06497348713206,160.3874996189702,145.88216364793738,6.47544875391759e-05,0.0931148082017898,0,0,0
13446,470712.61875032383,2010-10-28 00:09:29,600.2727015064468,2,42,0.5501165986061096,3.8099942207336426,40.13931820891395,40.06497348713206,160.4049697417142,145.88216364793738,9.713172767078504e-05,0.0931148082017898,0,0,0
13447,470742.6339632799,2010-10-28 00:09:59,630.2879144625837,2,42,0.550297200679779,3.813231945037842,40.14390560184341,40.06497348713206,160.42245466106058,145.88216364793738,6.47544875391759e-05,0.0931148082017898,0,0,0
13448,470772.6493025058,2010-10-28 00:10:29,660.303253653336,2,42,0.5501165986061096,3.816145896911621,40.14849297724072,40.06497348713206,160.43995416524822,145.88216364793738,6.47544875391759e-05,0.0931148082017898,0,0,0
13449,470802.66436436033,2010-10-28 00:10:59,690.3183155429685,2,42,0.5501165986061096,3.8195455074310303,40.15308034741577,40.06497348713206,160.45746805638424,145.88216364793738,0.0001295089750783,0.0931148082017898,0,0,0
13450,470832.6797446335,2010-10-28 00:11:29,720.3336958110984,2,42,0.550297200679779,3.8224594593048096,40.15766772928915,40.06497348713206,160.47499655472004,145.88216364793738,3.237724376958795e-05,0.0931148082017898,0,0,0
13451,470862.6993479117,2010-10-28 00:11:59,750.3532990792437,2,42,0.5504778623580933,3.8258590698242183,40.16225571768104,40.06497348713206,160.4925422026146,145.88216364793738,6.47544875391759e-05,0.0931148082017898,0,0,0
13452,470892.7099520011,2010-10-28 00:12:29,780.3639032789414,2,42,0.5504778623580933,3.829420566558838,40.16684231553417,40.06497348713206,160.51009776447117,145.88216364793738,0.0001295089750783,0.0931148082017898,0,0,0
13453,470922.7248383984,2010-10-28 00:12:59,810.3787895558931,2,42,0.5501165986061096,3.832658290863037,40.17142494296173,40.06497348713206,160.52765367377833,145.88216364793738,6.47544875391759e-05,0.0931148082017898,0,0,0
13454,470952.7403850562,2010-10-28 00:13:29,840.3943362387797,2,42,0.550297200679779,3.836219549179077,40.17601695866896,40.06497348713206,160.54526130879754,145.88216364793738,0.0001295089750783,0.0931148082017898,0,0,0
13455,470982.7556601922,2010-10-28 00:13:59,870.4096113849133,2,42,0.550297200679779,3.839781045913696,40.18060427921888,40.06497348713206,160.56286697957918,145.88216364793738,0.0001295089750783,0.0931148082017898,0,0,0
13456,471012.7704291418,2010-10-28 00:14:29,900.4243799935995,2,42,0.550297200679779,3.8431806564331055,40.18519153853434,40.06497348713206,160.5804883843255,145.88216364793738,0.0001295089750783,0.0931148082017898,0,0,0
13457,471042.7860893526,2010-10-28 00:14:59,930.4400404901446,2,42,0.5501165986061096,3.846580266952514,40.18977892822681,40.06497348713206,160.59812598402078,145.88216364793738,9.713172767078504e-05,0.0931148082017898,0,0,0
13458,471072.8011489816,2010-10-28 00:15:29,960.4551001642552,2,42,0.550297200679779,3.849817991256714,40.1943662633877,40.06497348713206,160.61577894121987,145.88216364793738,6.47544875391759e-05,0.0931148082017898,0,0,0
13459,471102.8161203608,2010-10-28 00:15:59,990.470071217496,2,42,0.550297200679779,3.853217601776123,40.19895364827933,40.06497348713206,160.63344737751328,145.88216364793738,0.0001295089750783,0.0931148082017898,0,0,0
13460,471132.81618738855,2010-10-28 00:16:29,1020.4701385260188,2,42,0.5501165986061096,3.856455326080322,40.2035386146139,40.06497348713206,160.6511213274758,145.88216364793738,9.713172767078504e-05,0.0931148082017898,0,0,0
13461,471162.83116879256,2010-10-28 00:16:59,1050.485119985194,2,42,0.5501165986061096,3.8593692779541016,40.20812600677035,40.06497348713206,160.66881935627487,145.88216364793738,6.47544875391759e-05,0.0931148082017898,0,0,0
13462,471192.8463165012,2010-10-28 00:17:29,1080.5002676536135,2,42,0.5501165986061096,3.862607002258301,40.212713303210414,40.06497348713206,160.68653128988976,145.88216364793738,6.47544875391759e-05,0.0931148082017898,0,0,0
13463,471222.8616167498,2010-10-28 00:17:59,1110.5155679273728,2,42,0.550297200679779,3.86552095413208,40.217300697372096,40.06497348713206,160.7042574867285,145.88216364793738,6.47544875391759e-05,0.0931148082017898,0,0,0
13464,471252.8767847739,2010-10-28 00:18:29,1140.530735936488,2,42,0.5501165986061096,3.868596792221069,40.221888006784056,40.06497348713206,160.72199682850294,145.88216364793738,9.713172767078504e-05,0.0931148082017898,0,0,0
13465,471282.8919218309,2010-10-28 00:18:59,1170.5458729834356,2,42,0.550297200679779,3.871348857879639,40.22647530884995,40.06497348713206,160.7397490595429,145.88216364793738,9.713172767078504e-05,0.0931148082017898,0,0,0
13466,471312.90711267694,2010-10-28 00:19:29,1200.5610638595422,2,42,0.550297200679779,3.873939037322998,40.231062713983135,40.06497348713206,160.7575140591723,145.88216364793738,0.0001295089750783,0.0931148082017898,0,0,0
13467,471342.92240575777,2010-10-28 00:19:59,1230.5763569403746,2,42,0.550297200679779,3.876367330551148,40.23565005749004,40.06497348713206,160.77529045241306,145.88216364793738,6.47544875391759e-05,0.0931148082017898,0,0,0
13468,471372.9375407998,2010-10-28 00:20:29,1260.5914919823251,2,42,0.550297200679779,3.878795623779297,40.24023738997792,40.06497348713206,160.79307796868832,145.88216364793738,6.47544875391759e-05,0.0931148082017898,0,0,0
13469,471402.95283610607,2010-10-28 00:20:59,1290.6067872987292,2,42,0.5501165986061096,3.881062030792236,40.244824718293096,40.06497348713206,160.81087589390827,145.88216364793738,9.713172767078504e-05,0.0931148082017898,0,0,0
13470,471432.9684505077,2010-10-28 00:21:29,1320.6224017104166,2,42,0.5501165986061096,3.883004665374756,40.24941207978053,40.06497348713206,160.82868376989532,145.88216364793738,6.47544875391759e-05,0.0931148082017898,0,0,0
13471,471462.98311283154,2010-10-28 00:21:59,1350.6370640141583,2,42,0.5501165986061096,3.8847854137420654,40.25399932765935,40.06497348713206,160.8465003729916,145.88216364793738,6.47544875391759e-05,0.0931148082017898,0,0,0
13472,471492.99833626376,2010-10-28 00:22:29,1380.652287446405,2,42,0.5501165986061096,3.886728048324585,40.25858665812511,40.06497348713206,160.8643258690926,145.88216364793738,6.47544875391759e-05,0.0931148082017898,0,0,0
13473,471523.01352396695,2010-10-28 00:22:59,1410.6674751496037,2,42,0.550297200679779,3.8885087966918954,40.26317400222952,40.06497348713206,160.88215944591977,145.88216364793738,9.713172767078504e-05,0.0931148082017898,0,0,0
13474,471553.0287338956,2010-10-28 00:23:29,1440.6826850781947,2,42,0.550297200679779,3.889965772628784,40.26776126460116,40.06497348713206,160.9000002143487,145.88216364793738,3.237724376958795e-05,0.0931148082017898,0,0,0
13475,471583.04403005406,2010-10-28 00:23:59,1470.6979812366976,2,42,0.5504778623580933,3.891584634780884,40.27234855579986,40.06497348713206,160.91784823351503,145.88216364793738,9.713172767078504e-05,0.0931148082017898,0,0,0
13476,471613.0588414344,2010-10-28 00:24:29,1500.7127925919217,2,42,0.550297200679779,3.893041610717773,40.2769334537462,40.06497348713206,160.93569375489656,145.88216364793738,6.47544875391759e-05,0.0931148082017898,0,0,0
13477,471643.0743116016,2010-10-28 00:24:59,1530.7282627540949,2,42,0.5501165986061096,3.894174814224243,40.2815230449128,40.06497348713206,160.9535640795685,145.88216364793738,0.0,0.0931148082017898,0,0,0
13478,471673.0896369128,2010-10-28 00:25:29,1560.7435880903174,2,42,0.5501165986061096,3.895469903945923,40.28611040286317,40.06497348713206,160.97143162669144,145.88216364793738,3.237724376958795e-05,0.0931148082017898,0,0,0
13479,471703.1044076817,2010-10-28 00:25:59,1590.758358839338,2,42,0.550297200679779,3.8970887660980233,40.290688202093605,40.06497348713206,160.98926819097213,145.88216364793738,6.47544875391759e-05,0.0931148082017898,0,0,0
13480,471733.1200730404,2010-10-28 00:26:29,1620.7740242330883,2,42,0.5501165986061096,3.898221969604492,40.29528506542452,40.06497348713206,161.0071851388215,145.88216364793738,3.237724376958795e-05,0.0931148082017898,0,0,0
13481,471763.13513380726,2010-10-28 00:26:59,1650.789084989898,2,42,0.5504778623580933,3.899840831756592,40.29987231949531,40.06497348713206,161.02507076549355,145.88216364793738,6.47544875391759e-05,0.0931148082017898,0,0,0
13482,471793.1497967827,2010-10-28 00:27:29,1680.8037476344891,2,42,0.5501165986061096,3.9009740352630615,40.30445724079786,40.06497348713206,161.04295333487843,145.88216364793738,3.237724376958795e-05,0.0931148082017898,0,0,0
13483,471823.1498738856,2010-10-28 00:27:59,1710.8038250682473,2,42,0.550297200679779,3.902269124984741,40.30904456636517,40.06497348713206,161.06085140966928,145.88216364793738,3.237724376958795e-05,0.0931148082017898,0,0,0
13484,471853.1689615236,2010-10-28 00:28:29,1740.8229127163083,2,42,0.5501165986061096,3.903402328491211,40.31363250436285,40.06497348713206,161.0787579343141,145.88216364793738,0.0,0.0931148082017898,0,0,0
13485,471883.18008404016,2010-10-28 00:28:59,1770.8340349019866,2,42,0.550297200679779,3.905021190643311,40.31821919444793,40.06497348713206,161.09666572565538,145.88216364793738,3.237724376958795e-05,0.0931148082017898,0,0,0
13486,471913.1800960208,2010-10-28 00:29:29,1800.8340471833646,2,42,0.550297200679779,3.9063162803649902,40.32280422435948,40.06497348713206,161.114573004696,145.88216364793738,6.47544875391759e-05,0.0931148082017898,0,0,0
13487,471943.1950568285,2010-10-28 00:29:59,1830.849008021145,2,42,0.550297200679779,3.90761137008667,40.32739140150997,40.06497348713206,161.13249485351162,145.88216364793738,0.0,0.0931148082017898,0,0,0
13488,471973.20989533135,2010-10-28 00:30:29,1860.8638461932048,2,42,0.5501165986061096,3.9089064598083496,40.33197867171545,40.06497348713206,161.1504232068767,145.88216364793738,3.237724376958795e-05,0.0931148082017898,0,0,0
13489,472003.2099133722,2010-10-28 00:30:59,1890.863864559749,2,42,0.550297200679779,3.9103634357452393,40.33656360728549,40.06497348713206,161.16834868783124,145.88216364793738,6.47544875391759e-05,0.0931148082017898,0,0,0
13490,472033.2250024395,2010-10-28 00:31:29,1920.878953592029,2,42,0.5499359965324402,3.911658525466919,40.34115089179479,40.06497348713206,161.186289543944,145.88216364793738,6.47544875391759e-05,0.0931148082017898,0,0,0
13491,472063.2403170941,2010-10-28 00:32:00,1950.8942682516424,2,42,0.5501165986061096,3.912953615188599,40.34573815899209,40.06497348713206,161.20423662794633,145.88216364793738,3.237724376958795e-05,0.0931148082017898,0,0,0
13492,472093.25552253646,2010-10-28 00:32:30,1980.909473714103,2,42,0.550297200679779,3.914410352706909,40.350325434684,40.06497348713206,161.22219005535865,145.88216364793738,3.237724376958795e-05,0.0931148082017898,0,0,0
13493,472123.27060011023,2010-10-28 00:33:00,2010.9245512627624,2,42,0.5501165986061096,3.915705442428589,40.35491271647837,40.06497348713206,161.2401497932556,145.88216364793738,3.237724376958795e-05,0.0931148082017898,0,0,0
13494,472153.2858090464,2010-10-28 00:33:30,2040.9397602289555,2,42,0.5501165986061096,3.9171624183654794,40.35949998737605,40.06497348713206,161.25811582800998,145.88216364793738,3.237724376958795e-05,0.0931148082017898,0,0,0
13495,472183.30101841857,2010-10-28 00:34:00,2070.9549695811106,2,42,0.5501165986061096,3.918457508087158,40.36408728624205,40.06497348713206,161.27608847512775,145.88216364793738,3.237724376958795e-05,0.0931148082017898,0,0,0
13496,472213.3162839708,2010-10-28 00:34:30,2100.9702351483697,2,42,0.5501165986061096,3.920076370239258,40.3686745694596,40.06497348713206,161.2940675366173,145.88216364793738,3.237724376958795e-05,0.0931148082017898,0,0,0
13497,472243.3314570776,2010-10-28 00:35:00,2130.9854081599524,2,42,0.550297200679779,3.921533346176148,40.37326194794207,40.06497348713206,161.3120534799173,145.88216364793738,3.237724376958795e-05,0.0931148082017898,0,0,0
13498,472273.3466411517,2010-10-28 00:35:30,2161.0005923443814,2,42,0.550297200679779,3.922828435897827,40.37784929585279,40.06497348713206,161.33004585306333,145.88216364793738,3.237724376958795e-05,0.0931148082017898,0,0,0
13499,472303.361864619,2010-10-28 00:36:00,2191.015815796678,2,42,0.550297200679779,3.924123525619507,40.38243670325651,40.06497348713206,161.3480450715679,145.88216364793738,-3.237724376958795e-05,0.0931148082017898,0,0,0
13500,472333.37673833966,2010-10-28 00:36:30,2221.030689196536,2,42,0.5501165986061096,3.9257423877716064,40.38702396342443,40.06497348713206,161.36605039498963,145.88216364793738,0.0,0.0931148082017898,0,0,0
13501,472363.39238052064,2010-10-28 00:37:00,2251.0463316982323,2,42,0.550297200679779,3.927199363708496,40.39161133947626,40.06497348713206,161.3840626993587,145.88216364793738,0.0,0.0931148082017898,0,0,0
13502,472393.4073986512,2010-10-28 00:37:30,2281.061349843841,2,42,0.550297200679779,3.9286563396453857,40.3961986620968,40.06497348713206,161.4020816150325,145.88216364793738,3.237724376958795e-05,0.0931148082017898,0,0,0
13503,472423.4222984819,2010-10-28 00:38:00,2311.076249338737,2,42,0.550297200679779,3.930275201797485,40.40078597220124,40.06497348713206,161.42010726445204,145.88216364793738,3.237724376958795e-05,0.0931148082017898,0,0,0
13504,472453.4378525934,2010-10-28 00:38:30,2341.091803770937,2,42,0.5501165986061096,3.931570291519165,40.40537340682745,40.06497348713206,161.43814023171228,145.88216364793738,3.237724376958795e-05,0.0931148082017898,0,0,0
13505,472483.4530040362,2010-10-28 00:39:00,2371.106955183689,2,42,0.5504778623580933,3.9333510398864746,40.409960728704505,40.06497348713206,161.45617963384774,145.88216364793738,6.47544875391759e-05,0.0931148082017898,0,0,0
13506,472513.4682021353,2010-10-28 00:39:30,2401.122153317885,2,42,0.550297200679779,3.934808015823364,40.4145481513978,40.06497348713206,161.47422637876966,145.88216364793738,3.237724376958795e-05,0.0931148082017898,0,0,0
13507,472543.4834336075,2010-10-28 00:40:00,2431.1373847901696,2,42,0.550297200679779,3.936264991760254,40.41913555483155,40.06497348713206,161.49228005048488,145.88216364793738,3.237724376958795e-05,0.0931148082017898,0,0,0
13508,472573.49860136607,2010-10-28 00:40:30,2461.15255254866,2,42,0.550297200679779,3.9378838539123535,40.423722947813495,40.06497348713206,161.5103405992918,145.88216364793738,6.47544875391759e-05,0.0931148082017898,0,0,0
13509,472603.5138224574,2010-10-28 00:41:00,2491.167773640072,2,42,0.550297200679779,3.939340829849243,40.42831024857846,40.06497348713206,161.52840802927523,145.88216364793738,6.47544875391759e-05,0.0931148082017898,0,0,0
13510,472633.5290931124,2010-10-28 00:41:30,2521.183044295012,2,42,0.550297200679779,3.940959692001343,40.4328976135079,40.06497348713206,161.54648289206995,145.88216364793738,6.47544875391759e-05,0.0931148082017898,0,0,0
13511,472663.544222796,2010-10-28 00:42:00,2551.1981740738456,2,42,0.550297200679779,3.9425785541534415,40.43748494272676,40.06497348713206,161.56456479974793,145.88216364793738,3.237724376958795e-05,0.0931148082017898,0,0,0
13512,472693.5594078176,2010-10-28 00:42:30,2581.2133590001235,2,42,0.550297200679779,3.944035530090332,40.442072285207246,40.06497348713206,161.58265405412095,145.88216364793738,3.237724376958795e-05,0.0931148082017898,0,0,0
13513,472723.57460084895,2010-10-28 00:43:00,2611.2285519163142,2,42,0.550297200679779,3.9458162784576416,40.44665967923503,40.06497348713206,161.6007508803551,145.88216364793738,9.713172767078504e-05,0.0931148082017898,0,0,0
13514,472753.5898095194,2010-10-28 00:43:30,2641.2437606719827,2,42,0.550297200679779,3.9472732543945312,40.45124706768596,40.06497348713206,161.61885501918346,145.88216364793738,6.47544875391759e-05,0.0931148082017898,0,0,0
13515,472783.6046792552,2010-10-28 00:44:00,2671.258630111972,2,42,0.550297200679779,3.949054002761841,40.45583431846267,40.06497348713206,161.63696608408492,145.88216364793738,9.713172767078504e-05,0.0931148082017898,0,0,0
13516,472813.6202102439,2010-10-28 00:44:30,2701.274161426556,2,42,0.5501165986061096,3.9505109786987305,40.46042171109449,40.06497348713206,161.65508521196338,145.88216364793738,3.237724376958795e-05,0.0931148082017898,0,0,0
13517,472843.6354443778,2010-10-28 00:45:00,2731.2893955604736,2,42,0.550297200679779,3.95245361328125,40.46500914296436,40.06497348713206,161.67321212152663,145.88216364793738,6.47544875391759e-05,0.0931148082017898,0,0,0
13518,472873.6503435119,2010-10-28 00:45:30,2761.304294363645,2,42,0.550297200679779,3.95391058921814,40.469596431641534,40.06497348713206,161.69134614775416,145.88216364793738,6.47544875391759e-05,0.0931148082017898,0,0,0
13519,472903.67022846703,2010-10-28 00:46:00,2791.324179649665,2,42,0.550297200679779,3.955691337585449,40.47418455313603,40.06497348713206,161.7094911907651,145.88216364793738,3.237724376958795e-05,0.0931148082017898,0,0,0
13520,472933.68117351126,2010-10-28 00:46:30,2821.3351246738025,2,42,0.550297200679779,3.957310199737549,40.47877135359936,40.06497348713206,161.72763870965375,145.88216364793738,6.47544875391759e-05,0.0931148082017898,0,0,0
13521,472963.6959011879,2010-10-28 00:47:00,2851.3498520046114,2,42,0.550297200679779,3.9590909481048575,40.48335871534421,40.06497348713206,161.74579618645097,145.88216364793738,3.237724376958795e-05,0.0931148082017898,0,0,0
13522,472993.7114041519,2010-10-28 00:47:30,2881.3653553996114,2,42,0.550297200679779,3.960709810256958,40.48794616820758,40.06497348713206,161.76396188338634,145.88216364793738,3.237724376958795e-05,0.0931148082017898,0,0,0
13523,473023.72662521823,2010-10-28 00:48:00,2911.380576400799,2,42,0.550297200679779,3.962490558624268,40.49253358185923,40.06497348713206,161.78213533348594,145.88216364793738,6.47544875391759e-05,0.0931148082017898,0,0,0
13524,473053.74158213614,2010-10-28 00:48:30,2941.395532962923,2,42,0.550297200679779,3.964271306991577,40.49712095691408,40.06497348713206,161.80031657241443,145.88216364793738,3.237724376958795e-05,0.0931148082017898,0,0,0
13525,473083.75714854326,2010-10-28 00:49:00,2971.4110997208427,2,42,0.550297200679779,3.966052055358887,40.50170846608232,40.06497348713206,161.81850639756354,145.88216364793738,6.47544875391759e-05,0.0931148082017898,0,0,0
13526,473113.77227370045,2010-10-28 00:49:30,3001.42622488317,2,42,0.550297200679779,3.9679946899414062,40.50629589895609,40.06497348713206,161.83670398260725,145.88216364793738,9.713172767078504e-05,0.0931148082017898,0,0,0
13527,473143.7871874158,2010-10-28 00:50:00,3031.4411382726958,2,42,0.5501165986061096,3.969613552093506,40.510883297472574,40.06497348713206,161.8549095218914,145.88216364793738,9.713172767078504e-05,0.0931148082017898,0,0,0
13528,473173.787378528,2010-10-28 00:50:30,3061.441329705574,2,42,0.550297200679779,3.9712324142456055,40.51546840660764,40.06497348713206,161.8731141715017,145.88216364793738,3.237724376958795e-05,0.0931148082017898,0,0,0
13529,473203.802296143,2010-10-28 00:51:00,3091.4562473356677,2,42,0.5499359965324402,3.972851276397705,40.52005580090096,40.06497348713206,161.89133619721994,145.88216364793738,3.237724376958795e-05,0.0931148082017898,0,0,0
13530,473233.8170541904,2010-10-28 00:51:30,3121.4710050221324,2,42,0.5501165986061096,3.9749557971954346,40.52464311973844,40.06497348713206,161.90956627511702,145.88216364793738,6.47544875391759e-05,0.0931148082017898,0,0,0
13531,473263.8325872895,2010-10-28 00:52:00,3151.486538441963,2,42,0.5501165986061096,3.976736545562744,40.52923060681266,40.06497348713206,161.92780544067412,145.88216364793738,3.237724376958795e-05,0.0931148082017898,0,0,0
13532,473293.8478473229,2010-10-28 00:52:30,3181.5017985155314,2,42,0.5501165986061096,3.978679180145264,40.53381808063922,40.06497348713206,161.94605264076625,145.88216364793738,0.0001295089750783,0.0931148082017898,0,0,0
13533,473323.8626552596,2010-10-28 00:53:00,3211.51660612141,2,42,0.550297200679779,3.980621814727783,40.5384053225759,40.06497348713206,161.96430792312916,145.88216364793738,6.47544875391759e-05,0.0931148082017898,0,0,0
13534,473353.8627473348,2010-10-28 00:53:30,3241.516698527484,2,42,0.5501165986061096,3.9824025630950928,40.54299038976254,40.06497348713206,161.98256323985524,145.88216364793738,6.47544875391759e-05,0.0931148082017898,0,0,0
13535,473383.87781134975,2010-10-28 00:54:00,3271.5317624321383,2,42,0.5501165986061096,3.9841833114624015,40.547577680718575,40.06497348713206,162.00083608259104,145.88216364793738,3.237724376958795e-05,0.0931148082017898,0,0,0
13536,473413.892640775,2010-10-28 00:54:30,3301.5465916368485,2,42,0.550297200679779,3.986287832260132,40.55216492545935,40.06497348713206,162.01911762411433,145.88216364793738,6.47544875391759e-05,0.0931148082017898,0,0,0
13537,473443.9082293072,2010-10-28 00:55:00,3331.562180469786,2,42,0.5501165986061096,3.9882304668426514,40.55675234956057,40.06497348713206,162.037408848678,145.88216364793738,6.47544875391759e-05,0.0931148082017898,0,0,0
13538,473473.9233573869,2010-10-28 00:55:30,3361.57730853936,2,42,0.550297200679779,3.990334987640381,40.56133969602035,40.06497348713206,162.05570870385782,145.88216364793738,0.0001295089750783,0.0931148082017898,0,0,0
13539,473503.93877299305,2010-10-28 00:56:00,3391.5927241756376,2,42,0.550297200679779,3.992277622222901,40.565927016271935,40.06497348713206,162.07401762896254,145.88216364793738,6.47544875391759e-05,0.0931148082017898,0,0,0
13540,473533.95392740326,2010-10-28 00:56:30,3421.6078785958853,2,42,0.5501165986061096,3.994220018386841,40.57051438739656,40.06497348713206,162.0923360811489,145.88216364793738,6.470680091297254e-05,0.0931148082017898,0,0,0
13541,473563.9690701895,2010-10-28 00:57:00,3451.6230213671,2,42,0.5501165986061096,3.9963245391845694,40.57510170301385,40.06497348713206,162.11066371559895,145.88216364793738,6.47544875391759e-05,0.0931148082017898,0,0,0
13542,473593.9838832038,2010-10-28 00:57:30,3481.6378343614083,2,42,0.5501165986061096,3.9984290599823,40.57967956382949,40.06497348713206,162.1289631015286,145.88216364793738,6.47544875391759e-05,0.0931148082017898,0,0,0
13543,473623.9993911804,2010-10-28 00:58:00,3511.653342362889,2,42,0.5501165986061096,4.000371932983398,40.584276465451694,40.06497348713206,162.14734797621793,145.88216364793738,3.24249267578125e-05,0.0931148082017898,0,0,0
13544,473654.0147032634,2010-10-28 00:58:30,3541.668654446081,2,42,0.550297200679779,4.002638339996338,40.588863803644486,40.06497348713206,162.16570436253224,145.88216364793738,6.47544875391759e-05,0.0931148082017898,0,0,0
13545,473684.0293038885,2010-10-28 00:59:00,3571.683254740276,2,42,0.550297200679779,4.004742622375488,40.59344874626981,40.06497348713206,162.18406095278627,145.88216364793738,6.47544875391759e-05,0.0931148082017898,0,0,0
13546,473714.029516038,2010-10-28 00:59:30,3601.683467215599,2,42,0.550297200679779,4.007009029388428,40.5980361327444,40.06497348713206,162.20243716938046,145.88216364793738,6.47544875391759e-05,0.0931148082017898,0,0,0
13547,473744.0445508953,2010-10-28 01:00:00,3631.698502173109,2,42,0.550297200679779,4.008951663970947,40.60262339807024,40.06497348713206,162.22082285268215,145.88216364793738,6.47544875391759e-05,0.0931148082017898,0,0,0
13548,473774.0598450688,2010-10-28 01:00:30,3661.713796226364,2,42,0.5504778623580933,4.011380195617676,40.60721081488269,40.06497348713206,162.23921923058452,145.88216364793738,9.71794142969884e-05,0.0931148082017898,0,0,0
13549,473804.0749414444,2010-10-28 01:01:00,3691.728892596934,2,42,0.5499359965324402,4.013322830200195,40.611798145875895,40.06497348713206,162.2576254747506,145.88216364793738,0.0,0.0931148082017898,0,0,0
13550,473834.0901960042,2010-10-28 01:01:30,3721.744147186834,2,42,0.550297200679779,4.015913009643555,40.61638558141991,40.06497348713206,162.27604239913308,145.88216364793738,9.71794142969884e-05,0.0931148082017898,0,0,0
13551,473864.1054444387,2010-10-28 01:02:00,3751.75939563142,2,42,0.5504778623580933,4.018179416656494,40.6209729627882,40.06497348713206,162.29446953744375,145.88216364793738,9.71794142969884e-05,0.0931148082017898,0,0,0
13552,473894.1205513607,2010-10-28 01:02:30,3781.774502638499,2,42,0.550297200679779,4.0202836990356445,40.62556037213837,40.06497348713206,162.3129072334173,145.88216364793738,6.47544875391759e-05,0.0931148082017898,0,0,0
13553,473924.13973722846,2010-10-28 01:03:00,3811.7936884211417,2,42,0.5501165986061096,4.022712230682373,40.63014832949844,40.06497348713206,162.33135779894587,145.88216364793738,6.47544875391759e-05,0.0931148082017898,0,0,0
13554,473954.15089097794,2010-10-28 01:03:30,3841.804842135399,2,42,0.550297200679779,4.025140285491943,40.63473266662294,40.06497348713206,162.34980447228264,145.88216364793738,9.70840483205393e-05,0.0931148082017898,0,0,0
13555,473984.1661625501,2010-10-28 01:04:00,3871.8201137026126,2,42,0.5501165986061096,4.027245044708252,40.63932236073825,40.06497348713206,162.36828350565222,145.88216364793738,3.24249267578125e-05,0.0931148082017898,0,0,0
13556,474014.1813574061,2010-10-28 01:04:30,3901.835308558638,2,42,0.5501165986061096,4.029673099517822,40.643909731123536,40.06497348713206,162.38676403745328,145.88216364793738,0.0,0.0931148082017898,0,0,0
13557,474044.1962220792,2010-10-28 01:05:00,3931.8501729360096,2,42,0.550297200679779,4.032101631164551,40.64849699843472,40.06497348713206,162.40525504812544,145.88216364793738,3.24249267578125e-05,0.0931148082017898,0,0,0
13558,474074.21193336736,2010-10-28 01:05:31,3961.8658845299055,2,42,0.5501165986061096,4.034529685974121,40.65308437601848,40.06497348713206,162.42375758585982,145.88216364793738,6.47544875391759e-05,0.0931148082017898,0,0,0
13559,474104.2269556282,2010-10-28 01:06:01,3991.880906690521,2,42,0.550297200679779,4.0371198654174805,40.65767169660728,40.06497348713206,162.4422709964801,145.88216364793738,9.71794142969884e-05,0.0931148082017898,0,0,0
13560,474134.2418625817,2010-10-28 01:06:31,4021.895813438493,2,42,0.550297200679779,4.039547920227051,40.662258997115806,40.06497348713206,162.46079558303697,145.88216364793738,0.0001295089750783,0.0931148082017898,0,0,0
13561,474164.25736882375,2010-10-28 01:07:01,4051.9113200064,2,42,0.5501165986061096,4.041976451873779,40.66684637929008,40.06497348713206,162.4793317663361,145.88216364793738,9.71794142969884e-05,0.0931148082017898,0,0,0
13562,474194.2725826321,2010-10-28 01:07:31,4081.9265337845854,2,42,0.5501165986061096,4.04440450668335,40.67143369023931,40.06497348713206,162.49787918925,145.88216364793738,6.47544875391759e-05,0.0931148082017898,0,0,0
13563,474224.2878605903,2010-10-28 01:08:01,4111.941811747741,2,42,0.550297200679779,4.046994686126709,40.67602104489941,40.06497348713206,162.51643838833058,145.88216364793738,6.47544875391759e-05,0.0931148082017898,0,0,0
13564,474254.30302449904,2010-10-28 01:08:31,4141.956975691724,2,42,0.5501165986061096,4.049584865570068,40.680608361380216,40.06497348713206,162.5350091119542,145.88216364793738,9.70840483205393e-05,0.0931148082017898,0,0,0
13565,474284.3182765777,2010-10-28 01:09:01,4171.972227735279,2,42,0.5501165986061096,4.051851272583008,40.68519573625797,40.06497348713206,162.5535917624218,145.88216364793738,6.47544875391759e-05,0.0931148082017898,0,0,0
13566,474314.3328441905,2010-10-28 01:09:31,4201.986795037246,2,42,0.550297200679779,4.054765224456787,40.68978056518287,40.06497348713206,162.57217590304964,145.88216364793738,6.47544875391759e-05,0.0931148082017898,0,0,0
13567,474344.3329650124,2010-10-28 01:10:01,4231.986916194978,2,42,0.550297200679779,4.057193756103516,40.69436802800105,40.06497348713206,162.59078273355422,145.88216364793738,3.24249267578125e-05,0.0931148082017898,0,0,0
13568,474374.3481991564,2010-10-28 01:10:31,4262.002150353959,2,42,0.5501165986061096,4.059783935546875,40.69895541238032,40.06497348713206,162.60940125256786,145.88216364793738,3.24249267578125e-05,0.0931148082017898,0,0,0
13569,474404.3630318747,2010-10-28 01:11:01,4292.016983032328,2,42,0.550297200679779,4.062374114990234,40.70353801255772,40.06497348713206,162.62801210206328,145.88216364793738,3.24249267578125e-05,0.0931148082017898,0,0,0
13570,474434.3785529237,2010-10-28 01:11:31,4322.032504106389,2,42,0.5501165986061096,4.065125942230225,40.70813006918938,40.06497348713206,162.64667361767914,145.88216364793738,6.47544875391759e-05,0.0931148082017898,0,0,0
13571,474464.39378410537,2010-10-28 01:12:01,4352.047735287949,2,42,0.550297200679779,4.067878246307373,40.71271738411847,40.06497348713206,162.66532819591458,145.88216364793738,6.47544875391759e-05,0.0931148082017898,0,0,0
13572,474494.40902482567,2010-10-28 01:12:31,4382.06297598322,2,42,0.5499359965324402,4.070468425750732,40.71730452687172,40.06497348713206,162.68399453675602,145.88216364793738,3.24249267578125e-05,0.0931148082017898,0,0,0
13573,474524.42412521126,2010-10-28 01:13:01,4412.078076298621,2,42,0.5501165986061096,4.073382377624512,40.72189098552393,40.06497348713206,162.70267049772173,145.88216364793738,6.47544875391759e-05,0.0931148082017898,0,0,0
13574,474554.4392675063,2010-10-28 01:13:31,4442.093218668836,2,42,0.5501165986061096,4.076134204864502,40.726477671268505,40.06497348713206,162.72136015426852,145.88216364793738,9.70840483205393e-05,0.0931148082017898,0,0,0
13575,474584.4542571458,2010-10-28 01:14:01,4472.108208303387,2,42,0.5501165986061096,4.079048156738281,40.73106187185486,40.06497348713206,162.7400524751308,145.88216364793738,9.70840483205393e-05,0.0931148082017898,0,0,0
13576,474614.4697320749,2010-10-28 01:14:31,4502.123683227428,2,42,0.550297200679779,4.0819621086120605,40.73565080538141,40.06497348713206,162.75877708277503,145.88216364793738,6.47544875391759e-05,0.0931148082017898,0,0,0
13577,474644.4850652357,2010-10-28 01:15:01,4532.139016398177,2,42,0.5501165986061096,4.084714412689209,40.74023733267187,40.06497348713206,162.77750494463174,145.88216364793738,9.71794142969884e-05,0.0931148082017898,0,0,0
13578,474674.4998371877,2010-10-28 01:15:31,4562.153788345183,2,42,0.5501165986061096,4.087628364562988,40.74481437546213,40.06497348713206,162.79620733274655,145.88216364793738,6.47544875391759e-05,0.0931148082017898,0,0,0
13579,474704.51539653714,2010-10-28 01:16:01,4592.169347719701,2,42,0.550297200679779,4.0903801918029785,40.7494112174385,40.06497348713206,162.81500412662103,145.88216364793738,6.47544875391759e-05,0.0931148082017898,0,0,0
13580,474734.5305971826,2010-10-28 01:16:31,4622.184548375181,2,42,0.5501165986061096,4.093456268310547,40.75399859173423,40.06497348713206,162.83377565474936,145.88216364793738,9.71794142969884e-05,0.0931148082017898,0,0,0
13581,474764.5457482745,2010-10-28 01:17:01,4652.199699457108,2,42,0.5499359965324402,4.096208095550537,40.75858597027498,40.06497348713206,162.8525607378799,145.88216364793738,3.23295607813634e-05,0.0931148082017898,0,0,0
13582,474794.5609509099,2010-10-28 01:17:31,4682.214902092523,2,42,0.550297200679779,4.099445819854736,40.76317342948991,40.06497348713206,162.87135980421533,145.88216364793738,9.70840483205393e-05,0.0931148082017898,0,0,0
13583,474824.57615899394,2010-10-28 01:18:01,4712.230110061229,2,42,0.5501165986061096,4.102198123931885,40.76776086156518,40.06497348713206,162.89017246278215,145.88216364793738,3.24249267578125e-05,0.0931148082017898,0,0,0
13584,474854.59135192016,2010-10-28 01:18:31,4742.245303072658,2,42,0.550297200679779,4.105435848236084,40.77234821868228,40.06497348713206,162.90899867945714,145.88216364793738,9.71794142969884e-05,0.0931148082017898,0,0,0
13585,474884.6065697735,2010-10-28 01:19:01,4772.260520956075,2,42,0.550297200679779,4.108673572540283,40.77693561411126,40.06497348713206,162.92783908357126,145.88216364793738,9.71794142969884e-05,0.0931148082017898,0,0,0
13586,474914.6221082258,2010-10-28 01:19:31,4802.2760593884,2,42,0.550297200679779,4.111749172210693,40.781523043942194,40.06497348713206,162.9466937731606,145.88216364793738,9.70840483205393e-05,0.0931148082017898,0,0,0
13587,474944.6411757588,2010-10-28 01:20:01,4832.295126941377,2,42,0.550297200679779,4.114824771881104,40.786111016580925,40.06497348713206,162.9655649808052,145.88216364793738,9.70840483205393e-05,0.0931148082017898,0,0,0
13588,474974.65217870224,2010-10-28 01:20:31,4862.306129884867,2,42,0.550297200679779,4.117900848388672,40.79069773796798,40.06497348713206,162.98444541477548,145.88216364793738,6.47544875391759e-05,0.0931148082017898,0,0,0
13589,475004.6673654581,2010-10-28 01:21:01,4892.32131661063,2,42,0.5499359965324402,4.120976448059082,40.79528516691981,40.06497348713206,163.00334330781612,145.88216364793738,3.23295607813634e-05,0.0931148082017898,0,0,0
13590,475034.682585948,2010-10-28 01:21:31,4922.336537110568,2,42,0.5501165986061096,4.124214172363281,40.7998725460368,40.06497348713206,163.02225565166,145.88216364793738,6.47544875391759e-05,0.0931148082017898,0,0,0
13591,475064.6979371537,2010-10-28 01:22:01,4952.351888316265,2,42,0.550297200679779,4.1274518966674805,40.804459941127405,40.06497348713206,163.041182750755,145.88216364793738,6.47544875391759e-05,0.0931148082017898,0,0,0
13592,475094.71294932446,2010-10-28 01:22:31,4982.366900507033,2,42,0.550297200679779,4.13068962097168,40.80904727772802,40.06497348713206,163.06012436197756,145.88216364793738,9.70840483205393e-05,0.0931148082017898,0,0,0
13593,475124.7279159165,2010-10-28 01:23:01,5012.381867074092,2,42,0.5501165986061096,4.133927345275879,40.81362514945171,40.06497348713206,163.07904191342294,145.88216364793738,6.47544875391759e-05,0.0931148082017898,0,0,0
13594,475154.7434087001,2010-10-28 01:23:31,5042.397359882708,2,42,0.5501165986061096,4.137327194213867,40.81822196481534,40.06497348713206,163.09805278676953,145.88216364793738,9.71794142969884e-05,0.0931148082017898,0,0,0
13595,475184.7588618148,2010-10-28 01:24:01,5072.412812997393,2,42,0.5501165986061096,4.140564918518066,40.82280939177485,40.06497348713206,163.11703999128494,145.88216364793738,9.71794142969884e-05,0.0931148082017898,0,0,0
13596,475214.77350638935,2010-10-28 01:24:31,5102.427457546886,2,42,0.5501165986061096,4.1439642906188965,40.8273943840187,40.06497348713206,163.13603228467085,145.88216364793738,9.70840483205393e-05,0.0931148082017898,0,0,0
13597,475244.7735362696,2010-10-28 01:25:01,5132.427487432139,2,42,0.550297200679779,4.147525787353516,40.83198171095513,40.06497348713206,163.15504999048937,145.88216364793738,0.0001295089750783,0.0931148082017898,0,0,0
13598,475274.7886150212,2010-10-28 01:25:31,5162.442566213871,2,42,0.550297200679779,4.150925636291504,40.83656906732971,40.06497348713206,163.17408341685004,145.88216364793738,9.71794142969884e-05,0.0931148082017898,0,0,0
13599,475304.803835456,2010-10-28 01:26:01,5192.457786648648,2,42,0.550297200679779,4.154163360595703,40.84115641945535,40.06497348713206,163.19313240565788,145.88216364793738,9.71794142969884e-05,0.0931148082017898,0,0,0
13600,475334.8190022973,2010-10-28 01:26:31,5222.472953479826,2,42,0.5501165986061096,4.157401084899902,40.84574371834765,40.06497348713206,163.21219680014724,145.88216364793738,3.24249267578125e-05,0.0931148082017898,0,0,0
13601,475364.8342519899,2010-10-28 01:27:01,5252.488203167511,2,42,0.550297200679779,4.161124229431152,40.85033111365909,40.06497348713206,163.23127733528068,145.88216364793738,9.70840483205393e-05,0.0931148082017898,0,0,0
13602,475394.8494366004,2010-10-28 01:27:31,5282.503387783013,2,42,0.5501165986061096,4.164524078369141,40.85491844222314,40.06497348713206,163.25037351004974,145.88216364793738,9.71794142969884e-05,0.0931148082017898,0,0,0
13603,475424.8647109044,2010-10-28 01:28:01,5312.518662082035,2,42,0.550297200679779,4.16808557510376,40.85950568178568,40.06497348713206,163.26948535885754,145.88216364793738,9.71794142969884e-05,0.0931148082017898,0,0,0
13604,475454.87983074354,2010-10-28 01:28:31,5342.533781936133,2,42,0.5501165986061096,4.17148494720459,40.864092957035226,40.06497348713206,163.28861352669176,145.88216364793738,9.70840483205393e-05,0.0931148082017898,0,0,0
13605,475484.8948501773,2010-10-28 01:29:01,5372.54880134489,2,42,0.550297200679779,4.175208568572998,40.86867797375558,40.06497348713206,163.307748543096,145.88216364793738,0.0001295089750783,0.0931148082017898,0,0,0
13606,475514.9106120616,2010-10-28 01:29:31,5402.564563229125,2,42,0.550297200679779,4.178770065307617,40.87326771581196,40.06497348713206,163.32691968150473,145.88216364793738,0.0001295089750783,0.0931148082017898,0,0,0
13607,475544.9254095623,2010-10-28 01:30:01,5432.579360744856,2,42,0.5501165986061096,4.182331562042236,40.87785500534167,40.06497348713206,163.3460971310611,145.88216364793738,9.71794142969884e-05,0.0931148082017898,0,0,0
13608,475574.9259863104,2010-10-28 01:30:31,5462.579937457972,2,42,0.5501165986061096,4.185893058776856,40.88244017447102,40.06497348713206,163.36528216057022,145.88216364793738,0.0001295089750783,0.0931148082017898,0,0,0
13609,475604.9398678081,2010-10-28 01:31:01,5492.593818669992,2,42,0.5501165986061096,4.1896162033081055,40.88702732031524,40.06497348713206,163.38449217679087,145.88216364793738,9.70840483205393e-05,0.0931148082017898,0,0,0
13610,475634.9554209371,2010-10-28 01:31:31,5522.609372119744,2,42,0.550297200679779,4.193339824676514,40.891614695866586,40.06497348713206,163.4037199159548,145.88216364793738,0.0001295089750783,0.0931148082017898,0,0,0
13611,475664.9706056579,2010-10-28 01:32:01,5552.624556725223,2,42,0.5501165986061096,4.196900844573975,40.89620203147928,40.06497348713206,163.422964373915,145.88216364793738,6.47544875391759e-05,0.0931148082017898,0,0,0
13612,475688.5011909918,2010-10-28 01:32:25,5576.155141823468,2,42,0.550297200679779,4.200138568878174,40.89979830869348,40.06497348713206,163.43806318520544,145.88216364793738,0.0001295089750783,0.0931148082017898,0,0,0
13613,475718.5311821448,2010-10-28 01:32:55,30.015784009377217,3,42,0.0,4.116119861602783,40.89979830869348,40.06497348713206,163.43806318520544,145.88216364793738,-0.0003237724304199,0.0931148082017898,0,0,0
13614,475748.5444152967,2010-10-28 01:33:25,60.02901714118264,3,42,0.0,4.105597496032715,40.89979830869348,40.06497348713206,163.43806318520544,145.88216364793738,-0.0002266883820993,0.0931148082017898,0,0,0
13615,475778.55956517067,2010-10-28 01:33:55,90.04416704517412,3,42,0.0,4.099445819854736,40.89979830869348,40.06497348713206,163.43806318520544,145.88216364793738,-0.0001295089750783,0.0931148082017898,0,0,0
13616,475808.5291158523,2010-10-28 01:34:25,120.01371772687313,3,42,0.0,4.095398902893066,40.89979830869348,40.06497348713206,163.43806318520544,145.88216364793738,-9.70840483205393e-05,0.0931148082017898,0,0,0
13617,475808.543464878,2010-10-28 01:34:25,2.711758537e-06,4,42,0.9904420375823976,4.199814796447754,40.89979830943955,40.06497348713206,163.4380631883388,145.88216364793738,0.0,0.0931148082017898,0,0,0
13618,475809.46535555314,2010-10-28 01:34:26,0.921893492242204,4,42,0.9395102262496948,4.199653148651123,40.90004386118072,40.06497348713206,163.43909443021423,145.88216364793738,-3.23295607813634e-05,0.0931148082017898,0,0,0
13619,475811.62183340447,2010-10-28 01:34:28,3.078371383679324,4,42,0.8891202211380005,4.199814796447754,40.90059031603203,40.06497348713206,163.44138937338786,145.88216364793738,0.0,0.0931148082017898,0,0,0
13620,475814.8090102298,2010-10-28 01:34:31,6.26554818894784,4,42,0.8389108777046204,4.199653148651123,40.90135403614765,40.06497348713206,163.44459677704378,145.88216364793738,6.47544875391759e-05,0.0931148082017898,0,0,0
13621,475819.2620865411,2010-10-28 01:34:36,10.718624500293036,4,42,0.7883402705192566,4.199491024017334,40.9023593820776,40.06497348713206,163.44881894606527,145.88216364793738,-6.47544875391759e-05,0.0931148082017898,0,0,0
13622,475825.0901196579,2010-10-28 01:34:42,16.546657617060983,4,42,0.7381308674812317,4.199653148651123,40.903593710890185,40.06497348713206,163.45400279373348,145.88216364793738,3.24249267578125e-05,0.0931148082017898,0,0,0
13623,475832.6994216498,2010-10-28 01:34:49,24.155959608948457,4,42,0.6879214644432068,4.199814796447754,40.90509883408122,40.06497348713206,163.46032392008297,145.88216364793738,3.23295607813634e-05,0.0931148082017898,0,0,0
13624,475842.8398568344,2010-10-28 01:34:59,34.29639481862488,4,42,0.6378927230834961,4.199653148651123,40.90696281858197,40.06497348713206,163.46815215882503,145.88216364793738,0.0,0.0931148082017898,0,0,0
13625,475857.1214338688,2010-10-28 01:35:14,48.57797181282581,4,42,0.5876833200454712,4.199653148651123,40.90938842870539,40.06497348713206,163.4783390970666,145.88216364793738,-3.23295607813634e-05,0.0931148082017898,0,0,0
13626,475879.19876263005,2010-10-28 01:35:36,70.65530058414818,4,42,0.5376545786857605,4.199653148651123,40.91282808385903,40.06497348713206,163.492784738126,145.88216364793738,0.0,0.0931148082017898,0,0,0
13627,475917.1825372938,2010-10-28 01:36:14,108.63907520782568,4,42,0.4876258075237274,4.199653148651123,40.91821278238292,40.06497348713206,163.51539905211553,145.88216364793738,-3.23295607813634e-05,0.0931148082017898,0,0,0
13628,475984.8067003706,2010-10-28 01:37:21,176.26323819943553,4,42,0.4375970363616943,4.199653148651123,40.9268652141993,40.06497348713206,163.55173699847265,145.88216364793738,-3.23295607813634e-05,0.0931148082017898,0,0,0
13629,476084.7740209878,2010-10-28 01:39:01,276.23055892686386,4,42,0.3875682651996612,4.199814796447754,40.93829822884413,40.06497348713206,163.5997526411044,145.88216364793738,-3.24249267578125e-05,0.0931148082017898,0,0,0
13630,476208.1629737589,2010-10-28 01:41:05,399.61951171303866,4,42,0.3375394940376282,4.199653148651123,40.9507097149166,40.06497348713206,163.65187767894727,145.88216364793738,0.0,0.0931148082017898,0,0,0
13631,476355.23898425634,2010-10-28 01:43:32,546.6955222253926,4,42,0.2873301208019256,4.199814796447754,40.96345922196749,40.06497348713206,163.7054222645664,145.88216364793738,0.0,0.0931148082017898,0,0,0
13632,476531.486498176,2010-10-28 01:46:28,722.9430361350596,4,42,0.2373013496398925,4.199653148651123,40.97627827932764,40.06497348713206,163.7592589520137,145.88216364793738,-3.23295607813634e-05,0.0931148082017898,0,0,0
13633,476751.38976361096,2010-10-28 01:50:08,942.846301580092,4,42,0.1872725784778595,4.199653148651123,40.989197163376346,40.06497348713206,163.81351486792826,145.88216364793738,0.0,0.0931148082017898,0,0,0
13634,477046.822975693,2010-10-28 01:55:03,1238.2795136521022,4,42,0.1372438073158264,4.199653148651123,41.00242670670709,40.06497348713206,163.86907546765204,145.88216364793738,0.0,0.0931148082017898,0,0,0
13635,477516.5039052116,2010-10-28 02:02:53,1707.9604431706716,4,42,0.0872150361537933,4.199653148651123,41.01681423069697,40.06497348713206,163.92949931040187,145.88216364793738,0.0,0.0931148082017898,0,0,0
13636,478155.9637064782,2010-10-28 02:13:33,2347.42024443729,4,42,0.0498289167881011,4.199653148651123,41.02867502193588,40.06497348713206,163.97931149484438,145.88216364793738,-3.23295607813634e-05,0.0931148082017898,0,0,0
13637,478185.98047582887,2010-10-28 02:14:03,30.01518481600296,5,42,0.0,4.192044734954834,41.02867502193588,40.06497348713206,163.97931149484438,145.88216364793738,-3.23295607813634e-05,0.0931148082017898,0,0,0
13638,478215.97969856753,2010-10-28 02:14:33,60.01440713354823,5,42,0.0,4.190749645233154,41.02867502193588,40.06497348713206,163.97931149484438,145.88216364793738,-6.47544875391759e-05,0.0931148082017898,0,0,0
13639,478216.1543719941,2010-10-28 02:14:33,0.187540799376909,6,42,-1.9243103452026844e-05,4.190911293029785,41.02867502193588,40.06497348813453,163.97931149484438,145.88216365213862,0.0,0.0960931628942489,0,0,0
13640,478220.9671122887,2010-10-28 02:14:38,5.000281419846386,6,42,0.0007031940040178,4.190749645233154,41.028676089640925,40.064973488301376,163.9793159694713,145.88216365283785,-3.23295607813634e-05,0.0960931628942489,0,0,0
13641,478250.9845720478,2010-10-28 02:15:08,30.014958557096147,7,42,-1.099568486213684,4.016722202301025,41.028676089640925,40.07413186246741,163.9793159694713,145.91914529829629,-0.0009713172912597,0.0960931628942489,0,0,0
13642,478281.0001796576,2010-10-28 02:15:38,60.03056617184368,7,42,-1.099568486213684,3.990496873855591,41.028676089640925,40.08330929258347,163.9793159694713,145.95587942185944,-0.0006151676061563,0.0960931628942489,0,0,0
13643,478311.0197816374,2010-10-28 02:16:08,90.05016816681574,7,42,-1.0993878841400146,3.972203731536865,41.028676089640925,40.09247845945833,163.9793159694713,145.99238000482387,-0.0004532813909463,0.0960931628942489,0,0,0
13644,478341.0300325366,2010-10-28 02:16:38,120.06041905595484,7,42,-1.099568486213684,3.9577958583831783,41.028676089640925,40.101625802928766,163.9793159694713,146.0286461098523,-0.0003561496851034,0.0960931628942489,0,0,0
13645,478371.0302092428,2010-10-28 02:17:08,150.06059573205528,7,42,-1.099568486213684,3.9454925060272217,41.028676089640925,40.1108077773132,163.9793159694713,146.06492830448468,-0.0003237724304199,0.0960931628942489,0,0,0
13646,478401.0452065866,2010-10-28 02:17:38,180.07559312093218,7,42,-1.0997490882873535,3.9343223571777344,41.028676089640925,40.11997545777791,163.9793159694713,146.10104812936945,-0.0003237724304199,0.0960931628942489,0,0,0
13647,478431.060122743,2010-10-28 02:18:08,210.09050925229036,7,42,-1.0997490882873535,3.924285411834717,41.028676089640925,40.129138435776674,163.9793159694713,146.13705307929942,-0.0002913951757363,0.0960931628942489,0,0,0
13648,478461.0756279174,2010-10-28 02:18:38,240.1060144217126,7,42,-1.0993878841400146,3.914896011352539,41.028676089640925,40.13831089472328,163.9793159694713,146.17300502187535,-0.0002590179501567,0.0960931628942489,0,0,0
13649,478491.0909351485,2010-10-28 02:19:08,270.12132167787405,7,42,-1.099568486213684,3.905506849288941,41.028676089640925,40.1474786195553,163.9793159694713,146.2088528281027,-0.0002913951757363,0.0960931628942489,0,0,0
13650,478521.1060573585,2010-10-28 02:19:38,300.136443902881,7,42,-1.099568486213684,3.896926879882813,41.028676089640925,40.15664628658014,163.9793159694713,146.2446185432811,-0.0002590179501567,0.0960931628942489,0,0,0
13651,478551.1212623047,2010-10-28 02:20:08,330.15164886409207,7,42,-1.0993878841400146,3.8885087966918954,41.028676089640925,40.1658139839434,163.9793159694713,146.28030545160263,-0.0002266406954731,0.0960931628942489,0,0,0
13652,478581.13667792594,2010-10-28 02:20:38,360.16706446027024,7,42,-1.099568486213684,3.879928827285767,41.028676089640925,40.17498167459745,163.9793159694713,146.3159148267194,-0.0002590179501567,0.0960931628942489,0,0,0
13653,478611.1517022319,2010-10-28 02:21:08,390.1820887762578,7,42,-1.099568486213684,3.8716726303100586,41.028676089640925,40.18414930868269,163.9793159694713,146.35144750271533,-0.0002590179501567,0.0960931628942489,0,0,0
13654,478641.1668745718,2010-10-28 02:21:38,420.1972611061415,7,42,-1.0993878841400146,3.8637402057647705,41.028676089640925,40.193316971985325,163.9793159694713,146.38690568207048,-0.0002266406954731,0.0960931628942489,0,0,0
13655,478671.1820565857,2010-10-28 02:22:08,450.212443120161,7,42,-1.0997490882873535,3.855645895004273,41.028676089640925,40.202484678468245,163.9793159694713,146.4222908707885,-0.0002590179501567,0.0960931628942489,0,0,0
13656,478701.1974599214,2010-10-28 02:22:38,480.22784643573215,7,42,-1.0997490882873535,3.8478753566741934,41.028676089640925,40.21165252621276,163.9793159694713,146.45760470974088,-0.0002266406954731,0.0960931628942489,0,0,0
13657,478731.21262910846,2010-10-28 02:23:08,510.2430156077455,7,42,-1.099568486213684,3.840428590774536,41.028676089640925,40.220820340179245,163.9793159694713,146.4928477236033,-0.0001942634553415,0.0960931628942489,0,0,0
13658,478761.2276525372,2010-10-28 02:23:38,540.2580390716092,7,42,-1.099568486213684,3.832658290863037,41.028676089640925,40.22998801417075,163.9793159694713,146.52802082521666,-0.0002589702489785,0.0960931628942489,0,0,0
13659,478791.2428776588,2010-10-28 02:24:08,570.2732641930659,7,42,-1.0997490882873535,3.825373411178589,41.028676089640925,40.239155782658365,163.9793159694713,146.5631260972757,-0.0002266406954731,0.0960931628942489,0,0,0
13660,478821.25787146366,2010-10-28 02:24:38,600.2882576721984,7,42,-1.099568486213684,3.818250417709351,41.028676089640925,40.24832350989897,163.9793159694713,146.5981640745719,-0.0002266406954731,0.0960931628942489,0,0,0
13661,478851.27329317,2010-10-28 02:25:08,630.3036796743421,7,42,-1.0993878841400146,3.811289310455322,41.028676089640925,40.257491344658845,163.9793159694713,146.63313696215312,-0.0001618862152099,0.0960931628942489,0,0,0
13662,478881.2886479647,2010-10-28 02:25:38,660.3190345090842,7,42,-1.0997490882873535,3.804166316986084,41.028676089640925,40.26665910181578,163.9793159694713,146.66804490919742,-0.0002266406954731,0.0960931628942489,0,0,0
13663,478911.30384368286,2010-10-28 02:26:08,690.3342302272588,7,42,-1.099568486213684,3.7973670959472656,41.028676089640925,40.2758268365232,163.9793159694713,146.7028890728699,-0.0001942634553415,0.0960931628942489,0,0,0
13664,478941.3189140688,2010-10-28 02:26:38,720.3493006030415,7,42,-1.0997490882873535,3.7905678749084473,41.028676089640925,40.28499461531639,163.9793159694713,146.73767095934804,-0.0001942634553415,0.0960931628942489,0,0,0
13665,478971.3341023332,2010-10-28 02:27:08,750.3644888826768,7,42,-1.0997490882873535,3.784092426300049,41.028676089640925,40.294162325167065,163.9793159694713,146.77239144740756,-0.0001618862152099,0.0960931628942489,0,0,0
13666,479001.3493198808,2010-10-28 02:27:38,780.3797064152195,7,42,-1.099568486213684,3.7776169776916495,41.028676089640925,40.30333011604833,163.9793159694713,146.8070521596059,-0.0001618862152099,0.0960931628942489,0,0,0
13667,479031.3646523699,2010-10-28 02:28:08,810.3950388491317,7,42,-1.0993878841400146,3.771303415298462,41.028676089640925,40.31249791989912,163.9793159694713,146.84165462018868,-0.0001295089750783,0.0960931628942489,0,0,0
13668,479061.379720455,2010-10-28 02:28:38,840.4101069342053,7,42,-1.099568486213684,3.7651517391204834,41.028676089640925,40.32166543571456,163.9793159694713,146.87619894090227,-0.0001942634553415,0.0960931628942489,0,0,0
13669,479091.3948844941,2010-10-28 02:29:08,870.4252710035012,7,42,-1.099568486213684,3.759000062942505,41.028676089640925,40.3308330036064,163.9793159694713,146.91068738749914,-0.0001618862152099,0.0960931628942489,0,0,0
13670,479121.4102385269,2010-10-28 02:29:38,900.4406250412567,7,42,-1.099568486213684,3.753010272979736,41.028676089640925,40.34000068434018,163.9793159694713,146.94512105327826,-0.0001618862152099,0.0960931628942489,0,0,0
13671,479151.4253215794,2010-10-28 02:30:08,930.4557080936336,7,42,-1.0997490882873535,3.747182607650757,41.028676089640925,40.34916834128156,163.9793159694713,146.9795000417231,-0.0001618862152099,0.0960931628942489,0,0,0
13672,479181.44053693645,2010-10-28 02:30:38,960.470923470804,7,42,-1.099568486213684,3.7413547039031982,41.028676089640925,40.3583361382568,163.9793159694713,147.01382648271706,-0.0001942634553415,0.0960931628942489,0,0,0
13673,479211.45571863465,2010-10-28 02:31:08,990.4861051690368,7,42,-1.099568486213684,3.7356886863708496,41.028676089640925,40.36750394438671,163.9793159694713,147.04810066148025,-0.0001942634553415,0.0960931628942489,0,0,0
13674,479241.4709227688,2010-10-28 02:31:38,1020.5013092731114,7,42,-1.0997490882873535,3.730184555053711,41.028676089640925,40.37667175533067,163.9793159694713,147.08232311574238,-0.0001618862152099,0.0960931628942489,0,0,0
13675,479271.4863566506,2010-10-28 02:32:08,1050.5167431799252,7,42,-1.099568486213684,3.724680423736572,41.028676089640925,40.38583962299735,163.9793159694713,147.11649540266006,-0.0001618862152099,0.0960931628942489,0,0,0
13676,479301.4898254968,2010-10-28 02:32:38,1080.520212041164,7,42,-1.0997490882873535,3.7191762924194336,41.028676089640925,40.395003738572086,163.9793159694713,147.15060431367985,-0.0001942634553415,0.0960931628942489,0,0,0
13677,479331.5011947532,2010-10-28 02:33:08,1110.5315812875936,7,42,-1.099568486213684,3.713995933532715,41.028676089640925,40.4041703601318,163.9793159694713,147.18467377689686,-0.0001618862152099,0.0960931628942489,0,0,0
13678,479361.51622705406,2010-10-28 02:33:38,1140.5466135834697,7,42,-1.0997490882873535,3.708653688430786,41.028676089640925,40.41333803171095,163.9793159694713,147.21869906012364,-0.0001942634553415,0.0960931628942489,0,0,0
13679,479391.53148593975,2010-10-28 02:34:08,1170.561872439002,7,42,-1.0997490882873535,3.703635215759277,41.028676089640925,40.4225058084262,163.9793159694713,147.25267732165983,-0.0001618862152099,0.0960931628942489,0,0,0
13680,479421.54655805486,2010-10-28 02:34:38,1200.576944559132,7,42,-1.099568486213684,3.698616743087769,41.028676089640925,40.43167358795879,163.9793159694713,147.2866085113438,-0.0001295089750783,0.0960931628942489,0,0,0
13681,479451.56175993336,2010-10-28 02:35:09,1230.59214647776,7,42,-1.099568486213684,3.69359827041626,41.028676089640925,40.440841362445,163.9793159694713,147.32049375707322,-0.0001618862152099,0.0960931628942489,0,0,0
13682,479481.57699042826,2010-10-28 02:35:39,1260.6073769726088,7,42,-1.0997490882873535,3.688741683959961,41.028676089640925,40.45000924275066,163.9793159694713,147.35433389866677,-0.0001295089750783,0.0960931628942489,0,0,0
13683,479511.5921886827,2010-10-28 02:36:09,1290.6225752170797,7,42,-1.099568486213684,3.684046983718872,41.028676089640925,40.45917698572656,163.9793159694713,147.38812895418042,-0.0001295089750783,0.0960931628942489,0,0,0
13684,479541.60738600994,2010-10-28 02:36:39,1320.6377725141892,7,42,-1.0997490882873535,3.679190397262573,41.028676089640925,40.46834479657188,163.9793159694713,147.4218804306493,-9.713172767078504e-05,0.0960931628942489,0,0,0
13685,479571.6225930864,2010-10-28 02:37:09,1350.652979590672,7,42,-1.0997490882873535,3.6743338108062735,41.028676089640925,40.4775125229595,163.9793159694713,147.45558828054837,-0.0001618862152099,0.0960931628942489,0,0,0
13686,479601.6380550331,2010-10-28 02:37:39,1380.6684415624325,7,42,-1.099568486213684,3.669801235198975,41.028676089640925,40.48668039171492,163.9793159694713,147.48925374514204,-0.0001295089750783,0.0960931628942489,0,0,0
13687,479631.6526522696,2010-10-28 02:38:09,1410.6830383929948,7,42,-1.099568486213684,3.6651065349578857,41.028676089640925,40.49584795206059,163.9793159694713,147.52287595346567,-0.0001942634553415,0.0960931628942489,0,0,0
13688,479661.6683637182,2010-10-28 02:38:39,1440.698750217465,7,42,-1.0993878841400146,3.660735607147217,41.028676089640925,40.50501589119568,163.9793159694713,147.55645795493882,-0.0001295089750783,0.0960931628942489,0,0,0
13689,479691.683440921,2010-10-28 02:39:09,1470.7138274703875,7,42,-1.0997490882873535,3.656202793121338,41.028676089640925,40.51418369652363,163.9793159694713,147.58999817295026,-0.0001295089750783,0.0960931628942489,0,0,0
13690,479721.698809515,2010-10-28 02:39:39,1500.7291960142973,7,42,-1.099568486213684,3.651831865310669,41.028676089640925,40.52335155226617,163.9793159694713,147.62349831718214,-9.713172767078504e-05,0.0960931628942489,0,0,0
13691,479751.7135477631,2010-10-28 02:40:09,1530.743933941516,7,42,-1.099568486213684,3.64778470993042,41.028676089640925,40.53251922143393,163.9793159694713,147.6569579919899,-0.0001295089750783,0.0960931628942489,0,0,0
13692,479781.7289963013,2010-10-28 02:40:39,1560.7593828356828,7,42,-1.0993878841400146,3.643575668334961,41.028676089640925,40.54168696642069,163.9793159694713,147.69037859449256,-6.47544875391759e-05,0.0960931628942489,0,0,0
13693,479811.7442194829,2010-10-28 02:41:09,1590.774606017305,7,42,-1.099568486213684,3.639204740524292,41.028676089640925,40.55085465281606,163.9793159694713,147.72376071434817,-0.0001295089750783,0.0960931628942489,0,0,0
13694,479841.7591325115,2010-10-28 02:41:39,1620.7895190208674,7,42,-1.0993878841400146,3.635319471359253,41.028676089640925,40.56001289986883,163.9793159694713,147.75707073271053,-6.47544875391759e-05,0.0960931628942489,0,0,0
13695,479871.7746136912,2010-10-28 02:42:09,1650.805000225562,7,42,-1.0997490882873535,3.631110429763794,41.028676089640925,40.569190139935245,163.9793159694713,147.79041295124455,-0.0001618862152099,0.0960931628942489,0,0,0
13696,479901.7898147076,2010-10-28 02:42:39,1680.8202012118666,7,42,-1.099568486213684,3.627225160598755,41.028676089640925,40.57835785215292,163.9793159694713,147.82368443504615,-0.0001295089750783,0.0960931628942489,0,0,0
13697,479931.8050864101,2010-10-28 02:43:09,1710.8354729094049,7,42,-1.099568486213684,3.623501777648926,41.028676089640925,40.58752559742349,163.9793159694713,147.85692072691978,-9.713172767078504e-05,0.0960931628942489,0,0,0
13698,479961.82038081926,2010-10-28 02:43:39,1740.8507673486226,7,42,-1.099568486213684,3.6197783946990967,41.028676089640925,40.59669336468796,163.9793159694713,147.890122670803,-9.713172767078504e-05,0.0960931628942489,0,0,0
13699,479991.8359058632,2010-10-28 02:44:09,1770.8662923925783,7,42,-1.099568486213684,3.6162168979644775,41.028676089640925,40.6058613036378,163.9793159694713,147.92329137792356,-6.47544875391759e-05,0.0960931628942489,0,0,0
13700,480021.8506944918,2010-10-28 02:44:39,1800.881081026173,7,42,-1.099568486213684,3.612493515014648,41.028676089640925,40.61502894890756,163.9793159694713,147.95642605645764,-9.713172767078504e-05,0.0960931628942489,0,0,0
13701,480051.8660604542,2010-10-28 02:45:09,1830.8964469685989,7,42,-1.099568486213684,3.608932018280029,41.028676089640925,40.62419680299407,163.9793159694713,147.98952944900518,-9.713172767078504e-05,0.0960931628942489,0,0,0
13702,480081.8807005728,2010-10-28 02:45:39,1860.9110870820352,7,42,-1.0993878841400146,3.60569429397583,41.028676089640925,40.633345595770216,163.9793159694713,148.02253268166282,-9.713172767078504e-05,0.0960931628942489,0,0,0
13703,480111.89642107394,2010-10-28 02:46:09,1890.9268075881428,7,42,-1.0997490882873535,3.602294683456421,41.028676089640925,40.642532347678994,163.9793159694713,148.05564211930113,-9.713172767078504e-05,0.0960931628942489,0,0,0
13704,480141.9117067061,2010-10-28 02:46:39,1920.9420932354485,7,42,-1.099568486213684,3.599218845367432,41.028676089640925,40.65170013343536,163.9793159694713,148.0886532147425,-9.713172767078504e-05,0.0960931628942489,0,0,0
13705,480171.9267480696,2010-10-28 02:47:09,1950.957134603936,7,42,-1.0997490882873535,3.5959811210632324,41.028676089640925,40.660867900629015,163.9793159694713,148.1216351255681,-6.47544875391759e-05,0.0960931628942489,0,0,0
13706,480201.9415493196,2010-10-28 02:47:39,1980.9719355281625,7,42,-1.0997490882873535,3.592743396759033,41.028676089640925,40.67003554670454,163.9793159694713,148.15458798319025,-0.0001295089750783,0.0960931628942489,0,0,0
13707,480231.9572028187,2010-10-28 02:48:09,2010.98758933303,7,42,-1.099568486213684,3.589829683303833,41.028676089640925,40.67920351374331,163.9793159694713,148.18751391589976,-9.713172767078504e-05,0.0960931628942489,0,0,0
13708,480261.9724277799,2010-10-28 02:48:39,2041.002814314137,7,42,-1.0997490882873535,3.586753845214844,41.028676089640925,40.68837129795985,163.9793159694713,148.2204114929213,-9.713172767078504e-05,0.0960931628942489,0,0,0
13709,480291.9920099804,2010-10-28 02:49:09,2071.0223965248,7,42,-1.099568486213684,3.5838398933410645,41.028676089640925,40.6975404193944,163.9793159694713,148.25328636617368,-6.47544875391759e-05,0.0960931628942489,0,0,0
13710,480322.0024682564,2010-10-28 02:49:39,2101.032854464974,7,42,-1.0997490882873535,3.580925941467285,41.028676089640925,40.70670671225722,163.9793159694713,148.28612436705183,-9.713172767078504e-05,0.0960931628942489,0,0,0
13711,480352.01794986206,2010-10-28 02:50:09,2131.0483363764306,7,42,-1.0993878841400146,3.578173875808716,41.028676089640925,40.71587463359317,163.9793159694713,148.31894104769316,-3.237724376958795e-05,0.0960931628942489,0,0,0
13712,480382.0331220367,2010-10-28 02:50:39,2161.063508570977,7,42,-1.099568486213684,3.5750980377197266,41.028676089640925,40.72504247639271,163.9793159694713,148.35173042842038,-9.713172767078504e-05,0.0960931628942489,0,0,0
13713,480412.0480025041,2010-10-28 02:51:09,2191.0783886925874,7,42,-1.099568486213684,3.5720221996307373,41.028676089640925,40.7342102233993,163.9793159694713,148.3844924963454,-0.0001295089750783,0.0960931628942489,0,0,0
13714,480442.0631978463,2010-10-28 02:51:39,2221.093584034825,7,42,-1.0993878841400146,3.569270133972168,41.028676089640925,40.74337801619472,163.9793159694713,148.4172278537655,-6.47544875391759e-05,0.0960931628942489,0,0,0
13715,480472.078913756,2010-10-28 02:52:09,2251.109300270289,7,42,-1.0993878841400146,3.5661942958831787,41.028676089640925,40.75254593831664,163.9793159694713,148.44993644400884,-9.713172767078504e-05,0.0960931628942489,0,0,0
13716,480502.0939345532,2010-10-28 02:52:39,2281.124321087557,7,42,-1.0997490882873535,3.5632803440093994,41.028676089640925,40.76171361536985,163.9793159694713,148.48261662917434,-6.47544875391759e-05,0.0960931628942489,0,0,0
13717,480532.1089535359,2010-10-28 02:53:09,2311.13933974444,7,42,-1.0997490882873535,3.56020450592041,41.028676089640925,40.77088132445616,163.9793159694713,148.51527013645656,-9.713172767078504e-05,0.0960931628942489,0,0,0
13718,480562.1242389527,2010-10-28 02:53:39,2341.1546251611708,7,42,-1.099568486213684,3.557128667831421,41.028676089640925,40.78004917471115,163.9793159694713,148.54789616003,-0.0001295089750783,0.0960931628942489,0,0,0
13719,480592.1396839621,2010-10-28 02:54:09,2371.170070566643,7,42,-1.099568486213684,3.554052829742432,41.028676089640925,40.78921702479367,163.9793159694713,148.5804936819971,-6.47544875391759e-05,0.0960931628942489,0,0,0
13720,480622.15477099945,2010-10-28 02:54:39,2401.185157543802,7,42,-1.099568486213684,3.5508151054382324,41.028676089640925,40.79838482093634,163.9793159694713,148.6130620763549,-9.713172767078504e-05,0.0960931628942489,0,0,0
13721,480652.1696761584,2010-10-28 02:55:09,2431.2000623719887,7,42,-1.099568486213684,3.547577381134033,41.028676089640925,40.80755306304474,163.9793159694713,148.64560240514405,-9.713172767078504e-05,0.0960931628942489,0,0,0
13722,480682.18518490175,2010-10-28 02:55:39,2461.215571416068,7,42,-1.0997490882873535,3.544177770614624,41.028676089640925,40.81672177975987,163.9793159694713,148.67811426121122,-0.0001295089750783,0.0960931628942489,0,0,0
13723,480712.20035277045,2010-10-28 02:56:09,2491.230739189596,7,42,-1.0997490882873535,3.540778160095215,41.028676089640925,40.82589039232385,163.9793159694713,148.71059487129216,-0.0001295089750783,0.0960931628942489,0,0,0
13724,480742.215687846,2010-10-28 02:56:39,2521.246074365341,7,42,-1.099929690361023,3.537216663360596,41.028676089640925,40.83505904905199,163.9793159694713,148.7430439479819,-0.0001295089750783,0.0960931628942489,0,0,0
13725,480772.2304979181,2010-10-28 02:57:09,2551.26088410153,7,42,-1.099568486213684,3.5338170528411865,41.028676089640925,40.844227005355485,163.9793159694713,148.77545794867163,-9.713172767078504e-05,0.0960931628942489,0,0,0
13726,480802.2461545048,2010-10-28 02:57:39,2581.276541004118,7,42,-1.099568486213684,3.5299317836761475,41.028676089640925,40.853394917661554,163.9793159694713,148.80783796712603,-0.0001618862152099,0.0960931628942489,0,0,0
13727,480832.26156893815,2010-10-28 02:58:09,2611.2919554975474,7,42,-1.099568486213684,3.5260465145111084,41.028676089640925,40.8625628415532,163.9793159694713,148.84018251360854,-0.0001295089750783,0.0960931628942489,0,0,0
13728,480862.2761191976,2010-10-28 02:58:39,2641.3065053961413,7,42,-1.099568486213684,3.5218374729156494,41.028676089640925,40.8717304873004,163.9793159694713,148.87248894786782,-9.713172767078504e-05,0.0960931628942489,0,0,0
13729,480892.2916829731,2010-10-28 02:59:09,2671.3220695074647,7,42,-1.0993878841400146,3.5176284313201904,41.028676089640925,40.88089843181751,163.9793159694713,148.90475792314493,-0.0001295089750783,0.0960931628942489,0,0,0
13730,480922.3068535035,2010-10-28 02:59:39,2701.3372400077888,7,42,-1.099568486213684,3.5130956172943115,41.028676089640925,40.89006628833654,163.9793159694713,148.93698577978154,-0.0001295089750783,0.0960931628942489,0,0,0
13731,480952.3223347684,2010-10-28 03:00:09,2731.352721292684,7,42,-1.0997490882873535,3.508077383041382,41.028676089640925,40.89923415319899,163.9793159694713,148.9691703629756,-0.0001618862152099,0.0960931628942489,0,0,0
13732,480982.3370336834,2010-10-28 03:00:39,2761.3674198718345,7,42,-1.099568486213684,3.502897024154663,41.028676089640925,40.90840185360644,163.9793159694713,149.00130766600932,-0.0001295089750783,0.0960931628942489,0,0,0
13733,481012.3524868431,2010-10-28 03:01:09,2791.38287334742,7,42,-1.099568486213684,3.4970691204071045,41.028676089640925,40.91756976080248,163.9793159694713,149.03339447308457,-0.0001618862152099,0.0960931628942489,0,0,0
13734,481042.3676771879,2010-10-28 03:01:39,2821.398063722277,7,42,-1.099568486213684,3.490431785583496,41.028676089640925,40.92673756670372,163.9793159694713,149.06542452653824,-0.0002266406954731,0.0960931628942489,0,0,0
13735,481072.3825713345,2010-10-28 03:02:09,2851.4129578487923,7,42,-1.099568486213684,3.483146905899048,41.028676089640925,40.93589590899735,163.9793159694713,149.09735837681265,-0.0002266406954731,0.0960931628942489,0,0,0
13736,481102.39812720026,2010-10-28 03:02:39,2881.428513704541,7,42,-1.099568486213684,3.47456693649292,41.028676089640925,40.94507313280854,163.9793159694713,149.12928527076082,-0.0002913951757363,0.0960931628942489,0,0,0
13737,481132.4133534445,2010-10-28 03:03:09,2911.443739988896,7,42,-1.099568486213684,3.4646918773651123,41.028676089640925,40.954240926825946,163.9793159694713,149.16109569083915,-0.0003561496851034,0.0960931628942489,0,0,0
13738,481162.4286680741,2010-10-28 03:03:39,2941.4590546184336,7,42,-1.099568486213684,3.453197956085205,41.028676089640925,40.96340871162972,163.9793159694713,149.19280861800263,-0.0003561496851034,0.0960931628942489,0,0,0
13739,481192.45916681713,2010-10-28 03:04:09,2971.489553336392,7,42,-1.0997490882873535,3.4391138553619385,41.028676089640925,40.9725716927326,163.9793159694713,149.22438865398465,-0.0004532813909463,0.0960931628942489,0,0,0
13740,481222.46075879055,2010-10-28 03:04:39,3001.4911449990745,7,42,-1.099568486213684,3.421792268753052,41.028676089640925,40.98174484995862,163.9793159694713,149.25586080034543,-0.0005827903514727,0.0960931628942489,0,0,0
13741,481252.46274460055,2010-10-28 03:05:09,3031.4931311449304,7,42,-1.0997490882873535,3.399290084838867,41.028676089640925,40.990908618760685,163.9793159694713,149.28712005138627,-0.0007446765666827,0.0960931628942489,0,0,0
13742,481282.47411694966,2010-10-28 03:05:39,3061.504503484068,7,42,-1.0997490882873535,3.3693411350250244,41.028676089640925,41.0000752864075,163.9793159694713,149.31815189489976,-0.0010036944877356,0.0960931628942489,0,0,0
13743,481312.488659104,2010-10-28 03:06:09,3091.519045312548,7,42,-1.099568486213684,3.327898502349853,41.028676089640925,41.00924288878421,163.9793159694713,149.34886259553053,-0.0014893531333655,0.0960931628942489,0,0,0
13744,481342.5041196322,2010-10-28 03:06:39,3121.534506136448,7,42,-1.0993878841400146,3.2692959308624268,41.028676089640925,41.01841075353052,163.9793159694713,149.3791199354892,-0.0020720958709716,0.0960931628942489,0,0,0
13745,481372.5193589189,2010-10-28 03:07:09,3151.549745463308,7,42,-1.0997490882873535,3.1843059062957764,41.028676089640925,41.02757859350447,163.9793159694713,149.40872809584116,-0.0027843951247632,0.0960931628942489,0,0,0
13746,481402.534562226,2010-10-28 03:07:40,3181.5649487703968,7,42,-1.099568486213684,3.0504262447357178,41.028676089640925,41.03674642033537,163.9793159694713,149.43736025931776,-0.0047270776703953,0.0960931628942489,0,0,0
13747,481425.1123942855,2010-10-28 03:08:02,3204.14278079984,7,42,-1.0993878841400146,2.850335597991944,41.028676089640925,41.04364264763788,163.9793159694713,149.45779856160897,-0.0100368978455662,0.0960931628942489,0,0,0
13748,481435.4873018224,2010-10-28 03:08:12,3214.517688421913,7,42,-1.099568486213684,2.699943780899048,41.028676089640925,41.04681154506555,163.9793159694713,149.4665994307483,-0.012918472290039,0.0960931628942489,0,0,0
13749,481495.4872860103,2010-10-28 03:09:13,60.01517371410284,8,42,0.0,3.3121955394744877,41.028676089640925,41.04681154506555,163.9793159694713,149.4665994307483,0.0013598442310467,0.0960931628942489,0,0,0
13750,481495.6604025644,2010-10-28 03:09:13,0.187413827924982,9,42,-1.9243103452026844e-05,3.3123574256896973,41.028676089640925,41.04681154606734,163.9793159694713,149.46659943406658,0.0,0.0914954170584678,0,0,0
13751,481500.4884673374,2010-10-28 03:09:18,5.015478630972578,9,42,0.0007031940040178,3.3206136226654053,41.02867716571532,41.04681154623433,163.97931953891194,149.46659943461972,0.0011979580158367,0.0914954170584678,0,0,0
