Data_Point,Test_Time(s),Date_Time,Step_Time(s),Step_Index,Cycle_Index,Current(A),Voltage(V),Charge_Capacity(Ah),Discharge_Capacity(Ah),Charge_Energy(Wh),Discharge_Energy(Wh),dV/dt(V/s),Internal_Resistance(Ohm),Is_FC_Data,AC_Impedance(Ohm),ACI_Phase_Angle(Deg)
13095,458521.43486578536,2010-10-27 20:46:16,30.01516093147537,1,41,0.0,3.3777592182159424,39.070731365502745,39.08451434274035,156.15768192929735,142.30479045585233,0.0007770538213662,0.0923885703086853,0,0,0
13096,458551.44970503007,2010-10-27 20:46:46,60.02999984538388,1,41,0.0,3.4023659229278564,39.070731365502745,39.08451434274035,156.15768192929735,142.30479045585233,0.0006151676061563,0.0923885703086853,0,0,0
13097,458581.4652190968,2010-10-27 20:47:16,90.04551423278016,1,41,0.0,3.420982837677002,39.070731365502745,39.08451434274035,156.15768192929735,142.30479045585233,0.0004856586456298,0.0923885703086853,0,0,0
13098,458611.4335140988,2010-10-27 20:47:46,120.01380920486444,1,41,0.0,3.4358761310577397,39.070731365502745,39.08451434274035,156.15768192929735,142.30479045585233,0.0003885269106831,0.0923885703086853,0,0,0
13099,458641.43574329896,2010-10-27 20:48:16,30.015132270042265,2,41,0.5501165986061096,3.592743396759033,39.07531866355046,39.08451434274035,156.1739973631867,142.30479045585233,0.0017159462440758,0.0923885703086853,0,0,0
13100,458671.45096391416,2010-10-27 20:48:46,60.03035288025541,2,41,0.550297200679779,3.641956806182861,39.07990600726927,39.08451434274035,156.19059847692515,142.30479045585233,0.0011655807029455,0.0923885703086853,0,0,0
13101,458701.4663426885,2010-10-27 20:49:16,90.04573163962489,2,41,0.550297200679779,3.677409648895264,39.08449331781603,39.08451434274035,156.20738994214497,142.30479045585233,0.0008741855854168,0.0923885703086853,0,0,0
13102,458731.4812804088,2010-10-27 20:49:46,120.06066947507634,2,41,0.550297200679779,3.705254077911377,39.089080568487695,39.08451434274035,156.22432461421675,142.30479045585233,0.0007446765666827,0.0923885703086853,0,0,0
13103,458761.4964543076,2010-10-27 20:50:16,150.07584315833307,2,41,0.5501165986061096,3.727594375610352,39.09366779234546,39.08451434274035,156.24137408373457,142.30479045585233,0.0005504131549969,0.0923885703086853,0,0,0
13104,458791.5118642346,2010-10-27 20:50:46,180.09125318563187,2,41,0.5501165986061096,3.746211290359497,39.09825502041789,39.08451434274035,156.25851786301297,142.30479045585233,0.0004209041653666,0.0923885703086853,0,0,0
13105,458821.5268329219,2010-10-27 20:51:16,210.1062217777384,2,41,0.5501165986061096,3.7607808113098153,39.10284228020701,39.08451434274035,156.27573814217865,142.30479045585233,0.0003237724304199,0.0923885703086853,0,0,0
13106,458851.542016966,2010-10-27 20:51:46,240.1214059371048,2,41,0.550297200679779,3.769846439361572,39.10742953180124,39.08451434274035,156.2930125323802,142.30479045585233,0.0001618862152099,0.0923885703086853,0,0,0
13107,458881.55720378703,2010-10-27 20:52:16,270.1365927581048,2,41,0.5499359965324402,3.775512456893921,39.11201673662963,39.08451434274035,156.31031943427828,142.30479045585233,0.0001618862152099,0.0923885703086853,0,0,0
13108,458911.5723923723,2010-10-27 20:52:46,300.1517813435023,2,41,0.5501165986061096,3.77955961227417,39.11660389987392,39.08451434274035,156.3276478639976,142.30479045585233,9.713172767078504e-05,0.0923885703086853,0,0,0
13109,458941.5916323902,2010-10-27 20:53:16,330.1710213713409,2,41,0.550297200679779,3.783444881439209,39.12119176843938,39.08451434274035,156.34499719021017,142.30479045585233,9.713172767078504e-05,0.0923885703086853,0,0,0
13110,458971.6023680676,2010-10-27 20:53:46,360.1817567128844,2,41,0.5501165986061096,3.787330150604248,39.12577831906698,39.08451434274035,156.3623588514097,142.30479045585233,0.0001295089750783,0.0923885703086853,0,0,0
13111,459001.6024005343,2010-10-27 20:54:16,390.1817893850828,2,41,0.5499359965324402,3.790729761123657,39.13036276699047,39.08451434274035,156.37972937314444,142.30479045585233,9.713172767078504e-05,0.0923885703086853,0,0,0
13112,459031.61745463446,2010-10-27 20:54:46,420.1968436156266,2,41,0.5501165986061096,3.794291257858277,39.13494923010128,39.08451434274035,156.3971239462393,142.30479045585233,9.713172767078504e-05,0.0923885703086853,0,0,0
13113,459061.6326533652,2010-10-27 20:55:16,450.2120423362843,2,41,0.5501165986061096,3.797852754592896,39.1395357892009,39.08451434274035,156.41453504280182,142.30479045585233,9.713172767078504e-05,0.0923885703086853,0,0,0
13114,459091.647848116,2010-10-27 20:55:46,480.2272370569728,2,41,0.5501165986061096,3.8012523651123047,39.14412230675428,39.08451434274035,156.43196176245658,142.30479045585233,6.47544875391759e-05,0.0923885703086853,0,0,0
13115,459121.6631641589,2010-10-27 20:56:17,510.2425530148216,2,41,0.5499359965324402,3.804490089416504,39.148708761180224,39.08451434274035,156.44940357040232,142.30479045585233,6.47544875391759e-05,0.0923885703086853,0,0,0
13116,459151.6781524452,2010-10-27 20:56:47,540.2575413862241,2,41,0.5501165986061096,3.807889699935913,39.15329521936452,39.08451434274035,156.46686054950464,142.30479045585233,9.713172767078504e-05,0.0923885703086853,0,0,0
13117,459181.6933530356,2010-10-27 20:57:17,570.2727419765416,2,41,0.550297200679779,3.811127424240112,39.15788212470018,39.08451434274035,156.48433426757887,142.30479045585233,9.713172767078504e-05,0.0923885703086853,0,0,0
13118,459211.7085476159,2010-10-27 20:57:47,600.2879365869552,2,41,0.550297200679779,3.814365148544312,39.16246941072219,39.08451434274035,156.50182439831423,142.30479045585233,6.47544875391759e-05,0.0923885703086853,0,0,0
13119,459241.7237225422,2010-10-27 20:58:17,630.3031115133101,2,41,0.550297200679779,3.817602872848511,39.16705667399842,39.08451434274035,156.51932924022103,142.30479045585233,9.713172767078504e-05,0.0923885703086853,0,0,0
13120,459271.7389240347,2010-10-27 20:58:47,660.3183130058761,2,41,0.550297200679779,3.8206787109375,39.17164393673481,39.08451434274035,156.53684870153526,142.30479045585233,6.47544875391759e-05,0.0923885703086853,0,0,0
13121,459301.7540709464,2010-10-27 20:59:17,690.3334598873346,2,41,0.550297200679779,3.823916435241699,39.17623124010228,39.08451434274035,156.55438296324115,142.30479045585233,6.47544875391759e-05,0.0923885703086853,0,0,0
13122,459331.7692811406,2010-10-27 20:59:47,720.348670111663,2,41,0.5501165986061096,3.827316045761109,39.18081859992751,39.08451434274035,156.57193237445355,142.30479045585233,0.0001295089750783,0.0923885703086853,0,0,0
13123,459361.7844323879,2010-10-27 21:00:17,750.3638213590024,2,41,0.550297200679779,3.830553770065308,39.185405957571895,39.08451434274035,156.5894969182123,142.30479045585233,9.713172767078504e-05,0.0923885703086853,0,0,0
13124,459391.7996177302,2010-10-27 21:00:47,780.3790067013172,2,41,0.5504778623580933,3.8339531421661377,39.1899932870819,39.08451434274035,156.6070768394764,142.30479045585233,9.713172767078504e-05,0.0923885703086853,0,0,0
13125,459421.81480766897,2010-10-27 21:01:17,810.3941966400877,2,41,0.5501165986061096,3.837352752685547,39.19458053399811,39.08451434274035,156.62467226612543,142.30479045585233,6.47544875391759e-05,0.0923885703086853,0,0,0
13126,459451.83006146696,2010-10-27 21:01:47,840.4094504480397,2,41,0.5501165986061096,3.840914249420166,39.19916781932321,39.08451434274035,156.64228381613268,142.30479045585233,9.713172767078504e-05,0.0923885703086853,0,0,0
13127,459481.84519441874,2010-10-27 21:02:17,870.424583389756,2,41,0.550297200679779,3.844475746154785,39.20375510296507,39.08451434274035,156.6599113500748,142.30479045585233,9.713172767078504e-05,0.0923885703086853,0,0,0
13128,459511.8603436409,2010-10-27 21:02:47,900.4397326220734,2,41,0.5501165986061096,3.8478753566741934,39.20834236807516,39.08451434274035,156.67755466543275,142.30479045585233,9.713172767078504e-05,0.0923885703086853,0,0,0
13129,459541.8751864696,2010-10-27 21:03:17,930.4545754156512,2,41,0.550297200679779,3.851274967193604,39.212927366679295,39.08451434274035,156.69520491347458,142.30479045585233,9.713172767078504e-05,0.0923885703086853,0,0,0
13130,459571.89077285153,2010-10-27 21:03:47,960.47016181753,2,41,0.5499359965324402,3.8546745777130127,39.2175170776192,39.08451434274035,156.71288864894518,142.30479045585233,9.713172767078504e-05,0.0923885703086853,0,0,0
13131,459601.9059443092,2010-10-27 21:04:17,990.4853332952896,2,41,0.5501165986061096,3.857750415802002,39.222104398012505,39.08451434274035,156.73057834626243,142.30479045585233,6.47544875391759e-05,0.0923885703086853,0,0,0
13132,459631.92075461673,2010-10-27 21:04:47,1020.5001432620531,2,41,0.550297200679779,3.860988140106201,39.22669166598647,39.08451434274035,156.74828261811373,142.30479045585233,9.713172767078504e-05,0.0923885703086853,0,0,0
13133,459661.9362614303,2010-10-27 21:05:17,1050.5156504013853,2,41,0.5501165986061096,3.8642258644104,39.23127906345789,39.08451434274035,156.7660018864767,142.30479045585233,9.713172767078504e-05,0.0923885703086853,0,0,0
13134,459691.9514797548,2010-10-27 21:05:47,1080.5308686958265,2,41,0.550297200679779,3.8673017024993896,39.23586640011089,39.08451434274035,156.78373502008307,142.30479045585233,0.0001295089750783,0.0923885703086853,0,0,0
13135,459721.9666400196,2010-10-27 21:06:17,1110.5460289907153,2,41,0.5501165986061096,3.870053768157959,39.240453707576826,39.08451434274035,156.8014817452226,142.30479045585233,9.713172767078504e-05,0.0923885703086853,0,0,0
13136,459751.9818154071,2010-10-27 21:06:47,1140.5612042829823,2,41,0.5501165986061096,3.8729677200317374,39.24504098801543,39.08451434274035,156.8192414862314,142.30479045585233,9.713172767078504e-05,0.0923885703086853,0,0,0
13137,459781.9969940177,2010-10-27 21:07:17,1170.5763829887564,2,41,0.550297200679779,3.8755578994750977,39.24962831744993,39.08451434274035,156.83701388492696,142.30479045585233,9.713172767078504e-05,0.0923885703086853,0,0,0
13138,459812.012349123,2010-10-27 21:07:47,1200.5917381041982,2,41,0.5501165986061096,3.877986192703247,39.25421567332155,39.08451434274035,156.8547983985779,142.30479045585233,6.47544875391759e-05,0.0923885703086853,0,0,0
13139,459842.0274086669,2010-10-27 21:08:17,1230.6067976479842,2,41,0.550297200679779,3.8805763721466064,39.25880300345753,39.08451434274035,156.87259412960924,142.30479045585233,6.47544875391759e-05,0.0923885703086853,0,0,0
13140,459872.04254018,2010-10-27 21:08:47,1260.6219291260527,2,41,0.5501165986061096,3.882842779159546,39.263390396972255,39.08451434274035,156.89040082276972,142.30479045585233,9.713172767078504e-05,0.0923885703086853,0,0,0
13141,459902.0577981583,2010-10-27 21:09:17,1290.6371871444985,2,41,0.550297200679779,3.8847854137420654,39.2679777511223,39.08451434274035,156.90821739659586,142.30479045585233,3.237724376958795e-05,0.0923885703086853,0,0,0
13142,459932.077497145,2010-10-27 21:09:47,1320.6568861261917,2,41,0.550297200679779,3.887051820755005,39.2725658636185,39.08451434274035,156.92604631829462,142.30479045585233,6.47544875391759e-05,0.0923885703086853,0,0,0
13143,459962.0881040415,2010-10-27 21:10:17,1350.6674930125853,2,41,0.5501165986061096,3.888670682907105,39.27715253527276,39.08451434274035,156.9438783897744,142.30479045585233,6.47544875391759e-05,0.0923885703086853,0,0,0
13144,459992.10328548914,2010-10-27 21:10:47,1380.6826744702182,2,41,0.5501165986061096,3.890451431274414,39.28173992934299,39.08451434274035,156.96172152678847,142.30479045585233,0.0,0.0923885703086853,0,0,0
13145,460022.118463859,2010-10-27 21:11:17,1410.6978528301304,2,41,0.550297200679779,3.8920702934265137,39.28632735256192,39.08451434274035,156.97957247610552,142.30479045585233,3.237724376958795e-05,0.0923885703086853,0,0,0
13146,460052.133871756,2010-10-27 21:11:47,1440.7132607321323,2,41,0.550297200679779,3.8935272693634033,39.29091476629086,39.08451434274035,156.9974306106763,142.30479045585233,3.237724376958795e-05,0.0923885703086853,0,0,0
13147,460082.14884941565,2010-10-27 21:12:17,1470.7282383818133,2,41,0.5501165986061096,3.894984245300293,39.29550210837029,39.08451434274035,157.01529531102008,142.30479045585233,3.237724376958795e-05,0.0923885703086853,0,0,0
13148,460112.1640595799,2010-10-27 21:12:47,1500.743448561029,2,41,0.550297200679779,3.896441221237183,39.30008946754788,39.08451434274035,157.03316624375665,142.30479045585233,3.237724376958795e-05,0.0923885703086853,0,0,0
13149,460142.1791821658,2010-10-27 21:13:17,1530.7585711369104,2,41,0.5501165986061096,3.897898197174072,39.30467676075473,39.08451434274035,157.05104344095218,142.30479045585233,6.47544875391759e-05,0.0923885703086853,0,0,0
13150,460172.19438284135,2010-10-27 21:13:47,1560.77377181244,2,41,0.5501165986061096,3.899193286895752,39.30926401441814,39.08451434274035,157.0689267678381,142.30479045585233,3.237724376958795e-05,0.0923885703086853,0,0,0
13151,460202.20992091775,2010-10-27 21:14:17,1590.7893098838645,2,41,0.550297200679779,3.900488376617432,39.31385142077601,39.08451434274035,157.0868168438102,142.30479045585233,6.47544875391759e-05,0.0923885703086853,0,0,0
13152,460232.2247408544,2010-10-27 21:14:47,1620.8041297352634,2,41,0.5501165986061096,3.9017834663391113,39.318438711182125,39.08451434274035,157.10471259433734,142.30479045585233,3.237724376958795e-05,0.0923885703086853,0,0,0
13153,460262.2399216204,2010-10-27 21:15:17,1650.819310501172,2,41,0.550297200679779,3.903402328491211,39.32302609221709,39.08451434274035,157.12261479197335,142.30479045585233,0.0001295089750783,0.0923885703086853,0,0,0
13154,460292.2551233635,2010-10-27 21:15:47,1680.8345123345878,2,41,0.550297200679779,3.9045355319976807,39.32761346327793,39.08451434274035,157.14052306839295,142.30479045585233,6.47544875391759e-05,0.0923885703086853,0,0,0
13155,460322.2703406905,2010-10-27 21:16:17,1710.8497296465807,2,41,0.550297200679779,3.90583062171936,39.33220090412701,39.08451434274035,157.15843760158538,142.30479045585233,3.237724376958795e-05,0.0923885703086853,0,0,0
13156,460352.2854748202,2010-10-27 21:16:47,1740.8648637912954,2,41,0.5501165986061096,3.90696382522583,39.33678826918571,39.08451434274035,157.17635793714865,142.30479045585233,3.237724376958795e-05,0.0923885703086853,0,0,0
13157,460382.3006586688,2010-10-27 21:17:17,1770.880047649912,2,41,0.5501165986061096,3.90842080116272,39.34137563364732,39.08451434274035,157.19428430600726,142.30479045585233,3.237724376958795e-05,0.0923885703086853,0,0,0
13158,460412.315882066,2010-10-27 21:17:47,1800.895271037046,2,41,0.550297200679779,3.9097158908844,39.3459630679683,39.08451434274035,157.21221713500591,142.30479045585233,3.237724376958795e-05,0.0923885703086853,0,0,0
13159,460442.33102672186,2010-10-27 21:18:17,1830.9104156929577,2,41,0.550297200679779,3.911172866821289,39.35055041979472,39.08451434274035,157.23015573061022,142.30479045585233,3.237724376958795e-05,0.0923885703086853,0,0,0
13160,460472.3462548558,2010-10-27 21:18:47,1860.92564382191,2,41,0.550297200679779,3.9124679565429688,39.35513782400502,39.08451434274035,157.24810077525774,142.30479045585233,3.237724376958795e-05,0.0923885703086853,0,0,0
13161,460502.3617735138,2010-10-27 21:19:17,1890.9411624799504,2,41,0.5501165986061096,3.913762807846069,39.35972529986558,39.08451434274035,157.2660522917949,142.30479045585233,0.0,0.0923885703086853,0,0,0
13162,460532.3767755443,2010-10-27 21:19:47,1920.9561645103952,2,41,0.550297200679779,3.915381669998169,39.36431263653128,39.08451434274035,157.28400952574887,142.30479045585233,6.47544875391759e-05,0.0923885703086853,0,0,0
13163,460562.3917611939,2010-10-27 21:20:17,1950.971150175052,2,41,0.5501165986061096,3.916514873504639,39.368900057644765,39.08451434274035,157.30197318241682,142.30479045585233,3.237724376958795e-05,0.0923885703086853,0,0,0
13164,460592.4069943854,2010-10-27 21:20:47,1980.986383351584,2,41,0.5501165986061096,3.917971849441528,39.373487415620936,39.08451434274035,157.31994300321824,142.30479045585233,6.47544875391759e-05,0.0923885703086853,0,0,0
13165,460622.4222506044,2010-10-27 21:21:17,2011.00163956052,2,41,0.5501165986061096,3.919266939163208,39.37807480617486,39.08451434274035,157.33791930767322,142.30479045585233,6.47544875391759e-05,0.0923885703086853,0,0,0
13166,460652.43747208186,2010-10-27 21:21:47,2041.0168609677191,2,41,0.550297200679779,3.9207239151000977,39.38266221292805,39.08451434274035,157.35590216074067,142.30479045585233,3.237724376958795e-05,0.0923885703086853,0,0,0
13167,460682.4524935006,2010-10-27 21:22:17,2071.0318824716987,2,41,0.550297200679779,3.9221808910369873,39.3872495577808,39.08451434274035,157.37389118722356,142.30479045585233,3.237724376958795e-05,0.0923885703086853,0,0,0
13168,460712.46772414586,2010-10-27 21:22:47,2101.0471129966227,2,41,0.5501165986061096,3.923314094543457,39.391836916228975,39.08451434274035,157.39188679895557,142.30479045585233,0.0,0.0923885703086853,0,0,0
13169,460742.48303253984,2010-10-27 21:23:17,2131.062421505907,2,41,0.5501165986061096,3.925094842910767,39.39642432727566,39.08451434274035,157.40988915702707,142.30479045585233,6.47544875391759e-05,0.0923885703086853,0,0,0
13170,460772.4980909308,2010-10-27 21:23:47,2161.077479901832,2,41,0.550297200679779,3.926551818847656,39.401011739233525,39.08451434274035,157.42789808954151,142.30479045585233,6.47544875391759e-05,0.0923885703086853,0,0,0
13171,460802.5133403026,2010-10-27 21:24:17,2191.092729248666,2,41,0.5501165986061096,3.927846908569336,39.4055990622518,39.08451434274035,157.44591331876876,142.30479045585233,6.47544875391759e-05,0.0923885703086853,0,0,0
13172,460832.5284333048,2010-10-27 21:24:47,2221.107822275903,2,41,0.550297200679779,3.929465770721436,39.410186401957645,39.08451434274035,157.46393528777102,142.30479045585233,9.713172767078504e-05,0.0923885703086853,0,0,0
13173,460862.54361344414,2010-10-27 21:25:17,2251.123002325025,2,41,0.5499359965324402,3.9307608604431152,39.41477374635132,39.08451434274035,157.4819640859215,142.30479045585233,0.0,0.0923885703086853,0,0,0
13174,460892.5628692764,2010-10-27 21:25:47,2281.1422582575037,2,41,0.550297200679779,3.932379722595215,39.41936172351086,39.08451434274035,157.50000209470934,142.30479045585233,3.237724376958795e-05,0.0923885703086853,0,0,0
13175,460922.5740456622,2010-10-27 21:26:17,2311.153434643265,2,41,0.550297200679779,3.933836698532105,39.423948478260726,39.08451434274035,157.51804216297603,142.30479045585233,3.237724376958795e-05,0.0923885703086853,0,0,0
13176,460952.5891992804,2010-10-27 21:26:47,2341.1685882514885,2,41,0.550297200679779,3.935455560684204,39.4285358204571,39.08451434274035,157.53609147400482,142.30479045585233,6.47544875391759e-05,0.0923885703086853,0,0,0
13177,460982.6044057604,2010-10-27 21:27:17,2371.1837947415097,2,41,0.550297200679779,3.936750650405884,39.43312319947768,39.08451434274035,157.55414775510334,142.30479045585233,3.237724376958795e-05,0.0923885703086853,0,0,0
13178,461012.6195665114,2010-10-27 21:27:47,2401.1989554825104,2,41,0.5501165986061096,3.938531398773194,39.43771058712193,39.08451434274035,157.57221108337927,142.30479045585233,9.713172767078504e-05,0.0923885703086853,0,0,0
13179,461042.6347554828,2010-10-27 21:28:18,2431.2141444237946,2,41,0.550297200679779,3.939988374710083,39.44229795026198,39.08451434274035,157.590281354598,142.30479045585233,6.47544875391759e-05,0.0923885703086853,0,0,0
13180,461072.6499744739,2010-10-27 21:28:48,2461.2293634400357,2,41,0.5499359965324402,3.9414453506469727,39.44688533114272,39.08451434274035,157.6083588046259,142.30479045585233,3.237724376958795e-05,0.0923885703086853,0,0,0
13181,461102.6651085736,2010-10-27 21:29:18,2491.2444975446497,2,41,0.550297200679779,3.943226099014282,39.45147266646065,39.08451434274035,157.6264431163689,142.30479045585233,6.47544875391759e-05,0.0923885703086853,0,0,0
13182,461132.6803674291,2010-10-27 21:29:48,2521.259756410207,2,41,0.5501165986061096,3.944683074951172,39.45606008057318,39.08451434274035,157.64453497188185,142.30479045585233,6.47544875391759e-05,0.0923885703086853,0,0,0
13183,461162.6956155328,2010-10-27 21:30:18,2551.275004503917,2,41,0.550297200679779,3.9461400508880615,39.4606475120077,39.08451434274035,157.66263420525578,142.30479045585233,3.237724376958795e-05,0.0923885703086853,0,0,0
13184,461192.7106642847,2010-10-27 21:30:48,2581.2900532558065,2,41,0.5499359965324402,3.947597026824951,39.46523491470805,39.08451434274035,157.68074051113942,142.30479045585233,0.0,0.0923885703086853,0,0,0
13185,461222.7258881681,2010-10-27 21:31:18,2611.3052770539653,2,41,0.5501165986061096,3.949215888977051,39.469822318691286,39.08451434274035,157.6988542131807,142.30479045585233,0.0,0.0923885703086853,0,0,0
13186,461252.7410992897,2010-10-27 21:31:48,2641.320488270767,2,41,0.5501165986061096,3.9508347511291504,39.47440966279627,39.08451434274035,157.71697506367423,142.30479045585233,6.47544875391759e-05,0.0923885703086853,0,0,0
13187,461282.7562182967,2010-10-27 21:32:18,2671.335607172492,2,41,0.5504778623580933,3.95277738571167,39.47899707450527,39.08451434274035,157.7351036533521,142.30479045585233,6.47544875391759e-05,0.0923885703086853,0,0,0
13188,461312.77147644537,2010-10-27 21:32:48,2701.350865401462,2,41,0.5501165986061096,3.95423436164856,39.48358440369299,39.08451434274035,157.75323944860574,142.30479045585233,3.237724376958795e-05,0.0923885703086853,0,0,0
13189,461342.78659012914,2010-10-27 21:33:18,2731.365979100219,2,41,0.550297200679779,3.955853223800659,39.48817184571424,39.08451434274035,157.7713832950315,142.30479045585233,3.237724376958795e-05,0.0923885703086853,0,0,0
13190,461372.8018199574,2010-10-27 21:33:48,2761.381208928406,2,41,0.5501165986061096,3.957472085952759,39.49275926492155,39.08451434274035,157.7895346525579,142.30479045585233,0.0,0.0923885703086853,0,0,0
13191,461402.81703199615,2010-10-27 21:34:18,2791.396420962244,2,41,0.550297200679779,3.9594147205352783,39.49734669454483,39.08451434274035,157.80769376806245,142.30479045585233,6.47544875391759e-05,0.0923885703086853,0,0,0
13192,461432.83215292793,2010-10-27 21:34:48,2821.411541899041,2,41,0.5501165986061096,3.960871696472168,39.50193406768992,39.08451434274035,157.825860375842,142.30479045585233,3.237724376958795e-05,0.0923885703086853,0,0,0
13193,461462.84733416,2010-10-27 21:35:18,2851.426723106049,2,41,0.5501165986061096,3.962490558624268,39.50652144525652,39.08451434274035,157.8440348367062,142.30479045585233,0.0,0.0923885703086853,0,0,0
13194,461492.8483013112,2010-10-27 21:35:48,2881.427689956507,2,41,0.550297200679779,3.964433193206787,39.511106632398665,39.08451434274035,157.86220843802607,142.30479045585233,6.47544875391759e-05,0.0923885703086853,0,0,0
13195,461522.862175621,2010-10-27 21:36:18,2911.441564602162,2,41,0.550297200679779,3.9662139415740967,39.5156938500146,39.08451434274035,157.88039802729807,142.30479045585233,3.237724376958795e-05,0.0923885703086853,0,0,0
13196,461552.8773185627,2010-10-27 21:36:48,2941.4567075438017,2,41,0.550297200679779,3.967832803726196,39.520281332996255,39.08451434274035,157.89859668733394,142.30479045585233,3.237724376958795e-05,0.0923885703086853,0,0,0
13197,461582.8925289223,2010-10-27 21:37:18,2971.4719178884293,2,41,0.5501165986061096,3.969613552093506,39.52486872630208,39.08451434274035,157.91680301690138,142.30479045585233,3.237724376958795e-05,0.0923885703086853,0,0,0
13198,461612.9077937077,2010-10-27 21:37:48,3001.4871826887784,2,41,0.550297200679779,3.971394300460816,39.5294561480842,39.08451434274035,157.93501755119863,142.30479045585233,3.237724376958795e-05,0.0923885703086853,0,0,0
13199,461642.92289243406,2010-10-27 21:38:18,3031.502281380132,2,41,0.5504778623580933,3.973175048828125,39.53404360970818,39.08451434274035,157.95324039801883,142.30479045585233,3.237724376958795e-05,0.0923885703086853,0,0,0
13200,461672.9380325236,2010-10-27 21:38:48,3061.517421494725,2,41,0.5501165986061096,3.9749557971954346,39.538631028116974,39.08451434274035,157.9714713064173,142.30479045585233,3.237724376958795e-05,0.0923885703086853,0,0,0
13201,461702.95322707394,2010-10-27 21:39:18,3091.532616044989,2,41,0.5501165986061096,3.976736545562744,39.54321843147449,39.08451434274035,157.98971047090575,142.30479045585233,3.237724376958795e-05,0.0923885703086853,0,0,0
13202,461732.96851068106,2010-10-27 21:39:48,3121.5478996522106,2,41,0.5501165986061096,3.978679180145264,39.547805880853886,39.08451434274035,158.0079577721794,142.30479045585233,3.237724376958795e-05,0.0923885703086853,0,0,0
13203,461762.98360897147,2010-10-27 21:40:18,3151.5629979525893,2,41,0.5501165986061096,3.9802980422973633,39.55239322825199,39.08451434274035,158.02621361289056,142.30479045585233,0.0,0.0923885703086853,0,0,0
13204,461792.9989480018,2010-10-27 21:40:48,3181.5783369779297,2,41,0.5501165986061096,3.9824025630950928,39.556980591810245,39.08451434274035,158.04447808909327,142.30479045585233,3.237724376958795e-05,0.0923885703086853,0,0,0
13205,461823.0136396938,2010-10-27 21:41:18,3211.593028354129,2,41,0.550297200679779,3.9841833114624015,39.56156784678014,39.08451434274035,158.06275074089072,142.30479045585233,3.237724376958795e-05,0.0923885703086853,0,0,0
13206,461853.02914346976,2010-10-27 21:41:48,3241.6085324408523,2,41,0.5501165986061096,3.986125946044922,39.566155242523706,39.08451434274035,158.08103273732934,142.30479045585233,6.47544875391759e-05,0.0923885703086853,0,0,0
13207,461883.04888372927,2010-10-27 21:42:18,3271.628272710448,2,41,0.5501165986061096,3.9880685806274414,39.57074328617976,39.08451434274035,158.09932614417232,142.30479045585233,0.0,0.0923885703086853,0,0,0
13208,461913.0592950032,2010-10-27 21:42:48,3301.638683643466,2,41,0.5499359965324402,3.989849328994751,39.575329890726536,39.08451434274035,158.1176226035145,142.30479045585233,0.0,0.0923885703086853,0,0,0
13209,461943.0747499976,2010-10-27 21:43:18,3331.6541389686604,2,41,0.550297200679779,3.992277622222901,39.5799172282896,39.08451434274035,158.13593102821957,142.30479045585233,6.47544875391759e-05,0.0923885703086853,0,0,0
13210,461973.08994881343,2010-10-27 21:43:48,3361.6693377795427,2,41,0.5501165986061096,3.994058132171631,39.58450466707454,39.08451434274035,158.15424900645797,142.30479045585233,6.470680091297254e-05,0.0923885703086853,0,0,0
13211,462003.0908409828,2010-10-27 21:44:18,3391.6702296230605,2,41,0.550297200679779,3.99616265296936,39.58908981382754,39.08451434274035,158.17256705405777,142.30479045585233,9.713172767078504e-05,0.0923885703086853,0,0,0
13212,462033.10467057617,2010-10-27 21:44:48,3421.6840594269565,2,41,0.5501165986061096,3.99810528755188,39.59367693844256,39.08451434274035,158.1909022919927,142.30479045585233,6.47544875391759e-05,0.0923885703086853,0,0,0
13213,462063.1198340992,2010-10-27 21:45:18,3451.699223040116,2,41,0.5501165986061096,4.000209808349609,39.598264267011245,39.08451434274035,158.2092475851906,142.30479045585233,6.47544875391759e-05,0.0923885703086853,0,0,0
13214,462093.1350619072,2010-10-27 21:45:48,3481.714450888368,2,41,0.550297200679779,4.002314567565918,39.60285159347348,39.08451434274035,158.2276024278126,142.30479045585233,6.47544875391759e-05,0.0923885703086853,0,0,0
13215,462123.1502128689,2010-10-27 21:46:18,3511.72960183997,2,41,0.5501165986061096,4.0042572021484375,39.607438886525024,39.08451434274035,158.24596672102902,142.30479045585233,3.24249267578125e-05,0.0923885703086853,0,0,0
13216,462153.16541478754,2010-10-27 21:46:48,3541.744803758598,2,41,0.5501165986061096,4.006523609161377,39.61202616141827,39.08451434274035,158.26434063014358,142.30479045585233,6.47544875391759e-05,0.0923885703086853,0,0,0
13217,462183.18080706056,2010-10-27 21:47:18,3571.7601959414237,2,41,0.5501165986061096,4.008627891540527,39.61661353013855,39.08451434274035,158.28272481868845,142.30479045585233,6.47544875391759e-05,0.0923885703086853,0,0,0
13218,462213.19577167765,2010-10-27 21:47:48,3601.7751606588727,2,41,0.550297200679779,4.010894298553467,39.62120075015499,39.08451434274035,158.3011182178126,142.30479045585233,6.47544875391759e-05,0.0923885703086853,0,0,0
13219,462243.21095696994,2010-10-27 21:48:18,3631.7903459410377,2,41,0.5504778623580933,4.012999057769775,39.625788038770544,39.08451434274035,158.3195219175218,142.30479045585233,6.47544875391759e-05,0.0923885703086853,0,0,0
13220,462273.2261895951,2010-10-27 21:48:48,3661.805578566196,2,41,0.5499359965324402,4.015103340148926,39.63037531349059,39.08451434274035,158.33793571299873,142.30479045585233,3.23295607813634e-05,0.0923885703086853,0,0,0
13221,462303.241354331,2010-10-27 21:49:18,3691.820743302153,2,41,0.550297200679779,4.017531871795654,39.63496261099257,39.08451434274035,158.35635988655767,142.30479045585233,6.47544875391759e-05,0.0923885703086853,0,0,0
13222,462333.2565930063,2010-10-27 21:49:48,3721.835981987416,2,41,0.550297200679779,4.019798278808594,39.63954995947259,39.08451434274035,158.37479460682,142.30479045585233,6.47544875391759e-05,0.0923885703086853,0,0,0
13223,462363.2717494917,2010-10-27 21:50:18,3751.851138377572,2,41,0.5501165986061096,4.022064685821533,39.64413719178062,39.08451434274035,158.39323942670262,142.30479045585233,0.0001295089750783,0.0923885703086853,0,0,0
13224,462393.2869124984,2010-10-27 21:50:48,3781.866301479457,2,41,0.550297200679779,4.024331092834473,39.6487244242733,39.08451434274035,158.41169486152873,142.30479045585233,3.24249267578125e-05,0.0923885703086853,0,0,0
13225,462423.30215171486,2010-10-27 21:51:18,3811.8815406860176,2,41,0.5501165986061096,4.026759147644043,39.65331174080262,39.08451434274035,158.43016125783407,142.30479045585233,6.47544875391759e-05,0.0923885703086853,0,0,0
13226,462453.3173125762,2010-10-27 21:51:48,3841.896701532281,2,41,0.5501165986061096,4.028863906860352,39.657899052180255,39.08451434274035,158.44863839177452,142.30479045585233,3.24249267578125e-05,0.0923885703086853,0,0,0
13227,462483.3327193053,2010-10-27 21:52:18,3871.912108306471,2,41,0.550297200679779,4.031454086303711,39.66248641444086,39.08451434274035,158.46712654052905,142.30479045585233,6.47544875391759e-05,0.0923885703086853,0,0,0
13228,462513.347382376,2010-10-27 21:52:48,3901.9267713219874,2,41,0.5499359965324402,4.033882141113281,39.66706894949925,39.08451434274035,158.48560623886394,142.30479045585233,6.47544875391759e-05,0.0923885703086853,0,0,0
13229,462543.3628421372,2010-10-27 21:53:18,3931.942231108301,2,41,0.5501165986061096,4.036310195922852,39.67166100618496,39.08451434274035,158.50413541386123,142.30479045585233,9.70840483205393e-05,0.0923885703086853,0,0,0
13230,462573.3780332589,2010-10-27 21:53:48,3961.9574222300193,2,41,0.5501165986061096,4.038576602935791,39.67624838607468,39.08451434274035,158.5226569206248,142.30479045585233,3.23295607813634e-05,0.0923885703086853,0,0,0
13231,462603.3928853607,2010-10-27 21:54:18,3991.972274005984,2,41,0.5501165986061096,4.04100513458252,39.68083565132712,39.08451434274035,158.54118910548226,142.30479045585233,3.24249267578125e-05,0.0923885703086853,0,0,0
13232,462633.4085380528,2010-10-27 21:54:48,4021.987926928653,2,41,0.5501165986061096,4.04375696182251,39.68542304343594,39.08451434274035,158.55973309623533,142.30479045585233,9.70840483205393e-05,0.0923885703086853,0,0,0
13233,462663.42405891634,2010-10-27 21:55:18,4052.0034478723896,2,41,0.5501165986061096,4.046185493469238,39.69001038537754,39.08451434274035,158.5782882344209,142.30479045585233,6.47544875391759e-05,0.0923885703086853,0,0,0
13234,462693.4388339962,2010-10-27 21:55:48,4082.0182229622287,2,41,0.5501165986061096,4.048613548278809,39.69459764879874,39.08451434274035,158.59685457420974,142.30479045585233,6.47544875391759e-05,0.0923885703086853,0,0,0
13235,462723.45447466825,2010-10-27 21:56:18,4112.033863539128,2,41,0.550297200679779,4.051203727722168,39.69918508364584,39.08451434274035,158.61543319901935,142.30479045585233,9.70840483205393e-05,0.0923885703086853,0,0,0
13236,462753.4693665391,2010-10-27 21:56:48,4142.048755525309,2,41,0.550297200679779,4.053793907165527,39.7037724291943,39.08451434274035,158.63402315359878,142.30479045585233,6.47544875391759e-05,0.0923885703086853,0,0,0
13237,462783.48440570215,2010-10-27 21:57:18,4172.063794658225,2,41,0.550297200679779,4.056222438812256,39.70835970842657,39.08451434274035,158.65262466828844,142.30479045585233,3.24249267578125e-05,0.0923885703086853,0,0,0
13238,462813.4995263583,2010-10-27 21:57:48,4202.07891532936,2,41,0.550297200679779,4.058812618255615,39.7129470273532,39.08451434274035,158.6712382346204,142.30479045585233,6.47544875391759e-05,0.0923885703086853,0,0,0
13239,462843.5001069511,2010-10-27 21:58:18,4232.079495902094,2,41,0.550297200679779,4.061402797698975,39.71753215021285,39.08451434274035,158.68985470465628,142.30479045585233,6.47544875391759e-05,0.0923885703086853,0,0,0
13240,462873.5143535388,2010-10-27 21:58:48,4262.093742504781,2,41,0.5501165986061096,4.064154624938965,39.72211928598796,39.08451434274035,158.70849136067469,142.30479045585233,6.47544875391759e-05,0.0923885703086853,0,0,0
13241,462903.5335411108,2010-10-27 21:59:18,4292.112930091921,2,41,0.550297200679779,4.066906929016113,39.72670721136549,39.08451434274035,158.72714353051902,142.30479045585233,9.71794142969884e-05,0.0923885703086853,0,0,0
13242,462933.544748564,2010-10-27 21:59:48,4322.124137535087,2,41,0.550297200679779,4.069658756256104,39.73129387309789,39.08451434274035,158.74580291819368,142.30479045585233,9.70840483205393e-05,0.0923885703086853,0,0,0
13243,462963.5598913703,2010-10-27 22:00:18,4352.139280341389,2,41,0.5501165986061096,4.072087287902832,39.73588115632819,39.08451434274035,158.7644773372437,142.30479045585233,3.24249267578125e-05,0.0923885703086853,0,0,0
13244,462993.5750643869,2010-10-27 22:00:48,4382.154453423147,2,41,0.550297200679779,4.075325012207031,39.74046842232563,39.08451434274035,158.78316431556945,142.30479045585233,0.0001619339018361,0.0923885703086853,0,0,0
13245,463023.5902399698,2010-10-27 22:01:18,4412.1696289409765,2,41,0.5501165986061096,4.077915191650391,39.74505574797376,39.08451434274035,158.8018643093938,142.30479045585233,6.47544875391759e-05,0.0923885703086853,0,0,0
13246,463053.6053551824,2010-10-27 22:01:49,4442.1847441535065,2,41,0.5501165986061096,4.08050537109375,39.74964311371309,39.08451434274035,158.8205772787695,142.30479045585233,6.47544875391759e-05,0.0923885703086853,0,0,0
13247,463083.6206534812,2010-10-27 22:02:19,4472.200042462368,2,41,0.5499359965324402,4.083419322967529,39.75423042888196,39.08451434274035,158.8393029587013,142.30479045585233,3.24249267578125e-05,0.0923885703086853,0,0,0
13248,463113.6354226564,2010-10-27 22:02:49,4502.214811301629,2,41,0.550297200679779,4.08649492263794,39.75881762569883,39.08451434274035,158.8580413405329,142.30479045585233,9.70840483205393e-05,0.0923885703086853,0,0,0
13249,463143.6355024058,2010-10-27 22:03:19,4532.214891386995,2,41,0.550297200679779,4.089085102081299,39.763402569175696,39.08451434274035,158.87678366284658,142.30479045585233,3.23295607813634e-05,0.0923885703086853,0,0,0
13250,463173.6506240043,2010-10-27 22:03:49,4562.230012975415,2,41,0.550297200679779,4.092322826385498,39.767989842452856,39.08451434274035,158.89554874599312,142.30479045585233,0.0001295089750783,0.0923885703086853,0,0,0
13251,463203.6657501992,2010-10-27 22:04:19,4592.245139170317,2,41,0.5501165986061096,4.094913005828857,39.77257706288503,39.08451434274035,158.9143270070098,142.30479045585233,3.23295607813634e-05,0.0923885703086853,0,0,0
13252,463233.6809984132,2010-10-27 22:04:49,4622.260387394352,2,41,0.550297200679779,4.098150730133057,39.77716437563204,39.08451434274035,158.9331192360768,142.30479045585233,9.70840483205393e-05,0.0923885703086853,0,0,0
13253,463263.6987360116,2010-10-27 22:05:19,4652.278124977636,2,41,0.5501165986061096,4.101064682006836,39.7817521259679,39.08451434274035,158.95192685745522,142.30479045585233,6.47544875391759e-05,0.0923885703086853,0,0,0
13254,463293.7113419953,2010-10-27 22:05:49,4682.290730946358,2,41,0.5501165986061096,4.103978633880615,39.786339006564326,39.08451434274035,158.97074460245582,142.30479045585233,6.47544875391759e-05,0.0923885703086853,0,0,0
13255,463323.7265619489,2010-10-27 22:06:19,4712.30595093001,2,41,0.5499359965324402,4.1068925857543945,39.79092629090013,39.08451434274035,158.9895778992868,142.30479045585233,3.23295607813634e-05,0.0923885703086853,0,0,0
13256,463353.7413329535,2010-10-27 22:06:49,4742.32072189958,2,41,0.5501165986061096,4.110292434692383,39.79550881977004,39.08451434274035,159.00840569132583,142.30479045585233,9.71794142969884e-05,0.0923885703086853,0,0,0
13257,463383.7568877316,2010-10-27 22:07:19,4772.336276702705,2,41,0.5504778623580933,4.113530158996582,39.80010090141949,39.08451434274035,159.02728689798772,142.30479045585233,0.0001295089750783,0.0923885703086853,0,0,0
13258,463413.77210406616,2010-10-27 22:07:49,4802.351493037262,2,41,0.5501165986061096,4.116281986236572,39.804688185205,39.08451434274035,159.04616267327532,142.30479045585233,6.47544875391759e-05,0.0923885703086853,0,0,0
13259,463443.787346536,2010-10-27 22:08:19,4832.366735506956,2,41,0.550297200679779,4.119519710540772,39.80927548763387,39.08451434274035,159.06505279763118,142.30479045585233,9.71794142969884e-05,0.0923885703086853,0,0,0
13260,463473.802458791,2010-10-27 22:08:49,4862.381847762114,2,41,0.5501165986061096,4.122595310211182,39.813862776001,39.08451434274035,159.0839572991553,142.30479045585233,6.47544875391759e-05,0.0923885703086853,0,0,0
13261,463503.8176573162,2010-10-27 22:09:19,4892.39704619706,2,41,0.5501165986061096,4.12567138671875,39.818450081452,39.08451434274035,159.1028762907921,142.30479045585233,6.47544875391759e-05,0.0923885703086853,0,0,0
13262,463533.83250757336,2010-10-27 22:09:49,4922.411896133441,2,41,0.550297200679779,4.128909111022949,39.82303734735952,39.08451434274035,159.12180990292572,142.30479045585233,6.47544875391759e-05,0.0923885703086853,0,0,0
13263,463563.8480194696,2010-10-27 22:10:19,4952.4274084406525,2,41,0.5501165986061096,4.132308483123779,39.827624704677,39.08451434274035,159.14075868468387,142.30479045585233,9.70840483205393e-05,0.0923885703086853,0,0,0
13264,463593.864234037,2010-10-27 22:10:49,4982.443623008113,2,41,0.5501165986061096,4.135384559631348,39.83221220955724,39.08451434274035,159.1597229302465,142.30479045585233,6.47544875391759e-05,0.0923885703086853,0,0,0
13265,463623.8784086152,2010-10-27 22:11:19,5012.457797491055,2,41,0.5504778623580933,4.139107704162598,39.83679938940544,39.08451434274035,159.17870092643608,142.30479045585233,9.70840483205393e-05,0.0923885703086853,0,0,0
13266,463653.89362956624,2010-10-27 22:11:49,5042.47301844713,2,41,0.550297200679779,4.142021656036377,39.84138677044864,39.08451434274035,159.19769495878543,142.30479045585233,6.47544875391759e-05,0.0923885703086853,0,0,0
13267,463683.9087925679,2010-10-27 22:12:19,5072.48818153899,2,41,0.5501165986061096,4.145259380340576,39.84597411399374,39.08451434274035,159.21670411347992,142.30479045585233,3.23295607813634e-05,0.0923885703086853,0,0,0
13268,463713.9239752136,2010-10-27 22:12:49,5102.5033640943575,2,41,0.550297200679779,4.148820877075195,39.85056144146951,39.08451434274035,159.23572883090458,142.30479045585233,6.47544875391759e-05,0.0923885703086853,0,0,0
13269,463743.93916009966,2010-10-27 22:13:19,5132.518549080786,2,41,0.5501165986061096,4.152220726013184,39.85514877276741,39.08451434274035,159.25476916639587,142.30479045585233,6.47544875391759e-05,0.0923885703086853,0,0,0
13270,463773.9540229633,2010-10-27 22:13:49,5162.533411608548,2,41,0.550297200679779,4.155943870544434,39.85973604167675,39.08451434274035,159.27382484568182,142.30479045585233,0.0001295089750783,0.0923885703086853,0,0,0
13271,463803.9695444584,2010-10-27 22:14:19,5192.548933429471,2,41,0.5501165986061096,4.159019947052002,39.86432342562934,39.08451434274035,159.29289673829837,142.30479045585233,6.47544875391759e-05,0.0923885703086853,0,0,0
13272,463833.9847725573,2010-10-27 22:14:49,5222.564161508298,2,41,0.5501165986061096,4.162581443786621,39.86891077624279,39.08451434274035,159.31198432701638,142.30479045585233,9.71794142969884e-05,0.0923885703086853,0,0,0
13273,463863.9999900196,2010-10-27 22:15:19,5252.57937900074,2,41,0.550297200679779,4.16614294052124,39.87349806646649,39.08451434274035,159.3310876370761,142.30479045585233,9.71794142969884e-05,0.0923885703086853,0,0,0
13274,463894.0197239535,2010-10-27 22:15:49,5282.599112934545,2,41,0.5501165986061096,4.16954231262207,39.878086134346,39.08451434274035,159.35021027582104,142.30479045585233,6.47544875391759e-05,0.0923885703086853,0,0,0
13275,463924.03035210783,2010-10-27 22:16:19,5312.609741073908,2,41,0.5499359965324402,4.1731038093566895,39.88267275557232,39.08451434274035,159.36934302994368,142.30479045585233,6.47544875391759e-05,0.0923885703086853,0,0,0
13276,463954.0455311894,2010-10-27 22:16:49,5342.624920125544,2,41,0.5504778623580933,4.176665306091309,39.88726013804819,39.08451434274035,159.38849521476786,142.30479045585233,6.47544875391759e-05,0.0923885703086853,0,0,0
13277,463984.0608143606,2010-10-27 22:17:19,5372.640203296678,2,41,0.550297200679779,4.180388927459717,39.89184744730586,39.08451434274035,159.407663492501,142.30479045585233,9.71794142969884e-05,0.0923885703086853,0,0,0
13278,464014.0629159192,2010-10-27 22:17:49,5402.642304885252,2,41,0.5501165986061096,4.183788299560547,39.89643281595854,39.08451434274035,159.42684012846067,142.30479045585233,6.47544875391759e-05,0.0923885703086853,0,0,0
13279,464044.07544128696,2010-10-27 22:18:19,5432.654830258105,2,41,0.550297200679779,4.187673568725586,39.90101972170723,39.08451434274035,159.44603974338398,142.30479045585233,9.70840483205393e-05,0.0923885703086853,0,0,0
13280,464074.09060506057,2010-10-27 22:18:49,5462.669993946451,2,41,0.550297200679779,4.191235065460205,39.90560708824432,39.08451434274035,159.4652580655866,142.30479045585233,0.0001295089750783,0.0923885703086853,0,0,0
13281,464104.1055303197,2010-10-27 22:19:19,5492.684919265708,2,41,0.550297200679779,4.194958209991455,39.910191995715145,39.08451434274035,159.48448289350912,142.30479045585233,9.70840483205393e-05,0.0923885703086853,0,0,0
13282,464134.121029008,2010-10-27 22:19:49,5522.700417989065,2,41,0.550297200679779,4.198681831359863,39.91478168112364,39.08451434274035,159.5037445801682,142.30479045585233,0.0001295089750783,0.0923885703086853,0,0,0
13283,464145.3240602338,2010-10-27 22:20:00,5533.903449219979,2,41,0.550297200679779,4.200138568878174,39.91649390292989,39.08451434274035,159.51093468249545,142.30479045585233,0.0001295089750783,0.0923885703086853,0,0,0
13284,464175.3290444998,2010-10-27 22:20:30,30.015139979255995,3,41,0.0,4.115148544311523,39.91649390292989,39.08451434274035,159.51093468249545,142.30479045585233,-0.0003885269106831,0.0923885703086853,0,0,0
13285,464205.3442090052,2010-10-27 22:21:00,60.03030448463864,3,41,0.0,4.104464530944824,39.91649390292989,39.08451434274035,159.51093468249545,142.30479045585233,-0.0002590179501567,0.0923885703086853,0,0,0
13286,464235.3590564304,2010-10-27 22:21:30,90.04515158896017,3,41,0.0,4.098312854766846,39.91649390292989,39.08451434274035,159.51093468249545,142.30479045585233,-0.0001618385285837,0.0923885703086853,0,0,0
13287,464265.3277480158,2010-10-27 22:22:00,120.0138434953268,3,41,0.0,4.094265460968018,39.91649390292989,39.08451434274035,159.51093468249545,142.30479045585233,-3.24249267578125e-05,0.0923885703086853,0,0,0
13288,464265.3349980667,2010-10-27 22:22:01,2.631558654e-06,4,41,1.0007367134094238,4.199976921081543,39.91649390366142,39.08451434274035,159.51093468556783,142.30479045585233,0.0,0.0923885703086853,0,0,0
13289,464265.9599910164,2010-10-27 22:22:01,0.624995706607236,4,41,0.9503467679023744,4.199653148651123,39.91666157156828,39.08451434274035,159.51163883874554,142.30479045585233,-6.47544875391759e-05,0.0923885703086853,0,0,0
13290,464267.8350531582,2010-10-27 22:22:03,2.500057848406798,4,41,0.9003180265426636,4.199491024017334,39.91714241305807,39.08451434274035,159.51365822728977,142.30479045585233,-9.71794142969884e-05,0.0923885703086853,0,0,0
13291,464270.8502823471,2010-10-27 22:22:06,5.515286706483852,4,41,0.8499280214309692,4.199653148651123,39.91787427267246,39.08451434274035,159.51673182892216,142.30479045585233,0.0,0.0923885703086853,0,0,0
13292,464275.0379590711,2010-10-27 22:22:10,9.702963761220271,4,41,0.7995380163192749,4.199653148651123,39.91883243353897,39.08451434274035,159.52075584573066,142.30479045585233,-3.23295607813634e-05,0.0923885703086853,0,0,0
13293,464280.61600123846,2010-10-27 22:22:16,15.281005838397236,4,41,0.7489674091339111,4.199653148651123,39.920030686751375,39.08451434274035,159.5257881882201,142.30479045585233,0.0,0.0923885703086853,0,0,0
13294,464287.8506856231,2010-10-27 22:22:23,22.515690308152625,4,41,0.698758065700531,4.199653148651123,39.9214835248889,39.08451434274035,159.5318897465459,142.30479045585233,3.24249267578125e-05,0.0923885703086853,0,0,0
13295,464297.4126350231,2010-10-27 22:22:33,32.07763972323329,4,41,0.6487292647361755,4.199653148651123,39.92327014689368,39.08451434274035,159.53939310912185,142.30479045585233,-3.23295607813634e-05,0.0923885703086853,0,0,0
13296,464310.7562854056,2010-10-27 22:22:46,45.42129007063759,4,41,0.5987005233764648,4.199653148651123,39.92557656246168,39.08451434274035,159.54907947721892,142.30479045585233,-3.23295607813634e-05,0.0923885703086853,0,0,0
13297,464330.7247382442,2010-10-27 22:23:06,65.3897429443382,4,41,0.5486717224121094,4.199653148651123,39.92874865566389,39.08451434274035,159.5624014594099,142.30479045585233,0.0,0.0923885703086853,0,0,0
13298,464364.2867925452,2010-10-27 22:23:40,98.951797230405,4,41,0.4986429810523987,4.199653148651123,39.93361132446423,39.08451434274035,159.58282343389916,142.30479045585233,0.0,0.0923885703086853,0,0,0
13299,464425.8638987808,2010-10-27 22:24:41,160.52890348098336,4,41,0.4486142098903656,4.199814796447754,39.94167693300268,39.08451434274035,159.61669691950112,142.30479045585233,3.23295607813634e-05,0.0923885703086853,0,0,0
13300,464520.9872064623,2010-10-27 22:26:16,255.6522108265986,4,41,0.3985854387283325,4.199653148651123,39.95284228872593,39.08451434274035,159.6635885694242,142.30479045585233,-3.23295607813634e-05,0.0923885703086853,0,0,0
13301,464642.7513915022,2010-10-27 22:28:18,377.4163961623586,4,41,0.3485566675662994,4.199653148651123,39.9654605895685,39.08451434274035,159.7165822962686,142.30479045585233,-3.23295607813634e-05,0.0923885703086853,0,0,0
13302,464787.2958327301,2010-10-27 22:30:43,521.9608370693112,4,41,0.2985278964042663,4.199653148651123,39.97842947683652,39.08451434274035,159.77104842380518,142.30479045585233,-3.23295607813634e-05,0.0923885703086853,0,0,0
13303,464958.37182731234,2010-10-27 22:33:34,693.0368320024522,4,41,0.2483185082674026,4.199653148651123,39.99140548696722,39.08451434274035,159.8255445027237,142.30479045585233,0.0,0.0923885703086853,0,0,0
13304,465171.0406625313,2010-10-27 22:37:06,905.7056672213824,4,41,0.1982897371053695,4.199653148651123,40.00456412564412,39.08451434274035,159.8808072888403,142.30479045585233,0.0,0.0923885703086853,0,0,0
13305,465451.1773098171,2010-10-27 22:41:46,1185.8423145173356,4,41,0.1482609659433365,4.199653148651123,40.01797201027046,39.08451434274035,159.93711679748947,142.30479045585233,-3.23295607813634e-05,0.0923885703086853,0,0,0
13306,465871.5618778698,2010-10-27 22:48:47,1606.2268825399456,4,41,0.098232202231884,4.199653148651123,40.03216449466064,39.08451434274035,159.9967216138365,142.30479045585233,0.0,0.0923885703086853,0,0,0
13307,466652.2381139031,2010-10-27 23:01:47,2386.903118558176,4,41,0.0498289167881011,4.199814796447754,40.047573673627376,39.08451434274035,160.0614362566405,142.30479045585233,3.23295607813634e-05,0.0923885703086853,0,0,0
13308,466682.24830542336,2010-10-27 23:02:18,30.0154303529566,5,41,0.0,4.192044734954834,40.047573673627376,39.08451434274035,160.0614362566405,142.30479045585233,-3.23295607813634e-05,0.0923885703086853,0,0,0
13309,466712.2473478225,2010-10-27 23:02:48,60.01447272201487,5,41,0.0,4.190749645233154,40.047573673627376,39.08451434274035,160.0614362566405,142.30479045585233,-3.23295607813634e-05,0.0923885703086853,0,0,0
13310,466712.4308915656,2010-10-27 23:02:48,0.187557711527191,6,41,-1.9243103452026844e-05,4.190749645233154,40.047573673627376,39.08451434374291,160.0614362566405,142.30479046005377,0.0,0.0931989923119545,0,0,0
13311,466717.243582397,2010-10-27 23:02:53,5.000248868718961,6,41,0.0010644125286489,4.190749645233154,40.04757480051874,39.08451434382615,160.06144097925028,142.3047904604026,-6.47544875391759e-05,0.0931989923119545,0,0,0
13312,466747.27024142793,2010-10-27 23:03:23,30.015264604861347,7,41,-1.0997490882873535,4.014779567718506,40.04757480051874,39.09368204223555,160.06144097925028,142.34179413805975,-0.0010037422180175,0.0931989923119545,0,0,0
13313,466777.2853866101,2010-10-27 23:03:53,60.030409676809896,7,41,-1.099568486213684,3.9880685806274414,40.04757480051874,39.10284973115377,160.06144097925028,142.37847005121424,-0.0006151676061563,0.0931989923119545,0,0,0
13314,466807.300534404,2010-10-27 23:04:23,90.04555757079181,7,41,-1.099568486213684,3.969613552093506,40.04757480051874,39.112017357722976,160.06144097925028,142.41494277102157,-0.0004532813909463,0.0931989923119545,0,0,0
13315,466837.3195927389,2010-10-27 23:04:53,120.06461590078348,7,41,-1.099568486213684,3.95504379272461,40.04757480051874,39.12118612007544,160.06144097925028,142.4512699957631,-0.0003561496851034,0.0931989923119545,0,0,0
13316,466867.33110164845,2010-10-27 23:05:23,150.07612482533392,7,41,-1.0993878841400146,3.942740440368652,40.04757480051874,39.13035256505096,160.06144097925028,142.48746573474705,-0.0003237724304199,0.0931989923119545,0,0,0
13317,466897.3461513426,2010-10-27 23:05:53,180.09117439425955,7,41,-1.0993878841400146,3.931732177734375,40.04757480051874,39.13952006794087,160.06144097925028,142.5235591749483,-0.0002913951757363,0.0931989923119545,0,0,0
13318,466927.3610039257,2010-10-27 23:06:23,210.10602707247293,7,41,-1.0997490882873535,3.921533346176148,40.04757480051874,39.14867823769382,160.06144097925028,142.55951973055755,-0.0002913951757363,0.0931989923119545,0,0,0
13319,466957.3766377858,2010-10-27 23:06:53,240.1216610579444,7,41,-1.099568486213684,3.911982297897339,40.04757480051874,39.15785529445,160.06144097925028,142.59546448917104,-0.0002590179501567,0.0931989923119545,0,0,0
13320,466987.391697034,2010-10-27 23:07:23,270.1367202007311,7,41,-1.0993878841400146,3.903078556060791,40.04757480051874,39.16702283658558,160.06144097925028,142.631286590246,-0.0002266406954731,0.0931989923119545,0,0,0
13321,467017.4065722983,2010-10-27 23:07:53,300.15159511436195,7,41,-1.099568486213684,3.894174814224243,40.04757480051874,39.17619041281683,160.06144097925028,142.66702673158446,-0.0002266406954731,0.0931989923119545,0,0,0
13322,467047.42213326687,2010-10-27 23:08:23,330.16715642871463,7,41,-1.099568486213684,3.885756731033325,40.04757480051874,39.185358114397225,160.06144097925028,142.70268829053356,-0.0002266406954731,0.0931989923119545,0,0,0
13323,467077.43731738615,2010-10-27 23:08:53,360.18234043269376,7,41,-1.0993878841400146,3.877500534057617,40.04757480051874,39.19452568220659,160.06144097925028,142.73827125619175,-0.0001618862152099,0.0931989923119545,0,0,0
13324,467107.4521601496,2010-10-27 23:09:23,390.197182965622,7,41,-1.0993878841400146,3.869244337081909,40.04757480051874,39.20369321236259,160.06144097925028,142.77377856987258,-0.0002266406954731,0.0931989923119545,0,0,0
13325,467137.4676690734,2010-10-27 23:09:53,420.21269224027577,7,41,-1.0993878841400146,3.861150026321411,40.04757480051874,39.21286090365303,160.06144097925028,142.809212642229,-0.0001942634553415,0.0931989923119545,0,0,0
13326,467167.4831971098,2010-10-27 23:10:23,450.2282202315771,7,41,-1.0993878841400146,3.853217601776123,40.04757480051874,39.222028590164406,160.06144097925028,142.8445737069089,-0.0002266406954731,0.0931989923119545,0,0,0
13327,467197.4980861186,2010-10-27 23:10:53,480.2431092603874,7,41,-1.0993878841400146,3.845608949661255,40.04757480051874,39.231195943317246,160.06144097925028,142.87986185565217,-0.0001942634553415,0.0931989923119545,0,0,0
13328,467227.5132358722,2010-10-27 23:11:23,510.2582589438292,7,41,-1.0993878841400146,3.8378384113311768,40.04757480051874,39.240363377661176,160.06144097925028,142.91507982219983,-0.0002266406954731,0.0931989923119545,0,0,0
13329,467257.5284391392,2010-10-27 23:11:53,540.2734622809927,7,41,-1.099568486213684,3.8303918838500977,40.04757480051874,39.24953082970976,160.06144097925028,142.9502289224962,-0.0001618862152099,0.0931989923119545,0,0,0
13330,467287.5433388697,2010-10-27 23:12:23,570.2883617107252,7,41,-1.099568486213684,3.82294511795044,40.04757480051874,39.25869820937438,160.06144097925028,142.98530996074345,-0.0002590179501567,0.0931989923119545,0,0,0
13331,467317.55898052425,2010-10-27 23:12:53,600.3040036911225,7,41,-1.0993878841400146,3.815984010696411,40.04757480051874,39.267865873149965,160.06144097925028,143.02032532625344,-0.0001942634553415,0.0931989923119545,0,0,0
13332,467347.57400844427,2010-10-27 23:13:23,630.3190316110923,7,41,-1.0993878841400146,3.808537244796753,40.04757480051874,39.277033344589206,160.06144097925028,143.0552733419721,-0.0002266406954731,0.0931989923119545,0,0,0
13333,467377.5888765911,2010-10-27 23:13:53,660.333899432046,7,41,-1.099568486213684,3.8015761375427246,40.04757480051874,39.28620082842709,160.06144097925028,143.09015621944786,-0.0001942634553415,0.0931989923119545,0,0,0
13334,467407.604395199,2010-10-27 23:14:23,690.3494183657732,7,41,-1.099568486213684,3.794615030288696,40.04757480051874,39.29536854889745,160.06144097925028,143.124976744368,-0.0001942634553415,0.0931989923119545,0,0,0
13335,467437.6196497036,2010-10-27 23:14:53,720.3646728403869,7,41,-1.099568486213684,3.788139581680298,40.04757480051874,39.30453613754267,160.06144097925028,143.15973461018353,-0.0002266406954731,0.0931989923119545,0,0,0
13336,467467.6344756803,2010-10-27 23:15:23,750.3794985213145,7,41,-1.099568486213684,3.78134036064148,40.04757480051874,39.31370356425174,160.06144097925028,143.1944310738313,-0.0002266406954731,0.0931989923119545,0,0,0
13337,467497.65000445856,2010-10-27 23:15:53,780.3950276354144,7,41,-1.099568486213684,3.775026798248291,40.04757480051874,39.322871302327385,160.06144097925028,143.22906898907354,-0.0002266406954731,0.0931989923119545,0,0,0
13338,467527.6652115651,2010-10-27 23:16:23,810.4102347319473,7,41,-1.0993878841400146,3.768713235855103,40.04757480051874,39.332038870794015,160.06144097925028,143.26364768947892,-0.0001618862152099,0.0931989923119545,0,0,0
13339,467557.68493992,2010-10-27 23:16:53,840.4299631520098,7,41,-1.099568486213684,3.762561559677124,40.04757480051874,39.34120785443172,160.06144097925028,143.2981745878381,-0.0001618862152099,0.0931989923119545,0,0,0
13340,467587.69561632967,2010-10-27 23:17:23,870.4406395065394,7,41,-1.099568486213684,3.7564098834991455,40.04757480051874,39.35037414688361,160.06144097925028,143.3326352070786,-0.0001618862152099,0.0931989923119545,0,0,0
13341,467617.710812544,2010-10-27 23:17:53,900.4558357209505,7,41,-1.099568486213684,3.750582218170166,40.04757480051874,39.35954197103962,160.06144097925028,143.36704660428072,-0.0001618862152099,0.0931989923119545,0,0,0
13342,467647.7260093952,2010-10-27 23:18:23,930.4710325619236,7,41,-1.099568486213684,3.7445924282073975,40.04757480051874,39.36871034745375,160.06144097925028,143.40140621423686,-0.0001942634553415,0.0931989923119545,0,0,0
13343,467677.7411980757,2010-10-27 23:18:53,960.4862212525834,7,41,-1.099568486213684,3.739088296890259,40.04757480051874,39.3778786126832,160.06144097925028,143.43571242663512,-0.0001295089750783,0.0931989923119545,0,0,0
13344,467707.75740946527,2010-10-27 23:19:24,990.5024326320986,7,41,-1.099568486213684,3.7332603931427,40.04757480051874,39.38704665581271,160.06144097925028,143.46996568696974,-0.0001942634553415,0.0931989923119545,0,0,0
13345,467737.7716176672,2010-10-27 23:19:54,1020.5166408441038,7,41,-1.099568486213684,3.7277562618255615,40.04757480051874,39.39621398796037,160.06144097925028,143.5041651299779,-0.0001618862152099,0.0931989923119545,0,0,0
13346,467767.78690592106,2010-10-27 23:20:24,1050.5319290678306,7,41,-1.099568486213684,3.722414016723633,40.04757480051874,39.40538171216519,160.06144097925028,143.53831566494546,-0.0001295089750783,0.0931989923119545,0,0,0
13347,467797.8020139256,2010-10-27 23:20:54,1080.5470371024708,7,41,-1.099568486213684,3.717071771621704,40.04757480051874,39.41454936005653,160.06144097925028,143.5724163908742,-0.0001618862152099,0.0931989923119545,0,0,0
13348,467827.8171348223,2010-10-27 23:21:24,1110.5621578688424,7,41,-1.099568486213684,3.711729526519776,40.04757480051874,39.42371699820539,160.06144097925028,143.60646822256797,-0.0001618862152099,0.0931989923119545,0,0,0
13349,467857.8323461944,2010-10-27 23:21:54,1140.5773692410316,7,41,-1.099568486213684,3.706387281417847,40.04757480051874,39.432884691071656,160.06144097925028,143.64047187345628,-0.0001618862152099,0.0931989923119545,0,0,0
13350,467887.8472329827,2010-10-27 23:22:24,1170.592331066273,7,41,-1.0997490882873535,3.701368808746338,40.04757480051874,39.44204765853988,160.06144097925028,143.67441047287457,-0.0001295089750783,0.0931989923119545,0,0,0
13351,467917.8628732588,2010-10-27 23:22:54,1200.6078963404948,7,41,-1.0997490882873535,3.696350336074829,40.04757480051874,39.45122013624008,160.06144097925028,143.7083373307128,-0.0001295089750783,0.0931989923119545,0,0,0
13352,467947.8779457349,2010-10-27 23:23:24,1230.6229689017243,7,41,-1.099568486213684,3.69133186340332,40.04757480051874,39.46038787693564,160.06144097925028,143.74220083604317,-0.0001295089750783,0.0931989923119545,0,0,0
13353,467977.8928266384,2010-10-27 23:23:54,1260.6378497802214,7,41,-1.099568486213684,3.686313390731812,40.04757480051874,39.46955082217341,160.06144097925028,143.7760012004787,-0.0001295089750783,0.0931989923119545,0,0,0
13354,468007.9083132466,2010-10-27 23:24:24,1290.653336413446,7,41,-1.099568486213684,3.6814568042755127,40.04757480051874,39.47872327611898,160.06144097925028,143.80979186276556,-0.0001942634553415,0.0931989923119545,0,0,0
13355,468037.9235272854,2010-10-27 23:24:54,1320.6685504522811,7,41,-1.099568486213684,3.676762104034424,40.04757480051874,39.487890998525394,160.06144097925028,143.84352123857175,-0.0001295089750783,0.0931989923119545,0,0,0
13356,468067.9387509983,2010-10-27 23:25:24,1350.6837741401648,7,41,-1.099568486213684,3.672067642211914,40.04757480051874,39.49705873486537,160.06144097925028,143.87720746386006,-0.0001618385285837,0.0931989923119545,0,0,0
13357,468097.95390473696,2010-10-27 23:25:54,1380.6989279037757,7,41,-1.0997490882873535,3.667534828186035,40.04757480051874,39.50622652154214,160.06144097925028,143.91085121915515,-0.0001295089750783,0.0931989923119545,0,0,0
13358,468127.9690870366,2010-10-27 23:26:24,1410.7141102035073,7,41,-1.099568486213684,3.6628401279449454,40.04757480051874,39.5153942443949,160.06144097925028,143.9444527136293,-0.0001618862152099,0.0931989923119545,0,0,0
13359,468157.9997144905,2010-10-27 23:26:54,1440.7447376422776,7,41,-1.099568486213684,3.6583073139190674,40.04757480051874,39.52454764082805,160.06144097925028,143.97796009448925,-0.0001295089750783,0.0931989923119545,0,0,0
13360,468188.0151504574,2010-10-27 23:27:24,1470.7601736342883,7,41,-1.0997490882873535,3.653774499893189,40.04757480051874,39.53373439798181,160.06144097925028,144.01154838070158,-0.0001618862152099,0.0931989923119545,0,0,0
13361,468218.0303326168,2010-10-27 23:27:54,1500.7753557836454,7,41,-1.099568486213684,3.6495654582977295,40.04757480051874,39.542902148421206,160.06144097925028,144.04502705985567,-0.0001295089750783,0.0931989923119545,0,0,0
13362,468248.045229435,2010-10-27 23:28:24,1530.790252586832,7,41,-1.099568486213684,3.6453564167022714,40.04757480051874,39.55206033555351,160.06144097925028,144.078430921977,-9.713172767078504e-05,0.0931989923119545,0,0,0
13363,468278.0607791453,2010-10-27 23:28:54,1560.8058023223264,7,41,-1.0997490882873535,3.6409854888916016,40.04757480051874,39.56123755286777,160.06144097925028,144.11186496569923,-0.0001295089750783,0.0931989923119545,0,0,0
13364,468308.0758968693,2010-10-27 23:29:24,1590.820920046115,7,41,-1.099568486213684,3.636938333511353,40.04757480051874,39.570405267465,160.06144097925028,144.14522611048835,-9.713172767078504e-05,0.0931989923119545,0,0,0
13365,468338.0907785798,2010-10-27 23:29:54,1620.8358017215985,7,41,-1.0997490882873535,3.632891178131104,40.04757480051874,39.579563490509805,160.06144097925028,144.17851526941516,-9.713172767078504e-05,0.0931989923119545,0,0,0
13366,468368.0908456076,2010-10-27 23:30:24,1650.835868784509,7,41,-1.099568486213684,3.6288440227508554,40.04757480051874,39.58873603608582,160.06144097925028,144.2118200471264,-0.0001295089750783,0.0931989923119545,0,0,0
13367,468398.1058757882,2010-10-27 23:30:54,1680.850898955088,7,41,-1.0993878841400146,3.6251206398010254,40.04757480051874,39.59790375514499,160.06144097925028,144.2450713886431,-6.47544875391759e-05,0.0931989923119545,0,0,0
13368,468428.120766421,2010-10-27 23:31:24,1710.865789597921,7,41,-1.0993878841400146,3.621397256851196,40.04757480051874,39.60706193213619,160.06144097925028,144.27825339107946,-9.713172767078504e-05,0.0931989923119545,0,0,0
13369,468458.1362400418,2010-10-27 23:31:54,1740.881263093402,7,41,-1.099568486213684,3.617673873901367,40.04757480051874,39.61623920276367,160.06144097925028,144.3114700462791,-9.713172767078504e-05,0.0931989923119545,0,0,0
13370,468488.15147743886,2010-10-27 23:32:24,1770.896500600728,7,41,-1.099568486213684,3.614112377166748,40.04757480051874,39.62540701237796,160.06144097925028,144.34461890580363,-6.47544875391759e-05,0.0931989923119545,0,0,0
13371,468518.1823801788,2010-10-27 23:32:54,1800.927403345646,7,41,-1.099568486213684,3.610550880432129,40.04757480051874,39.63457959928482,160.06144097925028,144.37775230616353,-6.47544875391759e-05,0.0931989923119545,0,0,0
13372,468548.1864534264,2010-10-27 23:33:24,1830.9314766032264,7,41,-1.099568486213684,3.6069893836975098,40.04757480051874,39.64374395966204,160.06144097925028,144.41082402342465,-9.713172767078504e-05,0.0931989923119545,0,0,0
13373,468578.19706824754,2010-10-27 23:33:54,1860.9420913842964,7,41,-1.099568486213684,3.6035897731781006,40.04757480051874,39.65291031503533,160.06144097925028,144.4438714737858,-9.713172767078504e-05,0.0931989923119545,0,0,0
13374,468608.2122269333,2010-10-27 23:34:24,1890.9572501102748,7,41,-1.0997490882873535,3.6003520488739014,40.04757480051874,39.6620780588864,160.06144097925028,144.47689319040143,-6.47544875391759e-05,0.0931989923119545,0,0,0
13375,468638.227411584,2010-10-27 23:34:54,1920.9724346656285,7,41,-1.099568486213684,3.597114324569702,40.04757480051874,39.67124576612443,160.06144097925028,144.50988490206257,-6.47544875391759e-05,0.0931989923119545,0,0,0
13376,468668.24264012894,2010-10-27 23:35:24,1950.9876633058548,7,41,-1.099568486213684,3.594038486480713,40.04757480051874,39.68041349940968,160.06144097925028,144.54284744256856,-6.47544875391759e-05,0.0931989923119545,0,0,0
13377,468698.2575868215,2010-10-27 23:35:54,1981.0026096825936,7,41,-1.099568486213684,3.5909628868103027,40.04757480051874,39.68958121298471,160.06144097925028,144.57578139973396,-9.713172767078504e-05,0.0931989923119545,0,0,0
13378,468728.2730008588,2010-10-27 23:36:24,2011.0180240256489,7,41,-1.099568486213684,3.5877251625061035,40.04757480051874,39.69874914301042,160.06144097925028,144.60868782141966,-9.713172767078504e-05,0.0931989923119545,0,0,0
13379,468758.2881854843,2010-10-27 23:36:54,2041.033208530877,7,41,-1.0997490882873535,3.5846493244171143,40.04757480051874,39.70791697781963,160.06144097925028,144.64156626706583,-9.713172767078504e-05,0.0931989923119545,0,0,0
13380,468788.30318762513,2010-10-27 23:37:24,2071.0482104660846,7,41,-1.099568486213684,3.581897258758545,40.04757480051874,39.7170846696121,160.06144097925028,144.6744167128152,-6.47544875391759e-05,0.0931989923119545,0,0,0
13381,468818.3031926784,2010-10-27 23:37:54,2101.0482157500232,7,41,-1.0997490882873535,3.578821420669556,40.04757480051874,39.72624776025983,160.06144097925028,144.70722356600123,-6.47544875391759e-05,0.0931989923119545,0,0,0
13382,468848.31820992177,2010-10-27 23:38:24,2131.063232998396,7,41,-1.099568486213684,3.5757455825805664,40.04757480051874,39.73541549489033,160.06144097925028,144.74002002647262,-0.0001295089750783,0.0931989923119545,0,0,0
13383,468878.33304089087,2010-10-27 23:38:54,2161.078063731916,7,41,-1.0993878841400146,3.572993516921997,40.04757480051874,39.74458311824247,160.06144097925028,144.77278901292786,-6.47544875391759e-05,0.0931989923119545,0,0,0
13384,468908.3486190421,2010-10-27 23:39:24,2191.093642204032,7,41,-1.099568486213684,3.569917678833008,40.04757480051874,39.7537509572241,160.06144097925028,144.80553186502107,-9.713172767078504e-05,0.0931989923119545,0,0,0
13385,468938.3638127854,2010-10-27 23:39:54,2221.1088360475337,7,41,-1.099568486213684,3.5670037269592285,40.04757480051874,39.76291870896799,160.06144097925028,144.83824737004085,-0.0001295089750783,0.0931989923119545,0,0,0
13386,468968.379007471,2010-10-27 23:40:24,2251.124030632885,7,41,-1.0993878841400146,3.564251661300659,40.04757480051874,39.772086546512455,160.06144097925028,144.87093568241647,-6.47544875391759e-05,0.0931989923119545,0,0,0
13387,468998.39416673325,2010-10-27 23:40:54,2281.139189900213,7,41,-1.0997490882873535,3.56117582321167,40.04757480051874,39.781254226414845,160.06144097925028,144.90359657887478,-6.47544875391759e-05,0.0931989923119545,0,0,0
13388,469028.409358216,2010-10-27 23:41:24,2311.1543813828307,7,41,-1.099568486213684,3.5580999851226807,40.04757480051874,39.790422006220325,160.06144097925028,144.93623036941474,-6.47544875391759e-05,0.0931989923119545,0,0,0
13389,469058.4242173002,2010-10-27 23:41:54,2341.169240141198,7,41,-1.099568486213684,3.554862260818481,40.04757480051874,39.7995896556663,160.06144097925028,144.96883550550146,-0.0001295089750783,0.0931989923119545,0,0,0
13390,469088.4243555706,2010-10-27 23:42:24,2371.1693787624545,7,41,-1.0997490882873535,3.551786422729492,40.04757480051874,39.80875277152795,160.06144097925028,145.0013958760346,-9.713172767078504e-05,0.0931989923119545,0,0,0
13391,469118.43931790703,2010-10-27 23:42:54,2401.1843410739075,7,41,-1.099568486213684,3.548548698425293,40.04757480051874,39.81792050014282,160.06144097925028,145.0339435498567,-9.713172767078504e-05,0.0931989923119545,0,0,0
13392,469148.4542874966,2010-10-27 23:43:24,2431.199310337688,7,41,-1.099568486213684,3.545472860336304,40.04757480051874,39.82708823704683,160.06144097925028,145.0664615708653,-9.713172767078504e-05,0.0931989923119545,0,0,0
13393,469178.4699252515,2010-10-27 23:43:54,2461.2149484283905,7,41,-1.099568486213684,3.5422351360321045,40.04757480051874,39.83625610681623,160.06144097925028,145.09894993583038,-6.47544875391759e-05,0.0931989923119545,0,0,0
13394,469208.4849366653,2010-10-27 23:44:24,2491.229959832197,7,41,-1.0993878841400146,3.5386736392974854,40.04757480051874,39.845423855652506,160.06144097925028,145.13140720754166,-6.47544875391759e-05,0.0931989923119545,0,0,0
13395,469238.4997551784,2010-10-27 23:44:54,2521.2447780194484,7,41,-1.099568486213684,3.535274028778076,40.04757480051874,39.854591537738834,160.06144097925028,145.16383251530158,-6.47544875391759e-05,0.0931989923119545,0,0,0
13396,469268.5152994854,2010-10-27 23:45:24,2551.2603226522256,7,41,-1.0993878841400146,3.531550645828247,40.04757480051874,39.8637593436459,160.06144097925028,145.19622545669338,-9.713172767078504e-05,0.0931989923119545,0,0,0
13397,469298.53077732166,2010-10-27 23:45:54,2581.275800388275,7,41,-1.099568486213684,3.527665376663208,40.04757480051874,39.87292722291996,160.06144097925028,145.22858465382623,-9.713172767078504e-05,0.0931989923119545,0,0,0
13398,469328.545392097,2010-10-27 23:46:24,2611.290414917949,7,41,-1.0993878841400146,3.523780107498169,40.04757480051874,39.88209490301998,160.06144097925028,145.26090752745645,-9.713172767078504e-05,0.0931989923119545,0,0,0
13399,469358.560890264,2010-10-27 23:46:54,2641.305913430781,7,41,-1.099568486213684,3.51973295211792,40.04757480051874,39.8912627990737,160.06144097925028,145.29319412875904,-9.713172767078504e-05,0.0931989923119545,0,0,0
13400,469388.5761160821,2010-10-27 23:47:24,2671.3211392489743,7,41,-1.0993878841400146,3.515523910522461,40.04757480051874,39.90043061863605,160.06144097925028,145.3254417963924,-9.713172767078504e-05,0.0931989923119545,0,0,0
13401,469418.59098236426,2010-10-27 23:47:54,2701.336005210293,7,41,-1.099568486213684,3.510667562484741,40.04757480051874,39.90959833686909,160.06144097925028,145.35764807396947,-0.0001618862152099,0.0931989923119545,0,0,0
13402,469448.6065649216,2010-10-27 23:48:24,2731.3515880883897,7,41,-1.0993878841400146,3.5058109760284424,40.04757480051874,39.918766252099054,160.06144097925028,145.38981126739355,-0.0001295089750783,0.0931989923119545,0,0,0
13403,469478.6217114572,2010-10-27 23:48:54,2761.366734603936,7,41,-1.0993878841400146,3.500306844711304,40.04757480051874,39.92793407776042,160.06144097925028,145.4219266079939,-0.0001618862152099,0.0931989923119545,0,0,0
13404,469508.6369437565,2010-10-27 23:49:24,2791.3819668882447,7,41,-1.099568486213684,3.494317054748535,40.04757480051874,39.93710188504974,160.06144097925028,145.45399009792916,-0.0001618862152099,0.0931989923119545,0,0,0
13405,469538.65614671697,2010-10-27 23:49:54,2821.4011698938125,7,41,-1.0997490882873535,3.4876797199249268,40.04757480051874,39.94627090441091,160.06144097925028,145.48600012707246,-0.0001942634553415,0.0931989923119545,0,0,0
13406,469568.6675363793,2010-10-27 23:50:24,2851.412559556124,7,41,-1.0993878841400146,3.480232954025269,40.04757480051874,39.95543751548232,160.06144097925028,145.51793686795563,-0.0002266406954731,0.0931989923119545,0,0,0
13407,469598.68253733707,2010-10-27 23:50:54,2881.427560498859,7,41,-1.099568486213684,3.4714910984039307,40.04757480051874,39.9646051588982,160.06144097925028,145.5498029228883,-0.0002266406954731,0.0931989923119545,0,0,0
13408,469628.6977900222,2010-10-27 23:51:24,2911.44281319905,7,41,-1.099568486213684,3.461454153060913,40.04757480051874,39.9737729210873,160.06144097925028,145.58158390463043,-0.0002913951757363,0.0931989923119545,0,0,0
13409,469658.7125392426,2010-10-27 23:51:54,2941.457562384327,7,41,-1.0993878841400146,3.449312686920166,40.04757480051874,39.98293114680551,160.06144097925028,145.61323128280944,-0.0003885269106831,0.0931989923119545,0,0,0
13410,469688.72806577024,2010-10-27 23:52:25,2971.473088906968,7,41,-1.0997490882873535,3.434742927551269,40.04757480051874,39.992108514362734,160.06144097925028,145.64482404713502,-0.0004856586456298,0.0931989923119545,0,0,0
13411,469718.74330054567,2010-10-27 23:52:55,3001.488323687498,7,41,-1.099568486213684,3.416935682296753,40.04757480051874,40.00127630476312,160.06144097925028,145.67623517230376,-0.0005180359003134,0.0931989923119545,0,0,0
13412,469748.75851593295,2010-10-27 23:53:25,3031.5035391097813,7,41,-1.099568486213684,3.3934621810913086,40.04757480051874,40.01044406587844,160.06144097925028,145.70745744194585,-0.0007122993702068,0.0931989923119545,0,0,0
13413,469778.77363535593,2010-10-27 23:53:55,3061.5186584074927,7,41,-1.0997490882873535,3.361894369125366,40.04757480051874,40.019611834442514,160.06144097925028,145.73843116717322,-0.0010684489971026,0.0931989923119545,0,0,0
13414,469808.7888994546,2010-10-27 23:54:25,3091.5339226314045,7,41,-1.099568486213684,3.318347215652466,40.04757480051874,40.02877965115007,160.06144097925028,145.7690646662008,-0.0013922214275225,0.0931989923119545,0,0,0
13415,469838.80396279774,2010-10-27 23:54:55,3121.5489859495974,7,41,-1.099568486213684,3.25650691986084,40.04757480051874,40.037937819603926,160.06144097925028,145.79918877983263,-0.0020073889754712,0.0931989923119545,0,0,0
13416,469868.819269277,2010-10-27 23:55:25,3151.564292408773,7,41,-1.0997490882873535,3.1661746501922607,40.04757480051874,40.04711510737808,160.06144097925028,145.82868909278275,-0.002978706266731,0.0931989923119545,0,0,0
13417,469898.8344669952,2010-10-27 23:55:55,3181.5794900316946,7,41,-1.099568486213684,3.019991874694824,40.04757480051874,40.05628289987721,160.06144097925028,145.85711114834024,-0.0052774427458643,0.0931989923119545,0,0,0
13418,469919.162608258,2010-10-27 23:56:15,3201.9076314248587,7,41,-1.0993878841400146,2.819415330886841,40.04757480051874,40.06249187647224,160.06144097925028,145.87531293285397,-0.0108787063509225,0.0931989923119545,0,0,0
13419,469927.28733843553,2010-10-27 23:56:23,3210.032361602378,7,41,-1.099568486213684,2.699943780899048,40.04757480051874,40.06497348596307,160.06144097925028,145.88216364406017,-0.0124004362151026,0.0931989923119545,0,0,0
13420,469987.2967951897,2010-10-27 23:57:23,60.01481536097658,8,41,0.0,3.316566467285156,40.04757480051874,40.06497348596307,160.06144097925028,145.88216364406017,0.0014569759368896,0.0931989923119545,0,0,0
13421,469987.4798937767,2010-10-27 23:57:24,0.187468830007095,9,41,-1.9243103452026844e-05,3.316728353500366,40.04757480051874,40.06497348696515,160.06144097925028,145.8821636473838,0.0,0.0931148082017898,0,0,0
13422,469992.3078844801,2010-10-27 23:57:28,5.015459473225578,9,41,0.0007031940040178,3.3246607780456543,40.04757588991246,40.06497348713206,160.06144459744206,145.88216364793738,0.0011979580158367,0.0931148082017898,0,0,0
