Data_Point,Test_Time(s),Date_Time,Step_Time(s),Step_Index,Cycle_Index,Current(A),Voltage(V),Charge_Capacity(Ah),Discharge_Capacity(Ah),Charge_Energy(Wh),Discharge_Energy(Wh),dV/dt(V/s),Internal_Resistance(Ohm),Is_FC_Data,AC_Impedance(Ohm),ACI_Phase_Angle(Deg)
977,34789.47257628858,2010-10-22 23:03:18,30.015005749714675,1,4,0.0,3.383910894393921,2.924969662592778,2.936636302429659,11.720661485772364,10.668778501403535,0.0008418083307333,0.0923885703086853,0,0,0
978,34819.48763285494,2010-10-22 23:03:48,60.03006230605509,1,4,0.0,3.409165143966675,2.924969662592778,2.936636302429659,11.720661485772364,10.668778501403535,0.0005827903514727,0.0923885703086853,0,0,0
979,34849.50275895461,2010-10-22 23:04:18,90.04518841073137,1,4,0.0,3.42826771736145,2.924969662592778,2.936636302429659,11.720661485772364,10.668778501403535,0.0004856586456298,0.0923885703086853,0,0,0
980,34879.4711036807,2010-10-22 23:04:48,120.01353310173047,1,4,0.0,3.4436466693878174,2.924969662592778,2.936636302429659,11.720661485772364,10.668778501403535,0.0003885269106831,0.0923885703086853,0,0,0
981,34909.48593282406,2010-10-22 23:05:18,30.01515000424133,2,4,0.5501165986061096,3.5990569591522217,2.929556044481886,2.936636302429659,11.737004171937905,10.668778501403535,0.0016511917347088,0.0923885703086853,0,0,0
982,34939.501081309514,2010-10-22 23:05:48,60.03029851475986,2,4,0.550297200679779,3.64713716506958,2.934142391763399,2.936636302429659,11.753627759573137,10.668778501403535,0.0011008263099938,0.0923885703086853,0,0,0
983,34969.51625427097,2010-10-22 23:06:18,90.04547154138005,2,4,0.5501165986061096,3.6817805767059326,2.93872872063839,2.936636302429659,11.770437379232638,10.668778501403535,0.0008741855854168,0.0923885703086853,0,0,0
984,34999.53141857084,2010-10-22 23:06:48,120.06063575102564,2,4,0.5501165986061096,3.708653688430786,2.943315036728869,2.936636302429659,11.787386486144364,10.668778501403535,0.0006475448608398,0.0923885703086853,0,0,0
985,35029.546577522386,2010-10-22 23:07:18,150.0757947025664,2,4,0.5501165986061096,3.730508327484131,2.947901329845384,2.936636302429659,11.804446962621723,10.668778501403535,0.0005504131549969,0.0923885703086853,0,0,0
986,35059.56185903939,2010-10-22 23:07:48,180.09107622459047,2,4,0.5499359965324402,3.748477697372437,2.952487623241192,2.936636302429659,11.821598526377612,10.668778501403535,0.0003885269106831,0.0923885703086853,0,0,0
987,35089.577025264065,2010-10-22 23:08:18,210.10624244424568,2,4,0.550297200679779,3.762237787246704,2.957073914625034,2.936636302429659,11.838823023876907,10.668778501403535,0.0003561496851034,0.0923885703086853,0,0,0
988,35119.592084807846,2010-10-22 23:08:48,240.1213019880317,2,4,0.5497553944587708,3.770493984222412,2.961660251470767,2.936636302429659,11.856098157225468,10.668778501403535,0.0001618862152099,0.0923885703086853,0,0,0
989,35149.60735086132,2010-10-22 23:09:18,270.1365680515284,2,4,0.5501165986061096,3.775674343109131,2.966246593363468,2.936636302429659,11.87340360615566,10.668778501403535,0.0001295089750783,0.0923885703086853,0,0,0
990,35179.62238686644,2010-10-22 23:09:48,300.1516040466239,2,4,0.5501165986061096,3.77972149848938,2.970832856651337,2.936636302429659,11.890729449748925,10.668778501403535,9.713172767078504e-05,0.0923885703086853,0,0,0
991,35209.63757352202,2010-10-22 23:10:18,330.16679073228664,2,4,0.5501165986061096,3.783444881439209,2.975419142241928,2.936636302429659,11.90807313836677,10.668778501403535,6.47544875391759e-05,0.0923885703086853,0,0,0
992,35239.6527409948,2010-10-22 23:10:48,360.1819582251149,2,4,0.5501165986061096,3.787168264389038,2.980005493067421,2.936636302429659,11.92543409033424,10.668778501403535,9.713172767078504e-05,0.0923885703086853,0,0,0
993,35269.66790443754,2010-10-22 23:11:18,390.1971216227368,2,4,0.5501165986061096,3.790891647338867,2.984591846049895,2.936636302429659,11.942811709573316,10.668778501403535,9.713172767078504e-05,0.0923885703086853,0,0,0
994,35299.68316909754,2010-10-22 23:11:48,420.2123862727104,2,4,0.5499359965324402,3.7941293716430655,2.989178141205647,2.936636302429659,11.960205284719008,10.668778501403535,6.47544875391759e-05,0.0923885703086853,0,0,0
995,35329.69822731301,2010-10-22 23:12:18,450.2274445433234,2,4,0.5501165986061096,3.797852754592896,2.993764433573746,2.936636302429659,11.97761496794072,10.668778501403535,9.713172767078504e-05,0.0923885703086853,0,0,0
996,35359.71341628938,2010-10-22 23:12:48,480.2426335898701,2,4,0.550297200679779,3.8012523651123047,2.998350787284978,2.936636302429659,11.995040645157204,10.668778501403535,9.713172767078504e-05,0.0923885703086853,0,0,0
997,35389.72853741666,2010-10-22 23:13:18,510.25775459684127,2,4,0.5501165986061096,3.804490089416504,3.00293712960136,2.936636302429659,12.012481604596047,10.668778501403535,9.713172767078504e-05,0.0923885703086853,0,0,0
998,35419.74369499478,2010-10-22 23:13:48,540.2729121749591,2,4,0.5501165986061096,3.807727813720703,3.007523514580806,2.936636302429659,12.029937868428796,10.668778501403535,9.713172767078504e-05,0.0923885703086853,0,0,0
999,35449.758985118235,2010-10-22 23:14:19,570.2882022984207,2,4,0.5501165986061096,3.8109655380249023,3.012109844148692,2.936636302429659,12.047408792119418,10.668778501403535,6.47544875391759e-05,0.0923885703086853,0,0,0
1000,35479.774036286144,2010-10-22 23:14:49,600.3032534663315,2,4,0.5499359965324402,3.814365148544312,3.016696176297083,2.936636302429659,12.064894602297825,10.668778501403535,9.713172767078504e-05,0.0923885703086853,0,0,0
1001,35509.78919368381,2010-10-22 23:15:19,630.3184108639995,2,4,0.5499359965324402,3.817279100418091,3.021282506071669,2.936636302429659,12.0823952061557,10.668778501403535,6.47544875391759e-05,0.0923885703086853,0,0,0
1002,35539.80439243455,2010-10-22 23:15:49,660.3336096097196,2,4,0.5501165986061096,3.8206787109375,3.025868806888355,2.936636302429659,12.09991028667309,10.668778501403535,9.713172767078504e-05,0.0923885703086853,0,0,0
1003,35569.81952423843,2010-10-22 23:16:19,690.3487414436751,2,4,0.550297200679779,3.823916435241699,3.030455132979657,2.936636302429659,12.117440139178882,10.668778501403535,9.713172767078504e-05,0.0923885703086853,0,0,0
1004,35599.83470303442,2010-10-22 23:16:49,720.3639202246368,2,4,0.5499359965324402,3.8271541595458975,3.035041415471774,2.936636302429659,12.134984665567496,10.668778501403535,9.713172767078504e-05,0.0923885703086853,0,0,0
1005,35629.84997160918,2010-10-22 23:17:19,750.3791887993923,2,4,0.5501165986061096,3.8303918838500977,3.039627718067173,2.936636302429659,12.152544434443213,10.668778501403535,9.713172767078504e-05,0.0923885703086853,0,0,0
1006,35659.86513348301,2010-10-22 23:17:49,780.3943506682036,2,4,0.5501165986061096,3.833791255950928,3.044214093066544,2.936636302429659,12.170119943173107,10.668778501403535,9.713172767078504e-05,0.0923885703086853,0,0,0
1007,35689.880182570734,2010-10-22 23:18:19,810.4093997759802,2,4,0.5501165986061096,3.837352752685547,3.048800412218855,2.936636302429659,12.187710986975231,10.668778501403535,0.0001295089750783,0.0923885703086853,0,0,0
1008,35719.895695013285,2010-10-22 23:18:49,840.4249122736667,2,4,0.5501165986061096,3.840752363204956,3.05338680706476,2.936636302429659,12.205318237736858,10.668778501403535,0.0001295089750783,0.0923885703086853,0,0,0
1009,35749.910534062525,2010-10-22 23:19:19,870.4397512427126,2,4,0.5499359965324402,3.844151973724365,3.057973039573683,2.936636302429659,12.22294080203034,10.668778501403535,6.47544875391759e-05,0.0923885703086853,0,0,0
1010,35779.92580550443,2010-10-22 23:19:49,900.4550226896264,2,4,0.5499359965324402,3.8475515842437744,3.062559426519973,2.936636302429659,12.240579778646111,10.668778501403535,6.47544875391759e-05,0.0923885703086853,0,0,0
1011,35809.9408343868,2010-10-22 23:20:19,930.4700515770072,2,4,0.5501165986061096,3.8511130809783936,3.06714570821748,2.936636302429659,12.258233940468807,10.668778501403535,9.713172767078504e-05,0.0923885703086853,0,0,0
1012,35839.956138655514,2010-10-22 23:20:49,960.4853559309356,2,4,0.5501165986061096,3.8543508052825928,3.071732114607135,2.936636302429659,12.27590390373848,10.668778501403535,9.713172767078504e-05,0.0923885703086853,0,0,0
1013,35869.971164369985,2010-10-22 23:21:19,990.5003815501713,2,4,0.5501165986061096,3.857426643371582,3.0763184521902,2.936636302429659,12.29358875391268,10.668778501403535,6.47544875391759e-05,0.0923885703086853,0,0,0
1014,35899.986328318984,2010-10-22 23:21:49,1020.5155454991672,2,4,0.5499359965324402,3.860664367675781,3.080904829849476,2.936636302429659,12.311288493501102,10.668778501403535,6.47544875391759e-05,0.0923885703086853,0,0,0
1015,35930.0014935211,2010-10-22 23:22:19,1050.5307107263486,2,4,0.5501165986061096,3.863902091979981,3.085491136448888,2.936636302429659,12.329002426230852,10.668778501403535,9.713172767078504e-05,0.0923885703086853,0,0,0
1016,35960.016699845706,2010-10-22 23:22:49,1080.5459170509578,2,4,0.5501165986061096,3.8669779300689697,3.090077467982519,2.936636302429659,12.346730463707557,10.668778501403535,9.713172767078504e-05,0.0923885703086853,0,0,0
1017,35990.03205371805,2010-10-22 23:23:19,1110.5612709182888,2,4,0.5499359965324402,3.869891881942749,3.094663832801808,2.936636302429659,12.364472259004778,10.668778501403535,9.713172767078504e-05,0.0923885703086853,0,0,0
1018,36020.04698866631,2010-10-22 23:23:49,1140.5762058464943,2,4,0.5501165986061096,3.8726439476013184,3.099250173561607,2.936636302429659,12.382227092766152,10.668778501403535,9.713172767078504e-05,0.0923885703086853,0,0,0
1019,36050.06215498622,2010-10-22 23:24:19,1170.5913721914617,2,4,0.5501165986061096,3.875396013259888,3.103836553567711,2.936636302429659,12.399994567863674,10.668778501403535,6.47544875391759e-05,0.0923885703086853,0,0,0
1020,36080.07734086487,2010-10-22 23:24:49,1200.6065580450509,2,4,0.5499359965324402,3.877662420272827,3.108422894253881,2.936636302429659,12.41777382452584,10.668778501403535,0.0,0.0923885703086853,0,0,0
1021,36110.09248461853,2010-10-22 23:25:19,1230.6217018187638,2,4,0.5499359965324402,3.8802525997161865,3.113009263476335,2.936636302429659,12.43556453281388,10.668778501403535,6.47544875391759e-05,0.0923885703086853,0,0,0
1022,36140.10765139958,2010-10-22 23:25:49,1260.6368686048304,2,4,0.550297200679779,3.882357120513916,3.117595648852374,2.936636302429659,12.453365962150208,10.668778501403535,6.47544875391759e-05,0.0923885703086853,0,0,0
1023,36170.1229576783,2010-10-22 23:26:19,1290.6521748885684,2,4,0.5499359965324402,3.8844616413116455,3.122182046802198,2.936636302429659,12.471177499111178,10.668778501403535,3.237724376958795e-05,0.0923885703086853,0,0,0
1024,36200.13802269072,2010-10-22 23:26:49,1320.667239870909,2,4,0.550297200679779,3.886566162109375,3.126768425282432,2.936636302429659,12.488998277620851,10.668778501403535,6.47544875391759e-05,0.0923885703086853,0,0,0
1025,36230.15315588808,2010-10-22 23:27:19,1350.6823730933247,2,4,0.5501165986061096,3.8885087966918954,3.13135479198962,2.936636302429659,12.506827767110316,10.668778501403535,6.47544875391759e-05,0.0923885703086853,0,0,0
1026,36260.16849668784,2010-10-22 23:27:49,1380.697713888075,2,4,0.550297200679779,3.890127658843994,3.135941171951195,2.936636302429659,12.52466550876384,10.668778501403535,6.47544875391759e-05,0.0923885703086853,0,0,0
1027,36290.1834737661,2010-10-22 23:28:19,1410.7126909964063,2,4,0.550297200679779,3.891908407211304,3.140527558825283,2.936636302429659,12.542510898239144,10.668778501403535,6.47544875391759e-05,0.0923885703086853,0,0,0
1028,36320.19864827641,2010-10-22 23:28:49,1440.727865481662,2,4,0.5499359965324402,3.893041610717773,3.145113902436205,2.936636302429659,12.56036325450676,10.668778501403535,-3.237724376958795e-05,0.0923885703086853,0,0,0
1029,36350.21392190376,2010-10-22 23:29:19,1470.7431390839477,2,4,0.5501165986061096,3.894660472869873,3.149700328225355,2.936636302429659,12.578222792123018,10.668778501403535,0.0,0.0923885703086853,0,0,0
1030,36380.22897846512,2010-10-22 23:29:49,1500.7581956453007,2,4,0.550297200679779,3.8961174488067623,3.154286659295861,2.936636302429659,12.596087852000906,10.668778501403535,6.47544875391759e-05,0.0923885703086853,0,0,0
1031,36410.244374447415,2010-10-22 23:30:19,1530.7735917729572,2,4,0.5501165986061096,3.897250652313232,3.158873043780517,2.936636302429659,12.613959603823147,10.668778501403535,0.0,0.0923885703086853,0,0,0
1032,36440.259308042296,2010-10-22 23:30:49,1560.7885252174651,2,4,0.5501165986061096,3.898707628250122,3.163459314918222,2.936636302429659,12.631836963734644,10.668778501403535,3.237724376958795e-05,0.0923885703086853,0,0,0
1033,36470.27446740987,2010-10-22 23:31:19,1590.8036846151176,2,4,0.5499359965324402,3.9000027179718018,3.168045629849458,2.936636302429659,12.649720596810484,10.668778501403535,3.237724376958795e-05,0.0923885703086853,0,0,0
1034,36500.293363986726,2010-10-22 23:31:49,1620.8225812922203,2,4,0.550297200679779,3.9012978076934814,3.17263245332282,2.936636302429659,12.667612079119335,10.668778501403535,6.47544875391759e-05,0.0923885703086853,0,0,0
1035,36530.30512170133,2010-10-22 23:32:19,1650.83433892162,2,4,0.5501165986061096,3.902754783630371,3.177218224015924,2.936636302429659,12.685505440599714,10.668778501403535,9.713172767078504e-05,0.0923885703086853,0,0,0
1036,36560.31998945212,2010-10-22 23:32:49,1680.8492066723989,2,4,0.5499359965324402,3.903887987136841,3.181804536089994,2.936636302429659,12.703406856859882,10.668778501403535,3.237724376958795e-05,0.0923885703086853,0,0,0
1037,36590.335163626594,2010-10-22 23:33:19,1710.8643808368547,2,4,0.5501165986061096,3.905021190643311,3.186390916333673,2.936636302429659,12.721314528029891,10.668778501403535,0.0,0.0923885703086853,0,0,0
1038,36620.35029152073,2010-10-22 23:33:49,1740.879508741016,2,4,0.5501165986061096,3.9063162803649902,3.190977263962497,2.936636302429659,12.739227881009136,10.668778501403535,0.0,0.0923885703086853,0,0,0
1039,36650.365451364494,2010-10-22 23:34:19,1770.8946685747555,2,4,0.5501165986061096,3.90777325630188,3.195563530185425,2.936636302429659,12.757146967007134,10.668778501403535,3.237724376958795e-05,0.0923885703086853,0,0,0
1040,36680.38083564764,2010-10-22 23:34:49,1800.9100528528795,2,4,0.5499359965324402,3.90906834602356,3.200149834436165,2.936636302429659,12.775072159582056,10.668778501403535,3.237724376958795e-05,0.0923885703086853,0,0,0
1041,36710.3957855281,2010-10-22 23:35:19,1830.9250027082885,2,4,0.5499359965324402,3.9103634357452393,3.204736091562126,2.936636302429659,12.793003258541155,10.668778501403535,3.237724376958795e-05,0.0923885703086853,0,0,0
1042,36740.4110791152,2010-10-22 23:35:49,1860.9402964156825,2,4,0.5501165986061096,3.911820411682129,3.209322443856371,2.936636302429659,12.810940740569134,10.668778501403535,6.47544875391759e-05,0.0923885703086853,0,0,0
1043,36770.426071396345,2010-10-22 23:36:19,1890.955288576529,2,4,0.5499359965324402,3.9132773876190186,3.213908412247506,2.936636302429659,12.8288828313269,10.668778501403535,9.713172767078504e-05,0.0923885703086853,0,0,0
1044,36800.441268848845,2010-10-22 23:36:49,1920.970486029026,2,4,0.5499359965324402,3.914572238922119,3.21849392768661,2.936636302429659,12.846829175654523,10.668778501403535,9.713172767078504e-05,0.0923885703086853,0,0,0
1045,36830.456419995935,2010-10-22 23:37:19,1950.985637226241,2,4,0.5499359965324402,3.915543556213379,3.223079572418227,2.936636302429659,12.86478223562276,10.668778501403535,0.0,0.0923885703086853,0,0,0
1046,36860.47158710781,2010-10-22 23:37:49,1981.0008042930071,2,4,0.5501165986061096,3.9171624183654794,3.227665020088657,2.936636302429659,12.8827405984012,10.668778501403535,9.713172767078504e-05,0.0923885703086853,0,0,0
1047,36890.486879526994,2010-10-22 23:38:19,2011.016096707178,2,4,0.5499359965324402,3.918295621871948,3.23225051021884,2.936636302429659,12.90070548981209,10.668778501403535,3.237724376958795e-05,0.0923885703086853,0,0,0
1048,36920.50200505022,2010-10-22 23:38:49,2041.031222230405,2,4,0.5499359965324402,3.919752597808838,3.236835970495019,2.936636302429659,12.91867660558056,10.668778501403535,0.0,0.0923885703086853,0,0,0
1049,36950.5170860174,2010-10-22 23:39:19,2071.04630320761,2,4,0.5501165986061096,3.9213714599609375,3.241421563632348,2.936636302429659,12.936654573611468,10.668778501403535,6.47544875391759e-05,0.0923885703086853,0,0,0
1050,36980.53237218099,2010-10-22 23:39:49,2101.06158938624,2,4,0.5499359965324402,3.922828435897827,3.246007973675276,2.936636302429659,12.95464233531183,10.668778501403535,6.47544875391759e-05,0.0923885703086853,0,0,0
1051,37010.54745271208,2010-10-22 23:40:19,2131.076669947407,2,4,0.550297200679779,3.924123525619507,3.25059436677728,2.936636302429659,12.972636493141753,10.668778501403535,3.237724376958795e-05,0.0923885703086853,0,0,0
1052,37040.56261055085,2010-10-22 23:40:49,2161.0918278363,2,4,0.5499359965324402,3.925580501556397,3.2551807828051,2.936636302429659,12.990637291855249,10.668778501403535,3.237724376958795e-05,0.0923885703086853,0,0,0
1053,37070.577878534124,2010-10-22 23:41:19,2191.107095724344,2,4,0.550297200679779,3.927037477493286,3.259767267414836,2.936636302429659,13.0086448038092,10.668778501403535,6.47544875391759e-05,0.0923885703086853,0,0,0
1054,37100.59291251922,2010-10-22 23:41:49,2221.122129734492,2,4,0.5501165986061096,3.928332567214966,3.264353645376888,2.936636302429659,13.026658520728947,10.668778501403535,3.237724376958795e-05,0.0923885703086853,0,0,0
1055,37130.60809311972,2010-10-22 23:42:19,2251.137310309926,2,4,0.5501165986061096,3.929789543151856,3.268940010577002,2.936636302429659,13.044678752527464,10.668778501403535,3.237724376958795e-05,0.0923885703086853,0,0,0
1056,37160.623255359445,2010-10-22 23:42:49,2281.1524725647,2,4,0.550297200679779,3.931408405303955,3.273526364921691,2.936636302429659,13.062705650200066,10.668778501403535,6.47544875391759e-05,0.0923885703086853,0,0,0
1057,37190.63840679727,2010-10-22 23:43:19,2311.1676239774515,2,4,0.5501165986061096,3.9327034950256343,3.278112748062144,2.936636302429659,13.080739405126575,10.668778501403535,3.237724376958795e-05,0.0923885703086853,0,0,0
1058,37220.6537289255,2010-10-22 23:43:49,2341.1829461257284,2,4,0.5501165986061096,3.934160470962525,3.282699209338697,2.936636302429659,13.098780296722776,10.668778501403535,0.0,0.0923885703086853,0,0,0
1059,37250.668769602256,2010-10-22 23:44:19,2371.1979869027423,2,4,0.5499359965324402,3.935779333114624,3.287285609802909,2.936636302429659,13.116827772486271,10.668778501403535,3.237724376958795e-05,0.0923885703086853,0,0,0
1060,37280.684003239934,2010-10-22 23:44:49,2401.213220435161,2,4,0.5501165986061096,3.937398195266724,3.291872096830894,2.936636302429659,13.134882350180291,10.668778501403535,9.713172767078504e-05,0.0923885703086853,0,0,0
1061,37310.69906523483,2010-10-22 23:45:19,2431.228282415019,2,4,0.5499359965324402,3.9386932849884033,3.29645842830174,2.936636302429659,13.152943357760131,10.668778501403535,3.237724376958795e-05,0.0923885703086853,0,0,0
1062,37340.7142056602,2010-10-22 23:45:49,2461.243422890512,2,4,0.5499359965324402,3.940150260925293,3.301044875109571,2.936636302429659,13.171011746963528,10.668778501403535,3.237724376958795e-05,0.0923885703086853,0,0,0
1063,37370.72937190492,2010-10-22 23:46:20,2491.2585890851046,2,4,0.5499359965324402,3.9417691230773926,3.305631270533378,2.936636302429659,13.18908689018532,10.668778501403535,6.47544875391759e-05,0.0923885703086853,0,0,0
1064,37400.74454978864,2010-10-22 23:46:50,2521.27376696883,2,4,0.5499359965324402,3.943226099014282,3.310217688379832,2.936636302429659,13.207169179570572,10.668778501403535,3.237724376958795e-05,0.0923885703086853,0,0,0
1065,37430.759830333234,2010-10-22 23:47:20,2551.289047523443,2,4,0.5501165986061096,3.944844961166382,3.314804176641723,2.936636302429659,13.225258918655529,10.668778501403535,6.47544875391759e-05,0.0923885703086853,0,0,0
1066,37460.77488937577,2010-10-22 23:47:50,2581.304106581017,2,4,0.5499359965324402,3.9464638233184814,3.319390589120397,2.936636302429659,13.243355593460818,10.668778501403535,6.47544875391759e-05,0.0923885703086853,0,0,0
1067,37490.79006339487,2010-10-22 23:48:20,2611.3192805750487,2,4,0.5501165986061096,3.947920799255371,3.323977092483392,2.936636302429659,13.26145977634332,10.668778501403535,3.237724376958795e-05,0.0923885703086853,0,0,0
1068,37520.805256210806,2010-10-22 23:48:50,2641.3344733909894,2,4,0.5501165986061096,3.9497015476226807,3.328563587031244,2.936636302429659,13.279571266905846,10.668778501403535,3.237724376958795e-05,0.0923885703086853,0,0,0
1069,37550.82040807969,2010-10-22 23:49:20,2671.349625284941,2,4,0.5501165986061096,3.95132040977478,3.33315012493202,2.936636302429659,13.297690290245466,10.668778501403535,3.237724376958795e-05,0.0923885703086853,0,0,0
1070,37580.83568664434,2010-10-22 23:49:50,2701.364903834557,2,4,0.5501165986061096,3.95293927192688,3.337736620620909,2.936636302429659,13.31581649571192,10.668778501403535,3.237724376958795e-05,0.0923885703086853,0,0,0
1071,37610.85071762695,2010-10-22 23:50:20,2731.3799348071348,2,4,0.5501165986061096,3.95455813407898,3.342323074965631,2.936636302429659,13.333950047066672,10.668778501403535,3.237724376958795e-05,0.0923885703086853,0,0,0
1072,37640.86612817555,2010-10-22 23:50:50,2761.395345355733,2,4,0.5501165986061096,3.956176996231079,3.346909644030644,2.936636302429659,13.352091582176934,10.668778501403535,3.237724376958795e-05,0.0923885703086853,0,0,0
1073,37670.88118713287,2010-10-22 23:51:20,2791.4104043381194,2,4,0.5501165986061096,3.9577958583831783,3.351496172057943,2.936636302429659,13.370240434153892,10.668778501403535,3.237724376958795e-05,0.0923885703086853,0,0,0
1074,37700.89622799008,2010-10-22 23:51:50,2821.425445195333,2,4,0.5499359965324402,3.9594147205352783,3.356082670682544,2.936636302429659,13.388396795078709,10.668778501403535,3.237724376958795e-05,0.0923885703086853,0,0,0
1075,37730.91139075112,2010-10-22 23:52:20,2851.4406079313057,2,4,0.5501165986061096,3.961195468902588,3.360669258057668,2.936636302429659,13.406561139810746,10.668778501403535,9.713172767078504e-05,0.0923885703086853,0,0,0
1076,37760.92657050451,2010-10-22 23:52:50,2881.455787684691,2,4,0.5501165986061096,3.9629762172698975,3.36525581413343,2.936636302429659,13.42473306562668,10.668778501403535,3.237724376958795e-05,0.0923885703086853,0,0,0
1077,37790.94169807784,2010-10-22 23:53:20,2911.47091526304,2,4,0.5499359965324402,3.964433193206787,3.369842315857842,2.936636302429659,13.44291254442686,10.668778501403535,3.237724376958795e-05,0.0923885703086853,0,0,0
1078,37820.95686686389,2010-10-22 23:53:50,2941.486084054104,2,4,0.5501165986061096,3.9662139415740967,3.374428817233542,2.936636302429659,13.461099797054526,10.668778501403535,3.237724376958795e-05,0.0923885703086853,0,0,0
1079,37850.97222653068,2010-10-22 23:54:20,2971.5014437158766,2,4,0.5501165986061096,3.967832803726196,3.379015387719205,2.936636302429659,13.479295219998749,10.668778501403535,3.237724376958795e-05,0.0923885703086853,0,0,0
1080,37880.98725292184,2010-10-22 23:54:50,3001.5164701020235,2,4,0.5501165986061096,3.969775438308716,3.383601927933156,2.936636302429659,13.497498519075029,10.668778501403535,3.237724376958795e-05,0.0923885703086853,0,0,0
1081,37911.00255915545,2010-10-22 23:55:20,3031.531776360699,2,4,0.5501165986061096,3.971394300460816,3.388188514889484,2.936636302429659,13.515709976633133,10.668778501403535,3.237724376958795e-05,0.0923885703086853,0,0,0
1082,37941.01756822344,2010-10-22 23:55:50,3061.546785398609,2,4,0.5501165986061096,3.973336935043335,3.392775112047166,2.936636302429659,13.53392961042244,10.668778501403535,6.47544875391759e-05,0.0923885703086853,0,0,0
1083,37971.032860592495,2010-10-22 23:56:20,3091.56207777268,2,4,0.5501165986061096,3.9749557971954346,3.397361697742839,2.936636302429659,13.552157379440548,10.668778501403535,3.237724376958795e-05,0.0923885703086853,0,0,0
1084,38001.0479150486,2010-10-22 23:56:50,3121.5771322388105,2,4,0.5501165986061096,3.976736545562744,3.401948276503593,2.936636302429659,13.570393329241275,10.668778501403535,3.237724376958795e-05,0.0923885703086853,0,0,0
1085,38031.06323001899,2010-10-22 23:57:20,3151.5924472041856,2,4,0.5499359965324402,3.978679180145264,3.406534841016576,2.936636302429659,13.588637052731055,10.668778501403535,9.713172767078504e-05,0.0923885703086853,0,0,0
1086,38061.0782568713,2010-10-22 23:57:50,3181.6074740564945,2,4,0.5501165986061096,3.980459928512573,3.411121252583617,2.936636302429659,13.606889006829835,10.668778501403535,3.237724376958795e-05,0.0923885703086853,0,0,0
1087,38091.09340016882,2010-10-22 23:58:20,3211.622617374071,2,4,0.5501165986061096,3.9824025630950928,3.415707747119736,2.936636302429659,13.62514977771559,10.668778501403535,6.47544875391759e-05,0.0923885703086853,0,0,0
1088,38121.10858316529,2010-10-22 23:58:50,3241.637800355501,2,4,0.5501165986061096,3.9841833114624015,3.420294214851428,2.936636302429659,13.643418895940496,10.668778501403535,6.47544875391759e-05,0.0923885703086853,0,0,0
1089,38151.12379225178,2010-10-22 23:59:20,3271.653009452019,2,4,0.5501165986061096,3.986125946044922,3.424880685440394,2.936636302429659,13.661696615474964,10.668778501403535,6.47544875391759e-05,0.0923885703086853,0,0,0
1090,38181.1391406956,2010-10-22 23:59:50,3301.668357981045,2,4,0.5501165986061096,3.9880685806274414,3.4294671813919,2.936636302429659,13.679983123435564,10.668778501403535,3.237724376958795e-05,0.0923885703086853,0,0,0
1091,38211.1540741351,2010-10-23 00:00:20,3331.683291325304,2,4,0.5501165986061096,3.989849328994751,3.43405360042805,2.936636302429659,13.698277930730338,10.668778501403535,9.713172767078504e-05,0.0923885703086853,0,0,0
1092,38241.1692643696,2010-10-23 00:00:50,3361.698481549786,2,4,0.5501165986061096,3.991630077362061,3.438640129977704,2.936636302429659,13.71658211059344,10.668778501403535,3.237724376958795e-05,0.0923885703086853,0,0,0
1093,38271.18441077487,2010-10-23 00:01:20,3391.713627965082,2,4,0.5499359965324402,3.99357271194458,3.443226635329836,2.936636302429659,13.734895206713292,10.668778501403535,3.237724376958795e-05,0.0923885703086853,0,0,0
1094,38301.19956282924,2010-10-23 00:01:50,3421.728780009408,2,4,0.5499359965324402,3.9956769943237305,3.447813149620264,2.936636302429659,13.75321744546364,10.668778501403535,3.237724376958795e-05,0.0923885703086853,0,0,0
1095,38331.21472639225,2010-10-23 00:02:20,3451.743943572442,2,4,0.5501165986061096,3.99778151512146,3.452399633756471,2.936636302429659,13.77154877495617,10.668778501403535,6.47544875391759e-05,0.0923885703086853,0,0,0
1096,38361.22990298276,2010-10-23 00:02:50,3481.7591201529194,2,4,0.5501165986061096,3.9998860359191895,3.45698610445085,2.936636302429659,13.789889231843118,10.668778501403535,6.47544875391759e-05,0.0923885703086853,0,0,0
1097,38391.2451884847,2010-10-23 00:03:20,3511.7744056949628,2,4,0.5499359965324402,4.001990795135498,3.461572613113562,2.936636302429659,13.808239339745048,10.668778501403535,9.71794142969884e-05,0.0923885703086853,0,0,0
1098,38421.26283490578,2010-10-23 00:03:50,3541.7920522112804,2,4,0.5501165986061096,4.004095077514648,3.466159536455333,2.936636302429659,13.826600631476373,10.668778501403535,6.47544875391759e-05,0.0923885703086853,0,0,0
1099,38451.27562108364,2010-10-23 00:04:20,3571.804838298914,2,4,0.5501165986061096,4.006037712097168,3.470745658105203,2.936636302429659,13.844968353947603,10.668778501403535,3.23295607813634e-05,0.0923885703086853,0,0,0
1100,38481.29060713426,2010-10-23 00:04:50,3601.8198243545453,2,4,0.5499359965324402,4.008142471313477,3.475332068841919,2.936636302429659,13.863346957324964,10.668778501403535,3.24249267578125e-05,0.0923885703086853,0,0,0
1101,38511.3057728276,2010-10-23 00:05:20,3631.8349901431257,2,4,0.5499359965324402,4.010408878326416,3.479918520814575,2.936636302429659,13.88173548288676,10.668778501403535,6.47544875391759e-05,0.0923885703086853,0,0,0
1102,38541.32090181947,2010-10-23 00:05:50,3661.850118999661,2,4,0.5499359965324402,4.012513160705566,3.484504928734193,2.936636302429659,13.900133813286256,10.668778501403535,3.23295607813634e-05,0.0923885703086853,0,0,0
1103,38571.33605872592,2010-10-23 00:06:20,3691.865275921142,2,4,0.5501165986061096,4.014941692352295,3.489091444123138,2.936636302429659,13.918542686688252,10.668778501403535,9.71794142969884e-05,0.0923885703086853,0,0,0
1104,38601.35144568573,2010-10-23 00:06:50,3721.8806630012486,2,4,0.5501165986061096,4.017045974731445,3.493677893980097,2.936636302429659,13.936961409155662,10.668778501403535,6.47544875391759e-05,0.0923885703086853,0,0,0
1105,38631.366395811805,2010-10-23 00:07:20,3751.895612991996,2,4,0.5501165986061096,4.019312381744385,3.498264365071996,2.936636302429659,13.955390518316458,10.668778501403535,6.47544875391759e-05,0.0923885703086853,0,0,0
1106,38661.38156780084,2010-10-23 00:07:50,3781.9107849910542,2,4,0.550297200679779,4.021578788757324,3.502850791731907,2.936636302429659,13.973829700184012,10.668778501403535,6.47544875391759e-05,0.0923885703086853,0,0,0
1107,38691.39675057175,2010-10-23 00:08:20,3811.92596776196,2,4,0.5499359965324402,4.023845195770264,3.507437233967374,2.936636302429659,13.992279485159491,10.668778501403535,3.23295607813634e-05,0.0923885703086853,0,0,0
1108,38721.41191547312,2010-10-23 00:08:50,3841.9411326633294,2,4,0.5501165986061096,4.026111602783203,3.512023664957289,2.936636302429659,14.01073966505052,10.668778501403535,6.47544875391759e-05,0.0923885703086853,0,0,0
1109,38751.42705901124,2010-10-23 00:09:20,3871.956276226518,2,4,0.5499359965324402,4.028216361999512,3.516610137933072,2.936636302429659,14.02921066156326,10.668778501403535,3.24249267578125e-05,0.0923885703086853,0,0,0
1110,38781.44222291011,2010-10-23 00:09:50,3901.9714400903017,2,4,0.5501165986061096,4.030806541442871,3.521196620988068,2.936636302429659,14.047692402072856,10.668778501403535,6.47544875391759e-05,0.0923885703086853,0,0,0
1111,38811.45741443784,2010-10-23 00:10:20,3931.986631678182,2,4,0.5501165986061096,4.033234596252441,3.525783106891556,2.936636302429659,14.066184956608268,10.668778501403535,6.47544875391759e-05,0.0923885703086853,0,0,0
1112,38841.47271453617,2010-10-23 00:10:50,3962.001931841666,2,4,0.5499359965324402,4.035501003265381,3.530369610344173,2.936636302429659,14.084688535565215,10.668778501403535,6.47544875391759e-05,0.0923885703086853,0,0,0
1113,38871.48784506186,2010-10-23 00:11:20,3992.0170622420496,2,4,0.5501165986061096,4.037929058074951,3.534956053827366,2.936636302429659,14.103202903831129,10.668778501403535,6.47544875391759e-05,0.0923885703086853,0,0,0
1114,38901.50302876008,2010-10-23 00:11:50,4022.0322459703416,2,4,0.5501165986061096,4.04035758972168,3.539542496152867,2.936636302429659,14.121728310968644,10.668778501403535,6.47544875391759e-05,0.0923885703086853,0,0,0
1115,38931.51806026398,2010-10-23 00:12:20,4052.0472774692303,2,4,0.5501165986061096,4.04278564453125,3.544128827765788,2.936636302429659,14.140264405625484,10.668778501403535,6.47544875391759e-05,0.0923885703086853,0,0,0
1116,38961.533218127806,2010-10-23 00:12:50,4082.0624353180233,2,4,0.5501165986061096,4.045375823974609,3.548715237498082,2.936636302429659,14.158812081481615,10.668778501403535,9.70840483205393e-05,0.0923885703086853,0,0,0
1117,38991.54837167588,2010-10-23 00:13:20,4112.077588886147,2,4,0.5501165986061096,4.047642230987549,3.553301634315107,2.936636302429659,14.177370994810428,10.668778501403535,3.23295607813634e-05,0.0923885703086853,0,0,0
1118,39021.563617739535,2010-10-23 00:13:50,4142.092834944786,2,4,0.5501165986061096,4.050232410430908,3.557888036390317,2.936636302429659,14.195941423674286,10.668778501403535,6.47544875391759e-05,0.0923885703086853,0,0,0
1119,39051.578885442126,2010-10-23 00:14:20,4172.10810263233,2,4,0.5501165986061096,4.052984714508057,3.562474461258467,2.936636302429659,14.214523395805866,10.668778501403535,9.71794142969884e-05,0.0923885703086853,0,0,0
1120,39081.59393047975,2010-10-23 00:14:50,4202.123147669961,2,4,0.5501165986061096,4.055412769317627,3.567060920705076,2.936636302429659,14.233117211735676,10.668778501403535,6.47544875391759e-05,0.0923885703086853,0,0,0
1121,39111.60923129486,2010-10-23 00:15:20,4232.138448485071,2,4,0.5499359965324402,4.058002948760986,3.571647397438965,2.936636302429659,14.251722874463908,10.668778501403535,6.47544875391759e-05,0.0923885703086853,0,0,0
1122,39141.62449261654,2010-10-23 00:15:50,4262.153709801736,2,4,0.5499359965324402,4.060593128204346,3.576233887269813,2.936636302429659,14.270340600386152,10.668778501403535,9.70840483205393e-05,0.0923885703086853,0,0,0
1123,39171.63937413162,2010-10-23 00:16:20,4292.168591311808,2,4,0.5501165986061096,4.063021659851074,3.580820428728093,2.936636302429659,14.288970181710829,10.668778501403535,6.47544875391759e-05,0.0923885703086853,0,0,0
1124,39201.65458708776,2010-10-23 00:16:50,4322.183804267945,2,4,0.550297200679779,4.0657734870910645,3.585407702263671,2.936636302429659,14.307615047705593,10.668778501403535,6.47544875391759e-05,0.0923885703086853,0,0,0
1125,39231.66969058108,2010-10-23 00:17:20,4352.198907786329,2,4,0.550297200679779,4.068525791168213,3.589994767664995,2.936636302429659,14.326271241443576,10.668778501403535,6.47544875391759e-05,0.0923885703086853,0,0,0
1126,39261.68489215385,2010-10-23 00:17:50,4382.2141093390455,2,4,0.5501165986061096,4.071115970611572,3.59458199128963,2.936636302429659,14.344940501603718,10.668778501403535,3.24249267578125e-05,0.0923885703086853,0,0,0
1127,39291.70019030732,2010-10-23 00:18:21,4412.229407487507,2,4,0.550297200679779,4.074029922485352,3.599169267805499,2.936636302429659,14.363622369471576,10.668778501403535,0.0001295089750783,0.0923885703086853,0,0,0
1128,39321.7153141664,2010-10-23 00:18:51,4442.244531401725,2,4,0.5501165986061096,4.076620101928711,3.60375654086181,2.936636302429659,14.38231672274298,10.668778501403535,6.47544875391759e-05,0.0923885703086853,0,0,0
1129,39351.73034689335,2010-10-23 00:19:21,4472.2595640835625,2,4,0.550297200679779,4.07953405380249,3.608343809663283,2.936636302429659,14.40102374342449,10.668778501403535,0.0001295089750783,0.0923885703086853,0,0,0
1130,39381.74556950856,2010-10-23 00:19:51,4502.274786698773,2,4,0.5501165986061096,4.08212423324585,3.612930356245815,2.936636302429659,14.419740497020268,10.668778501403535,9.71794142969884e-05,0.0923885703086853,0,0,0
1131,39411.7607383297,2010-10-23 00:20:21,4532.289955519911,2,4,0.5499359965324402,4.08487606048584,3.617516917299328,2.936636302429659,14.438470145129273,10.668778501403535,3.23295607813634e-05,0.0923885703086853,0,0,0
1132,39441.77593259926,2010-10-23 00:20:51,4562.305149789475,2,4,0.5501165986061096,4.087952136993408,3.622103501288274,2.936636302429659,14.457212961026949,10.668778501403535,0.0001295089750783,0.0923885703086853,0,0,0
1133,39471.79107801708,2010-10-23 00:21:21,4592.320295197261,2,4,0.5501165986061096,4.090866088867188,3.626690088968253,2.936636302429659,14.475969006773669,10.668778501403535,0.0001295089750783,0.0923885703086853,0,0,0
1134,39501.80626285814,2010-10-23 00:21:51,4622.335480048351,2,4,0.5501165986061096,4.093617916107178,3.631276670364142,2.936636302429659,14.494738303859275,10.668778501403535,6.47544875391759e-05,0.0923885703086853,0,0,0
1135,39531.82143600005,2010-10-23 00:22:21,4652.3506532153215,2,4,0.5501165986061096,4.096693992614746,3.635863275870152,2.936636302429659,14.513521119158105,10.668778501403535,0.0001295089750783,0.0923885703086853,0,0,0
1136,39561.8368198872,2010-10-23 00:22:51,4682.366037092445,2,4,0.5501165986061096,4.099607944488525,3.640449934428497,2.936636302429659,14.532317645496732,10.668778501403535,6.47544875391759e-05,0.0923885703086853,0,0,0
1137,39591.8517844242,2010-10-23 00:23:21,4712.38100159937,2,4,0.5499359965324402,4.102359771728516,3.645036581990172,2.936636302429659,14.551127806096078,10.668778501403535,6.47544875391759e-05,0.0923885703086853,0,0,0
1138,39621.86691124064,2010-10-23 00:23:51,4742.3961284208335,2,4,0.5499359965324402,4.105597496032715,3.649623227472673,2.936636302429659,14.569951746668815,10.668778501403535,6.47544875391759e-05,0.0923885703086853,0,0,0
1139,39651.88208987625,2010-10-23 00:24:21,4772.411307096532,2,4,0.5501165986061096,4.108673572540283,3.654209880737784,2.936636302429659,14.588789563823823,10.668778501403535,6.47544875391759e-05,0.0923885703086853,0,0,0
1140,39681.8972604668,2010-10-23 00:24:51,4802.426477646982,2,4,0.5501165986061096,4.111587524414063,3.658796525759247,2.936636302429659,14.607641304367377,10.668778501403535,9.71794142969884e-05,0.0923885703086853,0,0,0
1141,39711.91240372422,2010-10-23 00:25:21,4832.441620904408,2,4,0.5501165986061096,4.114824771881104,3.663383136089354,2.936636302429659,14.626506940505887,10.668778501403535,9.70840483205393e-05,0.0923885703086853,0,0,0
1142,39741.9275957482,2010-10-23 00:25:51,4862.456812938401,2,4,0.5501165986061096,4.117738723754883,3.667969751961556,2.936636302429659,14.64538677042135,10.668778501403535,6.47544875391759e-05,0.0923885703086853,0,0,0
1143,39771.94274789277,2010-10-23 00:26:21,4892.471965072951,2,4,0.550297200679779,4.121138572692871,3.672556319255233,2.936636302429659,14.66428075098404,10.668778501403535,6.47544875391759e-05,0.0923885703086853,0,0,0
1144,39801.95792695944,2010-10-23 00:26:51,4922.487144179725,2,4,0.5499359965324402,4.12405252456665,3.677142959202871,2.936636302429659,14.683189533104546,10.668778501403535,6.47544875391759e-05,0.0923885703086853,0,0,0
1145,39831.97312108364,2010-10-23 00:27:21,4952.502338293902,2,4,0.550297200679779,4.1274518966674805,3.681729605616154,2.936636302429659,14.702112945569692,10.668778501403535,9.70840483205393e-05,0.0923885703086853,0,0,0
1146,39861.98834265124,2010-10-23 00:27:51,4982.517559841452,2,4,0.5501165986061096,4.130527973175049,3.686316270206575,2.936636302429659,14.721051106442143,10.668778501403535,9.71794142969884e-05,0.0923885703086853,0,0,0
1147,39892.00344180875,2010-10-23 00:28:21,5012.532659114254,2,4,0.5501165986061096,4.133765697479248,3.690902919764265,2.936636302429659,14.740004011001158,10.668778501403535,6.47544875391759e-05,0.0923885703086853,0,0,0
1148,39922.01860728155,2010-10-23 00:28:51,5042.547824471761,2,4,0.5501165986061096,4.137327194213867,3.695489551086513,2.936636302429659,14.758971844442703,10.668778501403535,0.0001295089750783,0.0923885703086853,0,0,0
1149,39952.03406897764,2010-10-23 00:29:21,5072.563286167834,2,4,0.5499359965324402,4.140241146087647,3.700076298530141,2.936636302429659,14.777955299688596,10.668778501403535,6.47544875391759e-05,0.0923885703086853,0,0,0
1150,39982.04891511454,2010-10-23 00:29:51,5102.578132334819,2,4,0.5501165986061096,4.143478870391846,3.704662907747035,2.936636302429659,14.796953383107011,10.668778501403535,3.24249267578125e-05,0.0923885703086853,0,0,0
1151,40012.064090411805,2010-10-23 00:30:21,5132.593307622074,2,4,0.5501165986061096,4.147202014923096,3.709249499670321,2.936636302429659,14.815967025036205,10.668778501403535,9.70840483205393e-05,0.0923885703086853,0,0,0
1152,40042.07928005986,2010-10-23 00:30:51,5162.608497275131,2,4,0.5501165986061096,4.150601863861084,3.713836185117519,2.936636302429659,14.834996560789929,10.668778501403535,9.71794142969884e-05,0.0923885703086853,0,0,0
1153,40072.094419056666,2010-10-23 00:31:21,5192.623636246877,2,4,0.5501165986061096,4.153839588165283,3.718422772145702,2.936636302429659,14.854041233703365,10.668778501403535,6.47544875391759e-05,0.0923885703086853,0,0,0
1154,40102.10971989684,2010-10-23 00:31:51,5222.638937187297,2,4,0.5501165986061096,4.157401084899902,3.723009406415867,2.936636302429659,14.873101731697366,10.668778501403535,9.71794142969884e-05,0.0923885703086853,0,0,0
1155,40132.12475367641,2010-10-23 00:32:21,5252.653970856597,2,4,0.550297200679779,4.160800457000732,3.727595991297226,2.936636302429659,14.892177863158846,10.668778501403535,6.47544875391759e-05,0.0923885703086853,0,0,0
1156,40162.13994988581,2010-10-23 00:32:51,5282.669167065995,2,4,0.5501165986061096,4.164361953735352,3.732182648605608,2.936636302429659,14.911270226641385,10.668778501403535,9.70840483205393e-05,0.0923885703086853,0,0,0
1157,40192.15509905798,2010-10-23 00:33:21,5312.684316248188,2,4,0.5499359965324402,4.16776180267334,3.73676923153907,2.936636302429659,14.930378183655078,10.668778501403535,9.71794142969884e-05,0.0923885703086853,0,0,0
1158,40222.17027677128,2010-10-23 00:33:51,5342.699493961489,2,4,0.5501165986061096,4.171323299407959,3.741355930729397,2.936636302429659,14.949502828575048,10.668778501403535,6.47544875391759e-05,0.0923885703086853,0,0,0
1159,40252.18543116146,2010-10-23 00:34:21,5372.714648351661,2,4,0.5501165986061096,4.174884796142578,3.745942540437182,2.936636302429659,14.968643318750914,10.668778501403535,0.0001295089750783,0.0923885703086853,0,0,0
1160,40282.20060188232,2010-10-23 00:34:51,5402.729819092585,2,4,0.5501165986061096,4.178446292877197,3.750529114490728,2.936636302429659,14.987799924245328,10.668778501403535,9.71794142969884e-05,0.0923885703086853,0,0,0
1161,40312.21576392658,2010-10-23 00:35:21,5432.744981131821,2,4,0.5499359965324402,4.181845664978027,3.755115730732457,2.936636302429659,15.006973130751,10.668778501403535,3.23295607813634e-05,0.0923885703086853,0,0,0
1162,40342.23353841183,2010-10-23 00:35:51,5462.762755717326,2,4,0.5501165986061096,4.185569286346436,3.759702778358811,2.936636302429659,15.026164616827517,10.668778501403535,9.71794142969884e-05,0.0923885703086853,0,0,0
1163,40372.246338679804,2010-10-23 00:36:21,5492.77555590009,2,4,0.5501165986061096,4.1892924308776855,3.764289012923754,2.936636302429659,15.045369453579829,10.668778501403535,0.0001295089750783,0.0923885703086853,0,0,0
1164,40402.261421792326,2010-10-23 00:36:51,5522.790638977529,2,4,0.5501165986061096,4.193016052246094,3.768875575788349,2.936636302429659,15.06459249865039,10.668778501403535,9.71794142969884e-05,0.0923885703086853,0,0,0
1165,40432.27643160216,2010-10-23 00:37:21,5552.805648792375,2,4,0.5499359965324402,4.196577072143555,3.773462211499215,2.936636302429659,15.083832799046183,10.668778501403535,6.47544875391759e-05,0.0923885703086853,0,0,0
1166,40457.63556009317,2010-10-23 00:37:46,5578.164777278371,2,4,0.5501165986061096,4.200138568878174,3.777337357094133,2.936636302429659,15.100101731419027,10.668778501403535,0.0001618385285837,0.0923885703086853,0,0,0
1167,40487.64974091558,2010-10-23 00:38:17,30.015183678167123,3,4,0.0,4.114339351654053,3.777337357094133,2.936636302429659,15.100101731419027,10.668778501403535,-0.0003885269106831,0.0923885703086853,0,0,0
1168,40517.664885972496,2010-10-23 00:38:47,60.030328730065705,3,4,0.0,4.103654861450195,3.777337357094133,2.936636302429659,15.100101731419027,10.668778501403535,-0.0001942634553415,0.0923885703086853,0,0,0
1169,40547.68010313912,2010-10-23 00:39:17,90.04554589168389,3,4,0.0,4.097179412841797,3.777337357094133,2.936636302429659,15.100101731419027,10.668778501403535,-0.0001295089750783,0.0923885703086853,0,0,0
1170,40577.64835109904,2010-10-23 00:39:47,120.01379385159936,3,4,0.0,4.093132495880127,3.777337357094133,2.936636302429659,15.100101731419027,10.668778501403535,-6.47544875391759e-05,0.0923885703086853,0,0,0
1171,40577.649324875376,2010-10-23 00:39:47,2.796970912e-06,4,4,0.9953184723854064,4.199814796447754,3.777337357867432,2.936636302429659,15.10010173466674,10.668778501403535,0.0,0.0923885703086853,0,0,0
1172,40578.5868299164,2010-10-23 00:39:48,0.937507732733891,4,4,0.9447478652000428,4.199653148651123,3.777588427985049,2.936636302429659,15.101156155170916,10.668778501403535,-3.23295607813634e-05,0.0923885703086853,0,0,0
1173,40580.72740531393,2010-10-23 00:39:50,3.078083155325581,4,4,0.8943579196929932,4.199491024017334,3.778134059818791,2.936636302429659,15.103447634304182,10.668778501403535,-6.47544875391759e-05,0.0923885703086853,0,0,0
1174,40583.93048106928,2010-10-23 00:39:53,6.281158880594713,4,4,0.8443291187286377,4.199491024017334,3.778906425061141,2.936636302429659,15.106691333320963,10.668778501403535,0.0,0.0923885703086853,0,0,0
1175,40588.336788623485,2010-10-23 00:39:57,10.687466434806748,4,4,0.794300377368927,4.199814796447754,3.779907944930116,2.936636302429659,15.110897436404269,10.668778501403535,0.0,0.0923885703086853,0,0,0
1176,40594.07095536637,2010-10-23 00:40:03,16.42163317768901,4,4,0.7440909743309021,4.199653148651123,3.781131570793873,2.936636302429659,15.116036303742725,10.668778501403535,-3.23295607813634e-05,0.0923885703086853,0,0,0
1177,40601.49272373175,2010-10-23 00:40:11,23.84340154307659,4,4,0.6940622329711914,4.199653148651123,3.782612307351325,2.936636302429659,15.122254985851972,10.668778501403535,-3.23295607813634e-05,0.0923885703086853,0,0,0
1178,40611.47692493321,2010-10-23 00:40:21,33.827602744532534,4,4,0.6438528299331665,4.199653148651123,3.78446484752198,2.936636302429659,15.130035147714652,10.668778501403535,3.24249267578125e-05,0.0923885703086853,0,0,0
1179,40625.33622650212,2010-10-23 00:40:34,47.68690430341776,4,4,0.5938240885734558,4.199653148651123,3.786841963270006,2.936636302429659,15.140018377487708,10.668778501403535,-3.23295607813634e-05,0.0923885703086853,0,0,0
1180,40646.3513949481,2010-10-23 00:40:55,68.70207278949073,4,4,0.5437952876091003,4.199653148651123,3.790151716337902,2.936636302429659,15.153918457259484,10.668778501403535,-3.23295607813634e-05,0.0923885703086853,0,0,0
1181,40682.28837563149,2010-10-23 00:41:31,104.63905348291128,4,4,0.4937665164470672,4.199653148651123,3.795308511560107,2.936636302429659,15.175575634396749,10.668778501403535,0.0,0.0923885703086853,0,0,0
1182,40747.725002911015,2010-10-23 00:42:37,170.07568076243868,4,4,0.4437377452850342,4.199653148651123,3.803790390108328,2.936636302429659,15.211197264028236,10.668778501403535,0.0,0.0923885703086853,0,0,0
1183,40848.270205162014,2010-10-23 00:44:17,270.6208829833585,4,4,0.3937089741230011,4.199653148651123,3.81545640234138,2.936636302429659,15.260191468892389,10.668778501403535,-3.23295607813634e-05,0.0923885703086853,0,0,0
1184,40972.53393623484,2010-10-23 00:46:22,394.8846140461612,4,4,0.343680202960968,4.199653148651123,3.828171109205982,2.936636302429659,15.313589923886878,10.668778501403535,-3.23295607813634e-05,0.0923885703086853,0,0,0
1185,41122.54731354908,2010-10-23 00:48:52,544.8979913704155,4,4,0.2936514317989349,4.199653148651123,3.841438886111364,2.936636302429659,15.369311081427917,10.668778501403535,0.0,0.0923885703086853,0,0,0
1186,41301.77891710833,2010-10-23 00:51:51,724.1295950048583,4,4,0.243622675538063,4.199653148651123,3.854788962659243,2.936636302429659,15.425377939573966,10.668778501403535,0.0,0.0923885703086853,0,0,0
1187,41522.634935166025,2010-10-23 00:55:32,944.985612982356,4,4,0.1935939043760299,4.199814796447754,3.8681603532786,2.936636302429659,15.481534286127472,10.668778501403535,0.0,0.0923885703086853,0,0,0
1188,41817.56793609795,2010-10-23 01:00:27,1239.9186139142942,4,4,0.1435651332139969,4.199814796447754,3.881890810175533,2.936636302429659,15.53919865732868,10.668778501403535,0.0,0.0923885703086853,0,0,0
1189,42257.467502516185,2010-10-23 01:07:47,1679.818180332521,4,4,0.0935363620519638,4.199653148651123,3.896168569515661,2.936636302429659,15.59916152205652,10.668778501403535,3.24249267578125e-05,0.0923885703086853,0,0,0
1190,42975.19107026504,2010-10-23 01:19:44,2397.54174807636,4,4,0.0496483072638511,4.199491024017334,3.909993570079332,2.936636302429659,15.657222799301838,10.668778501403535,-3.24249267578125e-05,0.0923885703086853,0,0,0
1191,43005.20831161926,2010-10-23 01:20:14,30.015027594157747,5,4,0.0,4.191720962524414,3.909993570079332,2.936636302429659,15.657222799301838,10.668778501403535,-6.47544875391759e-05,0.0923885703086853,0,0,0
1192,43035.20784060111,2010-10-23 01:20:44,60.01455644066751,5,4,0.0,4.190425872802734,3.909993570079332,2.936636302429659,15.657222799301838,10.668778501403535,-6.47544875391759e-05,0.0923885703086853,0,0,0
1193,43035.39488201395,2010-10-23 01:20:45,0.187682126607853,6,4,-1.9243103452026844e-05,4.190425872802734,3.909993570079332,2.936636303432878,15.657222799301838,10.668778505607452,0.0,0.0940094217658042,0,0,0
1194,43040.22274714937,2010-10-23 01:20:50,5.015547131697462,6,4,0.0007031940040178,4.190587520599365,3.909994508315578,2.936636303599871,15.657226731120517,10.668778506307223,-3.24249267578125e-05,0.0940094217658042,0,0,0
1195,43070.237344244335,2010-10-23 01:21:20,30.01519218436719,7,4,-1.0993878841400146,4.012675285339356,3.909994508315578,2.945804322367444,15.657226731120517,10.705766401555689,-0.0009388923645019,0.0940094217658042,0,0,0
1196,43100.25262155588,2010-10-23 01:21:50,60.03046947083501,7,4,-1.0997490882873535,3.985154628753662,3.909994508315578,2.954972302271888,15.657226731120517,10.742420133657596,-0.0006475448608398,0.0940094217658042,0,0,0
1197,43130.267656814125,2010-10-23 01:22:20,90.04550472408157,7,4,-1.099568486213684,3.966375827789306,3.909994508315578,2.964140158530328,15.657226731120517,10.778865249202926,-0.0004532813909463,0.0940094217658042,0,0,0
1198,43160.28281321431,2010-10-23 01:22:50,120.06066112927604,7,4,-1.099568486213684,3.9514822959899902,3.909994508315578,2.973308002805401,15.657226731120517,10.815157878013617,-0.0003561496851034,0.0940094217658042,0,0,0
1199,43190.29798124348,2010-10-23 01:23:20,150.07582915844105,7,4,-1.0997490882873535,3.939178943634033,3.909994508315578,2.982475879439685,15.657226731120517,10.851327355067314,-0.0002913951757363,0.0940094217658042,0,0,0
1200,43220.31316556826,2010-10-23 01:23:50,180.0910134832197,7,4,-1.099568486213684,3.928332567214966,3.909994508315578,2.991643772259384,15.657226731120517,10.887390440765428,-0.0002590179501567,0.0940094217658042,0,0,0
1201,43250.328365938025,2010-10-23 01:24:20,210.10621385298745,7,4,-1.099568486213684,3.918295621871948,3.909994508315578,3.00081169087163,15.657226731120517,10.923358264319408,-0.0002590179501567,0.0940094217658042,0,0,0
1202,43280.34367565532,2010-10-23 01:24:50,240.12152358030784,7,4,-1.099568486213684,3.90906834602356,3.909994508315578,3.00997972906802,15.657226731120517,10.95923766635333,-0.0001942634553415,0.0940094217658042,0,0,0
1203,43310.35866235756,2010-10-23 01:25:20,270.13651027252536,7,4,-1.099568486213684,3.9000027179718018,3.909994508315578,3.019147671034976,15.657226731120517,10.995032772217328,-0.0002266406954731,0.0940094217658042,0,0,0
1204,43340.37382532912,2010-10-23 01:25:50,300.1516732390728,7,4,-1.0997490882873535,3.891098976135254,3.909994508315578,3.028315658186786,15.657226731120517,11.030747126918802,-0.0002266406954731,0.0940094217658042,0,0,0
1205,43370.38906103696,2010-10-23 01:26:20,330.1669089769888,7,4,-1.0997490882873535,3.882519006729126,3.909994508315578,3.037483642498401,15.657226731120517,11.06638264375149,-0.0002913951757363,0.0940094217658042,0,0,0
1206,43400.40417004403,2010-10-23 01:26:50,360.1820179840525,7,4,-1.0997490882873535,3.874424695968628,3.909994508315578,3.046651601719959,15.657226731120517,11.101940934461812,-0.0002266406954731,0.0940094217658042,0,0,0
1207,43430.41934064961,2010-10-23 01:27:20,390.1971885896388,7,4,-1.0997490882873535,3.86616849899292,3.909994508315578,3.055819568036983,15.657226731120517,11.137424020996592,-0.0002266406954731,0.0940094217658042,0,0,0
1208,43460.43450117508,2010-10-23 01:27:50,420.21234908502726,7,4,-1.099568486213684,3.858236074447632,3.909994508315578,3.064987514184967,15.657226731120517,11.172832885487033,-0.0002266406954731,0.0940094217658042,0,0,0
1209,43490.4497278905,2010-10-23 01:28:20,450.22757583053146,7,4,-1.099568486213684,3.8504655361175537,3.909994508315578,3.074155503653779,15.657226731120517,11.208169199471378,-0.0001618862152099,0.0940094217658042,0,0,0
1210,43520.46484215567,2010-10-23 01:28:50,480.24269006562514,7,4,-1.099568486213684,3.842694997787476,3.909994508315578,3.083323428372399,15.657226731120517,11.243433657410469,-0.0001942634553415,0.0940094217658042,0,0,0
1211,43550.48029687436,2010-10-23 01:29:20,510.2581449146334,7,4,-1.0997490882873535,3.835086345672608,3.909994508315578,3.09249150492312,15.657226731120517,11.278628710660472,-0.0001942634553415,0.0940094217658042,0,0,0
1212,43580.49518244455,2010-10-23 01:29:50,540.2730303544989,7,4,-1.099568486213684,3.827639818191528,3.909994508315578,3.101659339751766,15.657226731120517,11.313754209740573,-0.0002266406954731,0.0940094217658042,0,0,0
1213,43610.51049186109,2010-10-23 01:30:20,570.2883398763071,7,4,-1.099568486213684,3.82051682472229,3.909994508315578,3.110827333207797,15.657226731120517,11.34881296580185,-0.0001942634553415,0.0940094217658042,0,0,0
1214,43640.52564229641,2010-10-23 01:30:50,600.3034902063605,7,4,-1.0997490882873535,3.813231945037842,3.909994508315578,3.119995303015042,15.657226731120517,11.383805309404172,-0.0001942634553415,0.0940094217658042,0,0,0
1215,43670.54068907839,2010-10-23 01:31:20,630.3185369933527,7,4,-1.099568486213684,3.806108951568604,3.909994508315578,3.129163198105406,15.657226731120517,11.41873131795504,-0.0001618862152099,0.0940094217658042,0,0,0
1216,43700.55600166784,2010-10-23 01:31:50,660.3338496078688,7,4,-1.099568486213684,3.799147844314575,3.909994508315578,3.138331098443322,15.657226731120517,11.453593009829508,-0.0001618862152099,0.0940094217658042,0,0,0
1217,43730.57104817413,2010-10-23 01:32:20,690.348896079074,7,4,-1.0997490882873535,3.792348623275757,3.909994508315578,3.147499055370044,15.657226731120517,11.488391884150754,-0.0001618862152099,0.0940094217658042,0,0,0
1218,43760.58623163175,2010-10-23 01:32:50,720.3640795617539,7,4,-1.0997490882873535,3.785711288452149,3.909994508315578,3.15666704162828,15.657226731120517,11.523129325885767,-0.0001942634553415,0.0940094217658042,0,0,0
1219,43790.60397871872,2010-10-23 01:33:20,750.3818267389495,7,4,-1.0997490882873535,3.77907395362854,3.909994508315578,3.165835802694961,15.657226731120517,11.55780977711174,-0.0002266406954731,0.0940094217658042,0,0,0
1220,43820.61676881636,2010-10-23 01:33:50,780.3946167613899,7,4,-1.099568486213684,3.772760391235352,3.909994508315578,3.175003087410376,15.657226731120517,11.5924257547474,-0.0001618862152099,0.0940094217658042,0,0,0
1221,43850.63173793978,2010-10-23 01:34:20,810.4095858497332,7,4,-1.0997490882873535,3.766608715057373,3.909994508315578,3.184170926646062,15.657226731120517,11.62698582507914,-0.0001295089750783,0.0940094217658042,0,0,0
1222,43880.64700399325,2010-10-23 01:34:50,840.4248519082174,7,4,-1.099568486213684,3.7604570388793945,3.909994508315578,3.193338934601709,15.657226731120517,11.661489288260093,-0.0001618862152099,0.0940094217658042,0,0,0
1223,43910.662066509445,2010-10-23 01:35:20,870.4399144193991,7,4,-1.099568486213684,3.754467248916626,3.909994508315578,3.202506844544871,15.657226731120517,11.695936878518213,-0.0001618862152099,0.0940094217658042,0,0,0
1224,43940.67722926546,2010-10-23 01:35:50,900.4550771754217,7,4,-1.099568486213684,3.748477697372437,3.909994508315578,3.211674887258795,15.657226731120517,11.730330211464388,-0.0001295089750783,0.0940094217658042,0,0,0
1225,43970.69261281176,2010-10-23 01:36:20,930.470460721722,7,4,-1.099568486213684,3.742649793624878,3.909994508315578,3.220842928165641,15.657226731120517,11.76466933655168,-0.0001295089750783,0.0940094217658042,0,0,0
1226,44000.70756995534,2010-10-23 01:36:50,960.4854178652952,7,4,-1.099568486213684,3.7368218898773193,3.909994508315578,3.23001085661055,15.657226731120517,11.798955214923025,-0.0001942634553415,0.0940094217658042,0,0,0
1227,44030.72273728777,2010-10-23 01:37:20,990.5005851927112,7,4,-1.0997490882873535,3.7313177585601807,3.909994508315578,3.239178777942644,15.657226731120517,11.833189357546,-0.0001618862152099,0.0940094217658042,0,0,0
1228,44060.7379064648,2010-10-23 01:37:50,1020.5157543697368,7,4,-1.099568486213684,3.725975513458252,3.909994508315578,3.24834668861824,15.657226731120517,11.867372977195862,-9.713172767078504e-05,0.0940094217658042,0,0,0
1229,44090.75308142624,2010-10-23 01:38:20,1050.5309293712792,7,4,-1.099568486213684,3.7206332683563232,3.909994508315578,3.25751466692043,15.657226731120517,11.901507033416618,-9.713172767078504e-05,0.0940094217658042,0,0,0
1230,44120.76826006685,2010-10-23 01:38:50,1080.5461079717911,7,4,-1.0997490882873535,3.714967250823975,3.909994508315578,3.266682621769696,15.657226731120517,11.935591261973782,-0.0001618862152099,0.0940094217658042,0,0,0
1231,44150.78349234615,2010-10-23 01:39:20,1110.561340281162,7,4,-1.0993878841400146,3.709948778152466,3.909994508315578,3.275850593217237,15.657226731120517,11.969626684465402,-0.0001295089750783,0.0940094217658042,0,0,0
1232,44180.798581052615,2010-10-23 01:39:50,1140.5764289625683,7,4,-1.0997490882873535,3.704606533050537,3.909994508315578,3.285018574314123,15.657226731120517,12.003614587538031,-0.0001295089750783,0.0940094217658042,0,0,0
1233,44210.81377190867,2010-10-23 01:40:20,1170.5916198186248,7,4,-1.099568486213684,3.699588060379028,3.909994508315578,3.294186561180823,15.657226731120517,12.03755566303159,-0.0001295089750783,0.0940094217658042,0,0,0
1234,44240.828936394006,2010-10-23 01:40:50,1200.60678430897,7,4,-1.099568486213684,3.69456958770752,3.909994508315578,3.303354532677377,15.657226731120517,12.07145057533194,-0.0001295089750783,0.0940094217658042,0,0,0
1235,44270.84438594982,2010-10-23 01:41:20,1230.6222340001234,7,4,-1.099568486213684,3.6897130012512207,3.909994508315578,3.312522655179788,15.657226731120517,12.105300135423724,-0.0001295089750783,0.0940094217658042,0,0,0
1236,44300.85932753963,2010-10-23 01:41:50,1260.637175569882,7,4,-1.0993878841400146,3.684856414794922,3.909994508315578,3.32169051348881,15.657226731120517,12.139103714606115,-9.713172767078504e-05,0.0940094217658042,0,0,0
1237,44330.87446933341,2010-10-23 01:42:20,1290.6523172684228,7,4,-1.0997490882873535,3.679837942123413,3.909994508315578,3.330858416469032,15.657226731120517,12.172862968769548,-0.0001618862152099,0.0940094217658042,0,0,0
1238,44360.88960066611,2010-10-23 01:42:50,1320.6674485760664,7,4,-1.0997490882873535,3.675143241882324,3.909994508315578,3.340026414665852,15.657226731120517,12.206578814710626,-0.0001942634553415,0.0940094217658042,0,0,0
1239,44390.90489124572,2010-10-23 01:43:20,1350.6827391707025,7,4,-1.099568486213684,3.6707725524902335,3.909994508315578,3.349194438892807,15.657226731120517,12.240251720917612,-6.47544875391759e-05,0.0940094217658042,0,0,0
1240,44420.91994187728,2010-10-23 01:43:50,1380.697789787239,7,4,-1.0997490882873535,3.665915966033936,3.909994508315578,3.358362421849253,15.657226731120517,12.273881985682037,-9.713172767078504e-05,0.0940094217658042,0,0,0
1241,44450.935118497866,2010-10-23 01:44:20,1410.7129664078163,7,4,-1.0993878841400146,3.6615450382232666,3.909994508315578,3.367530386159241,15.657226731120517,12.307470520086277,-6.47544875391759e-05,0.0940094217658042,0,0,0
1242,44480.950269639936,2010-10-23 01:44:50,1440.728117554906,7,4,-1.099568486213684,3.657012224197388,3.909994508315578,3.37669840609483,15.657226731120517,12.341017669549869,-9.713172767078504e-05,0.0940094217658042,0,0,0
1243,44510.96554332243,2010-10-23 01:45:20,1470.7433912574415,7,4,-1.0997490882873535,3.652479410171509,3.909994508315578,3.385866408888888,15.657226731120517,12.374523991780332,-0.0001295089750783,0.0940094217658042,0,0,0
1244,44540.98061312678,2010-10-23 01:45:50,1500.7584610467627,7,4,-1.099929690361023,3.64810848236084,3.909994508315578,3.395034367529192,15.657226731120517,12.407990004652891,-0.0001295089750783,0.0940094217658042,0,0,0
1245,44570.99577248434,2010-10-23 01:46:20,1530.7736204193527,7,4,-1.099568486213684,3.643899440765381,3.909994508315578,3.404202289778791,15.657226731120517,12.441416184677268,-0.0001618862152099,0.0940094217658042,0,0,0
1246,44601.0109281928,2010-10-23 01:46:50,1560.7887760977358,7,4,-1.099568486213684,3.639528512954712,3.909994508315578,3.413370254357796,15.657226731120517,12.474803769838712,-0.0001618862152099,0.0940094217658042,0,0,0
1247,44631.02617942934,2010-10-23 01:47:20,1590.8040274595917,7,4,-1.099568486213684,3.635643243789673,3.909994508315578,3.422538229869844,15.657226731120517,12.50815330924772,-9.713172767078504e-05,0.0940094217658042,0,0,0
1248,44661.041272526745,2010-10-23 01:47:51,1620.819120431691,7,4,-1.0993878841400146,3.631596088409424,3.909994508315578,3.431706163274683,15.657226731120517,12.541465479295027,-6.47544875391759e-05,0.0940094217658042,0,0,0
1249,44691.056453428,2010-10-23 01:48:21,1650.8343013630126,7,4,-1.099568486213684,3.627548933029175,3.909994508315578,3.440874148863805,15.657226731120517,12.574741088105863,-6.47544875391759e-05,0.0940094217658042,0,0,0
1250,44721.07161744717,2010-10-23 01:48:51,1680.849465382183,7,4,-1.099568486213684,3.623663663864136,3.909994508315578,3.450042090667571,15.657226731120517,12.607980892495226,-9.713172767078504e-05,0.0940094217658042,0,0,0
1251,44751.08679541109,2010-10-23 01:49:21,1710.8646433210463,7,4,-1.099568486213684,3.619940280914306,3.909994508315578,3.459210080591249,15.657226731120517,12.64118563779855,-9.713172767078504e-05,0.0940094217658042,0,0,0
1252,44781.102131454,2010-10-23 01:49:51,1740.8799793840033,7,4,-1.0997490882873535,3.616055011749268,3.909994508315578,3.468378174744372,15.657226731120517,12.674356249448389,-0.0001618862152099,0.0940094217658042,0,0,0
1253,44811.117141203686,2010-10-23 01:50:21,1770.8949891086247,7,4,-1.099568486213684,3.6126554012298575,3.909994508315578,3.47754604378513,15.657226731120517,12.707492487871926,-6.47544875391759e-05,0.0940094217658042,0,0,0
1254,44841.13229500239,2010-10-23 01:50:51,1800.9101429073228,7,4,-1.0997490882873535,3.608932018280029,3.909994508315578,3.486713997482579,15.657226731120517,12.740596412913812,-9.713172767078504e-05,0.0940094217658042,0,0,0
1255,44871.14745962806,2010-10-23 01:51:21,1830.9253075330053,7,4,-1.099568486213684,3.60553240776062,3.909994508315578,3.495881990099481,15.657226731120517,12.773668564266863,-0.0001295089750783,0.0940094217658042,0,0,0
1256,44901.16263705565,2010-10-23 01:51:51,1860.9404849656064,7,4,-1.0997490882873535,3.602456569671631,3.909994508315578,3.505049900714287,15.657226731120517,12.806709292897338,-6.47544875391759e-05,0.0940094217658042,0,0,0
1257,44931.17803472715,2010-10-23 01:52:21,1890.9558826320983,7,4,-1.099568486213684,3.5990569591522217,3.909994508315578,3.514218005461147,15.657226731120517,12.839720135499514,-6.47544875391759e-05,0.0940094217658042,0,0,0
1258,44961.19298975546,2010-10-23 01:52:51,1920.9708376654123,7,4,-1.099568486213684,3.5956573486328125,3.909994508315578,3.523385601359513,15.657226731120517,12.872699443707054,-9.713172767078504e-05,0.0940094217658042,0,0,0
1259,44991.20814600527,2010-10-23 01:53:21,1950.9859939102068,7,4,-1.099568486213684,3.5925815105438232,3.909994508315578,3.532552962324695,15.657226731120517,12.905648478167944,-9.713172767078504e-05,0.0940094217658042,0,0,0
1260,45021.22343855477,2010-10-23 01:53:51,1981.00128646974,7,4,-1.099568486213684,3.589344024658203,3.909994508315578,3.541720420454145,15.657226731120517,12.938569193761309,-9.713172767078504e-05,0.0940094217658042,0,0,0
1261,45051.23850301582,2010-10-23 01:54:21,2011.0163509257688,7,4,-1.0993878841400146,3.586430072784424,3.909994508315578,3.550887771599017,15.657226731120517,12.97146140239377,-9.713172767078504e-05,0.0940094217658042,0,0,0
1262,45081.25380842236,2010-10-23 01:54:51,2041.0316563323208,7,4,-1.099568486213684,3.5835161209106445,3.909994508315578,3.560055456189597,15.657226731120517,13.004326609555273,-6.47544875391759e-05,0.0940094217658042,0,0,0
1263,45111.26882058808,2010-10-23 01:55:21,2071.0466685782258,7,4,-1.099568486213684,3.5802783966064453,3.909994508315578,3.569223401119648,15.657226731120517,13.037165151078858,-9.713172767078504e-05,0.0940094217658042,0,0,0
1264,45141.2839900458,2010-10-23 01:55:51,2101.0618379507387,7,4,-1.099568486213684,3.577364444732666,3.909994508315578,3.578391398212965,15.657226731120517,13.069976230702236,-9.713172767078504e-05,0.0940094217658042,0,0,0
1265,45171.29919394437,2010-10-23 01:56:21,2131.077041849301,7,4,-1.099568486213684,3.5744504928588867,3.909994508315578,3.587559388564133,15.657226731120517,13.102759993255908,-9.713172767078504e-05,0.0940094217658042,0,0,0
1266,45201.31434957262,2010-10-23 01:56:51,2161.0921975026217,7,4,-1.099568486213684,3.5716984272003174,3.909994508315578,3.596727382939137,15.657226731120517,13.135516749325218,-6.47544875391759e-05,0.0940094217658042,0,0,0
1267,45231.329680963936,2010-10-23 01:57:21,2191.107528903961,7,4,-1.099568486213684,3.568460702896118,3.909994508315578,3.605895422553392,15.657226731120517,13.168246219123676,-6.47544875391759e-05,0.0940094217658042,0,0,0
1268,45261.34467379144,2010-10-23 01:57:51,2221.122521781594,7,4,-1.0997490882873535,3.565546751022339,3.909994508315578,3.615063398099393,15.657226731120517,13.200948022733908,-6.47544875391759e-05,0.0940094217658042,0,0,0
1269,45291.35986198085,2010-10-23 01:58:21,2251.137709915867,7,4,-1.099568486213684,3.56263279914856,3.909994508315578,3.624231337369244,15.657226731120517,13.233622315228097,-6.47544875391759e-05,0.0940094217658042,0,0,0
1270,45321.37502318802,2010-10-23 01:58:51,2281.1528710929547,7,4,-1.0997490882873535,3.5593950748443604,3.909994508315578,3.633399359179192,15.657226731120517,13.266270104588449,-9.713172767078504e-05,0.0940094217658042,0,0,0
1271,45351.39018828487,2010-10-23 01:59:21,2311.168036189811,7,4,-1.099568486213684,3.556481122970581,3.909994508315578,3.642567391600526,15.657226731120517,13.298890215409305,-6.47544875391759e-05,0.0940094217658042,0,0,0
1272,45381.40538269979,2010-10-23 01:59:51,2341.183230659876,7,4,-1.099929690361023,3.553243398666382,3.909994508315578,3.651736200176085,15.657226731120517,13.331484704577017,-9.713172767078504e-05,0.0940094217658042,0,0,0
1273,45411.42054174658,2010-10-23 02:00:21,2371.198389651516,7,4,-1.0993878841400146,3.5504913330078125,3.909994508315578,3.66090500078396,15.657226731120517,13.364050861787762,-3.237724376958795e-05,0.0940094217658042,0,0,0
1274,45441.43572405132,2010-10-23 02:00:51,2401.21357195626,7,4,-1.0997490882873535,3.5470917224884038,3.909994508315578,3.670073066896412,15.657226731120517,13.396586246259393,-0.0001295089750783,0.0940094217658042,0,0,0
1275,45471.45114069009,2010-10-23 02:01:21,2431.2289886902745,7,4,-1.099568486213684,3.543853998184204,3.909994508315578,3.679241226904835,15.657226731120517,13.42909303575032,-0.0001295089750783,0.0940094217658042,0,0,0
1276,45501.466102926366,2010-10-23 02:01:51,2461.243950861377,7,4,-1.099568486213684,3.540778160095215,3.909994508315578,3.688409223057203,15.657226731120517,13.461569681912977,-6.47544875391759e-05,0.0940094217658042,0,0,0
1277,45531.48124101592,2010-10-23 02:02:21,2491.2590889258613,7,4,-1.099568486213684,3.5373785495758057,3.909994508315578,3.697577246307962,15.657226731120517,13.494016158413714,-9.713172767078504e-05,0.0940094217658042,0,0,0
1278,45561.49640036344,2010-10-23 02:02:51,2521.2742482683766,7,4,-1.099568486213684,3.5339789390563965,3.909994508315578,3.706745339118615,15.657226731120517,13.526431529228404,-9.713172767078504e-05,0.0940094217658042,0,0,0
1279,45591.511583019055,2010-10-23 02:03:21,2551.289430923995,7,4,-1.099568486213684,3.5304174423217773,3.909994508315578,3.71591342149791,15.657226731120517,13.558814525847572,-9.713172767078504e-05,0.0940094217658042,0,0,0
1280,45621.52674041672,2010-10-23 02:03:51,2581.3045883216632,7,4,-1.0997490882873535,3.5265321731567383,3.909994508315578,3.725081493940634,15.657226731120517,13.591164086963175,-0.0001295089750783,0.0940094217658042,0,0,0
1281,45651.54192693196,2010-10-23 02:04:21,2611.3197748669763,7,4,-1.099568486213684,3.522646903991699,3.909994508315578,3.73424969039059,15.657226731120517,13.623479478228662,-0.0001295089750783,0.0940094217658042,0,0,0
1282,45681.55708358778,2010-10-23 02:04:51,2641.3349314927204,7,4,-1.099568486213684,3.51876163482666,3.909994508315578,3.743417778525454,15.657226731120517,13.655758052597372,-9.713172767078504e-05,0.0940094217658042,0,0,0
1283,45711.57486793763,2010-10-23 02:05:21,2671.3527158826614,7,4,-1.099568486213684,3.514390707015991,3.909994508315578,3.75258670298689,15.657226731120517,13.688001640007014,-0.0001295089750783,0.0940094217658042,0,0,0
1284,45741.587788791134,2010-10-23 02:05:51,2701.3656367461986,7,4,-1.099568486213684,3.5098581314086914,3.909994508315578,3.761754107580865,15.657226731120517,13.720199989754263,-0.0001942634553415,0.0940094217658042,0,0,0
1285,45771.602615133714,2010-10-23 02:06:21,2731.380463073737,7,4,-1.0993878841400146,3.5053253173828125,3.909994508315578,3.770922022050475,15.657226731120517,13.752357815597788,-0.0001295089750783,0.0940094217658042,0,0,0
1286,45801.61778602,2010-10-23 02:06:51,2761.395633975061,7,4,-1.0997490882873535,3.499821186065674,3.909994508315578,3.780089821914801,15.657226731120517,13.784469470343648,-0.0001942634553415,0.0940094217658042,0,0,0
1287,45831.63293790392,2010-10-23 02:07:21,2791.4107858088623,7,4,-1.0997490882873535,3.494155168533325,3.909994508315578,3.789257676450176,15.657226731120517,13.816531292073003,-0.0002266406954731,0.0940094217658042,0,0,0
1288,45861.64810169252,2010-10-23 02:07:51,2821.4259495974584,7,4,-1.099568486213684,3.4880034923553467,3.909994508315578,3.798425481165918,15.657226731120517,13.848537820167476,-0.0001618862152099,0.0940094217658042,0,0,0
1289,45891.66328723534,2010-10-23 02:08:21,2851.4411351502977,7,4,-1.0997490882873535,3.4805567264556885,3.909994508315578,3.807593396119806,15.657226731120517,13.880483038404424,-0.0002590179501567,0.0940094217658042,0,0,0
1290,45921.67860361424,2010-10-23 02:08:51,2881.456451549246,7,4,-1.0997490882873535,3.4726243019104004,3.909994508315578,3.816761497404844,15.657226731120517,13.912358588617082,-0.0002266406954731,0.0940094217658042,0,0,0
1291,45951.69361974983,2010-10-23 02:09:21,2911.4714676647955,7,4,-1.099568486213684,3.4633967876434326,3.909994508315578,3.825929512040907,15.657226731120517,13.944154200951155,-0.0002590179501567,0.0940094217658042,0,0,0
1292,45981.70878245573,2010-10-23 02:09:51,2941.486630390744,7,4,-1.0993878841400146,3.452550411224365,3.909994508315578,3.835097590677678,15.657226731120517,13.975857472752216,-0.0002913951757363,0.0940094217658042,0,0,0
1293,46011.72400137171,2010-10-23 02:10:21,2971.5018493067337,7,4,-1.0997490882873535,3.4392757415771484,3.909994508315578,3.844265735031387,15.657226731120517,14.007452265838811,-0.0004532813909463,0.0940094217658042,0,0,0
1294,46041.73937636671,2010-10-23 02:10:51,3001.517224406984,7,4,-1.0997490882873535,3.4237349033355717,3.909994508315578,3.853433914450444,15.657226731120517,14.038916699730285,-0.0004532813909463,0.0940094217658042,0,0,0
1295,46071.75430974605,2010-10-23 02:11:21,3031.532157650992,7,4,-1.0997490882873535,3.404146671295166,3.909994508315578,3.86260193768157,15.657226731120517,14.070219990447724,-0.0005827903514727,0.0940094217658042,0,0,0
1296,46101.76946286806,2010-10-23 02:11:51,3061.547310833153,7,4,-1.099929690361023,3.378568649291992,3.909994508315578,3.871770042830322,15.657226731120517,14.101318277877638,-0.0007770538213662,0.0940094217658042,0,0,0
1297,46131.78464666653,2010-10-23 02:12:21,3091.56249463162,7,4,-1.099568486213684,3.3437633514404297,3.909994508315578,3.880938200331033,15.657226731120517,14.132142354673253,-0.0010684489971026,0.0940094217658042,0,0,0
1298,46161.799806780975,2010-10-23 02:12:51,3121.577654746059,7,4,-1.099568486213684,3.294388055801392,3.909994508315578,3.890106252129367,15.657226731120517,14.162585107524675,-0.0015541076427325,0.0940094217658042,0,0,0
1299,46191.81514178629,2010-10-23 02:13:21,3151.592989701255,7,4,-1.099568486213684,3.2236440181732178,3.909994508315578,3.899274409761639,15.657226731120517,14.192484958891558,-0.0022016526199877,0.0940094217658042,0,0,0
1300,46221.83019929501,2010-10-23 02:13:51,3181.6080472600943,7,4,-1.099568486213684,3.1163136959075928,3.909994508315578,3.908442505624473,15.657226731120517,14.221584730541478,-0.0034967423416674,0.0940094217658042,0,0,0
1301,46251.845668554924,2010-10-23 02:14:21,3211.6235165851813,7,4,-1.099568486213684,2.9207558631896973,3.909994508315578,3.917610738132075,15.657226731120517,14.24938384064562,-0.0074790953658521,0.0940094217658042,0,0,0
1302,46267.3607000623,2010-10-23 02:14:37,3227.1385479973164,7,4,-1.099568486213684,2.720503091812134,3.909994508315578,3.922349795920924,15.657226731120517,14.26278537637431,-0.0118500711396336,0.0940094217658042,0,0,0
1303,46268.735678511664,2010-10-23 02:14:38,3228.5135264466826,7,4,-1.099568486213684,2.699620008468628,3.909994508315578,3.922769779152441,15.657226731120517,14.263923662406452,-0.0120442863553762,0.0940094217658042,0,0,0
1304,46328.75193531592,2010-10-23 02:15:38,60.01473544179339,8,4,0.0,3.333564519882202,3.909994508315578,3.922769779152441,15.657226731120517,14.263923662406452,0.0013274669181555,0.0940094217658042,0,0,0
1305,46328.93794267995,2010-10-23 02:15:39,0.187510193096641,9,4,-0.0014641173183918,3.333888292312622,3.909994508315578,3.922769855412699,15.657226731120517,14.263923916649633,0.0,0.0930307656526565,0,0,0
1306,46333.76611407867,2010-10-23 02:15:43,5.015681611863413,9,4,0.0007031940040178,3.34198260307312,3.909995376635174,3.92276985629133,15.65722962997546,14.263923919582586,0.0011979580158367,0.0930307656526565,0,0,0
