Data_Point,Test_Time(s),Date_Time,Step_Time(s),Step_Index,Cycle_Index,Current(A),Voltage(V),Charge_Capacity(Ah),Discharge_Capacity(Ah),Charge_Energy(Wh),Discharge_Energy(Wh),dV/dt(V/s),Internal_Resistance(Ohm),Is_FC_Data,AC_Impedance(Ohm),ACI_Phase_Angle(Deg)
7600,265502.31338270777,2010-10-25 15:08:56,30.015145753647552,1,24,0.0,3.409003257751465,22.648294892331823,22.65479768865461,90.4781065169469,82.60461142243025,0.0008094310760498,0.0952856615185737,0,0,0
7601,265532.3285314238,2010-10-25 15:09:26,60.03029447469077,1,24,0.0,3.4336097240448,22.648294892331823,22.65479768865461,90.4781065169469,82.60461142243025,0.0005827426793985,0.0952856615185737,0,0,0
7602,265562.343689438,2010-10-25 15:09:56,90.04545248388291,1,24,0.0,3.4523885250091557,22.648294892331823,22.65479768865461,90.4781065169469,82.60461142243025,0.0004856586456298,0.0952856615185737,0,0,0
7603,265592.3119399643,2010-10-25 15:10:26,120.01370301019465,1,24,0.0,3.466958284378052,22.648294892331823,22.65479768865461,90.4781065169469,82.60461142243025,0.0003561496851034,0.0952856615185737,0,0,0
7604,265622.3133727063,2010-10-25 15:10:56,30.015152565625097,2,24,0.5499359965324402,3.622530460357666,22.65288055579625,22.65479768865461,90.49456266914136,82.60461142243025,0.0015217304462566,0.0952856615185737,0,0,0
7605,265652.32850324205,2010-10-25 15:11:26,60.030283101344885,2,24,0.5499359965324402,3.667696714401245,22.65746617001052,22.65479768865461,90.51128489108044,82.60461142243025,0.0010036944877356,0.0952856615185737,0,0,0
7606,265682.3436498028,2010-10-25 15:11:56,90.04542966701628,2,24,0.5499359965324402,3.700073719024658,22.662051752201368,22.65479768865461,90.5281813985852,82.60461142243025,0.0007770538213662,0.0952856615185737,0,0,0
7607,265712.35879547114,2010-10-25 15:12:26,120.06057536051392,2,24,0.5501165986061096,3.725327968597412,22.666637260287136,22.65479768865461,90.5452083017176,82.60461142243025,0.0005827903514727,0.0952856615185737,0,0,0
7608,265742.3739560217,2010-10-25 15:12:56,150.07573588096488,2,24,0.5499359965324402,3.745725631713867,22.67122277223225,22.65479768865461,90.5623391413652,82.60461142243025,0.0005180359003134,0.0952856615185737,0,0,0
7609,265772.38910470763,2010-10-25 15:13:26,180.09088456692064,2,24,0.5499359965324402,3.761914014816284,22.675808323920283,22.65479768865461,90.57955405286933,82.60461142243025,0.0003885269106831,0.0952856615185737,0,0,0
7610,265802.4042474488,2010-10-25 15:13:56,210.10602731808507,2,24,0.5499359965324402,3.773246049880981,22.68039384958843,22.65479768865461,90.59683221908467,82.60461142243025,0.0002590179501567,0.0952856615185737,0,0,0
7611,265832.41938001453,2010-10-25 15:14:26,240.1211599339893,2,24,0.5501165986061096,3.7800452709198,22.684979421323188,22.65479768865461,90.61415099286444,82.60461142243025,0.0001942634553415,0.0952856615185737,0,0,0
7612,265862.43453741225,2010-10-25 15:14:56,270.13631730158244,2,24,0.5499359965324402,3.7844161987304688,22.68956495253073,22.65479768865461,90.63149503814228,82.60461142243025,3.237724376958795e-05,0.0952856615185737,0,0,0
7613,265892.44966877496,2010-10-25 15:15:26,300.1514486342885,2,24,0.5499359965324402,3.788625240325928,22.694150413347813,22.65479768865461,90.64885845774184,82.60461142243025,9.713172767078504e-05,0.0952856615185737,0,0,0
7614,265922.4647832106,2010-10-25 15:15:56,330.16656307990684,2,24,0.5499359965324402,3.7926723957061768,22.698735980512343,22.65479768865461,90.66624040806784,82.60461142243025,0.0001618862152099,0.0952856615185737,0,0,0
7615,265952.4799307687,2010-10-25 15:16:26,360.18171063303924,2,24,0.5499359965324402,3.796233892440796,22.703321425277863,22.65479768865461,90.68363951441457,82.60461142243025,6.47544875391759e-05,0.0952856615185737,0,0,0
7616,265982.4951400056,2010-10-25 15:16:56,390.1969199100064,2,24,0.5499359965324402,3.800119161605835,22.70790689537719,22.65479768865461,90.7010559312508,82.60461142243025,0.0001295089750783,0.0952856615185737,0,0,0
7617,266012.5102469475,2010-10-25 15:17:26,420.2120268368858,2,24,0.5497553944587708,3.803518772125244,22.71249239216132,22.65479768865461,90.7184892732618,82.60461142243025,6.47544875391759e-05,0.0952856615185737,0,0,0
7618,266042.5255128055,2010-10-25 15:17:56,450.2272926698079,2,24,0.5499359965324402,3.8070802688598633,22.717077915048385,22.65479768865461,90.7359392772425,82.60461142243025,6.47544875391759e-05,0.0952856615185737,0,0,0
7619,266072.54053478566,2010-10-25 15:18:26,480.24231464997376,2,24,0.5501165986061096,3.810803651809693,22.72166344888186,22.65479768865461,90.75340560548386,82.60461142243025,0.0001295089750783,0.0952856615185737,0,0,0
7620,266102.5556996018,2010-10-25 15:18:56,510.2574795012184,2,24,0.5499359965324402,3.8142032623291016,22.726249018345108,22.65479768865461,90.7708881203016,82.60461142243025,6.47544875391759e-05,0.0952856615185737,0,0,0
7621,266132.5708310248,2010-10-25 15:19:26,540.2726109241494,2,24,0.5501165986061096,3.8177647590637207,22.730834552863016,22.65479768865461,90.78838622278194,82.60461142243025,0.0001295089750783,0.0952856615185737,0,0,0
7622,266162.5861183964,2010-10-25 15:19:56,570.2878982757024,2,24,0.5499359965324402,3.82100248336792,22.735420075865356,22.65479768865461,90.80589957242648,82.60461142243025,0.0001295089750783,0.0952856615185737,0,0,0
7623,266192.6011283115,2010-10-25 15:20:26,600.302908205836,2,24,0.5501165986061096,3.824078321456909,22.740005542401875,22.65479768865461,90.82342770707726,82.60461142243025,6.47544875391759e-05,0.0952856615185737,0,0,0
7624,266222.616264797,2010-10-25 15:20:56,630.3180446863721,2,24,0.5499359965324402,3.8274779319763184,22.74459107380657,22.65479768865461,90.84097109318178,82.60461142243025,9.713172767078504e-05,0.0952856615185737,0,0,0
7625,266252.63139514223,2010-10-25 15:21:26,660.3331750065548,2,24,0.5501165986061096,3.830877542495728,22.74917656856503,22.65479768865461,90.85852928949411,82.60461142243025,0.0001295089750783,0.0952856615185737,0,0,0
7626,266282.6493242328,2010-10-25 15:21:56,690.3511041121719,2,24,0.5499359965324402,3.834115028381348,22.753762504642708,22.65479768865461,90.87610420551586,82.60461142243025,9.713172767078504e-05,0.0952856615185737,0,0,0
7627,266312.6619048484,2010-10-25 15:22:26,720.3636847527684,2,24,0.5499359965324402,3.837190866470337,22.758347697587425,22.65479768865461,90.8936914716728,82.60461142243025,6.47544875391759e-05,0.0952856615185737,0,0,0
7628,266342.6768478065,2010-10-25 15:22:56,750.3786276959497,2,24,0.5501165986061096,3.840914249420166,22.762933174567472,22.65479768865461,90.91129523135876,82.60461142243025,0.0001295089750783,0.0952856615185737,0,0,0
7629,266372.6919690291,2010-10-25 15:23:26,780.3937488883834,2,24,0.5499359965324402,3.844151973724365,22.76751871232684,22.65479768865461,90.9289148373496,82.60461142243025,9.713172767078504e-05,0.0952856615185737,0,0,0
7630,266402.7071298403,2010-10-25 15:23:56,810.4089097145963,2,24,0.5499359965324402,3.847713470458984,22.77210420903492,22.65479768865461,90.9465500859604,82.60461142243025,0.0001295089750783,0.0952856615185737,0,0,0
7631,266432.722257168,2010-10-25 15:24:26,840.4240370423208,2,24,0.5497553944587708,3.850951194763184,22.776689786156783,22.65479768865461,90.96420149273854,82.60461142243025,6.47544875391759e-05,0.0952856615185737,0,0,0
7632,266462.7377439466,2010-10-25 15:24:56,870.4395239412073,2,24,0.5499359965324402,3.8543508052825928,22.78127546480085,22.65479768865461,90.98186891226548,82.60461142243025,9.713172767078504e-05,0.0952856615185737,0,0,0
7633,266492.75255450985,2010-10-25 15:25:26,900.4543343991951,2,24,0.5501165986061096,3.857912302017212,22.78586096802331,22.65479768865461,90.99955118924213,82.60461142243025,9.713172767078504e-05,0.0952856615185737,0,0,0
7634,266522.7678276209,2010-10-25 15:25:56,930.4696075102564,2,24,0.5499359965324402,3.861150026321411,22.790446550016885,22.65479768865461,91.01724897975944,82.60461142243025,9.713172767078504e-05,0.0952856615185737,0,0,0
7635,266552.78297673294,2010-10-25 15:26:26,960.484756642324,2,24,0.5501165986061096,3.8642258644104,22.79503210832556,22.65479768865461,91.03496159660462,82.60461142243025,6.47544875391759e-05,0.0952856615185737,0,0,0
7636,266582.79800443235,2010-10-25 15:26:56,990.4997843317192,2,24,0.5499359965324402,3.8674635887146,22.799617644669308,22.65479768865461,91.05268871691568,82.60461142243025,9.713172767078504e-05,0.0952856615185737,0,0,0
7637,266612.8131662711,2010-10-25 15:27:26,1020.5149461604306,2,24,0.5499359965324402,3.870377540588379,22.80420315653471,22.65479768865461,91.07042995415686,82.60461142243025,3.237724376958795e-05,0.0952856615185737,0,0,0
7638,266642.82827757386,2010-10-25 15:27:56,1050.5300574381536,2,24,0.5499359965324402,3.873453378677368,22.80878871395991,22.65479768865461,91.0881853367988,82.60461142243025,6.47544875391759e-05,0.0952856615185737,0,0,0
7639,266672.843552324,2010-10-25 15:28:26,1080.5453322033377,2,24,0.5501165986061096,3.876367330551148,22.81337431864964,22.65479768865461,91.10595436185083,82.60461142243025,6.47544875391759e-05,0.0952856615185737,0,0,0
7640,266702.85857900087,2010-10-25 15:28:56,1110.5603588651716,2,24,0.5501165986061096,3.879281282424927,22.817959846340585,22.65479768865461,91.12373618762264,82.60461142243025,9.713172767078504e-05,0.0952856615185737,0,0,0
7641,266732.8738359166,2010-10-25 15:29:26,1140.5756157858816,2,24,0.5501165986061096,3.881709575653076,22.822545482534384,22.65479768865461,91.14153085662888,82.60461142243025,3.237724376958795e-05,0.0952856615185737,0,0,0
7642,266762.8890131938,2010-10-25 15:29:56,1170.590793053071,2,24,0.5499359965324402,3.8844616413116455,22.827131071099146,22.65479768865461,91.15933730024044,82.60461142243025,9.713172767078504e-05,0.0952856615185737,0,0,0
7643,266792.90401145484,2010-10-25 15:30:26,1200.6057913241464,2,24,0.5499359965324402,3.886889934539795,22.83171666556773,22.65479768865461,91.17715492519535,82.60461142243025,9.713172767078504e-05,0.0952856615185737,0,0,0
7644,266822.919177875,2010-10-25 15:30:56,1230.6209577493137,2,24,0.5499359965324402,3.8891563415527344,22.83630225226616,22.65479768865461,91.19498319150064,82.60461142243025,9.713172767078504e-05,0.0952856615185737,0,0,0
7645,266852.93442180334,2010-10-25 15:31:26,1260.6362017077176,2,24,0.5501165986061096,3.891098976135254,22.840887867314084,22.65479768865461,91.21282153329412,82.60461142243025,6.47544875391759e-05,0.0952856615185737,0,0,0
7646,266882.9494429965,2010-10-25 15:31:56,1290.6512228608224,2,24,0.5499359965324402,3.893203496932984,22.84547344586463,22.65479768865461,91.2306690810988,82.60461142243025,0.0001295089750783,0.0952856615185737,0,0,0
7647,266912.9645958328,2010-10-25 15:32:26,1320.666375697122,2,24,0.5499359965324402,3.894660472869873,22.85005905440096,22.65479768865461,91.24852545799804,82.60461142243025,-3.237724376958795e-05,0.0952856615185737,0,0,0
7648,266942.9797443183,2010-10-25 15:32:56,1350.6815241825782,2,24,0.5501165986061096,3.8966031074523926,22.85464464362016,22.65479768865461,91.26638941944996,82.60461142243025,6.47544875391759e-05,0.0952856615185737,0,0,0
7649,266972.9948767788,2010-10-25 15:33:26,1380.6966566430951,2,24,0.5499359965324402,3.898060083389282,22.859230214933355,22.65479768865461,91.28426108126487,82.60461142243025,6.47544875391759e-05,0.0952856615185737,0,0,0
7650,267003.0101569424,2010-10-25 15:33:56,1410.711936816759,2,24,0.5497553944587708,3.899517059326172,22.863815817701884,22.65479768865461,91.30214011289668,82.60461142243025,0.0,0.0952856615185737,0,0,0
7651,267033.025181479,2010-10-25 15:34:26,1440.726961343271,2,24,0.5499359965324402,3.901135921478272,22.86840138378934,22.65479768865461,91.32002571710312,82.60461142243025,3.237724376958795e-05,0.0952856615185737,0,0,0
7652,267063.04034195933,2010-10-25 15:34:56,1470.742121863722,2,24,0.5501165986061096,3.902592897415161,22.87298691877508,22.65479768865461,91.33791776175208,82.60461142243025,3.237724376958795e-05,0.0952856615185737,0,0,0
7653,267093.0554627458,2010-10-25 15:35:26,1500.757242605031,2,24,0.5501165986061096,3.903887987136841,22.877572515919383,22.65479768865461,91.35581632010928,82.60461142243025,3.237724376958795e-05,0.0952856615185737,0,0,0
7654,267123.0705992213,2010-10-25 15:35:56,1530.7723790855673,2,24,0.5499359965324402,3.905183076858521,22.882158179870235,22.65479768865461,91.3737213321282,82.60461142243025,0.0,0.0952856615185737,0,0,0
7655,267153.085742599,2010-10-25 15:36:27,1560.787522463293,2,24,0.5499359965324402,3.9064781665802,22.88674380204244,22.65479768865461,91.39163203431048,82.60461142243025,3.237724376958795e-05,0.0952856615185737,0,0,0
7656,267183.1009024728,2010-10-25 15:36:57,1590.8026823371324,2,24,0.5497553944587708,3.90777325630188,22.89132935242084,22.65479768865461,91.40954852565416,82.60461142243025,3.237724376958795e-05,0.0952856615185737,0,0,0
7657,267213.11603257747,2010-10-25 15:37:27,1620.817812441778,2,24,0.5501165986061096,3.9092302322387695,22.895914827510047,22.65479768865461,91.427470607669,82.60461142243025,6.47544875391759e-05,0.0952856615185737,0,0,0
7658,267243.1312241553,2010-10-25 15:37:57,1650.833004044696,2,24,0.5501165986061096,3.9103634357452393,22.90050035203438,22.65479768865461,91.44539889528974,82.60461142243025,0.0,0.0952856615185737,0,0,0
7659,267273.1463447312,2010-10-25 15:38:27,1680.848124590518,2,24,0.5499359965324402,3.911658525466919,22.9050858789932,22.65479768865461,91.46333305137873,82.60461142243025,3.237724376958795e-05,0.0952856615185737,0,0,0
7660,267303.1616086193,2010-10-25 15:38:57,1710.8633885237052,2,24,0.5499359965324402,3.912953615188599,22.909671481262563,22.65479768865461,91.4812735349055,82.60461142243025,0.0,0.0952856615185737,0,0,0
7661,267333.1766127951,2010-10-25 15:39:27,1740.8783926644096,2,24,0.5497553944587708,3.914248466491699,22.91425701814429,22.65479768865461,91.4992197095959,82.60461142243025,6.47544875391759e-05,0.0952856615185737,0,0,0
7662,267363.1917570901,2010-10-25 15:39:57,1770.893536949397,2,24,0.5501165986061096,3.915705442428589,22.918842627943448,22.65479768865461,91.51717225265114,82.60461142243025,6.47544875391759e-05,0.0952856615185737,0,0,0
7663,267393.2069147234,2010-10-25 15:40:27,1800.9086945976896,2,24,0.5499359965324402,3.9168386459350586,22.92342819633641,22.65479768865461,91.53513044958903,82.60461142243025,0.0,0.0952856615185737,0,0,0
7664,267423.22227235505,2010-10-25 15:40:57,1830.924052214365,2,24,0.5499359965324402,3.918295621871948,22.92801379443608,22.65479768865461,91.5530950034317,82.60461142243025,6.47544875391759e-05,0.0952856615185737,0,0,0
7665,267453.23721766414,2010-10-25 15:41:27,1860.9389975284555,2,24,0.5501165986061096,3.919590711593628,22.93259936817481,22.65479768865461,91.57106559492505,82.60461142243025,6.47544875391759e-05,0.0952856615185737,0,0,0
7666,267483.2523475884,2010-10-25 15:41:57,1890.9541274777137,2,24,0.5501165986061096,3.9210476875305176,22.93718501471349,22.65479768865461,91.5890427253022,82.60461142243025,6.47544875391759e-05,0.0952856615185737,0,0,0
7667,267513.2675453867,2010-10-25 15:42:27,1920.96932537131,2,24,0.5499359965324402,3.922342777252197,22.94177058650664,22.65479768865461,91.6070257896394,82.60461142243025,6.47544875391759e-05,0.0952856615185737,0,0,0
7668,267543.2827342328,2010-10-25 15:42:57,1950.9845142173567,2,24,0.5501165986061096,3.923799753189087,22.94635616072301,22.65479768865461,91.62501517610224,82.60461142243025,3.237724376958795e-05,0.0952856615185737,0,0,0
7669,267573.2977759922,2010-10-25 15:43:27,1980.9995559567687,2,24,0.5501165986061096,3.925094842910767,22.95094180529348,22.65479768865461,91.643011177484,82.60461142243025,3.237724376958795e-05,0.0952856615185737,0,0,0
7670,267603.312918568,2010-10-25 15:43:57,2011.0146984322464,2,24,0.5501165986061096,3.926551818847656,22.95552737312401,22.65479768865461,91.6610131527994,82.60461142243025,6.47544875391759e-05,0.0952856615185737,0,0,0
7671,267633.32818583946,2010-10-25 15:44:27,2041.0299657488663,2,24,0.5499359965324402,3.927846908569336,22.960112994335297,22.65479768865461,91.6790217221881,82.60461142243025,0.0,0.0952856615185737,0,0,0
7672,267663.3432365061,2010-10-25 15:44:57,2071.0450164004906,2,24,0.5499359965324402,3.9293038845062256,22.96469855772844,22.65479768865461,91.69703651292528,82.60461142243025,0.0,0.0952856615185737,0,0,0
7673,267693.35848746693,2010-10-25 15:45:27,2101.060267341297,2,24,0.5499359965324402,3.9307608604431152,22.96928412717772,22.65479768865461,91.71505787335796,82.60461142243025,3.237724376958795e-05,0.0952856615185737,0,0,0
7674,267723.37351585814,2010-10-25 15:45:57,2131.075295757503,2,24,0.5499359965324402,3.932055950164795,22.97386978664617,22.65479768865461,91.73308608092984,82.60461142243025,0.0,0.0952856615185737,0,0,0
7675,267753.3886494264,2010-10-25 15:46:27,2161.090429300719,2,24,0.5501165986061096,3.9336748123168954,22.97845532165176,22.65479768865461,91.75112041151743,82.60461142243025,6.47544875391759e-05,0.0952856615185737,0,0,0
7676,267783.4038816556,2010-10-25 15:46:57,2191.105661519865,2,24,0.5501165986061096,3.935131788253784,22.98304093965477,22.65479768865461,91.76916171547433,82.60461142243025,6.47544875391759e-05,0.0952856615185737,0,0,0
7677,267813.41893509415,2010-10-25 15:47:27,2221.1207149584347,2,24,0.550297200679779,3.936588764190674,22.987626597680592,22.65479768865461,91.78720989450385,82.60461142243025,6.47544875391759e-05,0.0952856615185737,0,0,0
7678,267843.43408175005,2010-10-25 15:47:57,2251.1358616393936,2,24,0.5501165986061096,3.938045740127564,22.99221222042778,22.65479768865461,91.80526465557796,82.60461142243025,3.237724376958795e-05,0.0952856615185737,0,0,0
7679,267873.449374871,2010-10-25 15:48:27,2281.1511548455383,2,24,0.5501165986061096,3.939340829849243,22.99679783487703,22.65479768865461,91.82332617011492,82.60461142243025,0.0,0.0952856615185737,0,0,0
7680,267903.46438489633,2010-10-25 15:48:57,2311.1661647856968,2,24,0.550297200679779,3.9412834644317623,23.001383459849517,22.65479768865461,91.84139459314292,82.60461142243025,9.713172767078504e-05,0.0952856615185737,0,0,0
7681,267933.4796414762,2010-10-25 15:49:27,2341.1814213705698,2,24,0.5499359965324402,3.9425785541534415,23.00596911547629,22.65479768865461,91.85946988226388,82.60461142243025,9.713172767078504e-05,0.0952856615185737,0,0,0
7682,267963.4947830394,2010-10-25 15:49:57,2371.1965629036986,2,24,0.5499359965324402,3.943873643875122,23.01055467728563,22.65479768865461,91.87755178790025,82.60461142243025,3.237724376958795e-05,0.0952856615185737,0,0,0
7683,267993.50980201707,2010-10-25 15:50:27,2401.211581886394,2,24,0.5499359965324402,3.9454925060272217,23.0151402694478,22.65479768865461,91.89564079438595,82.60461142243025,3.237724376958795e-05,0.0952856615185737,0,0,0
7684,268023.5249596654,2010-10-25 15:50:57,2431.226739529674,2,24,0.5499359965324402,3.947111368179321,23.019725916261823,22.65479768865461,91.91373700460308,82.60461142243025,0.0,0.0952856615185737,0,0,0
7685,268053.54009895795,2010-10-25 15:51:27,2461.241878847281,2,24,0.5499359965324402,3.948568344116211,23.024311544699952,22.65479768865461,91.93184024698884,82.60461142243025,6.47544875391759e-05,0.0952856615185737,0,0,0
7686,268083.55537489103,2010-10-25 15:51:57,2491.2571547703506,2,24,0.5499359965324402,3.9500253200531006,23.028897151637224,22.65479768865461,91.9499505008809,82.60461142243025,3.237724376958795e-05,0.0952856615185737,0,0,0
7687,268113.5703949414,2010-10-25 15:52:27,2521.2721748357444,2,24,0.5499359965324402,3.9516441822052,23.033482778572075,22.65479768865461,91.96806804440064,82.60461142243025,0.0,0.0952856615185737,0,0,0
7688,268143.5855662938,2010-10-25 15:52:57,2551.287346153105,2,24,0.5501165986061096,3.9534249305725098,23.03806841466758,22.65479768865461,91.98619282602796,82.60461142243025,6.47544875391759e-05,0.0952856615185737,0,0,0
7689,268173.60067304526,2010-10-25 15:53:27,2581.302452909559,2,24,0.5499359965324402,3.9548819065094,23.042654018274355,22.65479768865461,92.00432480789368,82.60461142243025,3.237724376958795e-05,0.0952856615185737,0,0,0
7690,268203.6184214956,2010-10-25 15:53:57,2611.3202014802278,2,24,0.5499359965324402,3.956500768661499,23.047240039602727,22.65479768865461,92.02246585340636,82.60461142243025,3.237724376958795e-05,0.0952856615185737,0,0,0
7691,268233.63120178884,2010-10-25 15:54:27,2641.3329816882074,2,24,0.5499359965324402,3.9582815170288086,23.05182536301841,22.65479768865461,92.04061144994196,82.60461142243025,6.47544875391759e-05,0.0952856615185737,0,0,0
7692,268263.6462891018,2010-10-25 15:54:57,2671.348068981153,2,24,0.5499359965324402,3.959738492965698,23.05641094354782,22.65479768865461,92.05876558241418,82.60461142243025,3.237724376958795e-05,0.0952856615185737,0,0,0
7693,268293.6614119484,2010-10-25 15:55:27,2701.3631918277088,2,24,0.5501165986061096,3.961519241333008,23.06099658575559,22.65479768865461,92.07692748502843,82.60461142243025,6.47544875391759e-05,0.0952856615185737,0,0,0
7694,268323.6763979739,2010-10-25 15:55:57,2731.378177848253,2,24,0.5499359965324402,3.9631381034851074,23.065582251251755,22.65479768865461,92.0950970326924,82.60461142243025,3.237724376958795e-05,0.0952856615185737,0,0,0
7695,268353.69166690955,2010-10-25 15:56:27,2761.3934467889203,2,24,0.5499359965324402,3.964756965637207,23.070167912575723,22.65479768865461,92.11327423315583,82.60461142243025,3.237724376958795e-05,0.0952856615185737,0,0,0
7696,268383.70692100324,2010-10-25 15:56:57,2791.4087008875968,2,24,0.5501165986061096,3.966375827789306,23.07475358832836,22.65479768865461,92.13145914493396,82.60461142243025,0.0,0.0952856615185737,0,0,0
7697,268413.7219722213,2010-10-25 15:57:27,2821.423752095608,2,24,0.5499359965324402,3.968156576156616,23.079339295590493,22.65479768865461,92.14965183287646,82.60461142243025,6.47544875391759e-05,0.0952856615185737,0,0,0
7698,268443.7371072833,2010-10-25 15:57:57,2851.438887192696,2,24,0.5499359965324402,3.969613552093506,23.08392490575947,22.65479768865461,92.16785193274316,82.60461142243025,0.0,0.0952856615185737,0,0,0
7699,268473.7521200755,2010-10-25 15:58:27,2881.4538999448623,2,24,0.5499359965324402,3.9715561866760254,23.0885105821419,22.65479768865461,92.18606011712112,82.60461142243025,3.237724376958795e-05,0.0952856615185737,0,0,0
7700,268503.7674605996,2010-10-25 15:58:57,2911.469240478963,2,24,0.5499359965324402,3.973175048828125,23.093096415533036,22.65479768865461,92.2042768565952,82.60461142243025,3.237724376958795e-05,0.0952856615185737,0,0,0
7701,268533.7824152369,2010-10-25 15:59:27,2941.4841951112776,2,24,0.5499359965324402,3.9749557971954346,23.097682073215665,22.65479768865461,92.22250091763976,82.60461142243025,3.237724376958795e-05,0.0952856615185737,0,0,0
7702,268563.79755608336,2010-10-25 15:59:57,2971.4993359576943,2,24,0.5501165986061096,3.976898431777954,23.10226775793596,22.65479768865461,92.24073309453428,82.60461142243025,9.713172767078504e-05,0.0952856615185737,0,0,0
7703,268593.81271035824,2010-10-25 16:00:27,3001.51449025263,2,24,0.5499359965324402,3.9785172939300537,23.10685353706434,22.65479768865461,92.25897331015612,82.60461142243025,0.0001295089750783,0.0952856615185737,0,0,0
7704,268623.8278672898,2010-10-25 16:00:57,3031.5296471590736,2,24,0.5501165986061096,3.9802980422973633,23.11143906317858,22.65479768865461,92.27722112899026,82.60461142243025,6.47544875391759e-05,0.0952856615185737,0,0,0
7705,268653.8429969733,2010-10-25 16:01:27,3061.5447768426698,2,24,0.5499359965324402,3.982078790664673,23.11602465215011,22.65479768865461,92.2954775039786,82.60461142243025,3.237724376958795e-05,0.0952856615185737,0,0,0
7706,268683.85830028466,2010-10-25 16:01:57,3091.560080179061,2,24,0.5499359965324402,3.9838595390319824,23.12061023347283,22.65479768865461,92.3137421544456,82.60461142243025,0.0,0.0952856615185737,0,0,0
7707,268713.8733185256,2010-10-25 16:02:27,3121.5750984349456,2,24,0.5499359965324402,3.985802173614502,23.125195773346828,22.65479768865461,92.33201510010996,82.60461142243025,6.47544875391759e-05,0.0952856615185737,0,0,0
7708,268743.8884593168,2010-10-25 16:02:57,3151.5902392111875,2,24,0.5497553944587708,3.987582921981812,23.129781387915315,22.65479768865461,92.35029685889307,82.60461142243025,3.237724376958795e-05,0.0952856615185737,0,0,0
7709,268773.90370362106,2010-10-25 16:03:27,3181.6054835004165,2,24,0.5501165986061096,3.989525556564331,23.13436699846439,22.65479768865461,92.36858703421883,82.60461142243025,6.47544875391759e-05,0.0952856615185737,0,0,0
7710,268803.9187271551,2010-10-25 16:03:57,3211.62050702443,2,24,0.5501165986061096,3.9914681911468506,23.13895252954708,22.65479768865461,92.3868855490489,82.60461142243025,6.47544875391759e-05,0.0952856615185737,0,0,0
7711,268833.9339173395,2010-10-25 16:04:27,3241.635697238888,2,24,0.5497553944587708,3.99308705329895,23.14353806081509,22.65479768865461,92.40519279822388,82.60461142243025,3.237724376958795e-05,0.0952856615185737,0,0,0
7712,268863.94905440655,2010-10-25 16:04:57,3271.650834406136,2,24,0.5499359965324402,3.995353221893311,23.148123640783066,22.65479768865461,92.42350903769072,82.60461142243025,6.47544875391759e-05,0.0952856615185737,0,0,0
7713,268893.96417315287,2010-10-25 16:05:27,3301.665953022148,2,24,0.5501165986061096,3.99713397026062,23.15270917502693,22.65479768865461,92.44183400182148,82.60461142243025,9.713172767078504e-05,0.0952856615185737,0,0,0
7714,268923.97945723624,2010-10-25 16:05:57,3331.681237095531,2,24,0.5499359965324402,3.99907660484314,23.15729490546032,22.65479768865461,92.4601686588208,82.60461142243025,6.47544875391759e-05,0.0952856615185737,0,0,0
7715,268953.9944715523,2010-10-25 16:06:27,3361.6962515068326,2,24,0.5501165986061096,4.001181125640869,23.161880444110995,22.65479768865461,92.47851165055184,82.60461142243025,6.47544875391759e-05,0.0952856615185737,0,0,0
7716,268984.0096281279,2010-10-25 16:06:57,3391.7114080323263,2,24,0.5499359965324402,4.003285884857178,23.16646604748429,22.65479768865461,92.49686413018507,82.60461142243025,6.47544875391759e-05,0.0952856615185737,0,0,0
7717,269014.0247494908,2010-10-25 16:07:27,3421.7265294102226,2,24,0.5499359965324402,4.005228519439697,23.17105163973837,22.65479768865461,92.51522580032756,82.60461142243025,6.47544875391759e-05,0.0952856615185737,0,0,0
7718,269044.03989424696,2010-10-25 16:07:57,3451.7416741162588,2,24,0.5501165986061096,4.007332801818848,23.175637283896705,22.65479768865461,92.53359709134858,82.60461142243025,6.47544875391759e-05,0.0952856615185737,0,0,0
7719,269074.0550373841,2010-10-25 16:08:28,3481.756817258398,2,24,0.5501165986061096,4.009437561035156,23.18022289485688,22.65479768865461,92.55197772548956,82.60461142243025,9.71794142969884e-05,0.0952856615185737,0,0,0
7720,269104.0701756591,2010-10-25 16:08:58,3511.771955558469,2,24,0.5501165986061096,4.011541843414307,23.18480841797896,22.65479768865461,92.57036758470774,82.60461142243025,6.47544875391759e-05,0.0952856615185737,0,0,0
7721,269134.0853189867,2010-10-25 16:09:28,3541.7870988559957,2,24,0.5499359965324402,4.013484477996826,23.18939403452736,22.65479768865461,92.58876763179651,82.60461142243025,3.23295607813634e-05,0.0952856615185737,0,0,0
7722,269164.10044633446,2010-10-25 16:09:58,3571.80222620377,2,24,0.5501165986061096,4.015913009643555,23.193979577017465,22.65479768865461,92.60717729693609,82.60461142243025,6.47544875391759e-05,0.0952856615185737,0,0,0
7723,269194.11559247907,2010-10-25 16:10:28,3601.8173723483915,2,24,0.5499359965324402,4.018179416656494,23.19856513323733,22.65479768865461,92.62559717048325,82.60461142243025,9.71794142969884e-05,0.0952856615185737,0,0,0
7724,269224.13090840186,2010-10-25 16:10:58,3631.8326882711526,2,24,0.5499359965324402,4.020445823669434,23.203150790325868,22.65479768865461,92.64402744783315,82.60461142243025,9.71794142969884e-05,0.0952856615185737,0,0,0
7725,269254.1459050188,2010-10-25 16:11:28,3661.847684888106,2,24,0.5499359965324402,4.022550106048584,23.207736358062483,22.65479768865461,92.66246762718728,82.60461142243025,9.70840483205393e-05,0.0952856615185737,0,0,0
7726,269284.16103743424,2010-10-25 16:11:58,3691.862817328573,2,24,0.5501165986061096,4.024654865264893,23.21232197631591,22.65479768865461,92.68091837507149,82.60461142243025,3.24249267578125e-05,0.0952856615185737,0,0,0
7727,269314.176173228,2010-10-25 16:12:28,3721.87795310736,2,24,0.5499359965324402,4.026921272277832,23.21690759019084,22.65479768865461,92.69937953257836,82.60461142243025,3.24249267578125e-05,0.0952856615185737,0,0,0
7728,269344.1914859679,2010-10-25 16:12:58,3751.893265847189,2,24,0.5501165986061096,4.029511451721191,23.22149322931716,22.65479768865461,92.71785132458942,82.60461142243025,6.47544875391759e-05,0.0952856615185737,0,0,0
7729,269374.206473437,2010-10-25 16:13:28,3781.9082533113306,2,24,0.5499359965324402,4.031454086303711,23.22607883972164,22.65479768865461,92.73633356050318,82.60461142243025,3.24249267578125e-05,0.0952856615185737,0,0,0
7730,269404.22162468435,2010-10-25 16:13:58,3811.923404553657,2,24,0.5501165986061096,4.03404426574707,23.230664407169165,22.65479768865461,92.75482645152374,82.60461142243025,6.47544875391759e-05,0.0952856615185737,0,0,0
7731,269434.23676363105,2010-10-25 16:14:28,3841.938543500339,2,24,0.5499359965324402,4.036310195922852,23.23525006213689,22.65479768865461,92.7733305930292,82.60461142243025,3.23295607813634e-05,0.0952856615185737,0,0,0
7732,269464.25192475296,2010-10-25 16:14:58,3871.953704622289,2,24,0.5499359965324402,4.03873872756958,23.23983564452595,22.65479768865461,92.7918454053838,82.60461142243025,6.47544875391759e-05,0.0952856615185737,0,0,0
7733,269494.2670697948,2010-10-25 16:15:28,3901.9688496641634,2,24,0.5499359965324402,4.04116678237915,23.24442130595829,22.65479768865461,92.81037151669078,82.60461142243025,3.23295607813634e-05,0.0952856615185737,0,0,0
7734,269524.2821953381,2010-10-25 16:15:58,3931.98397520744,2,24,0.5499359965324402,4.043595314025879,23.24900693019635,22.65479768865461,92.82890860352452,82.60461142243025,0.0,0.0952856615185737,0,0,0
7735,269554.29736182844,2010-10-25 16:16:28,3961.9991417278447,2,24,0.5499359965324402,4.046023368835449,23.253592555069822,22.65479768865461,92.84745686721524,82.60461142243025,6.47544875391759e-05,0.0952856615185737,0,0,0
7736,269584.3125076723,2010-10-25 16:16:58,3992.0142875667048,2,24,0.5501165986061096,4.048451900482178,23.258178197036877,22.65479768865461,92.86601644867145,82.60461142243025,3.24249267578125e-05,0.0952856615185737,0,0,0
7737,269614.3276362883,2010-10-25 16:17:28,4022.029416187652,2,24,0.5499359965324402,4.051042079925537,23.262763842741915,22.65479768865461,92.88458740683996,82.60461142243025,6.47544875391759e-05,0.0952856615185737,0,0,0
7738,269644.34277868853,2010-10-25 16:17:58,4052.0445585578673,2,24,0.5499359965324402,4.0536322593688965,23.26734946938401,22.65479768865461,92.90316977029376,82.60461142243025,6.47544875391759e-05,0.0952856615185737,0,0,0
7739,269674.35794087814,2010-10-25 16:18:28,4082.059720762516,2,24,0.5499359965324402,4.056060314178467,23.271935141386766,22.65479768865461,92.9217639962893,82.60461142243025,3.23295607813634e-05,0.0952856615185737,0,0,0
7740,269704.3730886268,2010-10-25 16:18:58,4112.074868526172,2,24,0.5501165986061096,4.058650493621826,23.27652076249735,22.65479768865461,92.94036973430224,82.60461142243025,3.23295607813634e-05,0.0952856615185737,0,0,0
7741,269734.38824436534,2010-10-25 16:19:28,4142.090024349918,2,24,0.5501165986061096,4.0612406730651855,23.28110641272689,22.65479768865461,92.958987205571,82.60461142243025,9.70840483205393e-05,0.0952856615185737,0,0,0
7742,269764.40338877565,2010-10-25 16:19:58,4172.10516864493,2,24,0.5499359965324402,4.063830852508545,23.285691973500143,22.65479768865461,92.97761598369314,82.60461142243025,3.23295607813634e-05,0.0952856615185737,0,0,0
7743,269794.4186421575,2010-10-25 16:20:28,4202.120422036845,2,24,0.5501165986061096,4.066583156585693,23.29027765781083,22.65479768865461,92.99625732612344,82.60461142243025,9.71794142969884e-05,0.0952856615185737,0,0,0
7744,269824.4336793355,2010-10-25 16:20:58,4232.135459234939,2,24,0.5499359965324402,4.069011211395264,23.294863238462227,22.65479768865461,93.01491030625672,82.60461142243025,9.70840483205393e-05,0.0952856615185737,0,0,0
7745,269854.448806924,2010-10-25 16:21:28,4262.150586793238,2,24,0.5499359965324402,4.071763515472412,23.29944888477323,22.65479768865461,93.03357578336164,82.60461142243025,6.47544875391759e-05,0.0952856615185737,0,0,0
7746,269884.4640726967,2010-10-25 16:21:58,4292.1658525660105,2,24,0.5501165986061096,4.074515342712402,23.304034580704084,22.65479768865461,93.05225384519956,82.60461142243025,6.47544875391759e-05,0.0952856615185737,0,0,0
7747,269914.47904902307,2010-10-25 16:22:28,4322.180828902418,2,24,0.5499359965324402,4.077267646789551,23.308620196915225,22.65479768865461,93.07094407806532,82.60461142243025,0.0001295089750783,0.0952856615185737,0,0,0
7748,269944.4942490469,2010-10-25 16:22:58,4352.196028916299,2,24,0.5497553944587708,4.07985782623291,23.31320577765665,22.65479768865461,93.0896468365752,82.60461142243025,3.24249267578125e-05,0.0952856615185737,0,0,0
7749,269974.50940619904,2010-10-25 16:23:28,4382.211186068355,2,24,0.5499359965324402,4.0826096534729,23.31779130566145,22.65479768865461,93.10836203913928,82.60461142243025,3.23295607813634e-05,0.0952856615185737,0,0,0
7750,270004.5246484582,2010-10-25 16:23:58,4412.226428337549,2,24,0.5501165986061096,4.085685729980469,23.322376833552457,22.65479768865461,93.12709015135616,82.60461142243025,9.71794142969884e-05,0.0952856615185737,0,0,0
7751,270034.53964567167,2010-10-25 16:24:28,4442.241425540963,2,24,0.5499359965324402,4.088437557220459,23.32696235970091,22.65479768865461,93.14583128619648,82.60461142243025,9.70840483205393e-05,0.0952856615185737,0,0,0
7752,270064.554855114,2010-10-25 16:24:58,4472.256635003394,2,24,0.5499359965324402,4.091189861297607,23.331547987136204,22.65479768865461,93.1645859591502,82.60461142243025,3.24249267578125e-05,0.0952856615185737,0,0,0
7753,270094.5700913331,2010-10-25 16:25:28,4502.271871242559,2,24,0.5499359965324402,4.094103813171387,23.33613355301527,22.65479768865461,93.18335354010893,82.60461142243025,6.47544875391759e-05,0.0952856615185737,0,0,0
7754,270124.58787241986,2010-10-25 16:25:58,4532.289652329267,2,24,0.5499359965324402,4.097179412841797,23.340719580927026,22.65479768865461,93.20213632960314,82.60461142243025,6.47544875391759e-05,0.0952856615185737,0,0,0
7755,270154.6004884386,2010-10-25 16:26:28,4562.302268343024,2,24,0.5501165986061096,4.100093364715576,23.345304773168948,22.65479768865461,93.22092909675628,82.60461142243025,6.47544875391759e-05,0.0952856615185737,0,0,0
7756,270184.6154560132,2010-10-25 16:26:58,4592.317235912582,2,24,0.5501165986061096,4.103007316589356,23.349890433959093,22.65479768865461,93.23973721683475,82.60461142243025,6.47544875391759e-05,0.0952856615185737,0,0,0
7757,270214.63057452894,2010-10-25 16:27:28,4622.332354398269,2,24,0.5499359965324402,4.105921268463135,23.35447598362287,22.65479768865461,93.2585585215836,82.60461142243025,6.47544875391759e-05,0.0952856615185737,0,0,0
7758,270244.6457256008,2010-10-25 16:27:58,4652.347505470171,2,24,0.5501165986061096,4.108997344970703,23.359061604711727,22.65479768865461,93.27739384524168,82.60461142243025,6.47544875391759e-05,0.0952856615185737,0,0,0
7759,270274.6608478309,2010-10-25 16:28:28,4682.362627700191,2,24,0.5499359965324402,4.112072944641113,23.363647217184617,22.65479768865461,93.29624307818736,82.60461142243025,9.70840483205393e-05,0.0952856615185737,0,0,0
7760,270304.67620100145,2010-10-25 16:28:58,4712.377980870785,2,24,0.5499359965324402,4.115148544311523,23.36823284375688,22.65479768865461,93.31510633149874,82.60461142243025,9.70840483205393e-05,0.0952856615185737,0,0,0
7761,270334.6911451577,2010-10-25 16:29:28,4742.39292502699,2,24,0.5501165986061096,4.118224620819092,23.37281840466545,22.65479768865461,93.3339834620526,82.60461142243025,6.47544875391759e-05,0.0952856615185737,0,0,0
7762,270364.70629075094,2010-10-25 16:29:58,4772.408070650313,2,24,0.5499359965324402,4.121300220489502,23.37740395185497,22.65479768865461,93.35287484901072,82.60461142243025,9.70840483205393e-05,0.0952856615185737,0,0,0
7763,270394.72142692574,2010-10-25 16:30:28,4802.423206815062,2,24,0.5501165986061096,4.124537944793701,23.381989665403857,22.65479768865461,93.37178131673468,82.60461142243025,6.47544875391759e-05,0.0952856615185737,0,0,0
7764,270424.7367181118,2010-10-25 16:30:58,4832.438497981122,2,24,0.5501165986061096,4.1277756690979,23.38657611236996,22.65479768865461,93.39070544935302,82.60461142243025,9.70840483205393e-05,0.0952856615185737,0,0,0
7765,270454.7517509941,2010-10-25 16:31:28,4862.453530858447,2,24,0.5501165986061096,4.130851745605469,23.39116246486349,22.65479768865461,93.40964380427262,82.60461142243025,9.71794142969884e-05,0.0952856615185737,0,0,0
7766,270484.76686444227,2010-10-25 16:31:58,4892.468644306579,2,24,0.5501165986061096,4.134089469909668,23.39574881278839,22.65479768865461,93.42859692209748,82.60461142243025,6.47544875391759e-05,0.0952856615185737,0,0,0
7767,270514.78199376,2010-10-25 16:32:28,4922.483773659351,2,24,0.5499359965324402,4.137327194213867,23.400335131675952,22.65479768865461,93.44756482136556,82.60461142243025,9.71794142969884e-05,0.0952856615185737,0,0,0
7768,270544.7971735384,2010-10-25 16:32:58,4952.498953407723,2,24,0.5499359965324402,4.140726566314697,23.404920811016083,22.65479768865461,93.4665451290572,82.60461142243025,9.70840483205393e-05,0.0952856615185737,0,0,0
7769,270574.81255222263,2010-10-25 16:33:28,4982.514332227243,2,24,0.5499359965324402,4.143802642822266,23.409506490869727,22.65479768865461,93.48554051620803,82.60461142243025,3.24249267578125e-05,0.0952856615185737,0,0,0
7770,270604.82761316985,2010-10-25 16:33:58,5012.529393089315,2,24,0.5501165986061096,4.147525787353516,23.414092019510715,22.65479768865461,93.5045509121263,82.60461142243025,9.70840483205393e-05,0.0952856615185737,0,0,0
7771,270634.8426049899,2010-10-25 16:34:28,5042.544384859188,2,24,0.5499359965324402,4.150763511657715,23.41867751992926,22.65479768865461,93.52357651498724,82.60461142243025,6.47544875391759e-05,0.0952856615185737,0,0,0
7772,270664.8577618863,2010-10-25 16:34:58,5072.559541755606,2,24,0.5501165986061096,4.154001235961914,23.42326303325033,22.65479768865461,93.54261761539166,82.60461142243025,6.47544875391759e-05,0.0952856615185737,0,0,0
7773,270694.8729099858,2010-10-25 16:35:28,5102.574689865125,2,24,0.5497553944587708,4.157562732696533,23.42784854863072,22.65479768865461,93.56167422221245,82.60461142243025,0.0001295089750783,0.0952856615185737,0,0,0
7774,270724.8880398849,2010-10-25 16:35:58,5132.5898197492215,2,24,0.5497553944587708,4.1609625816345215,23.432434070214228,22.65479768865461,93.580746574223,82.60461142243025,9.71794142969884e-05,0.0952856615185737,0,0,0
7775,270754.9033239583,2010-10-25 16:36:28,5162.605103837642,2,24,0.5501165986061096,4.164524078369141,23.437019632389276,22.65479768865461,93.59983497873586,82.60461142243025,9.71794142969884e-05,0.0952856615185737,0,0,0
7776,270784.918381046,2010-10-25 16:36:58,5192.620160920294,2,24,0.5499359965324402,4.16808557510376,23.44160507028555,22.65479768865461,93.61893879046904,82.60461142243025,0.0001619339018361,0.0952856615185737,0,0,0
7777,270814.93363033264,2010-10-25 16:37:28,5222.635410237052,2,24,0.5499359965324402,4.171323299407959,23.446190542854936,22.65479768865461,93.63805893390008,82.60461142243025,6.47544875391759e-05,0.0952856615185737,0,0,0
7778,270844.9487590338,2010-10-25 16:37:58,5252.6505388981,2,24,0.5499359965324402,4.175046443939209,23.450775967551508,22.65479768865461,93.65719507068924,82.60461142243025,9.70840483205393e-05,0.0952856615185737,0,0,0
7779,270874.9637719564,2010-10-25 16:38:28,5282.665551870817,2,24,0.5499359965324402,4.178607940673828,23.45536141795188,22.65479768865461,93.67634764695272,82.60461142243025,9.70840483205393e-05,0.0952856615185737,0,0,0
7780,270904.9789290082,2010-10-25 16:38:58,5312.680708882523,2,24,0.5499359965324402,4.182169437408447,23.459946949751743,22.65479768865461,93.69551706285934,82.60461142243025,9.70840483205393e-05,0.0952856615185737,0,0,0
7781,270934.99406582455,2010-10-25 16:39:28,5342.695845683857,2,24,0.5499359965324402,4.185730934143066,23.46453248044151,22.65479768865461,93.71470306222454,82.60461142243025,6.47544875391759e-05,0.0952856615185737,0,0,0
7782,270965.00920929754,2010-10-25 16:39:58,5372.710989156822,2,24,0.5501165986061096,4.1896162033081055,23.46911797062572,22.65479768865461,93.73390561883164,82.60461142243025,0.0001295089750783,0.0952856615185737,0,0,0
7783,270995.02435457,2010-10-25 16:40:29,5402.726134434282,2,24,0.550297200679779,4.1935014724731445,23.47370345537105,22.65479768865461,93.75312491445432,82.60461142243025,0.0001618385285837,0.0952856615185737,0,0,0
7784,271025.03952896,2010-10-25 16:40:59,5432.741308824301,2,24,0.5499359965324402,4.196900844573975,23.47828893870385,22.65479768865461,93.77236103821367,82.60461142243025,0.0001295089750783,0.0952856615185737,0,0,0
7785,271049.6797565538,2010-10-25 16:41:23,5457.3815364130605,2,24,0.550297200679779,4.200138568878174,23.482053240093123,22.65479768865461,93.78816491432607,82.60461142243025,0.0001618385285837,0.0952856615185737,0,0,0
7786,271079.6902560106,2010-10-25 16:41:53,30.01513033522009,3,24,0.0,4.111263751983643,23.482053240093123,22.65479768865461,93.78816491432607,82.60461142243025,-0.0004208564641885,0.0952856615185737,0,0,0
7787,271109.7055339638,2010-10-25 16:42:23,60.03040829837441,3,24,0.0,4.100255489349365,23.482053240093123,22.65479768865461,93.78816491432607,82.60461142243025,-0.0001942634553415,0.0952856615185737,0,0,0
7788,271139.7205385256,2010-10-25 16:42:53,90.04541285511583,3,24,0.0,4.093780040740967,23.482053240093123,22.65479768865461,93.78816491432607,82.60461142243025,-0.0001295089750783,0.0952856615185737,0,0,0
7789,271169.688814385,2010-10-25 16:43:23,120.01368869451557,3,24,0.0,4.088923454284668,23.482053240093123,22.65479768865461,93.78816491432607,82.60461142243025,-0.0001618385285837,0.0952856615185737,0,0,0
7790,271169.70173806767,2010-10-25 16:43:23,0.01561553872729,4,24,0.992428719997406,4.199814796447754,23.48205757702708,22.65479768865461,93.78818312864549,82.60461142243025,0.0,0.0952856615185737,0,0,0
7791,271170.6860850683,2010-10-25 16:43:24,0.999962569403745,4,24,0.9418581128120422,4.199814796447754,23.48232041466748,22.65479768865461,93.78928697443652,82.60461142243025,0.0,0.0952856615185737,0,0,0
7792,271172.9048003545,2010-10-25 16:43:27,3.218677860591011,4,24,0.8918293714523315,4.199814796447754,23.482884403426365,22.65479768865461,93.79165558498453,82.60461142243025,0.0,0.0952856615185737,0,0,0
7793,271176.2328872861,2010-10-25 16:43:30,6.546764787238965,4,24,0.8418005704879761,4.199814796447754,23.48368444929464,22.65479768865461,93.79501558194268,82.60461142243025,3.23295607813634e-05,0.0952856615185737,0,0,0
7794,271180.73283235385,2010-10-25 16:43:34,11.04670982988371,4,24,0.791591227054596,4.199976921081543,23.48470394270381,22.65479768865461,93.79929723066074,82.60461142243025,3.24249267578125e-05,0.0952856615185737,0,0,0
7795,271186.5608302478,2010-10-25 16:43:40,16.874707723865633,4,24,0.7415624260902405,4.199653148651123,23.48594403853022,22.65479768865461,93.80450535342746,82.60461142243025,-3.23295607813634e-05,0.0952856615185737,0,0,0
7796,271194.3732033303,2010-10-25 16:43:48,24.687080801381903,4,24,0.6915336847305298,4.199814796447754,23.48749723467606,22.65479768865461,93.8110284245017,82.60461142243025,0.0,0.0952856615185737,0,0,0
7797,271204.5450580571,2010-10-25 16:43:58,34.858935558237455,4,24,0.6413242816925049,4.199653148651123,23.4893772875962,22.65479768865461,93.81892423491192,82.60461142243025,0.0,0.0952856615185737,0,0,0
7798,271219.1698182645,2010-10-25 16:44:13,49.48369588088775,4,24,0.5911149382591248,4.199976921081543,23.49187570616774,22.65479768865461,93.82941703290643,82.60461142243025,6.47544875391759e-05,0.0952856615185737,0,0,0
7799,271241.4818317473,2010-10-25 16:44:35,71.7957092183596,4,24,0.5410861372947693,4.199814796447754,23.49537230552419,22.65479768865461,93.84410200233437,82.60461142243025,0.0,0.0952856615185737,0,0,0
7800,271280.1688402312,2010-10-25 16:45:14,110.48271781748358,4,24,0.4908767640590668,4.199653148651123,23.50089186583759,22.65479768865461,93.86728290121732,82.60461142243025,-3.23295607813634e-05,0.0952856615185737,0,0,0
7801,271351.87068630866,2010-10-25 16:46:26,182.1845637847404,4,24,0.4408479928970337,4.199814796447754,23.51012969967289,22.65479768865461,93.90607972840732,82.60461142243025,3.23295607813634e-05,0.0952856615185737,0,0,0
7802,271458.6971316452,2010-10-25 16:48:12,289.0110091462568,4,24,0.3908192217350006,4.199814796447754,23.52244369886715,22.65479768865461,93.95779573244783,82.60461142243025,0.0,0.0952856615185737,0,0,0
7803,271592.29134327645,2010-10-25 16:50:26,422.6052209078781,4,24,0.3407904505729675,4.199653148651123,23.536000209108984,22.65479768865461,94.01473007116364,82.60461142243025,-3.23295607813634e-05,0.0952856615185737,0,0,0
7804,271751.84868094645,2010-10-25 16:53:06,582.1625584175174,4,24,0.2907616794109344,4.199653148651123,23.54997430232322,22.65479768865461,94.07341815238355,82.60461142243025,-3.23295607813634e-05,0.0952856615185737,0,0,0
7805,271942.72063132667,2010-10-25 16:56:16,773.0345088027083,4,24,0.2407329231500625,4.199653148651123,23.564038265186813,22.65479768865461,94.1324836323775,82.60461142243025,-3.23295607813634e-05,0.0952856615185737,0,0,0
7806,272180.5762289673,2010-10-25 17:00:14,1010.8901064634164,4,24,0.1907041519880294,4.199653148651123,23.578242859810867,22.65479768865461,94.19213975765014,82.60461142243025,-3.23295607813634e-05,0.0952856615185737,0,0,0
7807,272492.41510598926,2010-10-25 17:05:26,1322.7289834803664,4,24,0.1406753808259964,4.199814796447754,23.592508598292987,22.65479768865461,94.25205264255762,82.60461142243025,0.0,0.0952856615185737,0,0,0
7808,272959.7825054441,2010-10-25 17:13:14,1790.0963829451864,4,24,0.0906466171145439,4.199653148651123,23.60732038037539,22.65479768865461,94.31425881822427,82.60461142243025,-3.23295607813634e-05,0.0952856615185737,0,0,0
7809,273665.2868848859,2010-10-25 17:24:59,2495.6007624020635,4,24,0.0498289167881011,4.199814796447754,23.62071277336201,22.65479768865461,94.37050384963476,82.60461142243025,-3.24249267578125e-05,0.0952856615185737,0,0,0
7810,273695.29240886815,2010-10-25 17:25:29,30.015252138792068,5,24,0.0,4.191397190093994,23.62071277336201,22.65479768865461,94.37050384963476,82.60461142243025,-3.23295607813634e-05,0.0952856615185737,0,0,0
7811,273725.2917785379,2010-10-25 17:25:59,60.01462180357198,5,24,0.0,4.1901021003723145,23.62071277336201,22.65479768865461,94.37050384963476,82.60461142243025,0.0,0.0952856615185737,0,0,0
7812,273725.4861250021,2010-10-25 17:26:00,0.187409477081341,6,24,-1.9243103452026844e-05,4.1901021003723145,23.62071277336201,22.65479768965637,94.37050384963476,82.60461142662773,0.0,0.096440702676773,0,0,0
7813,273730.3142127524,2010-10-25 17:26:04,5.015497227320399,6,24,0.0003419754502829,4.1901021003723145,23.62071347637707,22.65479768982329,94.3705067954025,82.60461142732714,-3.23295607813634e-05,0.096440702676773,0,0,0
7814,273760.3363286011,2010-10-25 17:26:34,30.015161548011967,7,24,-1.099568486213684,4.003285884857178,23.62071347637707,22.663965795728885,94.3705067954025,82.64152467693444,-0.0010360718006268,0.096440702676773,0,0,0
7815,273790.3513599296,2010-10-25 17:27:04,60.03019285642679,7,24,-1.099568486213684,3.973984479904175,23.62071347637707,22.67313377806541,94.3705067954025,82.67808359486192,-0.0006799221155233,0.096440702676773,0,0,0
7816,273820.3666631808,2010-10-25 17:27:34,90.04549608755667,7,24,-1.099568486213684,3.95358681678772,23.62071347637707,22.68230174331475,94.3705067954025,82.71441826166271,-0.0004856586456298,0.096440702676773,0,0,0
7817,273850.3816407803,2010-10-25 17:28:04,120.06047370716249,7,24,-1.0993878841400146,3.9378838539123535,23.62071347637707,22.69146973898058,94.3705067954025,82.75058896421613,-0.0003885269106831,0.096440702676773,0,0,0
7818,273880.3967799726,2010-10-25 17:28:35,150.0756129245196,7,24,-1.0997490882873535,3.9246091842651367,23.62071347637707,22.70063768596004,94.3705067954025,82.78662888785144,-0.0003885269106831,0.096440702676773,0,0,0
7819,273910.41193766106,2010-10-25 17:29:05,180.09077058784973,7,24,-1.0997490882873535,3.913439273834229,23.62071347637707,22.709805669611004,94.3705067954025,82.82255815412621,-0.0002913475036621,0.096440702676773,0,0,0
7820,273940.4270680464,2010-10-25 17:29:35,210.1059009982572,7,24,-1.099568486213684,3.903240442276001,23.62071347637707,22.71897365393527,94.3705067954025,82.85838871846472,-0.0002590179501567,0.096440702676773,0,0,0
7821,273970.44221801555,2010-10-25 17:30:05,240.1210509273112,7,24,-1.099568486213684,3.8935272693634033,23.62071347637707,22.72814168243995,94.3705067954025,82.8941283488362,-0.0002590179501567,0.096440702676773,0,0,0
7822,274000.4573570876,2010-10-25 17:30:35,270.1361900143434,7,24,-1.099929690361023,3.884299755096436,23.62071347637707,22.737309689822357,94.3705067954025,82.92978238860007,-0.0002590179501567,0.096440702676773,0,0,0
7823,274030.47265107563,2010-10-25 17:31:05,300.1514839723619,7,24,-1.0993878841400146,3.8755578994750977,23.62071347637707,22.746477114809444,94.3705067954025,82.9653510887643,-0.0002266406954731,0.096440702676773,0,0,0
7824,274060.487641026,2010-10-25 17:31:35,330.16647392269965,7,24,-1.0993878841400146,3.8669779300689697,23.62071347637707,22.75564433204808,94.3705067954025,83.00083878373997,-0.0001942634553415,0.096440702676773,0,0,0
7825,274090.5028037219,2010-10-25 17:32:05,360.1816366235849,7,24,-1.0997490882873535,3.858397960662842,23.62071347637707,22.7648123338488,94.3705067954025,83.03625111756024,-0.0002266406954731,0.096440702676773,0,0,0
7826,274120.51794882386,2010-10-25 17:32:35,390.1967817506709,7,24,-1.099568486213684,3.850141763687134,23.62071347637707,22.77398041415967,94.3705067954025,83.0715870182697,-0.0002266406954731,0.096440702676773,0,0,0
7827,274150.5334441788,2010-10-25 17:33:05,420.21227708558257,7,24,-1.0997490882873535,3.8422093391418457,23.62071347637707,22.78314871459815,94.3705067954025,83.10684911567357,-0.0001618862152099,0.096440702676773,0,0,0
7828,274180.54824658175,2010-10-25 17:33:35,450.2270794834818,7,24,-1.099568486213684,3.834115028381348,23.62071347637707,22.79231678154356,94.3705067954025,83.14203738732871,-0.0002266406954731,0.096440702676773,0,0,0
7829,274210.5634065709,2010-10-25 17:34:05,480.2422394976712,7,24,-1.099568486213684,3.8265066146850586,23.62071347637707,22.801484909237743,94.3705067954025,83.17715422988857,-0.0001942634553415,0.096440702676773,0,0,0
7830,274240.5785463897,2010-10-25 17:34:35,510.2573792914649,7,24,-1.0997490882873535,3.818736076354981,23.62071347637707,22.81065299178144,94.3705067954025,83.21220005700228,-0.0001942634553415,0.096440702676773,0,0,0
7831,274270.59368314594,2010-10-25 17:35:05,540.272516077763,7,24,-1.0997490882873535,3.811289310455322,23.62071347637707,22.81982116886541,94.3705067954025,83.24717662774619,-0.0001942634553415,0.096440702676773,0,0,0
7832,274300.60881501494,2010-10-25 17:35:35,570.287647916731,7,24,-1.0997490882873535,3.803842544555664,23.62071347637707,22.828989230050315,94.3705067954025,83.28208452559723,-0.0002266406954731,0.096440702676773,0,0,0
7833,274330.6239904576,2010-10-25 17:36:05,600.3028233794225,7,24,-1.099568486213684,3.796557664871216,23.62071347637707,22.838157395817703,94.3705067954025,83.31692582470725,-0.0001942634553415,0.096440702676773,0,0,0
7834,274360.63911289314,2010-10-25 17:36:35,630.3179458199668,7,24,-1.0997490882873535,3.7894346714019775,23.62071347637707,22.847325521852145,94.3705067954025,83.35170119005527,-0.0002266406954731,0.096440702676773,0,0,0
7835,274390.654279599,2010-10-25 17:37:05,660.3331124957587,7,24,-1.099568486213684,3.782635450363159,23.62071347637707,22.856493687477588,94.3705067954025,83.38641234007213,-0.0001618862152099,0.096440702676773,0,0,0
7836,274420.6693867565,2010-10-25 17:37:35,690.3482196532126,7,24,-1.099568486213684,3.775836229324341,23.62071347637707,22.86566182907827,94.3705067954025,83.42106093262088,-0.0001618862152099,0.096440702676773,0,0,0
7837,274450.68454587844,2010-10-25 17:38:05,720.3633787701656,7,24,-1.099568486213684,3.769198894500733,23.62071347637707,22.87483001516767,94.3705067954025,83.4556479149514,-0.0001618862152099,0.096440702676773,0,0,0
7838,274480.69967805827,2010-10-25 17:38:35,750.3785110452205,7,24,-1.099568486213684,3.762561559677124,23.62071347637707,22.883998181647502,94.3705067954025,83.49017366800146,-0.0001942634553415,0.096440702676773,0,0,0
7839,274510.71483126044,2010-10-25 17:39:05,780.3936641572072,7,24,-1.0997490882873535,3.756247997283936,23.62071347637707,22.893166336899498,94.3705067954025,83.52463965409979,-0.0001295089750783,0.096440702676773,0,0,0
7840,274540.72997805174,2010-10-25 17:39:35,810.408811043678,7,24,-1.099568486213684,3.749772787094116,23.62071347637707,22.902334524212097,94.3705067954025,83.55904782922798,-0.0001618862152099,0.096440702676773,0,0,0
7841,274570.7451013995,2010-10-25 17:40:05,840.4239342862211,7,24,-1.0997490882873535,3.7436211109161377,23.62071347637707,22.91150264966777,94.3705067954025,83.59339910189699,-0.0002266406954731,0.096440702676773,0,0,0
7842,274600.7602609325,2010-10-25 17:40:35,870.4390938492859,7,24,-1.099929690361023,3.737631320953369,23.62071347637707,22.92067084545712,94.3705067954025,83.6276945476857,-0.0001942634553415,0.096440702676773,0,0,0
7843,274630.77540736785,2010-10-25 17:41:05,900.4542402645825,7,24,-1.099568486213684,3.7316415309906006,23.62071347637707,22.92983900822739,94.3705067954025,83.66193502469865,-0.0002266406954731,0.096440702676773,0,0,0
7844,274660.79047259083,2010-10-25 17:41:35,930.4693054875228,7,24,-1.0997490882873535,3.725975513458252,23.62071347637707,22.939007077488544,94.3705067954025,83.69612169347178,-0.0001618862152099,0.096440702676773,0,0,0
7845,274690.80578392715,2010-10-25 17:42:05,960.4846168238532,7,24,-1.099568486213684,3.720147609710693,23.62071347637707,22.94817521929332,94.3705067954025,83.73025591547264,-0.0001618862152099,0.096440702676773,0,0,0
7846,274720.8207535819,2010-10-25 17:42:35,990.4995865086833,7,24,-1.099568486213684,3.7144815921783447,23.62071347637707,22.957343316003065,94.3705067954025,83.76433766497526,-0.0001942634553415,0.096440702676773,0,0,0
7847,274750.8360018059,2010-10-25 17:43:05,1020.5148347327184,7,24,-1.0997490882873535,3.708977460861206,23.62071347637707,22.966511580411016,94.3705067954025,83.79836853612134,-0.0001618862152099,0.096440702676773,0,0,0
7848,274780.8511651584,2010-10-25 17:43:35,1050.5299980852278,7,24,-1.099568486213684,3.7034733295440674,23.62071347637707,22.975679778786468,94.3705067954025,83.8323485033948,-0.0001295089750783,0.096440702676773,0,0,0
7849,274810.8663045562,2010-10-25 17:44:05,1080.5451374830348,7,24,-1.099568486213684,3.6981310844421382,23.62071347637707,22.98484796382199,94.3705067954025,83.86627838927761,-0.0001618862152099,0.096440702676773,0,0,0
7850,274840.88142029004,2010-10-25 17:44:35,1110.5602531867887,7,24,-1.099568486213684,3.69278883934021,23.62071347637707,22.994016209008425,94.3705067954025,83.90015970654389,-0.0001618862152099,0.096440702676773,0,0,0
7851,274870.8967227342,2010-10-25 17:45:05,1140.575555651007,7,24,-1.099568486213684,3.687608480453491,23.62071347637707,23.003184539523925,94.3705067954025,83.93399252276068,-9.713172767078504e-05,0.096440702676773,0,0,0
7852,274900.9117042486,2010-10-25 17:45:35,1170.5905371502822,7,24,-1.099568486213684,3.6822662353515625,23.62071347637707,23.0123527125989,94.3705067954025,83.96777674132377,-0.0001618862152099,0.096440702676773,0,0,0
7853,274930.92779601493,2010-10-25 17:46:05,1200.606629031972,7,24,-1.0997490882873535,3.6772477626800537,23.62071347637707,23.021521229843376,94.3705067954025,84.00151483613203,-0.0001618862152099,0.096440702676773,0,0,0
7854,274960.92898942006,2010-10-25 17:46:35,1230.6078224420864,7,24,-1.0997490882873535,3.672067642211914,23.62071347637707,23.03068518386696,94.3705067954025,84.03518980571293,-0.0001618385285837,0.096440702676773,0,0,0
7855,274990.94174215454,2010-10-25 17:47:05,1260.620575096394,7,24,-1.0997490882873535,3.6672110557556152,23.62071347637707,23.03985266511072,94.3705067954025,84.06883191296596,-0.0001295089750783,0.096440702676773,0,0,0
7856,275020.95668986964,2010-10-25 17:47:35,1290.6355227713686,7,24,-1.0997490882873535,3.662354469299317,23.62071347637707,23.049020873559257,94.3705067954025,84.10243209592282,-0.0001295089750783,0.096440702676773,0,0,0
7857,275050.9717963053,2010-10-25 17:48:05,1320.650629232086,7,24,-1.099568486213684,3.657659769058228,23.62071347637707,23.05818907000401,94.3705067954025,84.13598786516026,-9.713172767078504e-05,0.096440702676773,0,0,0
7858,275080.98706121586,2010-10-25 17:48:35,1350.665894117647,7,24,-1.099568486213684,3.6529650688171382,23.62071347637707,23.06735730954808,94.3705067954025,84.16950050682891,-9.713172767078504e-05,0.096440702676773,0,0,0
7859,275111.0020727852,2010-10-25 17:49:05,1380.6809056818531,7,24,-1.099568486213684,3.64843225479126,23.62071347637707,23.07652549869082,94.3705067954025,84.20297055746725,-9.713172767078504e-05,0.096440702676773,0,0,0
7860,275141.0173684825,2010-10-25 17:49:35,1410.6962014193066,7,24,-1.099568486213684,3.643737554550171,23.62071347637707,23.085693711184053,94.3705067954025,84.2363980916041,-0.0001295089750783,0.096440702676773,0,0,0
7861,275171.0323666032,2010-10-25 17:50:05,1440.7111995049202,7,24,-1.099568486213684,3.639366626739502,23.62071347637707,23.09486180299963,94.3705067954025,84.26978355740124,-9.713172767078504e-05,0.096440702676773,0,0,0
7862,275201.0475145072,2010-10-25 17:50:35,1470.7263474089268,7,24,-1.0997490882873535,3.634833812713623,23.62071347637707,23.10403000156341,94.3705067954025,84.30312786809225,-9.713172767078504e-05,0.096440702676773,0,0,0
7863,275231.06266603526,2010-10-25 17:51:05,1500.741498936966,7,24,-1.099568486213684,3.630462884902954,23.62071347637707,23.1131981874151,94.3705067954025,84.33643176747877,-9.713172767078504e-05,0.096440702676773,0,0,0
7864,275261.0778173277,2010-10-25 17:51:35,1530.756650229418,7,24,-1.099568486213684,3.626253843307495,23.62071347637707,23.12236635546681,94.3705067954025,84.36969599348971,-9.713172767078504e-05,0.096440702676773,0,0,0
7865,275291.0929456178,2010-10-25 17:52:05,1560.7717785446034,7,24,-1.099568486213684,3.621882915496826,23.62071347637707,23.13153444883958,94.3705067954025,84.40292086303835,-0.0001295089750783,0.096440702676773,0,0,0
7866,275321.1080734919,2010-10-25 17:52:35,1590.7869063936273,7,24,-1.0997490882873535,3.617673873901367,23.62071347637707,23.140702632772385,94.3705067954025,84.4361075696887,-0.0001295089750783,0.096440702676773,0,0,0
7867,275351.1233302622,2010-10-25 17:53:05,1620.8021631689749,7,24,-1.0997490882873535,3.613626718521118,23.62071347637707,23.149870839762,94.3705067954025,84.46925688010163,-9.713172767078504e-05,0.096440702676773,0,0,0
7868,275381.1383487487,2010-10-25 17:53:35,1650.8171816504212,7,24,-1.099568486213684,3.609741449356079,23.62071347637707,23.15903896568096,94.3705067954025,84.50236881482665,-6.47544875391759e-05,0.096440702676773,0,0,0
7869,275411.1536515086,2010-10-25 17:54:05,1680.8324844204014,7,24,-1.099568486213684,3.60585618019104,23.62071347637707,23.168207195304632,94.3705067954025,84.53544492853689,-6.47544875391759e-05,0.096440702676773,0,0,0
7870,275441.16882662545,2010-10-25 17:54:35,1710.8476595522686,7,24,-1.099568486213684,3.601970911026001,23.62071347637707,23.17737533768975,94.3705067954025,84.56848534424516,-9.713172767078504e-05,0.096440702676773,0,0,0
7871,275471.1838277837,2010-10-25 17:55:05,1740.8626608057775,7,24,-1.099568486213684,3.598247528076172,23.62071347637707,23.186543450935613,94.3705067954025,84.60149099298087,-6.47544875391759e-05,0.096440702676773,0,0,0
7872,275501.19897766766,2010-10-25 17:55:35,1770.8778105944816,7,24,-1.099568486213684,3.594362258911133,23.62071347637707,23.195711618229787,94.3705067954025,84.63446273867457,-0.0001618862152099,0.096440702676773,0,0,0
7873,275531.21412105544,2010-10-25 17:56:05,1800.8929539922576,7,24,-1.099568486213684,3.5909628868103027,23.62071347637707,23.204879791863338,94.3705067954025,84.66740134964789,-9.713172767078504e-05,0.096440702676773,0,0,0
7874,275561.2292468944,2010-10-25 17:56:35,1830.908079796184,7,24,-1.099568486213684,3.5875632762908936,23.62071347637707,23.21404798085603,94.3705067954025,84.70030742516803,-6.47544875391759e-05,0.096440702676773,0,0,0
7875,275591.24451537395,2010-10-25 17:57:05,1860.92334829074,7,24,-1.0997490882873535,3.5840017795562744,23.62071347637707,23.223216261498017,94.3705067954025,84.73318165989231,-6.47544875391759e-05,0.096440702676773,0,0,0
7876,275621.2596753631,2010-10-25 17:57:35,1890.9385082798667,7,24,-1.0997490882873535,3.580602169036865,23.62071347637707,23.232384439034963,94.3705067954025,84.76602437993104,-6.47544875391759e-05,0.096440702676773,0,0,0
7877,275651.2746830627,2010-10-25 17:58:05,1920.953515959391,7,24,-1.0997490882873535,3.577202558517456,23.62071347637707,23.24155266862052,94.3705067954025,84.79883656037487,-9.713172767078504e-05,0.096440702676773,0,0,0
7878,275681.28993923654,2010-10-25 17:58:35,1950.968772238502,7,24,-1.099568486213684,3.573802947998047,23.62071347637707,23.250720939088936,94.3705067954025,84.8316185345995,-0.0001295089750783,0.096440702676773,0,0,0
7879,275711.30497977795,2010-10-25 17:59:05,1980.9838126997288,7,24,-1.099568486213684,3.5707271099090576,23.62071347637707,23.25988910035656,94.3705067954025,84.86437021778636,-6.47544875391759e-05,0.096440702676773,0,0,0
7880,275741.32013278967,2010-10-25 17:59:35,2010.9989657214903,7,24,-1.099568486213684,3.5674893856048584,23.62071347637707,23.26905726098832,94.3705067954025,84.89709246440638,-9.713172767078504e-05,0.096440702676773,0,0,0
7881,275771.3352444484,2010-10-25 18:00:05,2041.0140773450755,7,24,-1.099568486213684,3.564251661300659,23.62071347637707,23.27822548800221,94.3705067954025,84.92978560799541,-9.713172767078504e-05,0.096440702676773,0,0,0
7882,275801.3503786632,2010-10-25 18:00:35,2071.029211559965,7,24,-1.0993878841400146,3.56149959564209,23.62071347637707,23.28739361543572,94.3705067954025,84.9624495731525,0.0,0.096440702676773,0,0,0
7883,275831.3655184469,2010-10-25 18:01:06,2101.044351348746,7,24,-1.0997490882873535,3.5579380989074707,23.62071347637707,23.296561802327897,94.3705067954025,84.99508496684072,-0.0001295089750783,0.096440702676773,0,0,0
7884,275861.38068979944,2010-10-25 18:01:36,2131.0595226961814,7,24,-1.099568486213684,3.5550241470336914,23.62071347637707,23.30572997310734,94.3705067954025,85.02769150273386,-6.47544875391759e-05,0.096440702676773,0,0,0
7885,275891.39581210964,2010-10-25 18:02:06,2161.074645036476,7,24,-1.099568486213684,3.551786422729492,23.62071347637707,23.31489816517372,94.3705067954025,85.06026946734511,-9.713172767078504e-05,0.096440702676773,0,0,0
7886,275921.4109630763,2010-10-25 18:02:36,2191.0897959730405,7,24,-1.0997490882873535,3.548710584640503,23.62071347637707,23.324066425660767,94.3705067954025,85.09281885979821,-3.237724376958795e-05,0.096440702676773,0,0,0
7887,275951.4261146294,2010-10-25 18:03:06,2221.104947556217,7,24,-1.0993878841400146,3.545796632766724,23.62071347637707,23.33323463025625,94.3705067954025,85.12533953856558,-3.237724376958795e-05,0.096440702676773,0,0,0
7888,275981.4412590347,2010-10-25 18:03:36,2251.120091931429,7,24,-1.099568486213684,3.5425589084625244,23.62071347637707,23.342402867372986,94.3705067954025,85.15783149558075,0.0,0.096440702676773,0,0,0
7889,276011.4564986773,2010-10-25 18:04:06,2281.135331584102,7,24,-1.0997490882873535,3.539321184158325,23.62071347637707,23.35157107985005,94.3705067954025,85.19029472099152,-9.713172767078504e-05,0.096440702676773,0,0,0
7890,276041.4715194395,2010-10-25 18:04:36,2311.15035234122,7,24,-1.099568486213684,3.535921573638916,23.62071347637707,23.360739215522685,94.3705067954025,85.22272765245651,-9.713172767078504e-05,0.096440702676773,0,0,0
7891,276071.4866760452,2010-10-25 18:05:06,2341.1655089419014,7,24,-1.099568486213684,3.532683849334717,23.62071347637707,23.36990749907903,94.3705067954025,85.25513119531077,-9.713172767078504e-05,0.096440702676773,0,0,0
7892,276101.5020548697,2010-10-25 18:05:36,2371.180887766433,7,24,-1.099568486213684,3.5296080112457275,23.62071347637707,23.37907575956909,94.3705067954025,85.2875048225728,0.0,0.096440702676773,0,0,0
7893,276131.5169520588,2010-10-25 18:06:06,2401.195784960594,7,24,-1.0997490882873535,3.5258846282958984,23.62071347637707,23.38824393827385,94.3705067954025,85.31984751085183,-0.0001295089750783,0.096440702676773,0,0,0
7894,276161.5320930256,2010-10-25 18:06:36,2431.210925932324,7,24,-1.0997490882873535,3.5224850177764893,23.62071347637707,23.39741221053518,94.3705067954025,85.35215907047224,-9.713172767078504e-05,0.096440702676773,0,0,0
7895,276191.5472368795,2010-10-25 18:07:06,2461.2260697862366,7,24,-1.0997490882873535,3.51892352104187,23.62071347637707,23.406580421840825,94.3705067954025,85.38443818223017,-0.0001295089750783,0.096440702676773,0,0,0
7896,276221.5623877057,2010-10-25 18:07:36,2491.2412206075146,7,24,-1.099568486213684,3.515200138092041,23.62071347637707,23.415748641491827,94.3705067954025,85.41668465225287,-0.0001295089750783,0.096440702676773,0,0,0
7897,276251.5775184771,2010-10-25 18:08:06,2521.256351403884,7,24,-1.0997490882873535,3.511476993560791,23.62071347637707,23.424916863042004,94.3705067954025,85.4488969770661,-0.0001294612884521,0.096440702676773,0,0,0
7898,276281.59267818043,2010-10-25 18:08:36,2551.271511107298,7,24,-1.0997490882873535,3.507591724395752,23.62071347637707,23.4340850923584,94.3705067954025,85.48107372292995,-9.713172767078504e-05,0.096440702676773,0,0,0
7899,276311.6079302792,2010-10-25 18:09:06,2581.2867631859403,7,24,-1.0997490882873535,3.503544569015503,23.62071347637707,23.44325335794745,94.3705067954025,85.51321400840702,-9.713172767078504e-05,0.096440702676773,0,0,0
7900,276341.622955327,2010-10-25 18:09:36,2611.3017882287395,7,24,-1.0997490882873535,3.499173641204834,23.62071347637707,23.45242159221769,94.3705067954025,85.54531546856411,-9.713172767078504e-05,0.096440702676773,0,0,0
7901,276371.638085963,2010-10-25 18:10:06,2641.316918869721,7,24,-1.099568486213684,3.494478940963745,23.62071347637707,23.461589812570946,94.3705067954025,85.57737535076247,-0.0001295089750783,0.096440702676773,0,0,0
7902,276401.6532261477,2010-10-25 18:10:36,2671.3320590494773,7,24,-1.0997490882873535,3.4894604682922363,23.62071347637707,23.470758068862985,94.3705067954025,85.60939116478468,-0.0001618862152099,0.096440702676773,0,0,0
7903,276431.6683709991,2010-10-25 18:11:06,2701.347203900876,7,24,-1.099568486213684,3.4842801094055176,23.62071347637707,23.479926318378663,94.3705067954025,85.64135975371123,-0.0001618862152099,0.096440702676773,0,0,0
7904,276461.68353471253,2010-10-25 18:11:36,2731.36236764436,7,24,-1.099568486213684,3.478290319442749,23.62071347637707,23.48909448135545,94.3705067954025,85.6732757796562,-0.0001295089750783,0.096440702676773,0,0,0
7905,276491.6987073281,2010-10-25 18:12:06,2761.377540325118,7,24,-1.099568486213684,3.4716529846191406,23.62071347637707,23.49826267076655,94.3705067954025,85.70513435903578,-0.0001295089750783,0.096440702676773,0,0,0
7906,276521.71380819485,2010-10-25 18:12:36,2791.3926411217185,7,24,-1.0997490882873535,3.4640443325042725,23.62071347637707,23.507430850808827,94.3705067954025,85.73692918490003,-0.0002590179501567,0.096440702676773,0,0,0
7907,276551.729075672,2010-10-25 18:13:06,2821.4079085887133,7,24,-1.099568486213684,3.4557881355285645,23.62071347637707,23.51659911654056,94.3705067954025,85.76865209942989,-0.0002266406954731,0.096440702676773,0,0,0
7908,276581.7442957508,2010-10-25 18:13:36,2851.42312866259,7,24,-1.0997490882873535,3.446074962615967,23.62071347637707,23.5257673851967,94.3705067954025,85.80029203024841,-0.0002590179501567,0.096440702676773,0,0,0
7909,276611.75935074326,2010-10-25 18:14:06,2881.438183660045,7,24,-1.099568486213684,3.434742927551269,23.62071347637707,23.53493559338203,94.3705067954025,85.83183553529184,-0.0003237724304199,0.096440702676773,0,0,0
7910,276641.77450144925,2010-10-25 18:14:36,2911.4533343760604,7,24,-1.0997490882873535,3.421306610107422,23.62071347637707,23.544103891960496,94.3705067954025,85.8632664519951,-0.0004209041653666,0.096440702676773,0,0,0
7911,276671.7895123017,2010-10-25 18:15:06,2941.468345238517,7,24,-1.0997490882873535,3.405279874801636,23.62071347637707,23.553272082669555,94.3705067954025,85.89456241352346,-0.0004209041653666,0.096440702676773,0,0,0
7912,276701.8046831128,2010-10-25 18:15:36,2971.483516039591,7,24,-1.099568486213684,3.3855297565460205,23.62071347637707,23.562440315169177,94.3705067954025,85.9256954252037,-0.0005504131549969,0.096440702676773,0,0,0
7913,276731.8198082049,2010-10-25 18:16:06,3001.4986411066816,7,24,-1.099568486213684,3.3602755069732666,23.62071347637707,23.57160858488201,94.3705067954025,85.95662376026917,-0.0007446765666827,0.096440702676773,0,0,0
7914,276761.8349855924,2010-10-25 18:16:36,3031.5138184991824,7,24,-1.099568486213684,3.3275747299194336,23.62071347637707,23.58077679709444,94.3705067954025,85.98728824981937,-0.0009389400365762,0.096440702676773,0,0,0
7915,276791.85009694536,2010-10-25 18:17:06,3061.52892984708,7,24,-1.099568486213684,3.2832179069519043,23.62071347637707,23.589944989334622,94.3705067954025,86.01760291103928,-0.0013598442310467,0.096440702676773,0,0,0
7916,276821.86521860893,2010-10-25 18:17:36,3091.544051535751,7,24,-1.0997490882873535,3.2213776111602783,23.62071347637707,23.59911320073832,94.3705067954025,86.04743734250157,-0.0019426345825195,0.096440702676773,0,0,0
7917,276851.88034693414,2010-10-25 18:18:06,3121.5591798709866,7,24,-1.099568486213684,3.1307215690612797,23.62071347637707,23.608281346726823,94.3705067954025,86.0765849848486,-0.0028815746773034,0.096440702676773,0,0,0
7918,276881.89809538453,2010-10-25 18:18:36,3151.576928396542,7,24,-1.0997490882873535,2.9822723865509038,23.62071347637707,23.61745042105237,94.3705067954025,86.10468094237865,-0.0052127363160252,0.096440702676773,0,0,0
7919,276903.3326446816,2010-10-25 18:18:57,3173.011477608424,7,24,-1.0997490882873535,2.781696081161499,23.62071347637707,23.623997628301844,94.3705067954025,86.12361276911447,-0.0092598441988229,0.096440702676773,0,0,0
7920,276909.7388080168,2010-10-25 18:19:04,3179.41764091852,7,24,-1.0997490882873535,2.699943780899048,23.62071347637707,23.62595439255217,94.3705067954025,86.12897736019553,-0.0104254242032766,0.096440702676773,0,0,0
7921,276969.7645644347,2010-10-25 18:20:04,60.01465251511459,8,24,0.0,3.3699886798858643,23.62071347637707,23.62595439255217,94.3705067954025,86.12897736019553,0.0013274669181555,0.096440702676773,0,0,0
7922,276969.964054128,2010-10-25 18:20:04,0.187420905564638,9,24,-1.9243103452026844e-05,3.370312452316284,23.62071347637707,23.625954393553997,94.3705067954025,86.12897736357199,0.0,0.0940094217658042,0,0,0
7923,276974.7919546065,2010-10-25 18:20:09,5.015321353989944,9,24,0.0003419754502829,3.3782448768615723,23.62071402028265,23.625954393803852,94.37050863107088,86.12897736441441,0.0011332035064697,0.0940094217658042,0,0,0
