Data_Point,Test_Time(s),Date_Time,Step_Time(s),Step_Index,Cycle_Index,Current(A),Voltage(V),Charge_Capacity(Ah),Discharge_Capacity(Ah),Charge_Energy(Wh),Discharge_Energy(Wh),dV/dt(V/s),Internal_Resistance(Ohm),Is_FC_Data,AC_Impedance(Ohm),ACI_Phase_Angle(Deg)
3296,115703.23131267104,2010-10-23 21:32:00,30.01522691592893,1,11,0.0,3.363998889923096,9.832477960294778,9.848379370459378,39.30954944495187,35.88801628658801,0.0007770538213662,0.0900387018918991,0,0,0
3297,115733.2464073875,2010-10-23 21:32:30,60.030321652426046,1,11,0.0,3.389576911926269,9.832477960294778,9.848379370459378,39.30954944495187,35.88801628658801,0.0005827903514727,0.0900387018918991,0,0,0
3298,115763.2616755512,2010-10-23 21:33:00,90.04558978608225,1,11,0.0,3.408679485321045,9.832477960294778,9.848379370459378,39.30954944495187,35.88801628658801,0.0004532813909463,0.0900387018918991,0,0,0
3299,115793.22988217812,2010-10-23 21:33:30,120.01379641298313,1,11,0.0,3.424058675765991,9.832477960294778,9.848379370459378,39.30954944495187,35.88801628658801,0.0003885269106831,0.0900387018918991,0,0,0
3300,115823.24487968256,2010-10-23 21:34:01,30.01515467588451,2,11,0.550297200679779,3.5804402828216557,9.837064666992216,9.848379370459378,39.3258014914898,35.88801628658801,0.0016836166614666,0.0900387018918991,0,0,0
3301,115853.26006645344,2010-10-23 21:34:31,60.03034147683458,2,11,0.5501165986061096,3.630624771118164,9.84165140336586,9.848379370459378,39.34234571813122,35.88801628658801,0.0011979580158367,0.0900387018918991,0,0,0
3302,115883.27526999611,2010-10-23 21:35:01,90.0455449944477,2,11,0.5501165986061096,3.667049169540405,9.846238070223542,9.848379370459378,39.35908550229557,35.88801628658801,0.0008418083307333,0.0900387018918991,0,0,0
3303,115913.29071005325,2010-10-23 21:35:31,120.06098511174002,2,11,0.550297200679779,3.695702791213989,9.85082474504178,9.848379370459378,39.37597302065962,35.88801628658801,0.0006799221155233,0.0900387018918991,0,0,0
3304,115943.30565078591,2010-10-23 21:36:01,150.0759257792498,2,11,0.5501165986061096,3.719014406204224,9.855411384365135,9.848379370459378,39.3929787026107,35.88801628658801,0.0005827903514727,0.0900387018918991,0,0,0
3305,115973.3209649092,2010-10-23 21:36:31,180.09123988247634,2,11,0.550297200679779,3.738278865814209,9.859998066784083,9.848379370459378,39.41008194542548,35.88801628658801,0.0004856586456298,0.0900387018918991,0,0,0
3306,116003.33602771613,2010-10-23 21:37:01,210.10630270944503,2,11,0.5501165986061096,3.753819704055786,9.864584722563707,9.848379370459378,39.42726492368198,35.88801628658801,0.0003884792386088,0.0900387018918991,0,0,0
3307,116033.35123604572,2010-10-23 21:37:31,240.1215110139887,2,11,0.550297200679779,3.764180421829224,9.86917138401044,9.848379370459378,39.44450769935953,35.88801628658801,0.0002266406954731,0.0900387018918991,0,0,0
3308,116063.36642559351,2010-10-23 21:38:01,270.1367005918597,2,11,0.5501165986061096,3.770332098007202,9.873758091644824,9.848379370459378,39.46178768894679,35.88801628658801,0.0001618862152099,0.0900387018918991,0,0,0
3309,116093.38161584306,2010-10-23 21:38:31,300.1518908363922,2,11,0.5499359965324402,3.774379253387451,9.878344778616492,9.848379370459378,39.47909041573405,35.88801628658801,0.0001295089750783,0.0900387018918991,0,0,0
3310,116123.39694810154,2010-10-23 21:39:01,330.1672230798297,2,11,0.5499359965324402,3.77810263633728,9.88293145755688,9.848379370459378,39.4964111580176,35.88801628658801,9.713172767078504e-05,0.0900387018918991,0,0,0
3311,116153.41201365532,2010-10-23 21:39:31,360.18228862356955,2,11,0.5499359965324402,3.7816641330718994,9.887518129427258,9.848379370459378,39.51374855851742,35.88801628658801,6.47544875391759e-05,0.0900387018918991,0,0,0
3312,116183.42731780872,2010-10-23 21:40:01,390.1975927769981,2,11,0.5499359965324402,3.785225629806519,9.892104825444592,9.848379370459378,39.53110231960208,35.88801628658801,9.713172767078504e-05,0.0900387018918991,0,0,0
3313,116213.442386375,2010-10-23 21:40:31,420.2126613432709,2,11,0.5499359965324402,3.788625240325928,9.896691471450476,9.848379370459378,39.54847181187915,35.88801628658801,6.47544875391759e-05,0.0900387018918991,0,0,0
3314,116243.457715631,2010-10-23 21:41:01,450.22799060928776,2,11,0.5499359965324402,3.792024850845337,9.901278167379482,9.848379370459378,39.56585716170458,35.88801628658801,6.47544875391759e-05,0.0900387018918991,0,0,0
3315,116273.47281711432,2010-10-23 21:41:31,480.2430921076375,2,11,0.5501165986061096,3.795424461364746,9.905864825292545,9.848379370459378,39.583257628311046,35.88801628658801,0.0001295089750783,0.0900387018918991,0,0,0
3316,116303.4880934484,2010-10-23 21:42:01,510.25836842669423,2,11,0.5499359965324402,3.798338413238525,9.910451485384732,9.848379370459378,39.60067310933202,35.88801628658801,3.237724376958795e-05,0.0900387018918991,0,0,0
3317,116333.50316927276,2010-10-23 21:42:31,540.2734442410315,2,11,0.5501165986061096,3.801738023757935,9.915038141731513,9.848379370459378,39.61810324884435,35.88801628658801,6.47544875391759e-05,0.0900387018918991,0,0,0
3318,116363.51848284468,2010-10-23 21:43:01,570.2887578229587,2,11,0.5501165986061096,3.804813861846924,9.919624829442451,9.848379370459378,39.6355479045235,35.88801628658801,9.713172767078504e-05,0.0900387018918991,0,0,0
3319,116393.53357539572,2010-10-23 21:43:31,600.303850394059,2,11,0.5501165986061096,3.808051586151123,9.924211502666973,9.848379370459378,39.653006837139166,35.88801628658801,6.47544875391759e-05,0.0900387018918991,0,0,0
3320,116423.54875284838,2010-10-23 21:44:01,630.3190278667603,2,11,0.5501165986061096,3.8109655380249023,9.928798203834075,9.848379370459378,39.67048007118193,35.88801628658801,6.47544875391759e-05,0.0900387018918991,0,0,0
3321,116453.56406803428,2010-10-23 21:44:31,660.3343430326352,2,11,0.5501165986061096,3.8142032623291016,9.933384860838103,9.848379370459378,39.68796740721324,35.88801628658801,9.713172767078504e-05,0.0900387018918991,0,0,0
3322,116483.57913711685,2010-10-23 21:45:01,690.3494121402573,2,11,0.5499359965324402,3.817279100418091,9.93797146839446,9.848379370459378,39.70546893197723,35.88801628658801,6.47544875391759e-05,0.0900387018918991,0,0,0
3323,116513.59433665956,2010-10-23 21:45:31,720.3646116528887,2,11,0.5501165986061096,3.82051682472229,9.94255816254751,9.848379370459378,39.72298519690947,35.88801628658801,9.713172767078504e-05,0.0900387018918991,0,0,0
3324,116543.60953669348,2010-10-23 21:46:01,750.3798116868194,2,11,0.5501165986061096,3.823916435241699,9.947144714050696,9.848379370459378,39.740515616286686,35.88801628658801,0.0001295089750783,0.0900387018918991,0,0,0
3325,116573.6247161361,2010-10-23 21:46:31,780.3949911043678,2,11,0.5499359965324402,3.8271541595458975,9.95173132333166,9.848379370459378,39.7580613734236,35.88801628658801,6.47544875391759e-05,0.0900387018918991,0,0,0
3326,116603.63991104226,2010-10-23 21:47:01,810.4101860405934,2,11,0.5499359965324402,3.8303918838500977,9.956317951427035,9.848379370459378,39.77562262278031,35.88801628658801,6.47544875391759e-05,0.0900387018918991,0,0,0
3327,116633.6553278264,2010-10-23 21:47:31,840.4256028147073,2,11,0.5501165986061096,3.8339531421661377,9.960904605224252,9.848379370459378,39.793199627732925,35.88801628658801,9.713172767078504e-05,0.0900387018918991,0,0,0
3328,116663.65594204295,2010-10-23 21:48:01,870.4262170413183,2,11,0.5501165986061096,3.837352752685547,9.965488918175836,9.848379370459378,39.81078343859382,35.88801628658801,9.713172767078504e-05,0.0900387018918991,0,0,0
3329,116693.66989500885,2010-10-23 21:48:31,900.4401700071717,2,11,0.550297200679779,3.840914249420166,9.97007536670666,9.848379370459378,39.82839122032736,35.88801628658801,9.713172767078504e-05,0.0900387018918991,0,0,0
3330,116723.6877405612,2010-10-23 21:49:01,930.4580156547858,2,11,0.550297200679779,3.844151973724365,9.974662461264003,9.848379370459378,39.84601714473324,35.88801628658801,6.47544875391759e-05,0.0900387018918991,0,0,0
3331,116753.70064795618,2010-10-23 21:49:31,960.47092295953,2,11,0.5501165986061096,3.847389698028565,9.979248708846358,9.848379370459378,39.86365522329413,35.88801628658801,9.713172767078504e-05,0.0900387018918991,0,0,0
3332,116783.71549336628,2010-10-23 21:50:01,990.4857683345416,2,11,0.5499359965324402,3.850627422332764,9.983835283518696,9.848379370459378,39.881309712158,35.88801628658801,3.237724376958795e-05,0.0900387018918991,0,0,0
3333,116813.73065369124,2010-10-23 21:50:31,1020.5009286595052,2,11,0.5501165986061096,3.853865146636963,9.98842198977219,9.848379370459378,39.89897952317646,35.88801628658801,6.47544875391759e-05,0.0900387018918991,0,0,0
3334,116843.74585370511,2010-10-23 21:51:01,1050.516128673386,2,11,0.5501165986061096,3.857264757156372,9.993008655505085,9.848379370459378,39.91666375304603,35.88801628658801,9.713172767078504e-05,0.0900387018918991,0,0,0
3335,116873.7610290024,2010-10-23 21:51:31,1080.5313039957275,2,11,0.5501165986061096,3.860178709030152,9.997595368774704,9.848379370459378,39.93436235717193,35.88801628658801,6.47544875391759e-05,0.0900387018918991,0,0,0
3336,116903.7764444482,2010-10-23 21:52:01,1110.5467194415312,2,11,0.550297200679779,3.8632545471191406,10.002182043247108,9.848379370459378,39.952074623360645,35.88801628658801,9.713172767078504e-05,0.0900387018918991,0,0,0
3337,116933.79156521958,2010-10-23 21:52:31,1140.5618401978777,2,11,0.5499359965324402,3.86600661277771,10.006768671095545,9.848379370459378,39.96980000925214,35.88801628658801,9.713172767078504e-05,0.0900387018918991,0,0,0
3338,116963.80661340506,2010-10-23 21:53:01,1170.5768883733306,2,11,0.5501165986061096,3.8687586784362793,10.01135533921688,9.848379370459378,39.98753842161892,35.88801628658801,6.47544875391759e-05,0.0900387018918991,0,0,0
3339,116993.82193984404,2010-10-23 21:53:31,1200.5922148223262,2,11,0.5501165986061096,3.871348857879639,10.015942044319363,9.848379370459378,40.00528916437023,35.88801628658801,6.47544875391759e-05,0.0900387018918991,0,0,0
3340,117023.83701831498,2010-10-23 21:54:01,1230.6072932832597,2,11,0.5501165986061096,3.873777151107788,10.020528680513925,9.848379370459378,40.02305129248364,35.88801628658801,6.47544875391759e-05,0.0900387018918991,0,0,0
3341,117053.85218396324,2010-10-23 21:54:31,1260.6224589314909,2,11,0.5501165986061096,3.8762054443359375,10.025115360757606,9.848379370459378,40.0408245107518,35.88801628658801,9.713172767078504e-05,0.0900387018918991,0,0,0
3342,117083.86736340584,2010-10-23 21:55:01,1290.6376383741017,2,11,0.550297200679779,3.878309965133667,10.029701931705636,9.848379370459378,40.05860770898882,35.88801628658801,6.47544875391759e-05,0.0900387018918991,0,0,0
3343,117113.88262121376,2010-10-23 21:55:31,1320.6528961820227,2,11,0.550297200679779,3.880414485931397,10.034288690021718,9.848379370459378,40.07640141953076,35.88801628658801,3.237724376958795e-05,0.0900387018918991,0,0,0
3344,117143.89780977408,2010-10-23 21:56:01,1350.6680847674204,2,11,0.550297200679779,3.882519006729126,10.03887532935618,9.848379370459378,40.094203798603154,35.88801628658801,9.713172767078504e-05,0.0900387018918991,0,0,0
3345,117173.9129923445,2010-10-23 21:56:31,1380.6832673127642,2,11,0.5501165986061096,3.8841378688812256,10.043461978282435,9.848379370459378,40.11201476297899,35.88801628658801,6.47544875391759e-05,0.0900387018918991,0,0,0
3346,117203.92830123976,2010-10-23 21:57:01,1410.6985762130232,2,11,0.5501165986061096,3.8855948448181152,10.048048721675691,9.848379370459378,40.12983394538091,35.88801628658801,0.0,0.0900387018918991,0,0,0
3347,117233.94337763551,2010-10-23 21:57:31,1440.7136526037973,2,11,0.550297200679779,3.887375593185425,10.052635352494212,9.848379370459378,40.147660153596014,35.88801628658801,3.237724376958795e-05,0.0900387018918991,0,0,0
3348,117263.95858397518,2010-10-23 21:58:01,1470.728858978531,2,11,0.550297200679779,3.888994455337525,10.05722209044512,9.848379370459378,40.165493783158894,35.88801628658801,6.47544875391759e-05,0.0900387018918991,0,0,0
3349,117293.97389237418,2010-10-23 21:58:31,1500.7441673524786,2,11,0.5501165986061096,3.890289545059204,10.061808880258296,9.848379370459378,40.18333426339005,35.88801628658801,3.237724376958795e-05,0.0900387018918991,0,0,0
3350,117323.98897531128,2010-10-23 21:59:01,1530.7592502795428,2,11,0.550297200679779,3.8917465209960938,10.066395521435608,9.848379370459378,40.20118053363073,35.88801628658801,6.47544875391759e-05,0.0900387018918991,0,0,0
3351,117354.00418647294,2010-10-23 21:59:31,1560.7744614712822,2,11,0.550297200679779,3.893041610717773,10.070982255957688,9.848379370459378,40.21903339836394,35.88801628658801,6.47544875391759e-05,0.0900387018918991,0,0,0
3352,117384.01936773508,2010-10-23 22:00:01,1590.789642703353,2,11,0.5501165986061096,3.894174814224243,10.075568949191664,9.848379370459378,40.23689219803301,35.88801628658801,3.237724376958795e-05,0.0900387018918991,0,0,0
3353,117414.03454115268,2010-10-23 22:00:31,1620.8048161209474,2,11,0.550297200679779,3.895469903945923,10.080155638868558,9.848379370459378,40.254756583945,35.88801628658801,3.237724376958795e-05,0.0900387018918991,0,0,0
3354,117444.04988274944,2010-10-23 22:01:01,1650.8201577477714,2,11,0.5501165986061096,3.8966031074523926,10.08474225958278,9.848379370459378,40.2726266146496,35.88801628658801,0.0,0.0900387018918991,0,0,0
3355,117474.06505741012,2010-10-23 22:01:31,1680.8353323834017,2,11,0.5499359965324402,3.898060083389282,10.089328882955009,9.848379370459378,40.290502535599366,35.88801628658801,6.47544875391759e-05,0.0900387018918991,0,0,0
3356,117504.08013398136,2010-10-23 22:02:01,1710.850408949613,2,11,0.5501165986061096,3.899355173110962,10.093915426189891,9.848379370459378,40.30838405090567,35.88801628658801,3.237724376958795e-05,0.0900387018918991,0,0,0
3357,117534.09546484634,2010-10-23 22:02:31,1740.8657398246398,2,11,0.550297200679779,3.900812149047852,10.098502076600376,9.848379370459378,40.32627182783427,35.88801628658801,6.47544875391759e-05,0.0900387018918991,0,0,0
3358,117564.11051333258,2010-10-23 22:03:01,1770.880788300842,2,11,0.5501165986061096,3.901945352554321,10.103088621668885,9.848379370459378,40.344165076883286,35.88801628658801,6.47544875391759e-05,0.0900387018918991,0,0,0
3359,117594.12570843924,2010-10-23 22:03:32,1800.8959834325549,2,11,0.5501165986061096,3.903078556060791,10.107675254845145,9.848379370459378,40.36206455620865,35.88801628658801,0.0,0.0900387018918991,0,0,0
3360,117624.140925255,2010-10-23 22:04:02,1830.9112002483112,2,11,0.5501165986061096,3.9045355319976807,10.112261912115905,9.848379370459378,40.37997011180457,35.88801628658801,3.237724376958795e-05,0.0900387018918991,0,0,0
3361,117654.15610419634,2010-10-23 22:04:32,1860.9263791646104,2,11,0.5501165986061096,3.9056687355041504,10.116848601389304,9.848379370459378,40.39788160891767,35.88801628658801,3.237724376958795e-05,0.0900387018918991,0,0,0
3362,117684.1712929672,2010-10-23 22:05:02,1890.94156793547,2,11,0.5501165986061096,3.90712571144104,10.121435241778173,9.848379370459378,40.415798967348,35.88801628658801,3.237724376958795e-05,0.0900387018918991,0,0,0
3363,117714.18648690092,2010-10-23 22:05:32,1920.95676189426,2,11,0.5501165986061096,3.9082589149475098,10.126021843872126,9.848379370459378,40.43372215217936,35.88801628658801,-3.237724376958795e-05,0.0900387018918991,0,0,0
3364,117744.2017365836,2010-10-23 22:06:02,1950.972011551868,2,11,0.5501165986061096,3.90987777709961,10.13060850110376,9.848379370459378,40.451651661153626,35.88801628658801,6.47544875391759e-05,0.0900387018918991,0,0,0
3365,117774.21688854771,2010-10-23 22:06:32,1980.987163541056,2,11,0.5501165986061096,3.911010980606079,10.135195169482278,9.848379370459378,40.46958730271137,35.88801628658801,9.713172767078504e-05,0.0900387018918991,0,0,0
3366,117804.23210995996,2010-10-23 22:07:02,2011.002384928206,2,11,0.5501165986061096,3.912306070327759,10.139781871834003,9.848379370459378,40.48752925588887,35.88801628658801,0.0,0.0900387018918991,0,0,0
3367,117834.24728548278,2010-10-23 22:07:32,2041.0175604510475,2,11,0.5501165986061096,3.913762807846069,10.144368559505205,9.848379370459378,40.505477328670224,35.88801628658801,6.470680091297254e-05,0.0900387018918991,0,0,0
3368,117864.26249368204,2010-10-23 22:08:02,2071.0327686503283,2,11,0.5501165986061096,3.915219783782959,10.148955214500388,9.848379370459378,40.523431571247016,35.88801628658801,6.47544875391759e-05,0.0900387018918991,0,0,0
3369,117894.277663626,2010-10-23 22:08:32,2101.0479386193283,2,11,0.5499359965324402,3.9163529872894287,10.153541902795997,9.848379370459378,40.5413920712416,35.88801628658801,0.0,0.0900387018918991,0,0,0
3370,117924.29297544857,2010-10-23 22:09:02,2131.063250446883,2,11,0.5501165986061096,3.917971849441528,10.15812854919243,9.848379370459378,40.55935883408755,35.88801628658801,3.237724376958795e-05,0.0900387018918991,0,0,0
3371,117954.3081858032,2010-10-23 22:09:32,2161.078460776474,2,11,0.5501165986061096,3.919105052947998,10.16271518250724,9.848379370459378,40.577331894031545,35.88801628658801,3.237724376958795e-05,0.0900387018918991,0,0,0
3372,117984.32331776748,2010-10-23 22:10:02,2191.093592861054,2,11,0.5501165986061096,3.9207239151000977,10.167301797153348,9.848379370459378,40.59531136450893,35.88801628658801,6.47544875391759e-05,0.0900387018918991,0,0,0
3373,118014.33843384717,2010-10-23 22:10:32,2221.1087088555323,2,11,0.5501165986061096,3.922019004821777,10.171888360670785,9.848379370459378,40.61329703927163,35.88801628658801,0.0,0.0900387018918991,0,0,0
3374,118044.35362335488,2010-10-23 22:11:02,2251.123898348191,2,11,0.5499359965324402,3.923314094543457,10.17647496209573,9.848379370459378,40.63128943577845,35.88801628658801,0.0,0.0900387018918991,0,0,0
3375,118074.36882358429,2010-10-23 22:11:32,2281.1390985525463,2,11,0.550297200679779,3.925094842910767,10.181061664872493,9.848379370459378,40.64928882310204,35.88801628658801,6.47544875391759e-05,0.0900387018918991,0,0,0
3376,118104.38403026476,2010-10-23 22:12:02,2311.154305233042,2,11,0.5501165986061096,3.9263899326324463,10.185648334688487,9.848379370459378,40.66729463672826,35.88801628658801,3.237724376958795e-05,0.0900387018918991,0,0,0
3377,118134.3992109204,2010-10-23 22:12:32,2341.169485918751,2,11,0.5501165986061096,3.927846908569336,10.19023499011775,9.848379370459378,40.68530709998567,35.88801628658801,3.237724376958795e-05,0.0900387018918991,0,0,0
3378,118164.41450099376,2010-10-23 22:13:02,2371.184775987076,2,11,0.5501165986061096,3.9293038845062256,10.19482172748844,9.848379370459378,40.70332660951962,35.88801628658801,-3.237724376958795e-05,0.0900387018918991,0,0,0
3379,118194.42959954977,2010-10-23 22:13:32,2401.199874518029,2,11,0.5501165986061096,3.930922746658325,10.199408339818689,9.848379370459378,40.72135245977056,35.88801628658801,6.47544875391759e-05,0.0900387018918991,0,0,0
3380,118224.44480441073,2010-10-23 22:14:02,2431.215079404053,2,11,0.5499359965324402,3.932217836380005,10.203995021932691,9.848379370459378,40.73938532849549,35.88801628658801,0.0,0.0900387018918991,0,0,0
3381,118254.45998491097,2010-10-23 22:14:32,2461.2302598892625,2,11,0.5499359965324402,3.9336748123168954,10.208581667104395,9.848379370459378,40.75742497128847,35.88801628658801,0.0,0.0900387018918991,0,0,0
3382,118284.47517597252,2010-10-23 22:15:02,2491.245450940806,2,11,0.5501165986061096,3.935293674468994,10.213168334329437,9.848379370459378,40.77547164089236,35.88801628658801,3.237724376958795e-05,0.0900387018918991,0,0,0
3383,118314.49037378594,2010-10-23 22:15:32,2521.260648754203,2,11,0.5501165986061096,3.936588764190674,10.217755017800563,9.848379370459378,40.79352525876889,35.88801628658801,0.0,0.0900387018918991,0,0,0
3384,118344.50560057156,2010-10-23 22:16:02,2551.275875569882,2,11,0.5501165986061096,3.938531398773194,10.222341703826327,9.848379370459378,40.81158604924773,35.88801628658801,6.47544875391759e-05,0.0900387018918991,0,0,0
3385,118374.520783157,2010-10-23 22:16:32,2581.2910581553256,2,11,0.550297200679779,3.939988374710083,10.226928405782992,9.848379370459378,40.82965397796252,35.88801628658801,6.47544875391759e-05,0.0900387018918991,0,0,0
3386,118404.5360898317,2010-10-23 22:17:02,2611.306364789938,2,11,0.5501165986061096,3.941607236862183,10.231515038547194,9.848379370459378,40.84772883474445,35.88801628658801,6.47544875391759e-05,0.0900387018918991,0,0,0
3387,118434.55116423752,2010-10-23 22:17:32,2641.3214392358645,2,11,0.5499359965324402,3.943064212799072,10.236101731276944,9.848379370459378,40.86581110525336,35.88801628658801,3.237724376958795e-05,0.0900387018918991,0,0,0
3388,118464.56635440688,2010-10-23 22:18:02,2671.336629375135,2,11,0.5501165986061096,3.944844961166382,10.240688341947752,9.848379370459378,40.883900307391166,35.88801628658801,6.47544875391759e-05,0.0900387018918991,0,0,0
3389,118494.58165698136,2010-10-23 22:18:32,2701.3519319496286,2,11,0.5497553944587708,3.9461400508880615,10.245274969827548,9.848379370459378,40.90199696383561,35.88801628658801,0.0,0.0900387018918991,0,0,0
3390,118524.59672526192,2010-10-23 22:19:02,2731.3670002301888,2,11,0.5501165986061096,3.947920799255371,10.249861634117632,9.848379370459378,40.92010102149451,35.88801628658801,3.237724376958795e-05,0.0900387018918991,0,0,0
3391,118554.61194258896,2010-10-23 22:19:32,2761.3822175572195,2,11,0.5501165986061096,3.949539661407471,10.254448266347698,9.848379370459378,40.938212449267326,35.88801628658801,3.237724376958795e-05,0.0900387018918991,0,0,0
3392,118584.62717137454,2010-10-23 22:20:02,2791.3974463678705,2,11,0.5501165986061096,3.9511585235595694,10.259034948033383,9.848379370459378,40.95633166282516,35.88801628658801,3.237724376958795e-05,0.0900387018918991,0,0,0
3393,118614.64232168454,2010-10-23 22:20:32,2821.4125966528118,2,11,0.5499359965324402,3.95277738571167,10.263621647651172,9.848379370459378,40.97445852242358,35.88801628658801,3.237724376958795e-05,0.0900387018918991,0,0,0
3394,118644.66014153283,2010-10-23 22:21:02,2851.430416626438,2,11,0.5501165986061096,3.95455813407898,10.268208733213806,9.848379370459378,40.99259453941686,35.88801628658801,3.237724376958795e-05,0.0900387018918991,0,0,0
3395,118674.6731074136,2010-10-23 22:21:32,2881.443382411934,2,11,0.5501165986061096,3.956176996231079,10.272795067213952,9.848379370459378,41.01073530840986,35.88801628658801,3.237724376958795e-05,0.0900387018918991,0,0,0
3396,118704.68791864852,2010-10-23 22:22:02,2911.458193616784,2,11,0.5499359965324402,3.9577958583831783,10.277381727589056,9.848379370459378,41.02888506884054,35.88801628658801,0.0,0.0900387018918991,0,0,0
3397,118734.70311560476,2010-10-23 22:22:32,2941.473390573043,2,11,0.5499359965324402,3.959576606750488,10.281968443786049,9.848379370459378,41.04704284465247,35.88801628658801,6.47544875391759e-05,0.0900387018918991,0,0,0
3398,118764.7182883908,2010-10-23 22:23:02,2971.488563359064,2,11,0.550297200679779,3.961195468902588,10.286555081780287,9.848379370459378,41.06520820557972,35.88801628658801,0.0,0.0900387018918991,0,0,0
3399,118794.73364104512,2010-10-23 22:23:32,3001.503916023397,2,11,0.550297200679779,3.9631381034851074,10.29114174852312,9.848379370459378,41.08338161889605,35.88801628658801,6.47544875391759e-05,0.0900387018918991,0,0,0
3400,118824.74904281182,2010-10-23 22:24:02,3031.51931787532,2,11,0.5501165986061096,3.964918851852417,10.295728420795454,9.848379370459378,41.10156306421327,35.88801628658801,6.47544875391759e-05,0.0900387018918991,0,0,0
3401,118854.76386731482,2010-10-23 22:24:32,3061.5341422830747,2,11,0.5501165986061096,3.9665377140045166,10.300315065210674,9.848379370459378,41.119752444592,35.88801628658801,6.47544875391759e-05,0.0900387018918991,0,0,0
3402,118884.77906294276,2010-10-23 22:25:02,3091.549337931074,2,11,0.550297200679779,3.968480348587036,10.304901810112002,9.848379370459378,41.1379503081771,35.88801628658801,3.237724376958795e-05,0.0900387018918991,0,0,0
3403,118914.79437752716,2010-10-23 22:25:32,3121.5646525004627,2,11,0.5501165986061096,3.970099210739136,10.30948851924858,9.848379370459378,41.15615621386089,35.88801628658801,3.237724376958795e-05,0.0900387018918991,0,0,0
3404,118944.80946726624,2010-10-23 22:26:02,3151.579742224467,2,11,0.5501165986061096,3.971879959106445,10.314075192668952,9.848379370459378,41.17437027382786,35.88801628658801,0.0,0.0900387018918991,0,0,0
3405,118974.82464300962,2010-10-23 22:26:32,3181.5949179929207,2,11,0.5499359965324402,3.973822593688965,10.31866178240108,9.848379370459378,41.19259234128359,35.88801628658801,3.237724376958795e-05,0.0900387018918991,0,0,0
3406,119004.83985736423,2010-10-23 22:27:02,3211.6101323274934,2,11,0.5501165986061096,3.9756033420562735,10.323248428949166,9.848379370459378,41.2108231393665,35.88801628658801,0.0,0.0900387018918991,0,0,0
3407,119034.85503705748,2010-10-23 22:27:32,3241.6253120207284,2,11,0.5501165986061096,3.977545976638794,10.32783507106598,9.848379370459378,41.22906244837972,35.88801628658801,3.237724376958795e-05,0.0900387018918991,0,0,0
3408,119064.87024039464,2010-10-23 22:28:02,3271.640515377942,2,11,0.5501165986061096,3.9794886112213135,10.332421697859743,9.848379370459378,41.24730986349193,35.88801628658801,3.237724376958795e-05,0.0900387018918991,0,0,0
3409,119094.88542135102,2010-10-23 22:28:32,3301.655696309263,2,11,0.550297200679779,3.981269359588623,10.337008268053468,9.848379370459378,41.265566178936105,35.88801628658801,3.237724376958795e-05,0.0900387018918991,0,0,0
3410,119124.90073948428,2010-10-23 22:29:02,3331.6710144425338,2,11,0.550297200679779,3.983373880386353,10.341594904686966,9.848379370459378,41.28383150186272,35.88801628658801,9.713172767078504e-05,0.0900387018918991,0,0,0
3411,119154.91581895274,2010-10-23 22:29:32,3361.6860939961903,2,11,0.5501165986061096,3.985154628753662,10.34618146037536,9.848379370459378,41.30210533571856,35.88801628658801,3.237724376958795e-05,0.0900387018918991,0,0,0
3412,119184.9310345705,2010-10-23 22:30:02,3391.701309583886,2,11,0.5501165986061096,3.987259149551392,10.350768008680998,9.848379370459378,41.3203880744082,35.88801628658801,9.713172767078504e-05,0.0900387018918991,0,0,0
3413,119214.94635959595,2010-10-23 22:30:32,3421.7166345541964,2,11,0.5501165986061096,3.989039897918701,10.355354638782543,9.848379370459378,41.33868013433117,35.88801628658801,0.0,0.0900387018918991,0,0,0
3414,119244.96140959596,2010-10-23 22:31:02,3451.731684559209,2,11,0.5499359965324402,3.9909825325012207,10.359941184325187,9.848379370459378,41.35698095618032,35.88801628658801,0.0,0.0900387018918991,0,0,0
3415,119274.97660997072,2010-10-23 22:31:32,3481.746885154538,2,11,0.5499359965324402,3.99324893951416,10.364527743045134,9.848379370459378,41.375291087002005,35.88801628658801,6.47544875391759e-05,0.0900387018918991,0,0,0
3416,119304.99181966372,2010-10-23 22:32:02,3511.762094626993,2,11,0.550297200679779,3.995353221893311,10.369114344413465,9.848379370459378,41.393610679045565,35.88801628658801,9.713172767078504e-05,0.0900387018918991,0,0,0
3417,119335.00699730184,2010-10-23 22:32:32,3541.777272285157,2,11,0.5501165986061096,3.99745774269104,10.373700965925284,9.848379370459378,41.411939874284585,35.88801628658801,9.713172767078504e-05,0.0900387018918991,0,0,0
3418,119365.0223148587,2010-10-23 22:33:02,3571.792589967303,2,11,0.5501165986061096,3.9992384910583496,10.378287531162783,9.848379370459378,41.43027834178687,35.88801628658801,3.237724376958795e-05,0.0900387018918991,0,0,0
3419,119395.0373812696,2010-10-23 22:33:32,3601.807656343117,2,11,0.5501165986061096,4.001504898071289,10.38287411803687,9.848379370459378,41.44862661774798,35.88801628658801,6.47544875391759e-05,0.0900387018918991,0,0,0
3420,119425.05261360404,2010-10-23 22:34:02,3631.822888612387,2,11,0.5501165986061096,4.003609657287598,10.3874607699226,9.848379370459378,41.46698500188782,35.88801628658801,3.24249267578125e-05,0.0900387018918991,0,0,0
3421,119455.06776497667,2010-10-23 22:34:32,3661.838039939927,2,11,0.550297200679779,4.005876064300537,10.39204744018593,9.848379370459378,41.48535328562368,35.88801628658801,6.47544875391759e-05,0.0900387018918991,0,0,0
3422,119485.0829512112,2010-10-23 22:35:02,3691.853226194515,2,11,0.5501165986061096,4.007818698883057,10.3966340598473,9.848379370459378,41.50373135315077,35.88801628658801,3.24249267578125e-05,0.0900387018918991,0,0,0
3423,119515.09814752587,2010-10-23 22:35:33,3721.8684224841145,2,11,0.5499359965324402,4.010246753692627,10.401220721306425,9.848379370459378,41.52211960363359,35.88801628658801,6.47544875391759e-05,0.0900387018918991,0,0,0
3424,119545.11336026648,2010-10-23 22:36:03,3751.883635224714,2,11,0.5501165986061096,4.012351512908936,10.405807399871945,9.848379370459378,41.54051812429403,35.88801628658801,6.47544875391759e-05,0.0900387018918991,0,0,0
3425,119575.12853611012,2010-10-23 22:36:33,3781.8988110683554,2,11,0.5501165986061096,4.014617919921875,10.41039395991272,9.848379370459378,41.55892648294663,35.88801628658801,3.24249267578125e-05,0.0900387018918991,0,0,0
3426,119605.14404079832,2010-10-23 22:37:03,3811.914315901941,2,11,0.5501165986061096,4.017045974731445,10.414980673047374,9.848379370459378,41.57734582807421,35.88801628658801,6.47544875391759e-05,0.0900387018918991,0,0,0
3427,119635.15907470322,2010-10-23 22:37:33,3841.929349671489,2,11,0.5501165986061096,4.019150733947754,10.419567248649251,9.848379370459378,41.59577517964276,35.88801628658801,0.0,0.0900387018918991,0,0,0
3428,119665.17414429708,2010-10-23 22:38:03,3871.9444192603114,2,11,0.550297200679779,4.021578788757324,10.424153834622247,9.848379370459378,41.614215027021984,35.88801628658801,6.47544875391759e-05,0.0900387018918991,0,0,0
3429,119695.18933805032,2010-10-23 22:38:33,3901.9596130386494,2,11,0.5501165986061096,4.023845195770264,10.428740387775298,9.848379370459378,41.632665450146646,35.88801628658801,6.47544875391759e-05,0.0900387018918991,0,0,0
3430,119725.20452199416,2010-10-23 22:39:03,3931.974797062679,2,11,0.5501165986061096,4.026273727416992,10.433326959000553,9.848379370459378,41.65112670266321,35.88801628658801,3.24249267578125e-05,0.0900387018918991,0,0,0
3431,119755.21970953194,2010-10-23 22:39:33,3961.9899845152536,2,11,0.5501165986061096,4.0287017822265625,10.437913589118883,9.848379370459378,41.66959906465389,35.88801628658801,6.47544875391759e-05,0.0900387018918991,0,0,0
3432,119785.23512097276,2010-10-23 22:40:03,3992.0053960212376,2,11,0.5499359965324402,4.030968189239502,10.442500251897718,9.848379370459378,41.68808239392627,35.88801628658801,3.23295607813634e-05,0.0900387018918991,0,0,0
3433,119815.25007923917,2010-10-23 22:40:33,4022.020354202397,2,11,0.550297200679779,4.033396720886231,10.447086979757426,9.848379370459378,41.7065769786233,35.88801628658801,6.47544875391759e-05,0.0900387018918991,0,0,0
3434,119845.26537181872,2010-10-23 22:41:03,4052.0356468120553,2,11,0.550297200679779,4.035824775695801,10.451674478289195,9.848379370459378,41.72508573079494,35.88801628658801,3.24249267578125e-05,0.0900387018918991,0,0,0
3435,119875.28035850092,2010-10-23 22:41:33,4082.050633489235,2,11,0.5501165986061096,4.03841495513916,10.45626130601796,9.848379370459378,41.74360285816236,35.88801628658801,9.71794142969884e-05,0.0900387018918991,0,0,0
3436,119905.29571165146,2010-10-23 22:42:03,4112.065986614717,2,11,0.5501165986061096,4.0406813621521,10.460847931711658,9.848379370459378,41.76213042963501,35.88801628658801,3.24249267578125e-05,0.0900387018918991,0,0,0
3437,119935.3109418606,2010-10-23 22:42:33,4142.081216853929,2,11,0.5501165986061096,4.04310941696167,10.46543453136082,9.848379370459378,41.78066926544624,35.88801628658801,6.47544875391759e-05,0.0900387018918991,0,0,0
3438,119965.32611498244,2010-10-23 22:43:03,4172.096390060998,2,11,0.5501165986061096,4.045699596405029,10.47002110611745,9.848379370459378,41.79921949354929,35.88801628658801,3.23295607813634e-05,0.0900387018918991,0,0,0
3439,119995.34112164444,2010-10-23 22:43:33,4202.111396637774,2,11,0.550297200679779,4.048451900482178,10.474608045658943,9.848379370459378,41.81778284056955,35.88801628658801,9.71794142969884e-05,0.0900387018918991,0,0,0
3440,120025.35647589774,2010-10-23 22:44:03,4232.126750886055,2,11,0.550297200679779,4.050879955291748,10.479194782019414,9.848379370459378,41.83635712114081,35.88801628658801,6.47544875391759e-05,0.0900387018918991,0,0,0
3441,120055.37168443284,2010-10-23 22:44:33,4262.141959391098,2,11,0.5501165986061096,4.0536322593688965,10.483781502820293,9.848379370459378,41.85494315883084,35.88801628658801,0.0001295089750783,0.0900387018918991,0,0,0
3442,120085.38686152962,2010-10-23 22:45:03,4292.157136487862,2,11,0.5501165986061096,4.056060314178467,10.488368230506632,9.848379370459378,41.87354117186994,35.88801628658801,9.70840483205393e-05,0.0900387018918991,0,0,0
3443,120115.40211886638,2010-10-23 22:45:33,4322.172393824609,2,11,0.5501165986061096,4.058650493621826,10.492954958957805,9.848379370459378,41.89215131956325,35.88801628658801,6.47544875391759e-05,0.0900387018918991,0,0,0
3444,120145.41725933684,2010-10-23 22:46:03,4352.187534325164,2,11,0.550297200679779,4.061402797698975,10.497541648789609,9.848379370459378,41.91077333120434,35.88801628658801,9.71794142969884e-05,0.0900387018918991,0,0,0
3445,120175.43254105435,2010-10-23 22:46:33,4382.202816047688,2,11,0.550297200679779,4.064154624938965,10.50212832308419,9.848379370459378,41.92940738779124,35.88801628658801,0.0001295089750783,0.0900387018918991,0,0,0
3446,120205.44763766052,2010-10-23 22:47:03,4412.2179126187575,2,11,0.5501165986061096,4.066583156585693,10.506714957014315,9.848379370459378,41.94805368485617,35.88801628658801,0.0,0.0900387018918991,0,0,0
3447,120235.4628718596,2010-10-23 22:47:33,4442.2331468529255,2,11,0.5501165986061096,4.069497108459473,10.51130160689904,9.848379370459378,41.96671251441887,35.88801628658801,6.47544875391759e-05,0.0900387018918991,0,0,0
3448,120265.47808019925,2010-10-23 22:48:03,4472.248355192557,2,11,0.5501165986061096,4.072087287902832,10.515888252863292,9.848379370459378,41.985383881109215,35.88801628658801,0.0,0.0900387018918991,0,0,0
3449,120295.49322815335,2010-10-23 22:48:33,4502.263503121627,2,11,0.5501165986061096,4.075001239776611,10.520474857419355,9.848379370459378,42.0040678030216,35.88801628658801,9.71794142969884e-05,0.0900387018918991,0,0,0
3450,120325.50855581036,2010-10-23 22:49:03,4532.27883081372,2,11,0.5499359965324402,4.077753067016602,10.52506151143318,9.848379370459378,42.02276477647733,35.88801628658801,6.47544875391759e-05,0.0900387018918991,0,0,0
3451,120355.5236231536,2010-10-23 22:49:33,4562.293898111832,2,11,0.5501165986061096,4.08050537109375,10.529648168156369,9.848379370459378,42.041474730630185,35.88801628658801,6.47544875391759e-05,0.0900387018918991,0,0,0
3452,120385.53882581908,2010-10-23 22:50:03,4592.309100787347,2,11,0.5501165986061096,4.083419322967529,10.534234760653137,9.848379370459378,42.06019740454971,35.88801628658801,9.71794142969884e-05,0.0900387018918991,0,0,0
3453,120415.5540165348,2010-10-23 22:50:33,4622.324291533128,2,11,0.5501165986061096,4.086333274841309,10.538821346307843,9.848379370459378,42.078933319284495,35.88801628658801,6.47544875391759e-05,0.0900387018918991,0,0,0
3454,120445.56921063393,2010-10-23 22:51:03,4652.339485592168,2,11,0.5501165986061096,4.089085102081299,10.54340801495142,9.848379370459378,42.09768287926048,35.88801628658801,3.23295607813634e-05,0.0900387018918991,0,0,0
3455,120475.58441787584,2010-10-23 22:51:33,4682.354692864139,2,11,0.5501165986061096,4.092161178588867,10.547994698862452,9.848379370459378,42.11644597406856,35.88801628658801,6.47544875391759e-05,0.0900387018918991,0,0,0
3456,120505.5997745301,2010-10-23 22:52:03,4712.37004954849,2,11,0.5501165986061096,4.095236778259277,10.552581350508662,9.848379370459378,42.13522246040672,35.88801628658801,9.70840483205393e-05,0.0900387018918991,0,0,0
3457,120535.6147932772,2010-10-23 22:52:33,4742.385068240461,2,11,0.5501165986061096,4.098150730133057,10.557167953527438,9.848379370459378,42.15401239587597,35.88801628658801,6.47544875391759e-05,0.0900387018918991,0,0,0
3458,120565.63091595063,2010-10-23 22:53:03,4772.401190933942,2,11,0.5501165986061096,4.101388454437256,10.561754774025417,9.848379370459378,42.172817066917226,35.88801628658801,0.0001295089750783,0.0900387018918991,0,0,0
3459,120595.6454395988,2010-10-23 22:53:33,4802.415714592137,2,11,0.5501165986061096,4.104302406311035,10.566341358121685,9.848379370459378,42.19163465309856,35.88801628658801,6.47544875391759e-05,0.0900387018918991,0,0,0
3460,120625.6603563868,2010-10-23 22:54:03,4832.43063143527,2,11,0.5501165986061096,4.107216358184815,10.570927908363826,9.848379370459378,42.2104661560847,35.88801628658801,6.47544875391759e-05,0.0900387018918991,0,0,0
3461,120655.67571456988,2010-10-23 22:54:33,4862.445989573244,2,11,0.5501165986061096,4.110454082489014,10.575514571377228,9.848379370459378,42.22931215410839,35.88801628658801,9.70840483205393e-05,0.0900387018918991,0,0,0
3462,120685.69077217384,2010-10-23 22:55:03,4892.461047162158,2,11,0.5499359965324402,4.113530158996582,10.580101199987864,9.848379370459378,42.24817223948816,35.88801628658801,9.71794142969884e-05,0.0900387018918991,0,0,0
3463,120715.70599125024,2010-10-23 22:55:33,4922.476266213486,2,11,0.5501165986061096,4.116767406463623,10.584687838061456,9.848379370459378,42.26704669391718,35.88801628658801,9.70840483205393e-05,0.0900387018918991,0,0,0
3464,120745.72141935256,2010-10-23 22:56:03,4952.491694320845,2,11,0.5501165986061096,4.119843482971191,10.589274504218956,9.848379370459378,42.2859357283267,35.88801628658801,9.71794142969884e-05,0.0900387018918991,0,0,0
3465,120775.7363936138,2010-10-23 22:56:33,4982.50666857707,2,11,0.5501165986061096,4.122919082641602,10.593861172223855,9.848379370459378,42.30483939664922,35.88801628658801,6.47544875391759e-05,0.0900387018918991,0,0,0
3466,120805.7516008908,2010-10-23 22:57:03,5012.521875854051,2,11,0.550297200679779,4.12631893157959,10.598447792995744,9.848379370459378,42.32375759871408,35.88801628658801,6.47544875391759e-05,0.0900387018918991,0,0,0
3467,120835.76677697003,2010-10-23 22:57:33,5042.537051978393,2,11,0.5501165986061096,4.129556655883789,10.603034420840345,9.848379370459378,42.34269078021,35.88801628658801,9.71794142969884e-05,0.0900387018918991,0,0,0
3468,120865.7819752596,2010-10-23 22:58:03,5072.552250222862,2,11,0.550297200679779,4.132794380187988,10.607621055593029,9.848379370459378,42.36163907216867,35.88801628658801,9.71794142969884e-05,0.0900387018918991,0,0,0
3469,120895.79717613064,2010-10-23 22:58:33,5102.567451088868,2,11,0.5501165986061096,4.136193752288818,10.61220777055376,9.848379370459378,42.38060262664241,35.88801628658801,9.70840483205393e-05,0.0900387018918991,0,0,0
3470,120925.81235272616,2010-10-23 22:59:03,5132.582627684383,2,11,0.5501165986061096,4.139431476593018,10.616794484953248,9.848379370459378,42.3995813523858,35.88801628658801,9.70840483205393e-05,0.0900387018918991,0,0,0
3471,120955.82754553707,2010-10-23 22:59:33,5162.597820500324,2,11,0.550297200679779,4.142831325531006,10.621381173116845,9.848379370459378,42.41857517599629,35.88801628658801,9.71794142969884e-05,0.0900387018918991,0,0,0
3472,120985.84275540552,2010-10-23 23:00:03,5192.613030363753,2,11,0.5501165986061096,4.146069049835205,10.625967818695395,9.848379370459378,42.43758423573843,35.88801628658801,9.71794142969884e-05,0.0900387018918991,0,0,0
3473,121015.8579365724,2010-10-23 23:00:33,5222.628211530661,2,11,0.5501165986061096,4.149630546569824,10.63055447457509,9.848379370459378,42.45660910078785,35.88801628658801,9.71794142969884e-05,0.0900387018918991,0,0,0
3474,121045.87325106665,2010-10-23 23:01:03,5252.643526029875,2,11,0.550297200679779,4.153029918670654,10.63514110023149,9.848379370459378,42.4756495333969,35.88801628658801,9.70840483205393e-05,0.0900387018918991,0,0,0
3475,121075.88832409402,2010-10-23 23:01:33,5282.658599057266,2,11,0.5499359965324402,4.156429767608643,10.639727669861172,9.848379370459378,42.49470545639512,35.88801628658801,6.47544875391759e-05,0.0900387018918991,0,0,0
3476,121105.90354423806,2010-10-23 23:02:03,5312.673819196304,2,11,0.5501165986061096,4.159991264343262,10.644314289276933,9.848379370459378,42.51377748487658,35.88801628658801,0.0001295089750783,0.0900387018918991,0,0,0
3477,121135.91871866818,2010-10-23 23:02:33,5342.688993631436,2,11,0.5499359965324402,4.163552761077881,10.648900948293193,9.848379370459378,42.53286568042161,35.88801628658801,9.71794142969884e-05,0.0900387018918991,0,0,0
3478,121165.93391458184,2010-10-23 23:03:03,5372.704189540084,2,11,0.550297200679779,4.166952133178711,10.65348761668062,9.848379370459378,42.551969942829245,35.88801628658801,9.70840483205393e-05,0.0900387018918991,0,0,0
3479,121195.94913144271,2010-10-23 23:03:33,5402.719406405966,2,11,0.5501165986061096,4.17051362991333,10.658074274660146,9.848379370459378,42.57109040193129,35.88801628658801,6.47544875391759e-05,0.0900387018918991,0,0,0
3480,121225.9643283288,2010-10-23 23:04:03,5432.734603312101,2,11,0.5499359965324402,4.173913478851318,10.662660935889866,9.848379370459378,42.59022727852211,35.88801628658801,3.24249267578125e-05,0.0900387018918991,0,0,0
3481,121255.97950124012,2010-10-23 23:04:33,5462.749776203384,2,11,0.5499359965324402,4.177636623382568,10.667247587253652,9.848379370459378,42.60938049528773,35.88801628658801,6.47544875391759e-05,0.0900387018918991,0,0,0
3482,121285.9948229072,2010-10-23 23:05:03,5492.765097875474,2,11,0.550297200679779,4.181198120117188,10.67183428262568,9.848379370459378,42.62855046371845,35.88801628658801,0.0001295089750783,0.0900387018918991,0,0,0
3483,121316.00990430548,2010-10-23 23:05:33,5522.780179268716,2,11,0.5501165986061096,4.184921741485596,10.676421017440097,9.848379370459378,42.64773733807044,35.88801628658801,9.71794142969884e-05,0.0900387018918991,0,0,0
3484,121346.02509790336,2010-10-23 23:06:03,5552.795372866606,2,11,0.5501165986061096,4.188644886016846,10.681007669735068,9.848379370459378,42.66694047558675,35.88801628658801,0.0001295089750783,0.0900387018918991,0,0,0
3485,121376.0404050342,2010-10-23 23:06:33,5582.81068000748,2,11,0.5499359965324402,4.192206382751465,10.685594357837225,9.848379370459378,42.68616064891816,35.88801628658801,6.47544875391759e-05,0.0900387018918991,0,0,0
3486,121406.05547731977,2010-10-23 23:07:03,5612.825752277985,2,11,0.5501165986061096,4.195929527282715,10.690180987003632,9.848379370459378,42.70539764130661,35.88801628658801,6.47544875391759e-05,0.0900387018918991,0,0,0
3487,121436.07066552418,2010-10-23 23:07:34,5642.840940487446,2,11,0.5499359965324402,4.199653148651123,10.694767603777404,9.848379370459378,42.72465168235386,35.88801628658801,9.71794142969884e-05,0.0900387018918991,0,0,0
3488,121437.58671520647,2010-10-23 23:07:35,5644.356990194793,2,11,0.550297200679779,4.200138568878174,10.694999269311804,9.848379370459378,42.725624642679485,35.88801628658801,0.0001618385285837,0.0900387018918991,0,0,0
3489,121467.60435021888,2010-10-23 23:08:05,30.015439601005586,3,11,0.0,4.116605758666992,10.694999269311804,9.848379370459378,42.725624642679485,35.88801628658801,-0.0003885269106831,0.0900387018918991,0,0,0
3490,121497.61930544768,2010-10-23 23:08:35,60.03039495010642,3,11,0.0,4.106407165527344,10.694999269311804,9.848379370459378,42.725624642679485,35.88801628658801,-0.0001942634553415,0.0900387018918991,0,0,0
3491,121527.63462731526,2010-10-23 23:09:05,90.04571671743422,3,11,0.0,4.100255489349365,10.694999269311804,9.848379370459378,42.725624642679485,35.88801628658801,-0.0001295089750783,0.0900387018918991,0,0,0
3492,121557.60282838331,2010-10-23 23:09:35,120.01391776543078,3,11,0.0,4.096370220184326,10.694999269311804,9.848379370459378,42.725624642679485,35.88801628658801,-9.70840483205393e-05,0.0900387018918991,0,0,0
3493,121557.60717217338,2010-10-23 23:09:35,2.736821e-06,4,11,0.990261435508728,4.199491024017334,10.694999270064628,9.848379370459378,42.725624645840966,35.88801628658801,0.0,0.0900387018918991,0,0,0
3494,121558.57579042812,2010-10-23 23:09:36,0.968620966485703,4,11,0.9398714303970336,4.199653148651123,10.695257562870133,9.848379370459378,42.72670939235547,35.88801628658801,3.24249267578125e-05,0.0900387018918991,0,0,0
3495,121560.71650274188,2010-10-23 23:09:38,3.109333295289799,4,11,0.8896620273590088,4.199653148651123,10.695800448615508,9.848379370459378,42.7289893419949,35.88801628658801,3.24249267578125e-05,0.0900387018918991,0,0,0
3496,121563.91948162076,2010-10-23 23:09:42,6.31231216416299,4,11,0.8396332859992981,4.199653148651123,10.696568614483168,9.848379370459378,42.73221539323178,35.88801628658801,-3.23295607813634e-05,0.0900387018918991,0,0,0
3497,121568.34128624343,2010-10-23 23:09:46,10.734116781825472,4,11,0.7896045446395874,4.199653148651123,10.697567835233968,9.848379370459378,42.7364118257691,35.88801628658801,0.0,0.0900387018918991,0,0,0
3498,121574.05994122624,2010-10-23 23:09:52,16.452771764628768,4,11,0.7395757436752319,4.199814796447754,10.69878084666783,9.848379370459378,42.74150611064777,35.88801628658801,0.0,0.0900387018918991,0,0,0
3499,121581.55982862331,2010-10-23 23:09:59,23.95265919676733,4,11,0.6895470023155212,4.199653148651123,10.700267456128593,9.848379370459378,42.747749427433405,35.88801628658801,0.0,0.0900387018918991,0,0,0
3500,121591.57532434534,2010-10-23 23:10:09,33.96815488872266,4,11,0.6393375992774963,4.199814796447754,10.702112580911312,9.848379370459378,42.75549842386303,35.88801628658801,3.23295607813634e-05,0.0900387018918991,0,0,0
3501,121605.49699031551,2010-10-23 23:10:23,47.8898208589099,4,11,0.5893087983131409,4.199653148651123,10.704483182932348,9.848379370459378,42.76545427560264,35.88801628658801,-3.23295607813634e-05,0.0900387018918991,0,0,0
3502,121626.77793367938,2010-10-23 23:10:44,69.17076422275517,4,11,0.5392800569534302,4.199653148651123,10.707808655583449,9.848379370459378,42.77942028953798,35.88801628658801,-3.23295607813634e-05,0.0900387018918991,0,0,0
3503,121663.08992343076,2010-10-23 23:11:21,105.48275397413556,4,11,0.4892512857913971,4.199653148651123,10.712972485017232,9.848379370459378,42.80110690150961,35.88801628658801,0.0,0.0900387018918991,0,0,0
3504,121727.37050486832,2010-10-23 23:12:25,169.7633354468059,4,11,0.4390419125556946,4.199491024017334,10.721227176966796,9.848379370459378,42.83577424032966,35.88801628658801,0.0,0.0900387018918991,0,0,0
3505,121824.88451633924,2010-10-23 23:14:03,267.2773469076776,4,11,0.388832539319992,4.199653148651123,10.732424791893822,9.848379370459378,42.88280104546903,35.88801628658801,-3.23295607813634e-05,0.0900387018918991,0,0,0
3506,121946.60160956698,2010-10-23 23:16:04,388.99444011536445,4,11,0.3386231362819671,4.199653148651123,10.744715455157811,9.848379370459378,42.934418307614216,35.88801628658801,0.0,0.0900387018918991,0,0,0
3507,122092.24003771172,2010-10-23 23:18:30,534.6328682902002,4,11,0.2884137630462646,4.199653148651123,10.757388883129057,9.848379370459378,42.9876430528816,35.88801628658801,0.0,0.0900387018918991,0,0,0
3508,122265.36300017276,2010-10-23 23:21:23,707.7558307562695,4,11,0.2382043898105621,4.199653148651123,10.770036287791338,9.848379370459378,43.04075854274256,35.88801628658801,0.0,0.0900387018918991,0,0,0
3509,122483.03134853176,2010-10-23 23:25:01,925.4241790851815,4,11,0.188175618648529,4.199653148651123,10.782883363865198,9.848379370459378,43.0947123174662,35.88801628658801,-3.23295607813634e-05,0.0900387018918991,0,0,0
3510,122771.79294356632,2010-10-23 23:29:50,1214.185774240029,4,11,0.1381468474864959,4.199491024017334,10.795885766885872,9.848379370459378,43.14931873248072,35.88801628658801,-3.24249267578125e-05,0.0900387018918991,0,0,0
3511,123218.61457344655,2010-10-23 23:37:16,1661.0074039949568,4,11,0.0881180837750434,4.199653148651123,10.80972848526276,9.848379370459378,43.20745422567845,35.88801628658801,-3.23295607813634e-05,0.0900387018918991,0,0,0
3512,123850.52735422096,2010-10-23 23:47:48,2292.920184764336,4,11,0.0498289167881011,4.199653148651123,10.821552381031236,9.848379370459378,43.25711133705113,35.88801628658801,0.0,0.0900387018918991,0,0,0
3513,123880.54067099662,2010-10-23 23:48:18,30.01520040485518,5,11,0.0,4.191882610321045,10.821552381031236,9.848379370459378,43.25711133705113,35.88801628658801,-9.71794142969884e-05,0.0900387018918991,0,0,0
3514,123910.54018606378,2010-10-23 23:48:48,60.01471548706006,5,11,0.0,4.190911293029785,10.821552381031236,9.848379370459378,43.25711133705113,35.88801628658801,-3.24249267578125e-05,0.0900387018918991,0,0,0
3515,123910.72664638003,2010-10-23 23:48:49,0.187454343903267,6,11,-1.9243103452026844e-05,4.190749645233154,10.821552381031236,9.84837937146138,43.25711133705113,35.88801629078714,0.0,0.0946486890316009,0,0,0
3516,123915.55486157288,2010-10-23 23:48:54,5.015669461581171,6,11,0.0007031940040178,4.190749645233154,10.821553240152364,9.848379371628356,43.25711493758694,35.888016291486906,-3.23295607813634e-05,0.0946486890316009,0,0,0
3517,123945.56897608002,2010-10-23 23:49:24,30.015212645362286,7,11,-1.099568486213684,4.018664836883545,10.821553240152364,9.857547978642597,43.25711493758694,35.92505387642003,-0.0008742332574911,0.0946486890316009,0,0,0
3518,123975.58414890114,2010-10-23 23:49:54,60.030385376245405,7,11,-1.099568486213684,3.99260139465332,10.821553240152364,9.866716710542915,43.25711493758694,35.96177008398766,-0.0005179882282391,0.0946486890316009,0,0,0
3519,124005.5993600277,2010-10-23 23:50:24,90.04559647274746,7,11,-1.0997490882873535,3.9741463661193848,10.821553240152364,9.875885368806868,43.25711493758694,35.998287643829904,-0.0004532813909463,0.0946486890316009,0,0,0
3520,124035.61475468168,2010-10-23 23:50:54,120.0609912169561,7,11,-1.0997490882873535,3.959900379180908,10.821553240152364,9.885054005961717,43.25711493758694,36.03465875578244,-0.0003561496851034,0.0946486890316009,0,0,0
3521,124065.6297397649,2010-10-23 23:51:24,150.0759763001635,7,11,-1.0997490882873535,3.948082685470581,10.821553240152364,9.894222509482423,43.25711493758694,36.0709101498172,-0.0002913951757363,0.0946486890316009,0,0,0
3522,124095.64493195427,2010-10-23 23:51:54,180.09116851460564,7,11,-1.099929690361023,3.937398195266724,10.821553240152364,9.903391179436111,43.25711493758694,36.10705892296731,-0.0002913951757363,0.0946486890316009,0,0,0
3523,124125.66013576262,2010-10-23 23:52:24,210.10637232795585,7,11,-1.0997490882873535,3.927361249923706,10.821553240152364,9.912559815545222,43.25711493758694,36.143113520292346,-0.0002590179501567,0.0946486890316009,0,0,0
3524,124155.6753472952,2010-10-23 23:52:54,240.12158376530732,7,11,-1.099929690361023,3.917971849441528,10.821553240152364,9.921728506599528,43.25711493758694,36.17908019917353,-0.0002913951757363,0.0946486890316009,0,0,0
3525,124185.69050397108,2010-10-23 23:53:24,270.136740416114,7,11,-1.099568486213684,3.9092302322387695,10.821553240152364,9.930897142765108,43.25711493758694,36.2149632490351,-0.0002266406954731,0.0946486890316009,0,0,0
3526,124215.70571795978,2010-10-23 23:53:54,300.1519544048244,7,11,-1.0997490882873535,3.900488376617432,10.821553240152364,9.940065738865703,43.25711493758694,36.2507650758565,-0.0001942634553415,0.0946486890316009,0,0,0
3527,124245.72104783732,2010-10-23 23:54:24,330.1672842823653,7,11,-1.0997490882873535,3.8920702934265137,10.821553240152364,9.949234337690118,43.25711493758694,36.286488332079024,-0.0002266406954731,0.0946486890316009,0,0,0
3528,124275.73626738488,2010-10-23 23:54:54,360.18250388506743,7,11,-1.0997490882873535,3.883652210235596,10.821553240152364,9.958402956888293,43.25711493758694,36.32213478322576,-0.0001942634553415,0.0946486890316009,0,0,0
3529,124305.75128485382,2010-10-23 23:55:24,390.197521303865,7,11,-1.0997490882873535,3.8755578994750977,10.821553240152364,9.967571515164265,43.25711493758694,36.35770526656016,-0.0001942634553415,0.0946486890316009,0,0,0
3530,124335.76661139804,2010-10-23 23:55:54,420.2128478581234,7,11,-1.0997490882873535,3.8674635887146,10.821553240152364,9.976740111241352,43.25711493758694,36.39320076235104,-0.0001618862152099,0.0946486890316009,0,0,0
3531,124365.78171994898,2010-10-23 23:56:24,450.2279563940128,7,11,-1.0997490882873535,3.859531164169312,10.821553240152364,9.98590875802392,43.25711493758694,36.42862348606971,-0.0001942634553415,0.0946486890316009,0,0,0
3532,124395.79689958206,2010-10-23 23:56:54,480.24313602208576,7,11,-1.0997490882873535,3.852084398269653,10.821553240152364,9.99507735114138,43.25711493758694,36.46397488076449,-0.0001618862152099,0.0946486890316009,0,0,0
3533,124425.81209670372,2010-10-23 23:57:24,510.2583331487708,7,11,-1.0997490882873535,3.8439900875091553,10.821553240152364,10.004245902058774,43.25711493758694,36.49925611635934,-0.0002590179501567,0.0946486890316009,0,0,0
3534,124455.82727538444,2010-10-23 23:57:54,540.2735118294827,7,11,-1.0993878841400146,3.836867094039917,10.821553240152364,10.013414541602367,43.25711493758694,36.53446831753685,-0.0001942634553415,0.0946486890316009,0,0,0
3535,124485.84259514678,2010-10-23 23:58:24,570.288831596826,7,11,-1.099568486213684,3.829420566558838,10.821553240152364,10.022583286171606,43.25711493758694,36.56961158565246,-0.0001618862152099,0.0946486890316009,0,0,0
3536,124515.85767705628,2010-10-23 23:58:54,600.3039135264042,7,11,-1.0997490882873535,3.8221356868743896,10.821553240152364,10.031751893765042,43.25711493758694,36.60468719854624,-0.0001618862152099,0.0946486890316009,0,0,0
3537,124545.87298179118,2010-10-23 23:59:24,630.319218251257,7,11,-1.0997490882873535,3.815012693405152,10.821553240152364,10.040920605315668,43.25711493758694,36.6396973040067,-0.0001618862152099,0.0946486890316009,0,0,0
3538,124575.8883083705,2010-10-23 23:59:54,660.3345449408525,7,11,-1.0997490882873535,3.807727813720703,10.821553240152364,10.050089247896508,43.25711493758694,36.6746413810852,-0.0001942634553415,0.0946486890316009,0,0,0
3539,124605.90325140892,2010-10-24 00:00:24,690.3494878589715,7,11,-1.0997490882873535,3.800604820251465,10.821553240152364,10.059257836458466,43.25711493758694,36.7095203696731,-0.0001942634553415,0.0946486890316009,0,0,0
3540,124635.91850570308,2010-10-24 00:00:54,720.3647421431104,7,11,-1.099929690361023,3.7938055992126474,10.821553240152364,10.06842652732072,43.25711493758694,36.74433658646731,-0.0002266406954731,0.0946486890316009,0,0,0
3541,124665.93377239314,2010-10-24 00:01:24,750.3800088431938,7,11,-1.099929690361023,3.787330150604248,10.821553240152364,10.077595226045553,43.25711493758694,36.77909202248874,-0.0001942634553415,0.0946486890316009,0,0,0
3542,124695.94883719002,2010-10-24 00:01:54,780.3950736350595,7,11,-1.0997490882873535,3.7808547019958496,10.821553240152364,10.08676386223113,43.25711493758694,36.81378743781264,-0.0001942634553415,0.0946486890316009,0,0,0
3543,124725.96408542409,2010-10-24 00:02:24,810.4103219042073,7,11,-1.099568486213684,3.774703025817871,10.821553240152364,10.09593256610756,43.25711493758694,36.84842487623695,-0.0001618862152099,0.0946486890316009,0,0,0
3544,124755.97927035036,2010-10-24 00:02:54,840.4255067953977,7,11,-1.0997490882873535,3.7683894634246826,10.821553240152364,10.10510120446916,43.25711493758694,36.88300400954374,-0.0001618862152099,0.0946486890316009,0,0,0
3545,124785.99443443467,2010-10-24 00:03:24,870.4406709047935,7,11,-1.0997490882873535,3.762399673461914,10.821553240152364,10.114269815429523,43.25711493758694,36.91752702568249,-0.0001295089750783,0.0946486890316009,0,0,0
3546,124816.01229098949,2010-10-24 00:03:54,900.4585274696167,7,11,-1.099568486213684,3.7564098834991455,10.821553240152364,10.12343927213958,43.25711493758694,36.95199839106333,-0.0001295089750783,0.0946486890316009,0,0,0
3547,124846.02509504692,2010-10-24 00:04:24,930.47136851422,7,11,-1.099568486213684,3.750420331954956,10.821553240152364,10.132607257485676,43.25711493758694,36.98641021990188,-0.0001942634553415,0.0946486890316009,0,0,0
3548,124876.04004439103,2010-10-24 00:04:54,960.486280836084,7,11,-1.099568486213684,3.744754314422608,10.821553240152364,10.141775823316094,43.25711493758694,37.02077119016352,-0.0001942634553415,0.0946486890316009,0,0,0
3549,124906.05535605318,2010-10-24 00:05:24,990.5015926034888,7,11,-1.0997490882873535,3.739088296890259,10.821553240152364,10.150944542639316,43.25711493758694,37.05507999177387,-0.0001618862152099,0.0946486890316009,0,0,0
3550,124936.07041362204,2010-10-24 00:05:54,1020.5166501021778,7,11,-1.099568486213684,3.73358416557312,10.821553240152364,10.160113154446083,43.25711493758694,37.08933721853293,-0.0001618862152099,0.0946486890316009,0,0,0
3551,124966.08561364596,2010-10-24 00:06:24,1050.5318501260836,7,11,-1.099568486213684,3.728241920471192,10.821553240152364,10.16928184074514,43.25711493758694,37.12354440082037,-0.0001295089750783,0.0946486890316009,0,0,0
3552,124996.1010152222,2010-10-24 00:06:54,1080.5472517524445,7,11,-1.0997490882873535,3.722899675369263,10.821553240152364,10.178450497603375,43.25711493758694,37.15770282477086,-0.0001295089750783,0.0946486890316009,0,0,0
3553,125026.11605552302,2010-10-24 00:07:24,1110.5622919630464,7,11,-1.099568486213684,3.717719316482544,10.821553240152364,10.187619095922416,43.25711493758694,37.19181206987937,-9.713172767078504e-05,0.0946486890316009,0,0,0
3554,125056.13134662891,2010-10-24 00:07:54,1140.5775831842438,7,11,-1.099568486213684,3.7123770713806152,10.821553240152364,10.196787751617396,43.25711493758694,37.22587368199328,-0.0001618862152099,0.0946486890316009,0,0,0
3555,125086.14639278434,2010-10-24 00:08:24,1170.5926292243746,7,11,-1.0997490882873535,3.7073585987091056,10.821553240152364,10.205956412412371,43.25711493758694,37.25988787830753,-0.0001295089750783,0.0946486890316009,0,0,0
3556,125116.16175747864,2010-10-24 00:08:54,1200.6079939387396,7,11,-1.0997490882873535,3.702178239822388,10.821553240152364,10.215125152122566,43.25711493758694,37.29385530758751,-0.0001295089750783,0.0946486890316009,0,0,0
3557,125146.17680339848,2010-10-24 00:09:24,1230.6230398435332,7,11,-1.0993878841400146,3.697321653366089,10.821553240152364,10.224293786329756,43.25711493758694,37.3277759751091,-0.0001295089750783,0.0946486890316009,0,0,0
3558,125176.19198009426,2010-10-24 00:09:54,1260.638216549323,7,11,-1.0997490882873535,3.69246506690979,10.821553240152364,10.233462416674175,43.25711493758694,37.36165135375349,-9.713172767078504e-05,0.0946486890316009,0,0,0
3559,125206.20721013796,2010-10-24 00:10:24,1290.6534466281346,7,11,-1.0997490882873535,3.687446594238281,10.821553240152364,10.242631114383398,43.25711493758694,37.39548237144317,-6.47544875391759e-05,0.0946486890316009,0,0,0
3560,125236.22239458808,2010-10-24 00:10:54,1320.6686310381258,7,11,-1.099568486213684,3.682751893997192,10.821553240152364,10.251799693997096,43.25711493758694,37.42926919064465,-0.0001618862152099,0.0946486890316009,0,0,0
3561,125266.23771126772,2010-10-24 00:11:24,1350.683947722786,7,11,-1.0997490882873535,3.678057193756104,10.821553240152364,10.260968366894572,43.25711493758694,37.46301293187031,-9.713172767078504e-05,0.0946486890316009,0,0,0
3562,125296.252889377,2010-10-24 00:11:54,1380.6991258270612,7,11,-1.0997490882873535,3.6732006072998047,10.821553240152364,10.270137026155922,43.25711493758694,37.496713733721904,-0.0001618862152099,0.0946486890316009,0,0,0
3563,125326.26808504004,2010-10-24 00:12:24,1410.7143215001236,7,11,-1.0997490882873535,3.668668031692505,10.821553240152364,10.279305730175006,43.25711493758694,37.53037246333558,-9.713172767078504e-05,0.0946486890316009,0,0,0
3564,125356.28317665376,2010-10-24 00:12:54,1440.7294131088247,7,11,-1.0997490882873535,3.664297103881836,10.821553240152364,10.288474396132878,43.25711493758694,37.56398945010967,-0.0001295089750783,0.0946486890316009,0,0,0
3565,125386.2983657755,2010-10-24 00:13:24,1470.7446022255467,7,11,-1.099568486213684,3.659926176071167,10.821553240152364,10.29764308377142,43.25711493758694,37.59756523378093,-9.713172767078504e-05,0.0946486890316009,0,0,0
3566,125416.31355422054,2010-10-24 00:13:54,1500.7597906705944,7,11,-1.0997490882873535,3.655393362045288,10.821553240152364,10.306811798485237,43.25711493758694,37.63110057127677,-9.713172767078504e-05,0.0946486890316009,0,0,0
3567,125446.32889575712,2010-10-24 00:14:24,1530.7751323325056,7,11,-1.099568486213684,3.651022434234619,10.821553240152364,10.31598054230976,43.25711493758694,37.664596290149696,-9.713172767078504e-05,0.0946486890316009,0,0,0
3568,125476.34396815296,2010-10-24 00:14:54,1560.7902046080233,7,11,-1.099568486213684,3.64665150642395,10.821553240152364,10.325149202275778,43.25711493758694,37.6980523520219,-0.0001618862152099,0.0946486890316009,0,0,0
3569,125506.35926883272,2010-10-24 00:15:24,1590.805505312857,7,11,-1.0997490882873535,3.642766237258911,10.821553240152364,10.3343178420123,43.25711493758694,37.73146953814779,-9.713172767078504e-05,0.0946486890316009,0,0,0
3570,125536.37457484078,2010-10-24 00:15:54,1620.8208113008577,7,11,-1.099568486213684,3.638719081878662,10.821553240152364,10.343486515652945,43.25711493758694,37.76484950753666,-9.713172767078504e-05,0.0946486890316009,0,0,0
3571,125566.38952965356,2010-10-24 00:16:24,1650.8357661136215,7,11,-1.0997490882873535,3.634671926498413,10.821553240152364,10.352655073325032,43.25711493758694,37.79819214067332,-9.713172767078504e-05,0.0946486890316009,0,0,0
3572,125596.40471672516,2010-10-24 00:16:54,1680.850953175221,7,11,-1.099929690361023,3.630624771118164,10.821553240152364,10.361823732043646,43.25711493758694,37.83149877830132,-0.0001295089750783,0.0946486890316009,0,0,0
3573,125626.41990174667,2010-10-24 00:17:24,1710.866138201749,7,11,-1.0997490882873535,3.626901388168335,10.821553240152364,10.370992406675931,43.25711493758694,37.864770145765206,-9.713172767078504e-05,0.0946486890316009,0,0,0
3574,125656.43509424684,2010-10-24 00:17:54,1740.8813306968907,7,11,-1.0997490882873535,3.623178005218506,10.821553240152364,10.380160649715627,43.25711493758694,37.898005465229645,-9.713172767078504e-05,0.0946486890316009,0,0,0
3575,125686.45043169823,2010-10-24 00:18:25,1770.896668148308,7,11,-1.099568486213684,3.619616508483887,10.821553240152364,10.38932867526527,43.25711493758694,37.931206481196014,-0.0001295089750783,0.0946486890316009,0,0,0
3576,125716.465510886,2010-10-24 00:18:55,1800.9117473360527,7,11,-1.099568486213684,3.616055011749268,10.821553240152364,10.398496628764406,43.25711493758694,37.96437443823493,-9.713172767078504e-05,0.0946486890316009,0,0,0
3577,125746.48070094004,2010-10-24 00:19:25,1830.9269373901109,7,11,-1.0997490882873535,3.612493515014648,10.821553240152364,10.407664533774703,43.25711493758694,37.99751011055542,-9.713172767078504e-05,0.0946486890316009,0,0,0
3578,125776.49634766228,2010-10-24 00:19:55,1860.942584122351,7,11,-1.0997490882873535,3.6090939044952393,10.821553240152364,10.41683307514658,43.25711493758694,38.03061669442163,-0.0001295089750783,0.0946486890316009,0,0,0
3579,125806.51122573878,2010-10-24 00:20:25,1890.957462198865,7,11,-1.0997490882873535,3.60585618019104,10.821553240152364,10.426001662927652,43.25711493758694,38.06369291617524,-6.47544875391759e-05,0.0946486890316009,0,0,0
3580,125836.52629929747,2010-10-24 00:20:55,1920.972535762593,7,11,-1.099568486213684,3.602780342102051,10.821553240152364,10.435170285203,43.25711493758694,38.096739159606216,-6.47544875391759e-05,0.0946486890316009,0,0,0
3581,125866.54149793796,2010-10-24 00:21:25,1950.9877343880128,7,11,-1.0997490882873535,3.599542617797852,10.821553240152364,10.44433901144506,43.25711493758694,38.12975656178959,-9.713172767078504e-05,0.0946486890316009,0,0,0
3582,125896.5567014556,2010-10-24 00:21:55,1981.0029379056264,7,11,-1.099929690361023,3.5963048934936523,10.821553240152364,10.453507713437748,43.25711493758694,38.16274541458856,-0.0001295089750783,0.0946486890316009,0,0,0
3583,125926.57188041195,2010-10-24 00:22:25,2011.0181169021253,7,11,-1.099568486213684,3.593390941619873,10.821553240152364,10.4626764509347,43.25711493758694,38.195706140835405,-9.713172767078504e-05,0.0946486890316009,0,0,0
3584,125956.58710234548,2010-10-24 00:22:55,2041.0333388256115,7,11,-1.099568486213684,3.590315341949463,10.821553240152364,10.471845220777212,43.25711493758694,38.228639195588194,-0.0001295089750783,0.0946486890316009,0,0,0
3585,125986.60227912143,2010-10-24 00:23:25,2071.048515601576,7,11,-1.099568486213684,3.5875632762908936,10.821553240152364,10.481013899717825,43.25711493758694,38.26154445948845,-3.237724376958795e-05,0.0946486890316009,0,0,0
3586,126016.61748765656,2010-10-24 00:23:55,2101.06372410662,7,11,-1.0997490882873535,3.5844874382019043,10.821553240152364,10.490182604468387,43.25711493758694,38.29442245374046,-6.47544875391759e-05,0.0946486890316009,0,0,0
3587,126046.6326620917,2010-10-24 00:24:25,2131.0788985367376,7,11,-1.0997490882873535,3.581411600112915,10.821553240152364,10.499351293915918,43.25711493758694,38.3272731991585,-0.0001295089750783,0.0946486890316009,0,0,0
3588,126076.64787562928,2010-10-24 00:24:55,2161.094112104399,7,11,-1.099929690361023,3.578497648239136,10.821553240152364,10.508519940685966,43.25711493758694,38.3600967636262,-9.713172767078504e-05,0.0946486890316009,0,0,0
3589,126106.66308481604,2010-10-24 00:25:25,2191.109321291141,7,11,-1.099568486213684,3.5755836963653564,10.821553240152364,10.517688635420935,43.25711493758694,38.39289341030501,-6.47544875391759e-05,0.0946486890316009,0,0,0
3590,126136.67830871444,2010-10-24 00:25:55,2221.124545164487,7,11,-1.0997490882873535,3.572507858276367,10.821553240152364,10.526857321983288,43.25711493758694,38.425662925135455,-9.713172767078504e-05,0.0946486890316009,0,0,0
3591,126166.6934506235,2010-10-24 00:26:25,2251.139687098615,7,11,-1.0997490882873535,3.569593906402588,10.821553240152364,10.536026117065594,43.25711493758694,38.45840567583868,-9.713172767078504e-05,0.0946486890316009,0,0,0
3592,126196.70866007592,2010-10-24 00:26:55,2281.1548965209445,7,11,-1.0993878841400146,3.5670037269592285,10.821553240152364,10.545194884168758,43.25711493758694,38.491121404001646,0.0,0.0946486890316009,0,0,0
3593,126226.72384599967,2010-10-24 00:27:25,2311.1700824447084,7,11,-1.099568486213684,3.5634422302246094,10.821553240152364,10.55436354896279,43.25711493758694,38.5238092353258,-9.713172767078504e-05,0.0946486890316009,0,0,0
3594,126256.73904188829,2010-10-24 00:27:55,2341.185278393458,7,11,-1.0997490882873535,3.56069016456604,10.821553240152364,10.563532160152675,43.25711493758694,38.55646968148936,-6.47544875391759e-05,0.0946486890316009,0,0,0
3595,126286.75423612274,2010-10-24 00:28:25,2371.200472572797,7,11,-1.099568486213684,3.5577762126922607,10.821553240152364,10.572700825925434,43.25711493758694,38.58910223134643,-3.237724376958795e-05,0.0946486890316009,0,0,0
3596,126316.76946400107,2010-10-24 00:28:55,2401.2157004761866,7,11,-1.0997490882873535,3.5542147159576416,10.821553240152364,10.581869460965644,43.25711493758694,38.62170605320114,-0.0001295089750783,0.0946486890316009,0,0,0
3597,126346.7846370678,2010-10-24 00:29:25,2431.2308735178444,7,11,-1.099568486213684,3.5511388778686523,10.821553240152364,10.591038132883092,43.25711493758694,38.65428091674808,-0.0001295089750783,0.0946486890316009,0,0,0
3598,126376.79982669078,2010-10-24 00:29:55,2461.246063140828,7,11,-1.099568486213684,3.547901153564453,10.821553240152364,10.600206867632856,43.25711493758694,38.68682642550343,-0.0001295089750783,0.0946486890316009,0,0,0
3599,126406.8150371156,2010-10-24 00:30:25,2491.261273565656,7,11,-1.099568486213684,3.544663429260254,10.821553240152364,10.609375605136377,43.25711493758694,38.71934146521381,-6.47544875391759e-05,0.0946486890316009,0,0,0
3600,126436.8302723222,2010-10-24 00:30:55,2521.276508887535,7,11,-1.0997490882873535,3.5414257049560547,10.821553240152364,10.618544329151174,43.25711493758694,38.75182512539387,-3.237724376958795e-05,0.0946486890316009,0,0,0
3601,126466.84542903314,2010-10-24 00:31:25,2551.2916654832043,7,11,-1.0997490882873535,3.537540435791016,10.821553240152364,10.627713098825131,43.25711493758694,38.78427687695465,-0.0001295089750783,0.0946486890316009,0,0,0
3602,126496.86075412876,2010-10-24 00:31:55,2581.306990608902,7,11,-1.0997490882873535,3.5339789390563965,10.821553240152364,10.636881877229158,43.25711493758694,38.81669561449995,-9.713172767078504e-05,0.0946486890316009,0,0,0
3603,126526.87585755192,2010-10-24 00:32:25,2611.322094122274,7,11,-1.0997490882873535,3.5302555561065674,10.821553240152364,10.6460505229636,43.25711493758694,38.84907963942741,-9.713172767078504e-05,0.0946486890316009,0,0,0
3604,126556.89103255847,2010-10-24 00:32:55,2641.3372690035167,7,11,-1.0997490882873535,3.5260465145111084,10.821553240152364,10.65521921962829,43.25711493758694,38.881428310058624,-0.0001295089750783,0.0946486890316009,0,0,0
3605,126586.90622282808,2010-10-24 00:33:25,2671.352459318224,7,11,-1.0997490882873535,3.5218374729156494,10.821553240152364,10.664387984589643,43.25711493758694,38.91373995181607,-0.0001618862152099,0.0946486890316009,0,0,0
3606,126616.9214069674,2010-10-24 00:33:55,2701.367643452528,7,11,-1.0997490882873535,3.5176284313201904,10.821553240152364,10.673556656751176,43.25711493758694,38.94601234259371,-0.0001295089750783,0.0946486890316009,0,0,0
3607,126646.93659931216,2010-10-24 00:34:25,2731.3828357622074,7,11,-1.0997490882873535,3.5129337310791016,10.821553240152364,10.6827254043428,43.25711493758694,38.97824344459456,-0.0001295089750783,0.0946486890316009,0,0,0
3608,126676.95192494911,2010-10-24 00:34:55,2761.39816143928,7,11,-1.0997490882873535,3.507915496826172,10.821553240152364,10.691894182368992,43.25711493758694,39.01043060209998,-0.0001618862152099,0.0946486890316009,0,0,0
3609,126706.967314741,2010-10-24 00:35:25,2791.413551316358,7,11,-1.0997490882873535,3.502573251724243,10.821553240152364,10.701062983297309,43.25711493758694,39.0425699028221,-0.0001295089750783,0.0946486890316009,0,0,0
3610,126736.98498555788,2010-10-24 00:35:55,2821.43122213324,7,11,-1.0997490882873535,3.4964215755462646,10.821553240152364,10.710232474738966,43.25711493758694,39.07465896023426,-0.0001618862152099,0.0946486890316009,0,0,0
3611,126766.997802342,2010-10-24 00:36:25,2851.4440388371786,7,11,-1.099568486213684,3.489946126937866,10.821553240152364,10.719400514297496,43.25711493758694,39.10668477996101,-0.0001618862152099,0.0946486890316009,0,0,0
3612,126797.01260822358,2010-10-24 00:36:55,2881.458844673648,7,11,-1.099568486213684,3.482337474822998,10.821553240152364,10.728569137593482,43.25711493758694,39.13864729321152,-0.0001618862152099,0.0946486890316009,0,0,0
3613,126827.0278057964,2010-10-24 00:37:25,2911.474042271508,7,11,-1.0997490882873535,3.47343373298645,10.821553240152364,10.737737843679737,43.25711493758694,39.17053508785524,-0.0002266406954731,0.0946486890316009,0,0,0
3614,126857.04298000094,2010-10-24 00:37:55,2941.4892164860885,7,11,-1.099568486213684,3.4633967876434326,10.821553240152364,10.746906584414411,43.25711493758694,39.20233694996234,-0.0002590179501567,0.0946486890316009,0,0,0
3615,126887.05829527209,2010-10-24 00:38:25,2971.5045317321637,7,11,-1.0997490882873535,3.4514172077178955,10.821553240152364,10.7560753968123,43.25711493758694,39.234038765528645,-0.0003237724304199,0.0946486890316009,0,0,0
3616,126917.07360597183,2010-10-24 00:38:55,3001.51984243692,7,11,-1.0997490882873535,3.437171220779419,10.821553240152364,10.765244130584245,43.25711493758694,39.26562108272267,-0.0003885269106831,0.0946486890316009,0,0,0
3617,126947.08860783184,2010-10-24 00:39:25,3031.534844291928,7,11,-1.0997490882873535,3.4192020893096924,10.821553240152364,10.77441276957946,43.25711493758694,39.29705683448893,-0.0005504131549969,0.0946486890316009,0,0,0
3618,126977.10389665708,2010-10-24 00:39:55,3061.5501331071287,7,11,-1.099568486213684,3.396214246749878,10.821553240152364,10.783581459554426,43.25711493758694,39.32830708120218,-0.0007122993702068,0.0946486890316009,0,0,0
3619,127007.11896551908,2010-10-24 00:40:25,3091.565202019264,7,11,-1.0997490882873535,3.3649702072143555,10.821553240152364,10.792750122379822,43.25711493758694,39.3593114377421,-0.0009713172912597,0.0946486890316009,0,0,0
3620,127037.13417190385,2010-10-24 00:40:55,3121.5804083538974,7,11,-1.0997490882873535,3.321261167526245,10.821553240152364,10.801918894078783,43.25711493758694,39.38997536434726,-0.0013598442310467,0.0946486890316009,0,0,0
3621,127067.14935725115,2010-10-24 00:41:25,3151.595593696212,7,11,-1.099568486213684,3.25844955444336,10.821553240152364,10.811087611043115,43.25711493758694,39.42015642838548,-0.0019750117789953,0.0946486890316009,0,0,0
3622,127097.16456706949,2010-10-24 00:41:55,3181.6108035145285,7,11,-1.0997490882873535,3.166012763977051,10.821553240152364,10.820256326421552,43.25711493758694,39.449637831268426,-0.0029463290702551,0.0946486890316009,0,0,0
3623,127127.17977726377,2010-10-24 00:42:25,3211.6260137137942,7,11,-1.0997490882873535,3.0149734020233154,10.821553240152364,10.829424979134608,43.25711493758694,39.4780415170092,-0.0052450657822191,0.0946486890316009,0,0,0
3624,127146.67947449414,2010-10-24 00:42:45,3231.125710969262,7,11,-1.099568486213684,2.814882516860962,10.821553240152364,10.835381503013402,43.25711493758694,39.49547489449613,-0.0106844902038574,0.0946486890316009,0,0,0
3625,127154.25758689197,2010-10-24 00:42:52,3238.703823397159,7,11,-1.099568486213684,2.699781894683838,10.821553240152364,10.837696389326895,43.25711493758694,39.501860708111785,-0.0124651910737156,0.0946486890316009,0,0,0
3626,127214.27052585254,2010-10-24 00:43:52,60.01462382861902,8,11,0.0,3.318509101867676,10.821553240152364,10.837696389326895,43.25711493758694,39.501860708111785,0.0013274669181555,0.0946486890316009,0,0,0
3627,127214.45740707323,2010-10-24 00:43:53,0.187617345152534,9,11,-1.9243103452026844e-05,3.3189947605133057,10.821553240152364,10.83769639032977,43.25711493758694,39.50186071144032,0.0,0.0906857252120971,0,0,0
3628,127219.28532898516,2010-10-24 00:43:58,5.015539272108948,9,11,0.0007031940040178,3.3272509574890137,10.82155406221881,10.83769639032977,43.25711766992801,39.50186071144032,0.0012303352123126,0.0906857252120971,0,0,0
