Data_Point,Test_Time(s),Date_Time,Step_Time(s),Step_Index,Cycle_Index,Current(A),Voltage(V),Charge_Capacity(Ah),Discharge_Capacity(Ah),Charge_Energy(Wh),Discharge_Energy(Wh),dV/dt(V/s),Internal_Resistance(Ohm),Is_FC_Data,AC_Impedance(Ohm),ACI_Phase_Angle(Deg)
4961,173400.740398274,2010-10-24 13:33:44,30.01498036645177,1,16,0.0,3.3602755069732666,14.778899482709528,14.796240139384972,59.0488062762425,53.96559739867294,0.0008418083307333,0.0914954170584678,0,0,0
4962,173430.75570386602,2010-10-24 13:34:14,60.030285938415744,1,16,0.0,3.3853678703308105,14.778899482709528,14.796240139384972,59.0488062762425,53.96559739867294,0.0006151676061563,0.0914954170584678,0,0,0
4963,173460.77075983587,2010-10-24 13:34:44,90.04534189325702,1,16,0.0,3.404470443725586,14.778899482709528,14.796240139384972,59.0488062762425,53.96559739867294,0.0004532813909463,0.0914954170584678,0,0,0
4964,173490.7391143213,2010-10-24 13:35:14,120.01369641375427,1,16,0.0,3.4196877479553223,14.778899482709528,14.796240139384972,59.0488062762425,53.96559739867294,0.0003561496851034,0.0914954170584678,0,0,0
4965,173520.74938829688,2010-10-24 13:35:44,30.015198810882502,2,16,0.5501165986061096,3.5762312412261963,14.78348615730299,14.796240139384972,59.06503838796501,53.96559739867294,0.0017159938579425,0.0914954170584678,0,0,0
4966,173550.76459146364,2010-10-24 13:36:14,60.0304020076961,2,16,0.550297200679779,3.626901388168335,14.788072922591567,14.796240139384972,59.08156500148732,53.96559739867294,0.0011332035064697,0.0914954170584678,0,0,0
4967,173580.77979758772,2010-10-24 13:36:44,90.04560808669298,2,16,0.5501165986061096,3.663649559020996,14.792659652228478,14.796240139384972,59.09828904259622,53.96559739867294,0.0008418083307333,0.0914954170584678,0,0,0
4968,173610.79503790705,2010-10-24 13:37:14,120.06084841103984,2,16,0.550297200679779,3.69278883934021,14.797246386126393,14.796240139384972,59.11516236047879,53.96559739867294,0.0007446765666827,0.0914954170584678,0,0,0
4969,173640.81022688345,2010-10-24 13:37:44,150.0760373823992,2,16,0.550297200679779,3.716424226760864,14.801833082184732,14.796240139384972,59.13215536964871,53.96559739867294,0.0006151676061563,0.0914954170584678,0,0,0
4970,173670.82554867584,2010-10-24 13:38:14,180.0913591747895,2,16,0.5501165986061096,3.73585057258606,14.806419837871315,14.796240139384972,59.14924740325118,53.96559739867294,0.0004209041653666,0.0914954170584678,0,0,0
4971,173700.84063315677,2010-10-24 13:38:44,210.1064436557266,2,16,0.550297200679779,3.7518773078918457,14.811006569647686,14.796240139384972,59.16642057145562,53.96559739867294,0.0004209041653666,0.0914954170584678,0,0,0
4972,173730.85586668918,2010-10-24 13:39:14,240.1216772182208,2,16,0.5501165986061096,3.762561559677124,14.815593275868505,14.796240139384972,59.18365551069569,53.96559739867294,0.0002266406954731,0.0914954170584678,0,0,0
4973,173760.87104851272,2010-10-24 13:39:44,270.13685901169066,2,16,0.5504778623580933,3.769198894500733,14.820179984981358,14.796240139384972,59.20092936800808,53.96559739867294,0.0001942634553415,0.0914954170584678,0,0,0
4974,173790.88626243128,2010-10-24 13:40:14,300.1520729302261,2,16,0.5501165986061096,3.773407936096192,14.82476675322362,14.796240139384972,59.21822709221077,53.96559739867294,0.0001295089750783,0.0914954170584678,0,0,0
4975,173820.90150254007,2010-10-24 13:40:44,330.1673130390358,2,16,0.5501165986061096,3.7769694328308105,14.829353512745104,14.796240139384972,59.23554289470152,53.96559739867294,9.713172767078504e-05,0.0914954170584678,0,0,0
4976,173850.91668304033,2010-10-24 13:41:14,360.1824935392825,2,16,0.5499359965324402,3.78036904335022,14.833940287145644,14.796240139384972,59.25287545658004,53.96559739867294,3.237724376958795e-05,0.0914954170584678,0,0,0
4977,173880.93199974002,2010-10-24 13:41:44,390.1978102490052,2,16,0.5501165986061096,3.783930540084839,14.838527036019885,14.796240139384972,59.270223954740615,53.96559739867294,6.47544875391759e-05,0.0914954170584678,0,0,0
4978,173910.94721659084,2010-10-24 13:42:14,420.2130270948363,2,16,0.550297200679779,3.787492036819458,14.843113784654108,14.796240139384972,59.28758829497883,53.96559739867294,9.713172767078504e-05,0.0914954170584678,0,0,0
4979,173940.96229113202,2010-10-24 13:42:44,450.228101630988,2,16,0.5501165986061096,3.790729761123657,14.847700463154542,14.796240139384972,59.304967784255226,53.96559739867294,6.47544875391759e-05,0.0914954170584678,0,0,0
4980,173970.97750930116,2010-10-24 13:43:14,480.2433198001172,2,16,0.5501165986061096,3.7938055992126474,14.852287538935672,14.796240139384972,59.32236380185988,53.96559739867294,6.47544875391759e-05,0.0914954170584678,0,0,0
4981,174000.9927219415,2010-10-24 13:43:44,510.25853244046704,2,16,0.550297200679779,3.7973670959472656,14.8568749700374,14.796240139384972,59.339776073093695,53.96559739867294,0.0001295089750783,0.0914954170584678,0,0,0
4982,174031.00793567457,2010-10-24 13:44:14,540.2737461735403,2,16,0.550297200679779,3.800442934036255,14.861462394222777,14.796240139384972,59.35720286557549,53.96559739867294,9.713172767078504e-05,0.0914954170584678,0,0,0
4983,174061.02355733432,2010-10-24 13:44:45,570.2893678383048,2,16,0.5501165986061096,3.803356885910034,14.866049933219395,14.796240139384972,59.37464434148362,53.96559739867294,6.47544875391759e-05,0.0914954170584678,0,0,0
4984,174091.0383577623,2010-10-24 13:45:15,600.3041682863444,2,16,0.5501165986061096,3.8065946102142334,14.8706369816559,14.796240139384972,59.392098010753365,53.96559739867294,9.713172767078504e-05,0.0914954170584678,0,0,0
4985,174121.0536068836,2010-10-24 13:45:45,630.3194173825534,2,16,0.550297200679779,3.8095085620880127,14.875223749735296,14.796240139384972,59.40956454808052,53.96559739867294,3.237724376958795e-05,0.0914954170584678,0,0,0
4986,174151.06874268744,2010-10-24 13:46:15,660.3345532114655,2,16,0.5501165986061096,3.812584400177002,14.87981055200429,14.796240139384972,59.42704518836417,53.96559739867294,9.713172767078504e-05,0.0914954170584678,0,0,0
4987,174181.08394391436,2010-10-24 13:46:45,690.349754453407,2,16,0.5501165986061096,3.815660238265991,14.88439731220353,14.796240139384972,59.44454005975838,53.96559739867294,6.47544875391759e-05,0.0914954170584678,0,0,0
4988,174211.09929555113,2010-10-24 13:47:15,720.3651060550911,2,16,0.5501165986061096,3.818736076354981,14.888984069228874,14.796240139384972,59.46204913861049,53.96559739867294,6.47544875391759e-05,0.0914954170584678,0,0,0
4989,174241.11438031273,2010-10-24 13:47:45,750.3801908317653,2,16,0.5499359965324402,3.82197380065918,14.893570822524923,14.796240139384972,59.479572768638086,53.96559739867294,3.237724376958795e-05,0.0914954170584678,0,0,0
4990,174271.12957218135,2010-10-24 13:48:15,780.3953826802955,2,16,0.5501165986061096,3.825373411178589,14.898157564481522,14.796240139384972,59.49711116367524,53.96559739867294,9.713172767078504e-05,0.0914954170584678,0,0,0
4991,174301.14477434556,2010-10-24 13:48:45,810.4105848445357,2,16,0.5501165986061096,3.828773021697998,14.902744258195684,14.796240139384972,59.51466473017963,53.96559739867294,9.713172767078504e-05,0.0914954170584678,0,0,0
4992,174331.1601877563,2010-10-24 13:49:15,840.4259983705545,2,16,0.5501165986061096,3.832010746002197,14.907331023084865,14.796240139384972,59.53223417405096,53.96559739867294,6.47544875391759e-05,0.0914954170584678,0,0,0
4993,174361.17520029296,2010-10-24 13:49:45,870.4410107918967,2,16,0.5501165986061096,3.835572004318237,14.911917704333764,14.796240139384972,59.54981901887039,53.96559739867294,9.713172767078504e-05,0.0914954170584678,0,0,0
4994,174391.19040298348,2010-10-24 13:50:15,900.4562134874611,2,16,0.5501165986061096,3.8389716148376474,14.91650441959436,14.796240139384972,59.56741980222649,53.96559739867294,6.47544875391759e-05,0.0914954170584678,0,0,0
4995,174421.20573691613,2010-10-24 13:50:45,930.4715474301336,2,16,0.550297200679779,3.8425331115722656,14.92109113264912,14.796240139384972,59.58503622642546,53.96559739867294,0.0001618862152099,0.0914954170584678,0,0,0
4996,174451.22085071512,2010-10-24 13:51:15,960.4866612090904,2,16,0.5499359965324402,3.845608949661255,14.92567786165975,14.796240139384972,59.60266806586972,53.96559739867294,6.47544875391759e-05,0.0914954170584678,0,0,0
4997,174481.23614446766,2010-10-24 13:51:45,990.5019549816466,2,16,0.550297200679779,3.849008560180664,14.930264582641028,14.796240139384972,59.620315016527485,53.96559739867294,6.47544875391759e-05,0.0914954170584678,0,0,0
4998,174511.25126026664,2010-10-24 13:52:15,1020.517070760588,2,16,0.5501165986061096,3.852084398269653,14.9348513065797,14.796240139384972,59.63797686729152,53.96559739867294,6.47544875391759e-05,0.0914954170584678,0,0,0
4999,174541.26643826065,2010-10-24 13:52:45,1050.5322487946885,2,16,0.5499359965324402,3.855322122573853,14.939438067739465,14.796240139384972,59.65565333905164,53.96559739867294,9.713172767078504e-05,0.0914954170584678,0,0,0
5000,174571.28166039966,2010-10-24 13:53:15,1080.547470928699,2,16,0.5501165986061096,3.858397960662842,14.944024735607332,14.796240139384972,59.67334369099299,53.96559739867294,6.47544875391759e-05,0.0914954170584678,0,0,0
5001,174601.29685484967,2010-10-24 13:53:45,1110.5626653787133,2,16,0.5501165986061096,3.861311912536621,14.948611400074515,14.796240139384972,59.691047781359536,53.96559739867294,6.47544875391759e-05,0.0914954170584678,0,0,0
5002,174631.31206148505,2010-10-24 13:54:15,1140.577871989034,2,16,0.5501165986061096,3.8642258644104,14.953198116393692,14.796240139384972,59.7087654280805,53.96559739867294,6.47544875391759e-05,0.0914954170584678,0,0,0
5003,174661.32741149276,2010-10-24 13:54:45,1170.5932220318332,2,16,0.550297200679779,3.86713981628418,14.957784890688377,14.796240139384972,59.72649616319069,53.96559739867294,9.713172767078504e-05,0.0914954170584678,0,0,0
5004,174691.342485663,2010-10-24 13:55:15,1200.6082961619727,2,16,0.5499359965324402,3.869406223297119,14.962371576959244,14.796240139384972,59.74423882043192,53.96559739867294,3.237724376958795e-05,0.0914954170584678,0,0,0
5005,174721.35768947637,2010-10-24 13:55:45,1230.6234999803355,2,16,0.550297200679779,3.8719964027404794,14.966958267143774,14.796240139384972,59.76199316712481,53.96559739867294,6.47544875391759e-05,0.0914954170584678,0,0,0
5006,174751.3728830893,2010-10-24 13:56:15,1260.6386936233382,2,16,0.5499359965324402,3.874424695968628,14.971545043567907,14.796240139384972,59.77975890588757,53.96559739867294,6.47544875391759e-05,0.0914954170584678,0,0,0
5007,174781.38818697206,2010-10-24 13:56:45,1290.653997596317,2,16,0.5501165986061096,3.876529216766357,14.976131769391737,14.796240139384972,59.79753484187588,53.96559739867294,0.0,0.0914954170584678,0,0,0
5008,174811.40337386823,2010-10-24 13:57:15,1320.6691844022796,2,16,0.5501165986061096,3.878795623779297,14.98071846807992,14.796240139384972,59.81532049494875,53.96559739867294,6.47544875391759e-05,0.0914954170584678,0,0,0
5009,174841.41859995207,2010-10-24 13:57:45,1350.6844104761096,2,16,0.5501165986061096,3.8805763721466064,14.98530521594368,14.796240139384972,59.833115525558725,53.96559739867294,3.237724376958795e-05,0.0914954170584678,0,0,0
5010,174871.43397823526,2010-10-24 13:58:15,1380.69978877433,2,16,0.5499359965324402,3.882357120513916,14.989891942998346,14.796240139384972,59.85091903691036,53.96559739867294,3.237724376958795e-05,0.0914954170584678,0,0,0
5011,174901.44892026618,2010-10-24 13:58:45,1410.7147307952127,2,16,0.5501165986061096,3.8841378688812256,14.994478632771752,14.796240139384972,59.86873046400114,53.96559739867294,3.237724376958795e-05,0.0914954170584678,0,0,0
5012,174931.46414695654,2010-10-24 13:59:15,1440.7299574855797,2,16,0.5499359965324402,3.8855948448181152,14.999065339923408,14.796240139384972,59.8865493152752,53.96559739867294,6.47544875391759e-05,0.0914954170584678,0,0,0
5013,174961.47935030874,2010-10-24 13:59:45,1470.7451608377803,2,16,0.5501165986061096,3.887051820755005,15.003652111039893,14.796240139384972,59.90437549680256,53.96559739867294,0.0,0.0914954170584678,0,0,0
5014,174991.49455042288,2010-10-24 14:00:15,1500.7603609368734,2,16,0.5501165986061096,3.888670682907105,15.008238796829565,14.796240139384972,59.922207971847,53.96559739867294,6.47544875391759e-05,0.0914954170584678,0,0,0
5015,175021.5097492588,2010-10-24 14:00:45,1530.7755597627934,2,16,0.5501165986061096,3.889965772628784,15.012825598990114,14.796240139384972,59.94004733545479,53.96559739867294,3.237724376958795e-05,0.0914954170584678,0,0,0
5016,175051.5249740645,2010-10-24 14:01:15,1560.790784588513,2,16,0.5501165986061096,3.891260862350464,15.017412331146843,14.796240139384972,59.9578925829051,53.96559739867294,3.237724376958795e-05,0.0914954170584678,0,0,0
5017,175081.54018479507,2010-10-24 14:01:45,1590.805995319103,2,16,0.550297200679779,3.8927178382873535,15.02199907407038,14.796240139384972,59.97574395453111,53.96559739867294,6.47544875391759e-05,0.0914954170584678,0,0,0
5018,175111.55799848304,2010-10-24 14:02:15,1620.8238091023013,2,16,0.5499359965324402,3.893689155578613,15.026586228163128,14.796240139384972,59.993602907814,53.96559739867294,0.0,0.0914954170584678,0,0,0
5019,175141.5708150717,2010-10-24 14:02:45,1650.836625610753,2,16,0.550297200679779,3.894984245300293,15.031172613563232,14.796240139384972,60.01146464010482,53.96559739867294,0.0,0.0914954170584678,0,0,0
5020,175171.5858094831,2010-10-24 14:03:15,1680.8516199821092,2,16,0.5499359965324402,3.8962793350219727,15.035759289133482,14.796240139384972,60.02933299774052,53.96559739867294,0.0,0.0914954170584678,0,0,0
5021,175201.60099312122,2010-10-24 14:03:45,1710.8668036201764,2,16,0.550297200679779,3.897574424743652,15.040345994248533,14.796240139384972,60.04720747062408,53.96559739867294,3.237724376958795e-05,0.0914954170584678,0,0,0
5022,175231.61637342445,2010-10-24 14:04:15,1740.8821839384311,2,16,0.5501165986061096,3.898869514465332,15.044932743402718,14.796240139384972,60.06508796207297,53.96559739867294,3.237724376958795e-05,0.0914954170584678,0,0,0
5023,175261.63136526447,2010-10-24 14:04:45,1770.8971757684535,2,16,0.5499359965324402,3.900164604187012,15.049518808410532,14.796240139384972,60.08297153836077,53.96559739867294,3.237724376958795e-05,0.0914954170584678,0,0,0
5024,175291.6468238428,2010-10-24 14:05:15,1800.9126344921187,2,16,0.5499359965324402,3.9014596939086914,15.054104603177215,14.796240139384972,60.1008598037603,53.96559739867294,3.237724376958795e-05,0.0914954170584678,0,0,0
5025,175321.66177760795,2010-10-24 14:05:45,1830.927588152009,2,16,0.5501165986061096,3.902754783630371,15.058690534748347,14.796240139384972,60.11875457567854,53.96559739867294,3.237724376958795e-05,0.0914954170584678,0,0,0
5026,175351.67685681072,2010-10-24 14:06:15,1860.9426673347416,2,16,0.5501165986061096,3.904049873352051,15.063276387026836,14.796240139384972,60.13665491268688,53.96559739867294,3.237724376958795e-05,0.0914954170584678,0,0,0
5027,175381.69206847865,2010-10-24 14:06:45,1890.9578790277303,2,16,0.5501165986061096,3.905183076858521,15.067862296944073,14.796240139384972,60.15456146639877,53.96559739867294,0.0,0.0914954170584678,0,0,0
5028,175411.70733172513,2010-10-24 14:07:15,1920.9731422792188,2,16,0.5501165986061096,3.90680193901062,15.072448097365232,14.796240139384972,60.17247345359261,53.96559739867294,9.713172767078504e-05,0.0914954170584678,0,0,0
5029,175441.72248032084,2010-10-24 14:07:45,1950.9882908448749,2,16,0.5501165986061096,3.90793514251709,15.077033862602924,14.796240139384972,60.19039142258558,53.96559739867294,3.237724376958795e-05,0.0914954170584678,0,0,0
5030,175471.7376840139,2010-10-24 14:08:15,1981.0034945128627,2,16,0.5501165986061096,3.9092302322387695,15.08161969182052,14.796240139384972,60.208315701163485,53.96559739867294,0.0,0.0914954170584678,0,0,0
5031,175501.75291266915,2010-10-24 14:08:45,2011.0187231681268,2,16,0.5499359965324402,3.910525321960449,15.086205463120264,14.796240139384972,60.22624586336762,53.96559739867294,0.0,0.0914954170584678,0,0,0
5032,175531.76811909906,2010-10-24 14:09:15,2041.0339296230609,2,16,0.5501165986061096,3.911982297897339,15.090791282947592,14.796240139384972,60.24418236295339,53.96559739867294,6.47544875391759e-05,0.0914954170584678,0,0,0
5033,175561.78330742376,2010-10-24 14:09:45,2071.049117942796,2,16,0.5501165986061096,3.9132773876190186,15.095377043932016,14.796240139384972,60.262124878710665,53.96559739867294,3.237724376958795e-05,0.0914954170584678,0,0,0
5034,175591.7986477975,2010-10-24 14:10:15,2101.064458291434,2,16,0.5499359965324402,3.914734125137329,15.099962905426056,14.796240139384972,60.28007406290296,53.96559739867294,6.47544875391759e-05,0.0914954170584678,0,0,0
5035,175621.81374604773,2010-10-24 14:10:45,2131.0795565817884,2,16,0.5501165986061096,3.9161911010742183,15.104548751022003,14.796240139384972,60.29802941155116,53.96559739867294,6.47544875391759e-05,0.0914954170584678,0,0,0
5036,175651.8291737892,2010-10-24 14:11:15,2161.094984323236,2,16,0.5499359965324402,3.917324304580689,15.10913458543927,14.796240139384972,60.31599107892082,53.96559739867294,0.0,0.0914954170584678,0,0,0
5037,175681.84413334375,2010-10-24 14:11:45,2191.109943847744,2,16,0.5501165986061096,3.918943166732788,15.113720376282936,14.796240139384972,60.33395896046342,53.96559739867294,6.47544875391759e-05,0.0914954170584678,0,0,0
5038,175711.85937038492,2010-10-24 14:12:15,2221.125180878883,2,16,0.5501165986061096,3.9204001426696777,15.118306173022582,14.796240139384972,60.35193331796184,53.96559739867294,6.47544875391759e-05,0.0914954170584678,0,0,0
5039,175741.87460988222,2010-10-24 14:12:45,2251.1404204062437,2,16,0.5499359965324402,3.921695232391357,15.12289202173328,14.796240139384972,60.36991434941382,53.96559739867294,3.237724376958795e-05,0.0914954170584678,0,0,0
5040,175771.88991500306,2010-10-24 14:13:15,2281.155725517058,2,16,0.5501165986061096,3.923152208328247,15.127477783894305,14.796240139384972,60.38790166185087,53.96559739867294,3.237724376958795e-05,0.0914954170584678,0,0,0
5041,175801.90499220084,2010-10-24 14:13:45,2311.170802719856,2,16,0.5501165986061096,3.9246091842651367,15.132063587156344,14.796240139384972,60.40589573353171,53.96559739867294,6.47544875391759e-05,0.0914954170584678,0,0,0
5042,175831.9203058279,2010-10-24 14:14:15,2341.1861163218327,2,16,0.5499359965324402,3.925904273986816,15.136649363365484,14.796240139384972,60.423896348339525,53.96559739867294,3.237724376958795e-05,0.0914954170584678,0,0,0
5043,175861.93538479006,2010-10-24 14:14:45,2371.201195289028,2,16,0.5497553944587708,3.927523136138916,15.141235147199502,14.796240139384972,60.441903612938205,53.96559739867294,6.47544875391759e-05,0.0914954170584678,0,0,0
5044,175891.95060554563,2010-10-24 14:15:15,2401.216416039591,2,16,0.5499359965324402,3.9289801120758057,15.145820943115378,14.796240139384972,60.45991774067038,53.96559739867294,3.237724376958795e-05,0.0914954170584678,0,0,0
5045,175921.9658375693,2010-10-24 14:15:45,2431.2316481885623,2,16,0.5501165986061096,3.930598974227905,15.150406755808216,14.796240139384972,60.477938789232894,53.96559739867294,6.47544875391759e-05,0.0914954170584678,0,0,0
5046,175951.9810121949,2010-10-24 14:16:15,2461.2468226988804,2,16,0.5501165986061096,3.932055950164795,15.154992618373392,14.796240139384972,60.49596690896343,53.96559739867294,3.237724376958795e-05,0.0914954170584678,0,0,0
5047,175981.99634709494,2010-10-24 14:16:46,2491.262157608964,2,16,0.5501165986061096,3.9336748123168954,15.159578482778326,14.796240139384972,60.514001989448126,53.96559739867294,3.237724376958795e-05,0.0914954170584678,0,0,0
5048,176012.01144996172,2010-10-24 14:17:16,2521.277260490762,2,16,0.5497553944587708,3.934808015823364,15.164164276909164,14.796240139384972,60.53204377008491,53.96559739867294,0.0,0.0914954170584678,0,0,0
5049,176042.02663542435,2010-10-24 14:17:46,2551.2924459182886,2,16,0.5501165986061096,3.936588764190674,15.168750106896276,14.796240139384972,60.55009271241028,53.96559739867294,6.47544875391759e-05,0.0914954170584678,0,0,0
5050,176072.04184371885,2010-10-24 14:18:16,2581.30765421782,2,16,0.5501165986061096,3.938207626342773,15.17333593134722,14.796240139384972,60.56814874579771,53.96559739867294,6.47544875391759e-05,0.0914954170584678,0,0,0
5051,176102.0571643233,2010-10-24 14:18:46,2611.3229748222493,2,16,0.5501165986061096,3.939664602279663,15.177921718041404,14.796240139384972,60.5862118222287,53.96559739867294,6.47544875391759e-05,0.0914954170584678,0,0,0
5052,176132.07228734528,2010-10-24 14:19:16,2641.3380978442424,2,16,0.5501165986061096,3.9412834644317623,15.182507418348008,14.796240139384972,60.60428178595787,53.96559739867294,3.237724376958795e-05,0.0914954170584678,0,0,0
5053,176162.08746508366,2010-10-24 14:19:46,2671.3532756076684,2,16,0.5499359965324402,3.9429023265838623,15.187093221019005,14.796240139384972,60.62235937288261,53.96559739867294,3.237724376958795e-05,0.0914954170584678,0,0,0
5054,176192.10267111252,2010-10-24 14:20:16,2701.3684816265154,2,16,0.5501165986061096,3.944521188735962,15.191679010841725,14.796240139384972,60.64044427979246,53.96559739867294,6.47544875391759e-05,0.0914954170584678,0,0,0
5055,176222.1178852867,2010-10-24 14:20:46,2731.3836958107127,2,16,0.5499359965324402,3.9461400508880615,15.1962648265355,14.796240139384972,60.65853673676775,53.96559739867294,3.237724376958795e-05,0.0914954170584678,0,0,0
5056,176252.13329043685,2010-10-24 14:21:16,2761.399101056094,2,16,0.5499359965324402,3.947597026824951,15.200850686402118,14.796240139384972,60.67663673001886,53.96559739867294,3.237724376958795e-05,0.0914954170584678,0,0,0
5057,176282.14830408123,2010-10-24 14:21:46,2791.414114585197,2,16,0.5501165986061096,3.9493777751922607,15.20543646322926,14.796240139384972,60.69474395173906,53.96559739867294,6.47544875391759e-05,0.0914954170584678,0,0,0
5058,176312.1635110324,2010-10-24 14:22:16,2821.429321536368,2,16,0.5497553944587708,3.95099663734436,15.21002232776571,14.796240139384972,60.71285915809604,53.96559739867294,6.47544875391759e-05,0.0914954170584678,0,0,0
5059,176342.1787376125,2010-10-24 14:22:46,2851.4445481164594,2,16,0.5501165986061096,3.95293927192688,15.214608160293356,14.796240139384972,60.73098184367592,53.96559739867294,6.47544875391759e-05,0.0914954170584678,0,0,0
5060,176372.19393843837,2010-10-24 14:23:16,2881.459748982464,2,16,0.5499359965324402,3.9543962478637695,15.219194048123788,14.796240139384972,60.74911254664472,53.96559739867294,3.237724376958795e-05,0.0914954170584678,0,0,0
5061,176402.20914598103,2010-10-24 14:23:46,2911.4749565852585,2,16,0.5501165986061096,3.956176996231079,15.223779935232857,14.796240139384972,60.76725103136389,53.96559739867294,3.237724376958795e-05,0.0914954170584678,0,0,0
5062,176432.22451216404,2010-10-24 14:24:16,2941.490322688084,2,16,0.5499359965324402,3.9577958583831783,15.228365860375932,14.796240139384972,60.785397448715415,53.96559739867294,3.237724376958795e-05,0.0914954170584678,0,0,0
5063,176462.2395445702,2010-10-24 14:24:46,2971.5053550992475,2,16,0.5501165986061096,3.9594147205352783,15.232951678591776,14.796240139384972,60.803551349989846,53.96559739867294,3.237724376958795e-05,0.0914954170584678,0,0,0
5064,176492.25476644858,2010-10-24 14:25:16,3001.5205769525583,2,16,0.5499359965324402,3.961357355117798,15.237537528133384,14.796240139384972,60.821713325045245,53.96559739867294,6.47544875391759e-05,0.0914954170584678,0,0,0
5065,176522.2700169032,2010-10-24 14:25:46,3031.535827432216,2,16,0.5501165986061096,3.9631381034851074,15.242123441725584,14.796240139384972,60.83988358803007,53.96559739867294,6.47544875391759e-05,0.0914954170584678,0,0,0
5066,176552.28518393487,2010-10-24 14:26:16,3061.5509944388323,2,16,0.5501165986061096,3.964918851852417,15.246709328924489,14.796240139384972,60.85806184038047,53.96559739867294,3.237724376958795e-05,0.0914954170584678,0,0,0
5067,176582.30038433473,2010-10-24 14:26:46,3091.5661948336624,2,16,0.5501165986061096,3.9665377140045166,15.251295232038322,14.796240139384972,60.876248278226,53.96559739867294,0.0,0.0914954170584678,0,0,0
5068,176612.3156072206,2010-10-24 14:27:16,3121.581417749622,2,16,0.5497553944587708,3.968480348587036,15.255881135481951,14.796240139384972,60.894442896782046,53.96559739867294,9.713172767078504e-05,0.0914954170584678,0,0,0
5069,176642.33078497398,2010-10-24 14:27:46,3151.596595472948,2,16,0.5499359965324402,3.970099210739136,15.260466967894008,14.796240139384972,60.91264553441304,53.96559739867294,3.237724376958795e-05,0.0914954170584678,0,0,0
5070,176672.346530728,2010-10-24 14:28:16,3181.6123412821185,2,16,0.5501165986061096,3.972203731536865,15.2650528431989,14.796240139384972,60.93085672172136,53.96559739867294,9.713172767078504e-05,0.0914954170584678,0,0,0
5071,176702.36122374833,2010-10-24 14:28:46,3211.627034267328,2,16,0.5497553944587708,3.973822593688965,15.269638587685934,14.796240139384972,60.94907580005539,53.96559739867294,0.0,0.0914954170584678,0,0,0
5072,176732.37644289486,2010-10-24 14:29:16,3241.642253423918,2,16,0.5499359965324402,3.975765228271485,15.27422447855778,14.796240139384972,60.96730401267831,53.96559739867294,3.237724376958795e-05,0.0914954170584678,0,0,0
5073,176762.39166644742,2010-10-24 14:29:46,3271.657476971452,2,16,0.5499359965324402,3.977545976638794,15.27881034266636,14.796240139384972,60.9855407329345,53.96559739867294,3.237724376958795e-05,0.0914954170584678,0,0,0
5074,176792.40719243375,2010-10-24 14:30:16,3301.673003052994,2,16,0.5501165986061096,3.979650497436523,15.283396220998002,14.796240139384972,61.00378575200873,53.96559739867294,6.47544875391759e-05,0.0914954170584678,0,0,0
5075,176822.42204853045,2010-10-24 14:30:46,3331.6878590595024,2,16,0.5499359965324402,3.981593132019043,15.287981968625886,14.796240139384972,61.022039456380384,53.96559739867294,6.47544875391759e-05,0.0914954170584678,0,0,0
5076,176852.43727073463,2010-10-24 14:31:16,3361.7030812586754,2,16,0.5501165986061096,3.9835357666015625,15.2925678166439,14.796240139384972,61.04030246241713,53.96559739867294,9.713172767078504e-05,0.0914954170584678,0,0,0
5077,176882.45247396655,2010-10-24 14:31:46,3391.7182844605018,2,16,0.5501165986061096,3.985478401184082,15.29715357412644,14.796240139384972,61.05857403293358,53.96559739867294,6.47544875391759e-05,0.0914954170584678,0,0,0
5078,176912.46767264212,2010-10-24 14:32:16,3421.733483166122,2,16,0.5497553944587708,3.987259149551392,15.301739405503792,14.796240139384972,61.07685494998509,53.96559739867294,3.237724376958795e-05,0.0914954170584678,0,0,0
5079,176942.4828880794,2010-10-24 14:32:46,3451.7486986034423,2,16,0.5501165986061096,3.989525556564331,15.30632519142943,14.796240139384972,61.095144774448514,53.96559739867294,9.713172767078504e-05,0.0914954170584678,0,0,0
5080,176972.49811328106,2010-10-24 14:33:16,3481.763923805099,2,16,0.5499359965324402,3.9913063049316406,15.31091097588038,14.796240139384972,61.11344383673952,53.96559739867294,6.47544875391759e-05,0.0914954170584678,0,0,0
5081,177002.5132985131,2010-10-24 14:33:46,3511.779109007064,2,16,0.5499359965324402,3.99341082572937,15.315496766758836,14.796240139384972,61.1317522386035,53.96559739867294,6.47544875391759e-05,0.0914954170584678,0,0,0
5082,177032.53127910706,2010-10-24 14:34:16,3541.7970896461184,2,16,0.5499359965324402,3.995353221893311,15.320083016374188,14.796240139384972,61.15007185363629,53.96559739867294,6.47544875391759e-05,0.0914954170584678,0,0,0
5083,177062.5439636466,2010-10-24 14:34:46,3571.809774175638,2,16,0.5499359965324402,3.99745774269104,15.324668419853277,14.796240139384972,61.16839763276428,53.96559739867294,0.0,0.0914954170584678,0,0,0
5084,177092.5589492511,2010-10-24 14:35:16,3601.824759780144,2,16,0.5501165986061096,3.9995622634887695,15.32925424020106,14.796240139384972,61.18673466023564,53.96559739867294,3.237724376958795e-05,0.0914954170584678,0,0,0
5085,177122.5741250747,2010-10-24 14:35:46,3631.8399355786737,2,16,0.5501165986061096,4.001828670501709,15.333839994035968,14.796240139384972,61.20508123546677,53.96559739867294,6.47544875391759e-05,0.0914954170584678,0,0,0
5086,177152.5896144247,2010-10-24 14:36:16,3661.8554249687686,2,16,0.5501165986061096,4.004095077514648,15.338425733408371,14.796240139384972,61.22343763257098,53.96559739867294,9.70840483205393e-05,0.0914954170584678,0,0,0
5087,177182.60456178887,2010-10-24 14:36:46,3691.8703723129183,2,16,0.5499359965324402,4.006199836730957,15.343011436792397,14.796240139384972,61.2418039330688,53.96559739867294,3.24249267578125e-05,0.0914954170584678,0,0,0
5088,177212.61996337015,2010-10-24 14:37:16,3721.885773899179,2,16,0.5501165986061096,4.0084662437438965,15.347597275831443,14.796240139384972,61.26018088993976,53.96559739867294,9.71794142969884e-05,0.0914954170584678,0,0,0
5089,177242.63496810233,2010-10-24 14:37:46,3751.9007786213338,2,16,0.5499359965324402,4.010570526123047,15.352182943847568,14.796240139384972,61.27856730193131,53.96559739867294,0.0,0.0914954170584678,0,0,0
5090,177272.65016317889,2010-10-24 14:38:16,3781.9159736979086,2,16,0.5501165986061096,4.012999057769775,15.356768605707751,14.796240139384972,61.296964032872665,53.96559739867294,6.47544875391759e-05,0.0914954170584678,0,0,0
5091,177302.66550718163,2010-10-24 14:38:46,3811.931317720704,2,16,0.5499359965324402,4.015265464782715,15.361354344401448,14.796240139384972,61.31537150414532,53.96559739867294,6.47544875391759e-05,0.0914954170584678,0,0,0
5092,177332.6805882691,2010-10-24 14:39:16,3841.946398778108,2,16,0.5499359965324402,4.017531871795654,15.365940015916358,14.796240139384972,61.33378919844923,53.96559739867294,6.47544875391759e-05,0.0914954170584678,0,0,0
5093,177362.69591628204,2010-10-24 14:39:46,3871.9617268762154,2,16,0.5499359965324402,4.019798278808594,15.370526698543358,14.796240139384972,61.352221456647705,53.96559739867294,6.47544875391759e-05,0.0914954170584678,0,0,0
5094,177392.7110704767,2010-10-24 14:40:16,3901.976880995712,2,16,0.5501165986061096,4.022064685821533,15.375113395105204,14.796240139384972,61.37066445015693,53.96559739867294,3.24249267578125e-05,0.0914954170584678,0,0,0
5095,177422.72623279665,2010-10-24 14:40:46,3931.9920433206607,2,16,0.5501165986061096,4.024492740631104,15.379699102306637,14.796240139384972,61.38911413434762,53.96559739867294,3.23295607813634e-05,0.0914954170584678,0,0,0
5096,177452.7414562389,2010-10-24 14:41:16,3962.007266762933,2,16,0.5501165986061096,4.026921272277832,15.384284848810417,14.796240139384972,61.40757474101983,53.96559739867294,9.71794142969884e-05,0.0914954170584678,0,0,0
5097,177482.75664725536,2010-10-24 14:41:46,3992.0224577493136,2,16,0.5501165986061096,4.029349327087402,15.38887051453868,14.796240139384972,61.42604592405404,53.96559739867294,9.70840483205393e-05,0.0914954170584678,0,0,0
5098,177512.77198971927,2010-10-24 14:42:16,4022.037800218236,2,16,0.5501165986061096,4.031615734100342,15.393456187151305,14.796240139384972,61.44452803877343,53.96559739867294,6.47544875391759e-05,0.0914954170584678,0,0,0
5099,177542.78721577305,2010-10-24 14:42:46,4052.0530262970783,2,16,0.5499359965324402,4.03404426574707,15.398041884335456,14.796240139384972,61.46302142938215,53.96559739867294,6.47544875391759e-05,0.0914954170584678,0,0,0
5100,177572.8024199523,2010-10-24 14:43:16,4082.068230551528,2,16,0.5501165986061096,4.036472320556641,15.40262765631582,14.796240139384972,61.481526213277725,53.96559739867294,6.47544875391759e-05,0.0914954170584678,0,0,0
5101,177602.81750004232,2010-10-24 14:43:46,4112.083310541272,2,16,0.5501165986061096,4.0390625,15.407213308073676,14.796240139384972,61.500041712099126,53.96559739867294,9.71794142969884e-05,0.0914954170584678,0,0,0
5102,177632.83281397008,2010-10-24 14:44:16,4142.098624474073,2,16,0.5499359965324402,4.04132890701294,15.411799028052354,14.796240139384972,61.51856875138149,53.96559739867294,3.24249267578125e-05,0.0914954170584678,0,0,0
5103,177662.84790447605,2010-10-24 14:44:46,4172.113714975015,2,16,0.5501165986061096,4.043919086456299,15.416384689428565,14.796240139384972,61.53710702273244,53.96559739867294,6.47544875391759e-05,0.0914954170584678,0,0,0
5104,177692.86326072432,2010-10-24 14:45:16,4202.129071223279,2,16,0.5499359965324402,4.046347141265869,15.420970480225206,14.796240139384972,61.55565734472174,53.96559739867294,6.47544875391759e-05,0.0914954170584678,0,0,0
5105,177722.87831458898,2010-10-24 14:45:46,4232.144125082899,2,16,0.5501165986061096,4.049099445343018,15.425556156170751,14.796240139384972,61.57421886556902,53.96559739867294,9.71794142969884e-05,0.0914954170584678,0,0,0
5106,177752.8936958646,2010-10-24 14:46:16,4262.159506473828,2,16,0.5499359965324402,4.051527500152588,15.430141949219228,14.796240139384972,61.592792660863175,53.96559739867294,6.47544875391759e-05,0.0914954170584678,0,0,0
5107,177782.9087498846,2010-10-24 14:46:46,4292.174560378559,2,16,0.5499359965324402,4.054279804229736,15.434727630529911,14.796240139384972,61.61137796977084,53.96559739867294,9.71794142969884e-05,0.0914954170584678,0,0,0
5108,177812.92397881555,2010-10-24 14:47:16,4322.189789314522,2,16,0.550297200679779,4.057031631469727,15.4393134341694,14.796240139384972,61.62997579901412,53.96559739867294,0.0001295089750783,0.0914954170584678,0,0,0
5109,177842.93916947613,2010-10-24 14:47:46,4352.204980005166,2,16,0.5499359965324402,4.059621810913086,15.443899166508592,14.796240139384972,61.64858547589044,53.96559739867294,9.70840483205393e-05,0.0914954170584678,0,0,0
5110,177872.9543692845,2010-10-24 14:48:16,4382.220179788473,2,16,0.5499359965324402,4.062211990356445,15.448484887511905,14.796240139384972,61.66720709036171,53.96559739867294,9.70840483205393e-05,0.0914954170584678,0,0,0
5111,177902.96964697196,2010-10-24 14:48:47,4412.235457506015,2,16,0.5501165986061096,4.064964294433594,15.453070593298913,14.796240139384972,61.685840997984336,53.96559739867294,6.47544875391759e-05,0.0914954170584678,0,0,0
5112,177932.9847891417,2010-10-24 14:49:17,4442.250599650668,2,16,0.5499359965324402,4.067392349243164,15.457656346779936,14.796240139384972,61.70448759951041,53.96559739867294,3.23295607813634e-05,0.0914954170584678,0,0,0
5113,177962.9999868097,2010-10-24 14:49:47,4472.26579733374,2,16,0.5501165986061096,4.070306301116943,15.462242048880285,14.796240139384972,61.72314658020802,53.96559739867294,6.47544875391759e-05,0.0914954170584678,0,0,0
5114,177993.01469436623,2010-10-24 14:50:17,4502.2805048601895,2,16,0.5501165986061096,4.073220252990723,15.46679918155606,14.796240139384972,61.741701859226765,53.96559739867294,0.0001295089750783,0.0914954170584678,0,0,0
5115,178023.0147782611,2010-10-24 14:50:47,4532.280588760064,2,16,0.5501165986061096,4.075972557067871,15.471411125777257,14.796240139384972,61.76049320845517,53.96559739867294,9.71794142969884e-05,0.0914954170584678,0,0,0
5116,178053.02998723733,2010-10-24 14:51:17,4562.295797741294,2,16,0.5499359965324402,4.078724384307861,15.475996841078354,14.796240139384972,61.77919065073759,53.96559739867294,9.70840483205393e-05,0.0914954170584678,0,0,0
5117,178083.0453457061,2010-10-24 14:51:47,4592.311156235156,2,16,0.5501165986061096,4.08180046081543,15.480582570687655,14.796240139384972,61.7979011817142,53.96559739867294,0.0001295089750783,0.0914954170584678,0,0,0
5118,178113.06040394667,2010-10-24 14:52:17,4622.326214450631,2,16,0.5499359965324402,4.084390640258789,15.485168303151696,14.796240139384972,61.81662482197604,53.96559739867294,6.47544875391759e-05,0.0914954170584678,0,0,0
5119,178143.07560725877,2010-10-24 14:52:47,4652.341417757719,2,16,0.5499359965324402,4.087304592132568,15.489754065748947,14.796240139384972,61.83536187831058,53.96559739867294,6.47544875391759e-05,0.0914954170584678,0,0,0
5120,178173.09084990388,2010-10-24 14:53:17,4682.35666040285,2,16,0.5501165986061096,4.0903801918029785,15.494339760484726,14.796240139384972,61.85411208581709,53.96559739867294,9.70840483205393e-05,0.0914954170584678,0,0,0
5121,178203.10624650773,2010-10-24 14:53:47,4712.372057116969,2,16,0.5501165986061096,4.093294143676758,15.498925541578688,14.796240139384972,61.872876150016765,53.96559739867294,6.47544875391759e-05,0.0914954170584678,0,0,0
5122,178233.12136383555,2010-10-24 14:54:17,4742.387174339508,2,16,0.5501165986061096,4.096370220184326,15.50351125410668,14.796240139384972,61.891653501956185,53.96559739867294,9.71794142969884e-05,0.0914954170584678,0,0,0
5123,178263.13645166985,2010-10-24 14:54:47,4772.402262193852,2,16,0.5499359965324402,4.0992841720581055,15.508097019799903,14.796240139384972,61.91044475906186,53.96559739867294,9.71794142969884e-05,0.0914954170584678,0,0,0
5124,178293.1517224902,2010-10-24 14:55:17,4802.417533119467,2,16,0.5499359965324402,4.102198123931885,15.512682822053309,14.796240139384972,61.92925010123077,53.96559739867294,6.47544875391759e-05,0.0914954170584678,0,0,0
5125,178323.16687976252,2010-10-24 14:55:47,4832.43269028656,2,16,0.5497553944587708,4.105273723602295,15.51726854117552,14.796240139384972,61.94806904371036,53.96559739867294,9.70840483205393e-05,0.0914954170584678,0,0,0
5126,178353.18209195175,2010-10-24 14:56:17,4862.447902475786,2,16,0.5499359965324402,4.108511447906494,15.521854403985332,14.796240139384972,61.96690272987408,53.96559739867294,0.0001295089750783,0.0914954170584678,0,0,0
5127,178383.19730868732,2010-10-24 14:56:47,4892.463119211342,2,16,0.5501165986061096,4.111587524414063,15.5264401005962,14.796240139384972,61.98574990157737,53.96559739867294,9.71794142969884e-05,0.0914954170584678,0,0,0
5128,178413.21249047076,2010-10-24 14:57:17,4922.4783009998,2,16,0.5501165986061096,4.114824771881104,15.531025904790416,14.796240139384972,62.00461193346051,53.96559739867294,9.70840483205393e-05,0.0914954170584678,0,0,0
5129,178443.22770271514,2010-10-24 14:57:47,4952.493513214087,2,16,0.5501165986061096,4.117900848388672,15.535611629403736,14.796240139384972,62.02348817813078,53.96559739867294,6.47544875391759e-05,0.0914954170584678,0,0,0
5130,178473.24289880923,2010-10-24 14:58:17,4982.508709303186,2,16,0.5499359965324402,4.121300220489502,15.540197403403488,14.796240139384972,62.042379259178354,53.96559739867294,0.0001295089750783,0.0914954170584678,0,0,0
5131,178503.2581130536,2010-10-24 14:58:47,5012.523923552547,2,16,0.5501165986061096,4.124214172363281,15.544783185771143,14.796240139384972,62.06128515077659,53.96559739867294,6.47544875391759e-05,0.0914954170584678,0,0,0
5132,178533.27331781428,2010-10-24 14:59:17,5042.539128338321,2,16,0.5499359965324402,4.1276140213012695,15.549368937348213,14.796240139384972,62.08020573100951,53.96559739867294,6.47544875391759e-05,0.0914954170584678,0,0,0
5133,178563.28854241947,2010-10-24 14:59:47,5072.55435292344,2,16,0.5499359965324402,4.130851745605469,15.553954730118429,14.796240139384972,62.09914138148768,53.96559739867294,0.0001295089750783,0.0914954170584678,0,0,0
5134,178593.30375253854,2010-10-24 15:00:17,5102.569563062556,2,16,0.5501165986061096,4.134089469909668,15.558540542164083,14.796240139384972,62.11809217207775,53.96559739867294,9.71794142969884e-05,0.0914954170584678,0,0,0
5135,178623.3189455199,2010-10-24 15:00:47,5132.584756073984,2,16,0.5501165986061096,4.137327194213867,15.563126378720368,14.796240139384972,62.13705821361609,53.96559739867294,9.71794142969884e-05,0.0914954170584678,0,0,0
5136,178653.33414347362,2010-10-24 15:01:17,5162.59995396758,2,16,0.5501165986061096,4.140888690948486,15.56771221200372,14.796240139384972,62.156039460259976,53.96559739867294,9.71794142969884e-05,0.0914954170584678,0,0,0
5137,178683.34937958748,2010-10-24 15:01:47,5192.615190126546,2,16,0.5501165986061096,4.144288063049316,15.572298095468048,14.796240139384972,62.17503618452619,53.96559739867294,0.0001618385285837,0.0914954170584678,0,0,0
5138,178713.3645625238,2010-10-24 15:02:17,5222.630373017752,2,16,0.5499359965324402,4.147525787353516,15.576883853098003,14.796240139384972,62.19404824553632,53.96559739867294,6.47544875391759e-05,0.0914954170584678,0,0,0
5139,178743.37990460676,2010-10-24 15:02:47,5252.64571523605,2,16,0.5501165986061096,4.151249408721924,15.581469565722594,14.796240139384972,62.2130758021061,53.96559739867294,0.0001295089750783,0.0914954170584678,0,0,0
5140,178773.3949841855,2010-10-24 15:03:17,5282.660794714519,2,16,0.5501165986061096,4.154487133026123,15.58605528572918,14.796240139384972,62.232119208526136,53.96559739867294,6.47544875391759e-05,0.0914954170584678,0,0,0
5141,178803.41022311637,2010-10-24 15:03:47,5312.676033640381,2,16,0.5499359965324402,4.158048629760742,15.590640961632696,14.796240139384972,62.25117823910209,53.96559739867294,0.0001295089750783,0.0914954170584678,0,0,0
5142,178833.42539817805,2010-10-24 15:04:17,5342.691208702073,2,16,0.5501165986061096,4.161448001861572,15.595226694820852,14.796240139384972,62.270253507676266,53.96559739867294,9.70840483205393e-05,0.0914954170584678,0,0,0
5143,178863.4406270288,2010-10-24 15:04:47,5372.706437557836,2,16,0.5501165986061096,4.1648478507995605,15.599812486472304,14.796240139384972,62.28934497357357,53.96559739867294,9.71794142969884e-05,0.0914954170584678,0,0,0
5144,178893.45581525328,2010-10-24 15:05:17,5402.721625772309,2,16,0.5499359965324402,4.16840934753418,15.604398171020824,14.796240139384972,62.30845213491595,53.96559739867294,6.47544875391759e-05,0.0914954170584678,0,0,0
5145,178923.47104038476,2010-10-24 15:05:47,5432.736850903792,2,16,0.5501165986061096,4.171970844268799,15.608983794624429,14.796240139384972,62.32757527264702,53.96559739867294,9.71794142969884e-05,0.0914954170584678,0,0,0
5146,178953.4862972604,2010-10-24 15:06:17,5462.752107909714,2,16,0.5499359965324402,4.175532341003418,15.61356955711582,14.796240139384972,62.34671531533688,53.96559739867294,6.47544875391759e-05,0.0914954170584678,0,0,0
5147,178983.50406825694,2010-10-24 15:06:47,5492.769878866175,2,16,0.5501165986061096,4.179255485534668,15.618155630438192,14.796240139384972,62.36587311772077,53.96559739867294,9.70840483205393e-05,0.0914954170584678,0,0,0
5148,179013.51692566733,2010-10-24 15:07:17,5522.782736206391,2,16,0.5499359965324402,4.182816982269287,15.62274102167342,14.796240139384972,62.38504466789336,53.96559739867294,6.47544875391759e-05,0.0914954170584678,0,0,0
5149,179043.5318883497,2010-10-24 15:07:47,5552.797698893782,2,16,0.5501165986061096,4.186540603637695,15.6273267608586,14.796240139384972,62.40423441345463,53.96559739867294,9.71794142969884e-05,0.0914954170584678,0,0,0
5150,179073.54709463925,2010-10-24 15:08:17,5582.81290527854,2,16,0.550297200679779,4.190263748168945,15.631912467220062,14.796240139384972,62.42344090077726,53.96559739867294,9.70840483205393e-05,0.0914954170584678,0,0,0
5151,179103.5622768788,2010-10-24 15:08:47,5612.828087402834,2,16,0.5499359965324402,4.1938252449035645,15.63649829267592,14.796240139384972,62.44266484858865,53.96559739867294,0.0001295089750783,0.0914954170584678,0,0,0
5152,179133.57749325346,2010-10-24 15:09:17,5642.843303782504,2,16,0.5501165986061096,4.197710514068604,15.64108407092552,14.796240139384972,62.461905620798426,53.96559739867294,6.47544875391759e-05,0.0914954170584678,0,0,0
5153,179151.81160613825,2010-10-24 15:09:35,5661.077416637235,2,16,0.5499359965324402,4.200138568878174,15.643869884627252,14.796240139384972,62.4736025999476,53.96559739867294,0.0001295089750783,0.0914954170584678,0,0,0
5154,179181.82275133053,2010-10-24 15:10:06,30.015350458835865,3,16,0.0,4.117577075958252,15.643869884627252,14.796240139384972,62.4736025999476,53.96559739867294,-0.0003237724304199,0.0914954170584678,0,0,0
5155,179211.8378545632,2010-10-24 15:10:36,60.03045371657053,3,16,0.0,4.107216358184815,15.643869884627252,14.796240139384972,62.4736025999476,53.96559739867294,-0.0001942634553415,0.0914954170584678,0,0,0
5156,179241.8531573783,2010-10-24 15:11:06,90.04575650158857,3,16,0.0,4.101388454437256,15.643869884627252,14.796240139384972,62.4736025999476,53.96559739867294,-9.71794142969884e-05,0.0914954170584678,0,0,0
5157,179271.8214888814,2010-10-24 15:11:36,120.01408800471944,3,16,0.0,4.097179412841797,15.643869884627252,14.796240139384972,62.4736025999476,53.96559739867294,-6.47544875391759e-05,0.0914954170584678,0,0,0
5158,179271.83456510998,2010-10-24 15:11:36,0.015742079104846,4,16,0.9888165593147278,4.199653148651123,15.643874208524071,14.796240139384972,62.4736207588145,53.96559739867294,0.0,0.0914954170584678,0,0,0
5159,179272.78773991487,2010-10-24 15:11:37,0.968916894028193,4,16,0.9386071562767028,4.199491024017334,15.644127910571363,14.796240139384972,62.47468620822941,53.96559739867294,-3.24249267578125e-05,0.0914954170584678,0,0,0
5160,179274.9282737137,2010-10-24 15:11:39,3.10945067784324,4,16,0.8882171511650085,4.199653148651123,15.64466989888684,14.796240139384972,62.47696235091061,53.96559739867294,0.0,0.0914954170584678,0,0,0
5161,179278.13121906403,2010-10-24 15:11:42,6.312396023165428,4,16,0.8381884098052979,4.199653148651123,15.645436701636212,14.796240139384972,62.48018262285829,53.96559739867294,-3.23295607813634e-05,0.0914954170584678,0,0,0
5162,179282.52191899426,2010-10-24 15:11:46,10.703095953376106,4,16,0.7881596684455872,4.199491024017334,15.646427231937812,14.796240139384972,62.48434246994488,53.96559739867294,-3.24249267578125e-05,0.0914954170584678,0,0,0
5163,179288.27171441863,2010-10-24 15:11:52,16.452891427866376,4,16,0.7381308674812317,4.199653148651123,15.647644541370056,14.796240139384972,62.48945471620368,53.96559739867294,0.0,0.0914954170584678,0,0,0
5164,179295.7874505556,2010-10-24 15:12:00,23.9686276651038,4,16,0.6879214644432068,4.199653148651123,15.649130825696858,14.796240139384972,62.49569658965922,53.96559739867294,0.0,0.0914954170584678,0,0,0
5165,179305.80272520165,2010-10-24 15:12:10,33.98390215575742,4,16,0.6378927230834961,4.199814796447754,15.650971607214458,14.796240139384972,62.50342721936837,53.96559739867294,3.23295607813634e-05,0.0914954170584678,0,0,0
5166,179319.72441669545,2010-10-24 15:12:24,47.90559365456985,4,16,0.5878639817237854,4.199491024017334,15.653336637440203,14.796240139384972,62.51335952620349,53.96559739867294,-3.24249267578125e-05,0.0914954170584678,0,0,0
5167,179341.1772342777,2010-10-24 15:12:45,69.35841126191431,4,16,0.5378351807594299,4.199653148651123,15.65668064995532,14.796240139384972,62.527403203786704,53.96559739867294,3.24249267578125e-05,0.0914954170584678,0,0,0
5168,179377.48921906677,2010-10-24 15:13:21,105.67039602085195,4,16,0.4878064095973968,4.199653148651123,15.66183054380558,14.796240139384972,62.54903093851476,53.96559739867294,0.0,0.0914954170584678,0,0,0
5169,179442.00408596077,2010-10-24 15:14:26,170.18526302014251,4,16,0.4375970363616943,4.199653148651123,15.670088728591658,14.796240139384972,62.58371246669035,53.96559739867294,3.24249267578125e-05,0.0914954170584678,0,0,0
5170,179538.2841092735,2010-10-24 15:16:02,266.465286257673,4,16,0.3875682651996612,4.199653148651123,15.681101696534355,14.796240139384972,62.62996309454085,53.96559739867294,0.0,0.0914954170584678,0,0,0
5171,179658.82916689286,2010-10-24 15:18:03,387.0103438920849,4,16,0.3375394940376282,4.199653148651123,15.693227145473848,14.796240139384972,62.68088585502698,53.96559739867294,3.24249267578125e-05,0.0914954170584678,0,0,0
5172,179800.84275308115,2010-10-24 15:20:25,529.0239300703291,4,16,0.2875107228755951,4.199653148651123,15.705535886628796,14.796240139384972,62.73257831722193,53.96559739867294,0.0,0.0914954170584678,0,0,0
5173,179972.2780723561,2010-10-24 15:23:16,700.4592493452913,4,16,0.237481951713562,4.199653148651123,15.718008059037285,14.796240139384972,62.784957130740885,53.96559739867294,0.0,0.0914954170584678,0,0,0
5174,180185.2596274592,2010-10-24 15:26:49,913.440804423332,4,16,0.1874531805515289,4.199653148651123,15.730529447048417,14.796240139384972,62.83754267239485,53.96559739867294,-3.23295607813634e-05,0.0914954170584678,0,0,0
5175,180471.7085311453,2010-10-24 15:31:36,1199.889708099417,4,16,0.1374244093894958,4.199653148651123,15.743368419656694,14.796240139384972,62.89146189477651,53.96559739867294,0.0,0.0914954170584678,0,0,0
5176,180917.71796267736,2010-10-24 15:39:02,1645.899139641491,4,16,0.0872150361537933,4.199491024017334,15.757070557595844,14.796240139384972,62.94900608204061,53.96559739867294,-3.24249267578125e-05,0.0914954170584678,0,0,0
5177,181527.80339398075,2010-10-24 15:49:12,2255.9845709549186,4,16,0.0498289167881011,4.199491024017334,15.768429549206516,14.796240139384972,62.99670989676413,53.96559739867294,-3.24249267578125e-05,0.0914954170584678,0,0,0
5178,181557.8158568034,2010-10-24 15:49:42,30.0152074373824,5,16,0.0,4.192044734954834,15.768429549206516,14.796240139384972,62.99670989676413,53.96559739867294,-6.47544875391759e-05,0.0914954170584678,0,0,0
5179,181587.8154366671,2010-10-24 15:50:12,60.01478733111756,5,16,0.0,4.190911293029785,15.768429549206516,14.796240139384972,62.99670989676413,53.96559739867294,-3.24249267578125e-05,0.0914954170584678,0,0,0
5180,181588.00117278827,2010-10-24 15:50:12,0.187519781995126,6,16,-1.9243103452026844e-05,4.190911293029785,15.768429549206516,14.796240140387322,62.99670989676413,53.96559740287371,0.0,0.0923051163554191,0,0,0
5181,181592.82936437728,2010-10-24 15:50:17,5.015711361007434,6,16,0.0001613661734154,4.190587520599365,15.768429996253072,14.796240140888354,62.9967117702952,53.96559740497344,-9.71794142969884e-05,0.0923051163554191,0,0,0
5182,181622.8453078049,2010-10-24 15:50:47,30.017815622782933,7,16,-1.099929690361023,4.0202836990356445,15.768429996253072,14.805410918842483,62.9967117702952,54.00265680930716,-0.0008742332574911,0.0923051163554191,0,0,0
5183,181652.85816482932,2010-10-24 15:51:17,60.030672562000674,7,16,-1.099929690361023,3.994381904602051,15.768429996253072,14.814580117425992,62.9967117702952,54.03939163078175,-0.0005827903514727,0.0923051163554191,0,0,0
5184,181682.873266844,2010-10-24 15:51:47,90.04577455658719,7,16,-1.0997490882873535,3.976412773132324,15.768429996253072,14.823749973043396,62.9967117702952,54.07593346541702,-0.0004209041653666,0.0923051163554191,0,0,0
5185,181712.8884849429,2010-10-24 15:52:17,120.0609926555415,7,16,-1.099929690361023,3.962490558624268,15.768429996253072,14.83291975712196,62.9967117702952,54.11233035845903,-0.0003561496851034,0.0923051163554191,0,0,0
5186,181742.90355392025,2010-10-24 15:52:47,150.07606173308864,7,16,-1.099929690361023,3.9505109786987305,15.768429996253072,14.842089456739473,62.9967117702952,54.14860847016059,-0.0002913951757363,0.0923051163554191,0,0,0
5187,181772.91881972307,2010-10-24 15:53:17,180.09132745573584,7,16,-1.0997490882873535,3.939826488494873,15.768429996253072,14.851259272181494,62.9967117702952,54.18478380846046,-0.0002590179501567,0.0923051163554191,0,0,0
5188,181802.9341812044,2010-10-24 15:53:47,210.1066889370431,7,16,-1.0997490882873535,3.9299514293670654,15.768429996253072,14.860429080206108,62.9967117702952,54.220865309047,-0.0002590179501567,0.0923051163554191,0,0,0
5189,181832.94916563097,2010-10-24 15:54:17,240.1216733285265,7,16,-1.099929690361023,3.920562028884888,15.768429996253072,14.86959880830241,62.9967117702952,54.25685860990451,-0.0002590179501567,0.0923051163554191,0,0,0
5190,181862.96437817105,2010-10-24 15:54:47,270.1368858736389,7,16,-1.0997490882873535,3.911658525466919,15.768429996253072,14.878768624332208,62.9967117702952,54.2927684848706,-0.0002266406954731,0.0923051163554191,0,0,0
5191,181892.9795996033,2010-10-24 15:55:17,300.15210741617574,7,16,-1.0997490882873535,3.902916669845581,15.768429996253072,14.887938421193288,62.9967117702952,54.32859724347296,-0.0001942634553415,0.0923051163554191,0,0,0
5192,181922.99495308968,2010-10-24 15:55:47,330.1674608023073,7,16,-1.099929690361023,3.894336700439453,15.768429996253072,14.89710830699139,62.9967117702952,54.3643476563701,-0.0002266406954731,0.0923051163554191,0,0,0
5193,181953.0101426024,2010-10-24 15:56:17,360.1826503049909,7,16,-1.0997490882873535,3.886242389678955,15.768429996253072,14.906278033931669,62.9967117702952,54.400020653277295,-0.0001618862152099,0.0923051163554191,0,0,0
5194,181983.0252372687,2010-10-24 15:56:47,390.1977449663006,7,16,-1.099929690361023,3.877824306488037,15.768429996253072,14.915447761236972,62.9967117702952,54.43561763886476,-0.0002590179501567,0.0923051163554191,0,0,0
5195,182013.04042656088,2010-10-24 15:57:17,420.21293425845954,7,16,-1.0997490882873535,3.869891881942749,15.768429996253072,14.924617561226688,62.9967117702952,54.47114066489144,-0.0001942634553415,0.0923051163554191,0,0,0
5196,182043.05564522624,2010-10-24 15:57:47,450.22815291881307,7,16,-1.099929690361023,3.861797571182251,15.768429996253072,14.933787446513817,62.9967117702952,54.50659040643512,-0.0002590179501567,0.0923051163554191,0,0,0
5197,182073.0709712843,2010-10-24 15:58:17,480.24347899688456,7,16,-1.099929690361023,3.854188919067383,15.768429996253072,14.94295733931554,62.9967117702952,54.541969071837,-0.0002590179501567,0.0923051163554191,0,0,0
5198,182103.0861694786,2010-10-24 15:58:47,510.25867717118047,7,16,-1.099929690361023,3.8464183807373047,15.768429996253072,14.952127224339003,62.9967117702952,54.57727694904448,-0.0002590179501567,0.0923051163554191,0,0,0
5199,182133.1014040336,2010-10-24 15:59:17,540.2739117762732,7,16,-1.099929690361023,3.8389716148376474,15.768429996253072,14.961297015606638,62.9967117702952,54.61251441758277,-0.0002266406954731,0.0923051163554191,0,0,0
5200,182163.1165119028,2010-10-24 15:59:47,570.2890196003887,7,16,-1.099929690361023,3.831686973571777,15.768429996253072,14.970466775554424,62.9967117702952,54.64768304021717,-0.0001942634553415,0.0923051163554191,0,0,0
5201,182193.1317329491,2010-10-24 16:00:17,600.3042406517011,7,16,-1.099929690361023,3.824402093887329,15.768429996253072,14.97963661705896,62.9967117702952,54.68278520582928,-0.0001618862152099,0.0923051163554191,0,0,0
5202,182223.1468637756,2010-10-24 16:00:47,630.3193714681206,7,16,-1.0997490882873535,3.817279100418091,15.768429996253072,14.988806527396394,62.9967117702952,54.717821717732086,-0.0002266406954731,0.0923051163554191,0,0,0
5203,182253.16205391983,2010-10-24 16:01:17,660.3345616424782,7,16,-1.0997490882873535,3.8103179931640634,15.768429996253072,14.997976338677454,62.9967117702952,54.752792970298856,-0.0001618862152099,0.0923051163554191,0,0,0
5204,182283.17734677007,2010-10-24 16:01:47,690.3498544676733,7,16,-1.099568486213684,3.803356885910034,15.768429996253072,15.007146197648009,62.9967117702952,54.78770025058258,-0.0001618862152099,0.0923051163554191,0,0,0
5205,182313.1925391048,2010-10-24 16:02:17,720.3650468074278,7,16,-1.0997490882873535,3.796557664871216,15.768429996253072,15.016316022313845,62.9967117702952,54.822545069992735,-0.0001618862152099,0.0923051163554191,0,0,0
5206,182343.2080109462,2010-10-24 16:02:47,750.3805187540485,7,16,-1.0997490882873535,3.7902441024780273,15.768429996253072,15.025485940847098,62.9967117702952,54.85732976902918,-0.0001295089750783,0.0923051163554191,0,0,0
5207,182373.2229726712,2010-10-24 16:03:17,780.3954803938277,7,16,-1.0997490882873535,3.783606767654419,15.768429996253072,15.034655677077222,62.9967117702952,54.89205395071138,-0.0001618862152099,0.0923051163554191,0,0,0
5208,182403.2384133799,2010-10-24 16:03:47,810.4109212078565,7,16,-1.0997490882873535,3.777131319046021,15.768429996253072,15.043825654786678,62.9967117702952,54.92671938372723,-0.0001942634553415,0.0923051163554191,0,0,0
5209,182433.2534390092,2010-10-24 16:04:17,840.425946827092,7,16,-1.0997490882873535,3.770817756652832,15.768429996253072,15.052995501186471,62.9967117702952,54.96132565640883,-0.0001618862152099,0.0923051163554191,0,0,0
5210,182463.2685896601,2010-10-24 16:04:47,870.4410973576452,7,16,-1.0997490882873535,3.7646660804748535,15.768429996253072,15.062165400445403,62.9967117702952,54.99587511399734,-0.0001295089750783,0.0923051163554191,0,0,0
5211,182493.2838034032,2010-10-24 16:05:18,900.4563111007434,7,16,-1.099929690361023,3.758514404296875,15.768429996253072,15.071335252397638,62.9967117702952,55.03036855027688,-0.0001942634553415,0.0923051163554191,0,0,0
5212,182523.29901982297,2010-10-24 16:05:48,930.4715275255252,7,16,-1.099929690361023,3.752686738967896,15.768429996253072,15.0805051999807,62.9967117702952,55.06480733575776,-0.0001618385285837,0.0923051163554191,0,0,0
5213,182553.3142485684,2010-10-24 16:06:18,960.4867562660014,7,16,-1.0997490882873535,3.747020721435547,15.768429996253072,15.0896751047059,62.9967117702952,55.0991927395848,-0.0001618862152099,0.0923051163554191,0,0,0
5214,182583.3294602463,2010-10-24 16:06:48,990.50196795899,7,16,-1.099929690361023,3.7413547039031982,15.768429996253072,15.098845042560024,62.9967117702952,55.13352599274485,-0.0001618862152099,0.0923051163554191,0,0,0
5215,182613.344640501,2010-10-24 16:07:18,1020.5171482336748,7,16,-1.0997490882873535,3.7356886863708496,15.768429996253072,15.108014959345896,62.9967117702952,55.1678075356798,-0.0001618862152099,0.0923051163554191,0,0,0
5216,182643.3598797577,2010-10-24 16:07:48,1050.5323874803355,7,16,-1.0997490882873535,3.730346441268921,15.768429996253072,15.117184891190458,62.9967117702952,55.20203897522556,-0.0001295089750783,0.0923051163554191,0,0,0
5217,182673.37506009257,2010-10-24 16:08:18,1080.5475678001326,7,16,-1.0997490882873535,3.725004196166992,15.768429996253072,15.126354781211871,62.9967117702952,55.23622078778245,-0.0001295089750783,0.0923051163554191,0,0,0
5218,182703.3902698557,2010-10-24 16:08:48,1110.5627775683242,7,16,-1.099929690361023,3.7195000648498535,15.768429996253072,15.135524697507016,62.9967117702952,55.27035351818316,-0.0001618862152099,0.0923051163554191,0,0,0
5219,182733.40548057127,2010-10-24 16:09:18,1140.5779882838767,7,16,-1.099929690361023,3.714319705963135,15.768429996253072,15.14469456369106,62.9967117702952,55.3044374229378,-0.0001295089750783,0.0923051163554191,0,0,0
5220,182763.4209179517,2010-10-24 16:09:48,1170.593425654323,7,16,-1.0997490882873535,3.709139347076416,15.768429996253072,15.153864553449194,62.9967117702952,55.3384742444272,-0.0001618862152099,0.0923051163554191,0,0,0
5221,182793.43591256868,2010-10-24 16:10:18,1200.6084202813165,7,16,-1.099929690361023,3.703958988189697,15.768429996253072,15.163034360015908,62.9967117702952,55.37246391060056,-0.0001942634553415,0.0923051163554191,0,0,0
5222,182823.45112147977,2010-10-24 16:10:48,1230.6236292224469,7,16,-1.0997490882873535,3.6991024017333984,15.768429996253072,15.172204289981291,62.9967117702952,55.40640812350173,-0.0001618862152099,0.0923051163554191,0,0,0
5223,182853.46632135828,2010-10-24 16:11:18,1260.6388290608902,7,16,-1.0997490882873535,3.6942458152771,15.768429996253072,15.181374162398072,62.9967117702952,55.44030679863182,-0.0001618862152099,0.0923051163554191,0,0,0
5224,182883.4815416728,2010-10-24 16:11:48,1290.6540493753662,7,16,-1.0997490882873535,3.689389228820801,15.768429996253072,15.190544117207628,62.9967117702952,55.4741611280107,-0.0001295089750783,0.0923051163554191,0,0,0
5225,182913.49675411763,2010-10-24 16:12:18,1320.6692618302538,7,16,-1.0997490882873535,3.684694528579712,15.768429996253072,15.199714026491463,62.9967117702952,55.50797111388256,-0.0001618862152099,0.0923051163554191,0,0,0
5226,182943.5120167626,2010-10-24 16:12:48,1350.6845244952806,7,16,-1.099929690361023,3.679837942123413,15.768429996253072,15.208883967078243,62.9967117702952,55.54173782833444,-0.0001618862152099,0.0923051163554191,0,0,0
5227,182973.5271991275,2010-10-24 16:13:18,1380.6997068701996,7,16,-1.0997490882873535,3.675467014312744,15.768429996253072,15.218053893053726,62.9967117702952,55.575461634559446,-0.0001295089750783,0.0923051163554191,0,0,0
5228,183003.54237852,2010-10-24 16:13:48,1410.7148862225856,7,16,-1.099929690361023,3.670610666275024,15.768429996253072,15.227223786202469,62.9967117702952,55.60914326287583,-0.0001618862152099,0.0923051163554191,0,0,0
5229,183033.5576993249,2010-10-24 16:14:18,1440.7302070375397,7,16,-1.099929690361023,3.666239738464356,15.768429996253072,15.236393703469252,62.9967117702952,55.64278361797436,-0.0001295089750783,0.0923051163554191,0,0,0
5230,183063.57278274823,2010-10-24 16:14:48,1470.745290450816,7,16,-1.0997490882873535,3.662030696868897,15.768429996253072,15.245563606942063,62.9967117702952,55.6763830747086,-9.713172767078504e-05,0.0923051163554191,0,0,0
5231,183093.58811904173,2010-10-24 16:15:18,1500.7606267443473,7,16,-1.099929690361023,3.6574978828430176,15.768429996253072,15.254733551583325,62.9967117702952,55.70994197100793,-9.713172767078504e-05,0.0923051163554191,0,0,0
5232,183123.60322049,2010-10-24 16:15:48,1530.7757282025973,7,16,-1.0997490882873535,3.6531269550323486,15.768429996253072,15.263903463985969,62.9967117702952,55.74346085436032,-0.0001295089750783,0.0923051163554191,0,0,0
5233,183153.61841472948,2010-10-24 16:16:18,1560.7909224721616,7,16,-1.0997490882873535,3.64875602722168,15.768429996253072,15.273073315341168,62.9967117702952,55.77694016294773,-0.0001618862152099,0.0923051163554191,0,0,0
5234,183183.633629064,2010-10-24 16:16:48,1590.8061367766586,7,16,-1.0997490882873535,3.644708871841431,15.768429996253072,15.282243114594973,62.9967117702952,55.81038055487228,-0.0001295089750783,0.0923051163554191,0,0,0
5235,183213.64893693177,2010-10-24 16:17:18,1620.8214446593818,7,16,-1.099568486213684,3.6406617164611816,15.768429996253072,15.291412927832765,62.9967117702952,55.84378323025574,-9.713172767078504e-05,0.0923051163554191,0,0,0
5236,183243.66403682609,2010-10-24 16:17:48,1650.8365445286715,7,16,-1.099929690361023,3.636452674865722,15.768429996253072,15.300582674499145,62.9967117702952,55.87714855795406,-0.0001295089750783,0.0923051163554191,0,0,0
5237,183273.67930877424,2010-10-24 16:18:18,1680.8518166071594,7,16,-1.0997490882873535,3.6327292919158936,15.768429996253072,15.30975252144537,62.9967117702952,55.91047799367215,-9.713172767078504e-05,0.0923051163554191,0,0,0
5238,183303.6945687475,2010-10-24 16:18:48,1710.8670764501528,7,16,-1.099929690361023,3.6288440227508554,15.768429996253072,15.318922421753385,62.9967117702952,55.943771978938,-9.713172767078504e-05,0.0923051163554191,0,0,0
5239,183333.7096708775,2010-10-24 16:19:18,1740.8821786001265,7,16,-1.0997490882873535,3.6251206398010254,15.768429996253072,15.328092209649704,62.9967117702952,55.97703069547192,-9.713172767078504e-05,0.0923051163554191,0,0,0
5240,183363.7248872421,2010-10-24 16:19:48,1770.8973949547333,7,16,-1.099929690361023,3.621397256851196,15.768429996253072,15.33726202827825,62.9967117702952,56.01025559957842,-9.713172767078504e-05,0.0923051163554191,0,0,0
5241,183393.74009848892,2010-10-24 16:20:18,1800.91260624171,7,16,-1.099929690361023,3.617835760116577,15.768429996253072,15.346431888555816,62.9967117702952,56.04344767215794,-0.0001295089750783,0.0923051163554191,0,0,0
5242,183423.7552898664,2010-10-24 16:20:48,1830.9277975689413,7,16,-1.0997490882873535,3.614274263381958,15.768429996253072,15.35560172470996,62.9967117702952,56.0766072468528,-0.0001295089750783,0.0923051163554191,0,0,0
5243,183453.77050324355,2010-10-24 16:21:18,1860.9430109461275,7,16,-1.099929690361023,3.611036539077759,15.768429996253072,15.36477160688868,62.9967117702952,56.10973557679039,-9.713172767078504e-05,0.0923051163554191,0,0,0
5244,183483.78571795404,2010-10-24 16:21:48,1890.9582256666613,7,16,-1.0997490882873535,3.60779881477356,15.768429996253072,15.373941457825,62.9967117702952,56.14283299424909,-6.47544875391759e-05,0.0923051163554191,0,0,0
5245,183513.8009206997,2010-10-24 16:22:18,1920.9734284324009,7,16,-1.0997490882873535,3.60456109046936,15.768429996253072,15.383111267463256,62.9967117702952,56.17590015195247,-6.47544875391759e-05,0.0923051163554191,0,0,0
5246,183543.81873525985,2010-10-24 16:22:48,1950.9912430877723,7,16,-1.0997490882873535,3.601323366165161,15.768429996253072,15.392281922670849,62.9967117702952,56.20894128539182,-6.47544875391759e-05,0.0923051163554191,0,0,0
5247,183573.83158199364,2010-10-24 16:23:18,1981.0040897363428,7,16,-1.099929690361023,3.598085641860962,15.768429996253072,15.401450990107575,62.9967117702952,56.2419478594675,-0.0001295089750783,0.0923051163554191,0,0,0
5248,183603.8465935829,2010-10-24 16:23:48,2011.019101320599,7,16,-1.0997490882873535,3.5953335762023926,15.768429996253072,15.410620821035035,62.9967117702952,56.274928756210606,-6.47544875391759e-05,0.0923051163554191,0,0,0
5249,183633.8617683188,2010-10-24 16:24:18,2041.0342760314168,7,16,-1.1001102924346924,3.5919342041015625,15.768429996253072,15.419790663091666,62.9967117702952,56.30788185957306,-9.70840483205393e-05,0.0923051163554191,0,0,0
5250,183663.8770097659,2010-10-24 16:24:48,2071.0495176038744,7,16,-1.0997490882873535,3.589182138442993,15.768429996253072,15.42896053401687,62.9967117702952,56.34080763545466,-6.47544875391759e-05,0.0923051163554191,0,0,0
5251,183693.89219176996,2010-10-24 16:25:18,2101.0646995076186,7,16,-1.099929690361023,3.586268186569214,15.768429996253072,15.438130427580276,62.9967117702952,56.37370647707954,-9.713172767078504e-05,0.0923051163554191,0,0,0
5252,183723.90762892985,2010-10-24 16:25:48,2131.080136682578,7,16,-1.099929690361023,3.5831923484802246,15.768429996253072,15.447300342665926,62.9967117702952,56.40657833614056,-0.0001295089750783,0.0923051163554191,0,0,0
5253,183753.922616394,2010-10-24 16:26:18,2161.09512410662,7,16,-1.099929690361023,3.5802783966064453,15.768429996253072,15.456470145451794,62.9967117702952,56.43942286166592,-6.47544875391759e-05,0.0923051163554191,0,0,0
5254,183783.9378383576,2010-10-24 16:26:48,2191.1103461002804,7,16,-1.0997490882873535,3.577526330947876,15.768429996253072,15.46564008136188,62.9967117702952,56.4722407451357,-3.237724376958795e-05,0.0923051163554191,0,0,0
5255,183813.9530519553,2010-10-24 16:27:18,2221.1255596679416,7,16,-1.0997490882873535,3.5744504928588867,15.768429996253072,15.474809966352073,62.9967117702952,56.50503148532574,-9.713172767078504e-05,0.0923051163554191,0,0,0
5256,183843.9682555782,2010-10-24 16:27:48,2251.1407632807923,7,16,-1.099568486213684,3.5715365409851074,15.768429996253072,15.48397981056704,62.9967117702952,56.53779519886999,-6.47544875391759e-05,0.0923051163554191,0,0,0
5257,183873.98344982773,2010-10-24 16:28:18,2281.1559575303063,7,16,-1.099929690361023,3.568622589111328,15.768429996253072,15.4931496434027,62.9967117702952,56.57053181913365,-6.47544875391759e-05,0.0923051163554191,0,0,0
5258,183903.99865604704,2010-10-24 16:28:48,2311.171163779728,7,16,-1.1001102924346924,3.565384864807129,15.768429996253072,15.502319468199351,62.9967117702952,56.60324115053131,-0.0001295089750783,0.0923051163554191,0,0,0
5259,183934.01397683696,2010-10-24 16:29:18,2341.1864845495697,7,16,-1.0997490882873535,3.562794685363769,15.768429996253072,15.511489345030585,62.9967117702952,56.63592315282465,-3.237724376958795e-05,0.0923051163554191,0,0,0
5260,183964.02909036528,2010-10-24 16:29:48,2371.201598092939,7,16,-1.0997490882873535,3.5595569610595703,15.768429996253072,15.520659128460888,62.9967117702952,56.66857768424759,-6.47544875391759e-05,0.0923051163554191,0,0,0
5261,183994.04426637432,2010-10-24 16:30:18,2401.216774086955,7,16,-1.099929690361023,3.556319236755371,15.768429996253072,15.529828969509392,62.9967117702952,56.7012041230131,-9.713172767078504e-05,0.0923051163554191,0,0,0
5262,184024.05961185577,2010-10-24 16:30:48,2431.232119563373,7,16,-1.0997490882873535,3.553243398666382,15.768429996253072,15.538998855569174,62.9967117702952,56.73380185894966,-0.0001295089750783,0.0923051163554191,0,0,0
5263,184054.07468757988,2010-10-24 16:31:18,2461.2471952924984,7,16,-1.0997490882873535,3.5500056743621826,15.768429996253072,15.548168714058852,62.9967117702952,56.76637031652714,-9.713172767078504e-05,0.0923051163554191,0,0,0
5264,184084.089910972,2010-10-24 16:31:48,2491.2624186846447,7,16,-1.0997490882873535,3.5469298362731934,15.768429996253072,15.557338466749307,62.9967117702952,56.79890841406702,-6.47544875391759e-05,0.0923051163554191,0,0,0
5265,184114.10512067005,2010-10-24 16:32:18,2521.277628422761,7,16,-1.0997490882873535,3.543368339538574,15.768429996253072,15.566508274543573,62.9967117702952,56.83141566092715,-6.47544875391759e-05,0.0923051163554191,0,0,0
5266,184144.12037813207,2010-10-24 16:32:48,2551.2928858647706,7,16,-1.099568486213684,3.539806842803955,15.768429996253072,15.575678036972729,62.9967117702952,56.863890644083895,-9.713172767078504e-05,0.0923051163554191,0,0,0
5267,184174.1355518304,2010-10-24 16:33:18,2581.308059563065,7,16,-1.0997490882873535,3.536083459854126,15.768429996253072,15.584847826634658,62.9967117702952,56.89633265266191,-9.713172767078504e-05,0.0923051163554191,0,0,0
5268,184204.1507446313,2010-10-24 16:33:48,2611.3232523338934,7,16,-1.0997490882873535,3.532360076904297,15.768429996253072,15.594017628967949,62.9967117702952,56.92874030215958,-6.47544875391759e-05,0.0923051163554191,0,0,0
5269,184234.165926926,2010-10-24 16:34:18,2641.3384346486628,7,16,-1.0997490882873535,3.528312921524048,15.768429996253072,15.603186765584402,62.9967117702952,56.96111012711622,-9.713172767078504e-05,0.0923051163554191,0,0,0
5270,184264.18124563072,2010-10-24 16:34:48,2671.353753348345,7,16,-1.1001102924346924,3.524265766143799,15.768429996253072,15.612355758560325,62.9967117702952,56.993442209436765,-9.713172767078504e-05,0.0923051163554191,0,0,0
5271,184294.19636360512,2010-10-24 16:35:18,2701.3688713027086,7,16,-1.0997490882873535,3.51989483833313,15.768429996253072,15.621524828104867,62.9967117702952,57.02573567387992,-0.0001295089750783,0.0923051163554191,0,0,0
5272,184324.21159794452,2010-10-24 16:35:48,2731.3841056371266,7,16,-1.099929690361023,3.515362024307251,15.768429996253072,15.630693765435437,62.9967117702952,57.05798769157088,-6.47544875391759e-05,0.0923051163554191,0,0,0
5273,184354.2267720138,2010-10-24 16:36:18,2761.3992797063447,7,16,-1.0997490882873535,3.5103437900543213,15.768429996253072,15.639862747153533,62.9967117702952,57.09019607040786,-0.0001295089750783,0.0923051163554191,0,0,0
5274,184384.24197249883,2010-10-24 16:36:48,2791.414480196413,7,16,-1.0997490882873535,3.5048396587371826,15.768429996253072,15.649031791980685,62.9967117702952,57.12235719772992,-0.0001295089750783,0.0923051163554191,0,0,0
5275,184414.25720040724,2010-10-24 16:37:19,2821.4297081098275,7,16,-1.0997490882873535,3.499011754989624,15.768429996253072,15.658201196801636,62.9967117702952,57.15446777347726,-0.0001295089750783,0.0923051163554191,0,0,0
5276,184444.27243705743,2010-10-24 16:37:49,2851.4449447600173,7,16,-1.0997490882873535,3.4922125339508057,15.768429996253072,15.667370870936452,62.9967117702952,57.18652180603084,-0.0001942634553415,0.0923051163554191,0,0,0
5277,184474.28761891104,2010-10-24 16:38:19,2881.460126613637,7,16,-1.0997490882873535,3.4847657680511475,15.768429996253072,15.67654055362717,62.9967117702952,57.21851161541262,-0.0002266406954731,0.0923051163554191,0,0,0
5278,184504.302897596,2010-10-24 16:38:49,2911.47540529859,7,16,-1.0997490882873535,3.4761857986450195,15.768429996253072,15.685710130144562,62.9967117702952,57.25042769109949,-0.0002266406954731,0.0923051163554191,0,0,0
5279,184534.31803058283,2010-10-24 16:39:19,2941.490538325518,7,16,-1.0997490882873535,3.466472625732422,15.768429996253072,15.694879752727164,62.9967117702952,57.28225978113112,-0.0002913951757363,0.0923051163554191,0,0,0
5280,184564.33326515785,2010-10-24 16:39:49,2971.5057728604365,7,16,-1.0997490882873535,3.4548168182373047,15.768429996253072,15.704049347306045,62.9967117702952,57.313993665231465,-0.0003561496851034,0.0923051163554191,0,0,0
5281,184594.34845330715,2010-10-24 16:40:19,3001.520961009747,7,16,-1.099929690361023,3.440732717514038,15.768429996253072,15.713219020644472,62.9967117702952,57.34561079234742,-0.0004209041653666,0.0923051163554191,0,0,0
5282,184624.36365877464,2010-10-24 16:40:49,3031.5361664822326,7,16,-1.099568486213684,3.423411130905152,15.768429996253072,15.722388695435686,62.9967117702952,57.37708485232472,-0.0004856586456298,0.0923051163554191,0,0,0
5283,184654.37901228608,2010-10-24 16:41:19,3061.5515199936763,7,16,-1.0997490882873535,3.400747060775757,15.768429996253072,15.731558439858537,62.9967117702952,57.40837714135735,-0.0006799221155233,0.0923051163554191,0,0,0
5284,184684.3942942993,2010-10-24 16:41:49,3091.5668020219628,7,16,-1.099929690361023,3.370150566101074,15.768429996253072,15.740728158005522,62.9967117702952,57.439428629655474,-0.0009389400365762,0.0923051163554191,0,0,0
5285,184714.409430028,2010-10-24 16:42:19,3121.5819377406,7,16,-1.0997490882873535,3.3272509574890137,15.768429996253072,15.749897779578196,62.9967117702952,57.47014654637173,-0.0013274669181555,0.0923051163554191,0,0,0
5286,184744.42452067928,2010-10-24 16:42:49,3151.59702838189,7,16,-1.099929690361023,3.2658963203430176,15.768429996253072,15.759067343139524,62.9967117702952,57.50039213412232,-0.0019102096557617,0.0923051163554191,0,0,0
5287,184774.4398440005,2010-10-24 16:43:19,3181.612351713116,7,16,-1.099929690361023,3.1758878231048584,15.768429996253072,15.768237048338737,62.9967117702952,57.52995544284203,-0.0028815269470214,0.0923051163554191,0,0,0
5288,184804.45506538765,2010-10-24 16:43:49,3211.6275730902403,7,16,-1.0997490882873535,3.0308380126953125,15.768429996253072,15.777406761662515,62.9967117702952,57.55847485442956,-0.004953718278557,0.0923051163554191,0,0,0
5289,184824.9390930323,2010-10-24 16:44:09,3232.1116008501963,7,16,-1.0997490882873535,2.830747365951538,15.768429996253072,15.7836645996787,62.9967117702952,57.57689497554264,-0.0103606702759861,0.0923051163554191,0,0,0
5290,184833.54827503284,2010-10-24 16:44:18,3240.720782765508,7,16,-1.0997490882873535,2.699943780899048,15.768429996253072,15.786294699857075,62.9967117702952,57.58417211056018,-0.0125623224303126,0.0923051163554191,0,0,0
5291,184893.559558338,2010-10-24 16:45:18,60.01503626152873,8,16,0.0,3.313652515411377,15.768429996253072,15.786294699857075,62.9967117702952,57.58417211056018,0.0013922214275225,0.0923051163554191,0,0,0
5292,184893.7443181835,2010-10-24 16:45:18,0.187917889200777,9,16,-1.9243103452026844e-05,3.313652515411377,15.768429996253072,15.786294700861555,62.9967117702952,57.58417211388868,0.0,0.0900387018918991,0,0,0
5293,184898.5568241893,2010-10-24 16:45:23,5.000423995188007,9,16,0.0005225847125984,3.321908712387085,15.768430572171065,15.786294701196542,62.996713681447325,57.58417211499962,0.0011655807029455,0.0900387018918991,0,0,0
