Data_Point,Test_Time(s),Date_Time,Step_Time(s),Step_Index,Cycle_Index,Current(A),Voltage(V),Charge_Capacity(Ah),Discharge_Capacity(Ah),Charge_Energy(Wh),Discharge_Energy(Wh),dV/dt(V/s),Internal_Resistance(Ohm),Is_FC_Data,AC_Impedance(Ohm),ACI_Phase_Angle(Deg)
5294,184928.58469199133,2010-10-24 16:45:53,30.015196424936,1,17,0.0,3.358332872390747,15.768430572171065,15.786294701196542,62.996713681447325,57.58417211499962,0.0007770538213662,0.0900387018918991,0,0,0
5295,184958.59991625565,2010-10-24 16:46:23,60.03042072935624,1,17,0.0,3.383587121963501,15.768430572171065,15.786294701196542,62.996713681447325,57.58417211499962,0.0005827903514727,0.0900387018918991,0,0,0
5296,184988.61511746756,2010-10-24 16:46:53,90.0456219011228,1,17,0.0,3.4025278091430664,15.768430572171065,15.786294701196542,62.996713681447325,57.58417211499962,0.0004532813909463,0.0900387018918991,0,0,0
5297,185018.58345418365,2010-10-24 16:47:23,120.01395861724606,1,17,0.0,3.4177451133728027,15.768430572171065,15.786294701196542,62.996713681447325,57.58417211499962,0.0003561496851034,0.0900387018918991,0,0,0
5298,185048.59759006675,2010-10-24 16:47:53,30.01533325596101,2,17,0.5501165986061096,3.5744504928588867,15.773016516768845,15.786294701196542,63.01293518605089,57.58417211499962,0.0016836166614666,0.0900387018918991,0,0,0
5299,185078.6126828283,2010-10-24 16:48:23,60.03042601252352,2,17,0.5499359965324402,3.625444412231445,15.77760247823627,15.786294701196542,63.0294519655401,57.58417211499962,0.0011655807029455,0.0900387018918991,0,0,0
5300,185108.6279006365,2010-10-24 16:48:53,90.04564381574077,2,17,0.5499359965324402,3.662354469299317,15.78218849004,15.786294701196542,63.04616728540765,57.58417211499962,0.0008418083307333,0.0900387018918991,0,0,0
5301,185138.643220855,2010-10-24 16:49:23,120.06096402418336,2,17,0.5501165986061096,3.69165563583374,15.786774474238111,15.786294701196542,63.06303246188275,57.58417211499962,0.0007446765666827,0.0900387018918991,0,0,0
5302,185168.65829922573,2010-10-24 16:49:53,150.07604244000433,2,17,0.5499359965324402,3.7152910232543945,15.79136040510016,15.786294701196542,63.08001768747066,57.58417211499962,0.0005827903514727,0.0900387018918991,0,0,0
5303,185198.67354572544,2010-10-24 16:50:23,180.09128892971714,2,17,0.5499359965324402,3.7350411415100098,15.795946409993851,15.786294701196542,63.09710247939255,57.58417211499962,0.0005180359003134,0.0900387018918991,0,0,0
5304,185228.68873506272,2010-10-24 16:50:53,210.10647825195105,2,17,0.5499359965324402,3.750744104385376,15.800532340105995,15.786294701196542,63.11426879699216,57.58417211499962,0.0003237724304199,0.0900387018918991,0,0,0
5305,185258.70393250012,2010-10-24 16:51:23,240.12167568941047,2,17,0.5497553944587708,3.761752128601074,15.805118303629497,15.786294701196542,63.1314978941935,57.58417211499962,0.0001618862152099,0.0900387018918991,0,0,0
5306,185288.71914815303,2010-10-24 16:51:54,270.13689133224347,2,17,0.5499359965324402,3.7685513496398926,15.809704244907486,15.786294701196542,63.14876659510214,57.58417211499962,0.0001295089750783,0.0900387018918991,0,0,0
5307,185318.73438284337,2010-10-24 16:52:24,300.15212602756105,2,17,0.5501165986061096,3.7729222774505615,15.814290248125673,15.786294701196542,63.16605949242151,57.58417211499962,0.0001295089750783,0.0900387018918991,0,0,0
5308,185348.74957174453,2010-10-24 16:52:54,330.1673149287455,2,17,0.5501165986061096,3.7764837741851807,15.818876286909369,15.786294701196542,63.18337075700458,57.58417211499962,9.713172767078504e-05,0.0900387018918991,0,0,0
5309,185378.76478742243,2010-10-24 16:53:24,360.1825306016533,2,17,0.5501165986061096,3.7802071571350098,15.823462280291135,15.786294701196542,63.2006984756311,57.58417211499962,9.713172767078504e-05,0.0900387018918991,0,0,0
5310,185408.7800071104,2010-10-24 16:53:54,390.1977502945804,2,17,0.5499359965324402,3.783606767654419,15.828048293851284,15.786294701196542,63.21804232252672,57.58417211499962,6.47544875391759e-05,0.0900387018918991,0,0,0
5311,185438.79519430228,2010-10-24 16:54:24,420.2129374814923,2,17,0.5499359965324402,3.787006378173828,15.832634201321053,15.786294701196542,63.2354015433358,57.58417211499962,9.713172767078504e-05,0.0900387018918991,0,0,0
5312,185468.810382221,2010-10-24 16:54:54,450.22812541025326,2,17,0.5499359965324402,3.790405988693237,15.837220094118768,15.786294701196542,63.252776172202914,57.58417211499962,0.0001295089750783,0.0900387018918991,0,0,0
5313,185498.82559339772,2010-10-24 16:55:24,480.2433365769302,2,17,0.5501165986061096,3.793643712997437,15.841805989288773,15.786294701196542,63.2701658020415,57.58417211499962,9.713172767078504e-05,0.0900387018918991,0,0,0
5314,185528.84082326092,2010-10-24 16:55:54,510.25856645022986,2,17,0.5501165986061096,3.796881437301636,15.84639184685966,15.786294701196542,63.28756999792391,57.58417211499962,0.0001295089750783,0.0900387018918991,0,0,0
5315,185558.85624975932,2010-10-24 16:56:24,540.2739930588543,2,17,0.5499359965324402,3.799795389175415,15.85097785074111,15.786294701196542,63.3049892236912,57.58417211499962,3.237724376958795e-05,0.0900387018918991,0,0,0
5316,185588.87124579487,2010-10-24 16:56:54,570.2889889941084,2,17,0.5501165986061096,3.803194999694824,15.855563801282624,15.786294701196542,63.32242245717504,57.58417211499962,0.0001295089750783,0.0900387018918991,0,0,0
5317,185618.88644022483,2010-10-24 16:57:24,600.3041834140473,2,17,0.5499359965324402,3.8059470653533936,15.860149746604613,15.786294701196542,63.339869716247634,57.58417211499962,9.713172767078504e-05,0.0900387018918991,0,0,0
5318,185648.90165555183,2010-10-24 16:57:54,630.3193988664054,2,17,0.5501165986061096,3.809022903442383,15.864735739703931,15.786294701196542,63.35733111270849,57.58417211499962,6.47544875391759e-05,0.0900387018918991,0,0,0
5319,185678.9168701571,2010-10-24 16:58:24,660.3346133463401,2,17,0.5501165986061096,3.812098741531372,15.86932168392496,15.786294701196542,63.3748062910657,57.58417211499962,9.713172767078504e-05,0.0900387018918991,0,0,0
5320,185708.93210622083,2010-10-24 16:58:54,690.3498494251056,2,17,0.5501165986061096,3.8153364658355713,15.873907706550522,15.786294701196542,63.39229603719766,57.58417211499962,6.47544875391759e-05,0.0900387018918991,0,0,0
5321,185738.94732611423,2010-10-24 16:59:24,720.3650692984824,2,17,0.5501165986061096,3.818412303924561,15.878493636532834,15.786294701196542,63.40979974535789,57.58417211499962,6.47544875391759e-05,0.0900387018918991,0,0,0
5322,185768.96248496053,2010-10-24 16:59:54,750.3802281698233,2,17,0.5501165986061096,3.8218119144439697,15.883079513422324,15.786294701196542,63.427317704937984,57.58417211499962,0.0001295089750783,0.0900387018918991,0,0,0
5323,185798.97772719464,2010-10-24 17:00:24,780.3954703788673,2,17,0.5501165986061096,3.825049638748169,15.887665461840726,15.786294701196542,63.4448508178574,57.58417211499962,9.713172767078504e-05,0.0900387018918991,0,0,0
5324,185828.99290487287,2010-10-24 17:00:54,810.4106480871557,2,17,0.5499359965324402,3.828287363052368,15.892251417696322,15.786294701196542,63.46239929418372,57.58417211499962,9.713172767078504e-05,0.0900387018918991,0,0,0
5325,185859.0081147413,2010-10-24 17:01:24,840.425857925522,2,17,0.5499359965324402,3.8318488597869873,15.896837316443968,15.786294701196542,63.47996320112012,57.58417211499962,0.0001295089750783,0.0900387018918991,0,0,0
5326,185889.02332562223,2010-10-24 17:01:54,870.4410688014744,2,17,0.550297200679779,3.8352482318878174,15.901423294878567,15.786294701196542,63.49754312658276,57.58417211499962,0.0001295089750783,0.0900387018918991,0,0,0
5327,185919.03856343537,2010-10-24 17:02:24,900.4563066145624,2,17,0.5499359965324402,3.8384859561920166,15.9060092803616,15.786294701196542,63.51513883644348,57.58417211499962,6.47544875391759e-05,0.0900387018918991,0,0,0
5328,185949.05379388007,2010-10-24 17:02:54,930.471537149511,2,17,0.5501165986061096,3.842047452926636,15.910595203177834,15.786294701196542,63.53274997261896,57.58417211499962,9.713172767078504e-05,0.0900387018918991,0,0,0
5329,185979.0689618591,2010-10-24 17:03:24,960.4867050383264,2,17,0.5501165986061096,3.845447063446045,15.915181135947837,15.786294701196542,63.55037654701924,57.58417211499962,0.0001295089750783,0.0900387018918991,0,0,0
5330,186009.08429968645,2010-10-24 17:03:54,990.5020428656808,2,17,0.550297200679779,3.848684787750244,15.919767056058571,15.786294701196542,63.56801821414581,57.58417211499962,9.713172767078504e-05,0.0900387018918991,0,0,0
5331,186039.09939220743,2010-10-24 17:04:24,1020.5171354167308,2,17,0.5501165986061096,3.851598739624024,15.924352990172766,15.786294701196542,63.58567479809356,57.58417211499962,3.237724376958795e-05,0.0900387018918991,0,0,0
5332,186069.11459091303,2010-10-24 17:04:54,1050.5323340922762,2,17,0.5499359965324402,3.854836463928223,15.928938939485644,15.786294701196542,63.603345931011255,57.58417211499962,6.47544875391759e-05,0.0900387018918991,0,0,0
5333,186099.1299330211,2010-10-24 17:05:24,1080.5476761952866,2,17,0.5499359965324402,3.858074188232422,15.933524828731803,15.786294701196542,63.62103110704924,57.58417211499962,0.0001295089750783,0.0900387018918991,0,0,0
5334,186129.1451410349,2010-10-24 17:05:54,1110.5628842191306,2,17,0.5499359965324402,3.860988140106201,15.938110743186758,15.786294701196542,63.6387301852971,57.58417211499962,6.47544875391759e-05,0.0900387018918991,0,0,0
5335,186159.1603795247,2010-10-24 17:06:24,1140.5781227139178,2,17,0.5499359965324402,3.8637402057647705,15.942696692733668,15.786294701196542,63.65644276237085,57.58417211499962,3.237724376958795e-05,0.0900387018918991,0,0,0
5336,186189.17544942428,2010-10-24 17:06:54,1170.593192603489,2,17,0.5501165986061096,3.86649227142334,15.947282524334588,15.786294701196542,63.67416764857829,57.58417211499962,6.47544875391759e-05,0.0900387018918991,0,0,0
5337,186219.1908947696,2010-10-24 17:07:24,1200.6086379788858,2,17,0.5501165986061096,3.869082450866699,15.951868413583997,15.786294701196542,63.69190511838783,57.58417211499962,6.47544875391759e-05,0.0900387018918991,0,0,0
5338,186249.2059484588,2010-10-24 17:07:54,1230.623691763318,2,17,0.5501165986061096,3.8715107440948486,15.95645431292467,15.786294701196542,63.70965434783852,57.58417211499962,3.237724376958795e-05,0.0900387018918991,0,0,0
5339,186279.22120016156,2010-10-24 17:08:24,1260.6389433457232,2,17,0.5501165986061096,3.873939037322998,15.961040282635617,15.786294701196542,63.72741496877967,57.58417211499962,6.47544875391759e-05,0.0900387018918991,0,0,0
5340,186309.236294101,2010-10-24 17:08:54,1290.6540372852342,2,17,0.5501165986061096,3.8762054443359375,15.965626162493198,15.786294701196542,63.74518557951022,57.58417211499962,6.47544875391759e-05,0.0900387018918991,0,0,0
5341,186339.25414691647,2010-10-24 17:09:24,1320.6718900957,2,17,0.5501165986061096,3.878309965133667,15.970212439628389,15.786294701196542,63.76296764130405,57.58417211499962,3.237724376958795e-05,0.0900387018918991,0,0,0
5342,186369.26696114425,2010-10-24 17:09:54,1350.684704358555,2,17,0.5499359965324402,3.8802525997161865,15.974798035021047,15.786294701196542,63.78075628438129,57.58417211499962,3.237724376958795e-05,0.0900387018918991,0,0,0
5343,186399.28196246293,2010-10-24 17:10:24,1380.6997056471514,2,17,0.5501165986061096,3.882033348083496,15.979383930344994,15.786294701196542,63.79855473871676,57.58417211499962,6.47544875391759e-05,0.0900387018918991,0,0,0
5344,186429.29712930915,2010-10-24 17:10:54,1410.7148724983804,2,17,0.550297200679779,3.8838140964508057,15.983969914869702,15.786294701196542,63.81636158279348,57.58417211499962,9.713172767078504e-05,0.0900387018918991,0,0,0
5345,186459.3123258443,2010-10-24 17:11:24,1440.730069028579,2,17,0.5499359965324402,3.885109186172485,15.988555871414844,15.786294701196542,63.83417577121443,57.58417211499962,-3.237724376958795e-05,0.0900387018918991,0,0,0
5346,186489.3275407303,2010-10-24 17:11:54,1470.7452839145255,2,17,0.5501165986061096,3.886889934539795,15.993141789408796,15.786294701196542,63.85199689002239,57.58417211499962,3.237724376958795e-05,0.0900387018918991,0,0,0
5347,186519.34312498185,2010-10-24 17:12:24,1500.7608681710572,2,17,0.5499359965324402,3.8881850242614746,15.997727783760872,15.786294701196542,63.86982498301965,57.58417211499962,3.237724376958795e-05,0.0900387018918991,0,0,0
5348,186549.35796851225,2010-10-24 17:12:54,1530.775711696459,2,17,0.5501165986061096,3.889642000198364,16.00231365938103,15.786294701196542,63.88765907395084,57.58417211499962,6.47544875391759e-05,0.0900387018918991,0,0,0
5349,186579.37332562264,2010-10-24 17:13:24,1560.791068811885,2,17,0.5501165986061096,3.891098976135254,16.006899637695696,15.786294701196542,63.90549970433552,57.58417211499962,6.47544875391759e-05,0.0900387018918991,0,0,0
5350,186609.38838622405,2010-10-24 17:13:54,1590.806129403282,2,17,0.5501165986061096,3.892232179641724,16.011485625276894,15.786294701196542,63.92334652125295,57.58417211499962,3.237724376958795e-05,0.0900387018918991,0,0,0
5351,186639.4037342368,2010-10-24 17:14:24,1620.821477441084,2,17,0.5501165986061096,3.8935272693634033,16.01607163954049,15.786294701196542,63.94119935838022,57.58417211499962,3.237724376958795e-05,0.0900387018918991,0,0,0
5352,186669.41880473788,2010-10-24 17:14:54,1650.8365479271415,2,17,0.5499359965324402,3.894822359085083,16.02065766831935,15.786294701196542,63.959058223509054,57.58417211499962,3.237724376958795e-05,0.0900387018918991,0,0,0
5353,186699.4341820888,2010-10-24 17:15:24,1680.8519252679755,2,17,0.550297200679779,3.8961174488067623,16.025243733090157,15.786294701196542,63.97692248491788,57.58417211499962,6.47544875391759e-05,0.0900387018918991,0,0,0
5354,186729.44922807373,2010-10-24 17:15:54,1710.8669712880564,2,17,0.5501165986061096,3.897250652313232,16.029829700728214,15.786294701196542,63.99479243179236,57.58417211499962,3.237724376958795e-05,0.0900387018918991,0,0,0
5355,186759.4644597616,2010-10-24 17:16:24,1740.882202945803,2,17,0.5499359965324402,3.898545742034912,16.03441567239679,15.786294701196542,64.01266820912195,57.58417211499962,3.237724376958795e-05,0.0900387018918991,0,0,0
5356,186789.47966321904,2010-10-24 17:16:54,1770.8974064032666,2,17,0.5499359965324402,3.899840831756592,16.0390016713638,15.786294701196542,64.03055000886613,57.58417211499962,3.237724376958795e-05,0.0900387018918991,0,0,0
5357,186819.49498671063,2010-10-24 17:17:24,1800.9127298999044,2,17,0.5499359965324402,3.901135921478272,16.0435877479931,15.786294701196542,64.04843791925916,57.58417211499962,6.47544875391759e-05,0.0900387018918991,0,0,0
5358,186849.5100703696,2010-10-24 17:17:54,1830.92781355378,2,17,0.550297200679779,3.902431011199951,16.048173703157037,15.786294701196542,64.06633127528684,57.58417211499962,3.237724376958795e-05,0.0900387018918991,0,0,0
5359,186879.52529562137,2010-10-24 17:18:24,1860.9430388005487,2,17,0.5499359965324402,3.903726100921631,16.05275974503912,15.786294701196542,64.08423089756229,57.58417211499962,0.0,0.0900387018918991,0,0,0
5360,186909.5404945676,2010-10-24 17:18:54,1890.9582377517816,2,17,0.5499359965324402,3.905021190643311,16.05734576366446,15.786294701196542,64.1021364784495,57.58417211499962,0.0,0.0900387018918991,0,0,0
5361,186939.5556983408,2010-10-24 17:19:24,1920.973441525032,2,17,0.5499359965324402,3.9063162803649902,16.061931773565302,15.786294701196542,64.12004785328052,57.58417211499962,0.0,0.0900387018918991,0,0,0
5362,186969.57093235443,2010-10-24 17:19:54,1950.9886755737373,2,17,0.5499359965324402,3.90761137008667,16.066517748709273,15.786294701196542,64.13796521625453,57.58417211499962,3.237724376958795e-05,0.0900387018918991,0,0,0
5363,186999.5861531501,2010-10-24 17:20:24,1981.003896329313,2,17,0.5501165986061096,3.90906834602356,16.07110369193081,15.786294701196542,64.1558885115233,57.58417211499962,3.237724376958795e-05,0.0900387018918991,0,0,0
5364,187029.6013369285,2010-10-24 17:20:54,2011.01908010773,2,17,0.5501165986061096,3.9103634357452393,16.075689647945495,15.786294701196542,64.17381804848688,57.58417211499962,6.47544875391759e-05,0.0900387018918991,0,0,0
5365,187059.6166689013,2010-10-24 17:21:24,2041.034412070468,2,17,0.5501165986061096,3.911658525466919,16.080275712502214,15.786294701196542,64.19175411929456,57.58417211499962,3.237724376958795e-05,0.0900387018918991,0,0,0
5366,187089.6317765049,2010-10-24 17:21:54,2071.049519684059,2,17,0.5501165986061096,3.9131155014038086,16.08486173473325,15.786294701196542,64.20969628916305,57.58417211499962,3.237724376958795e-05,0.0900387018918991,0,0,0
5367,187119.64696115543,2010-10-24 17:22:24,2101.064704374749,2,17,0.5501165986061096,3.914410352706909,16.089447710751013,15.786294701196542,64.22764448618004,57.58417211499962,3.237724376958795e-05,0.0900387018918991,0,0,0
5368,187149.66227032137,2010-10-24 17:22:54,2131.0800135005707,2,17,0.5499359965324402,3.915867328643799,16.09403367287447,15.786294701196542,64.24559892694688,57.58417211499962,6.47544875391759e-05,0.0900387018918991,0,0,0
5369,187179.67736014564,2010-10-24 17:23:24,2161.095103329837,2,17,0.5499359965324402,3.9171624183654794,16.098619574594306,15.786294701196542,64.26355938338924,57.58417211499962,3.237724376958795e-05,0.0900387018918991,0,0,0
5370,187209.69272098035,2010-10-24 17:23:55,2191.1104641695456,2,17,0.5501165986061096,3.918619394302368,16.103205531075712,15.786294701196542,64.28152650631218,57.58417211499962,6.47544875391759e-05,0.0900387018918991,0,0,0
5371,187239.7077926944,2010-10-24 17:24:25,2221.125535878651,2,17,0.550297200679779,3.920076370239258,16.10779144107872,15.786294701196542,64.2994998836106,57.58417211499962,6.47544875391759e-05,0.0900387018918991,0,0,0
5372,187269.7230039012,2010-10-24 17:24:55,2251.140747080416,2,17,0.5501165986061096,3.9213714599609375,16.112377436378807,15.786294701196542,64.31748006575522,57.58417211499962,3.237724376958795e-05,0.0900387018918991,0,0,0
5373,187299.73820674716,2010-10-24 17:25:25,2281.155949926355,2,17,0.5501165986061096,3.922828435897827,16.11696339548822,15.786294701196542,64.33546668671401,57.58417211499962,6.47544875391759e-05,0.0900387018918991,0,0,0
5374,187329.7535469705,2010-10-24 17:25:55,2311.1712901496808,2,17,0.5501165986061096,3.924285411834717,16.121549438156105,15.786294701196542,64.35346023611872,57.58417211499962,3.237724376958795e-05,0.0900387018918991,0,0,0
5375,187359.76865666427,2010-10-24 17:26:25,2341.186399843456,2,17,0.5497553944587708,3.925580501556397,16.126135406947526,15.786294701196542,64.37146017536472,57.58417211499962,0.0,0.0900387018918991,0,0,0
5376,187389.78386121444,2010-10-24 17:26:55,2371.2016044187053,2,17,0.5501165986061096,3.927199363708496,16.130721368790386,15.786294701196542,64.3894666635256,57.58417211499962,6.47544875391759e-05,0.0900387018918991,0,0,0
5377,187419.79906724836,2010-10-24 17:27:25,2401.216810427527,2,17,0.5501165986061096,3.928494453430176,16.135307348041547,15.786294701196542,64.40748001534072,57.58417211499962,0.0,0.0900387018918991,0,0,0
5378,187449.81426535748,2010-10-24 17:27:55,2431.2320085366605,2,17,0.5501165986061096,3.9301133155822754,16.139893392622355,15.786294701196542,64.4255004529939,57.58417211499962,3.237724376958795e-05,0.0900387018918991,0,0,0
5379,187479.829729239,2010-10-24 17:28:25,2461.2474725084053,2,17,0.5499359965324402,3.931408405303955,16.144479475932187,15.786294701196542,64.44352790607495,57.58417211499962,0.0,0.0900387018918991,0,0,0
5380,187509.84469034243,2010-10-24 17:28:55,2491.262433541673,2,17,0.5501165986061096,3.9331891536712646,16.149065513392447,15.786294701196542,64.46156206965084,57.58417211499962,3.237724376958795e-05,0.0900387018918991,0,0,0
5381,187539.859898662,2010-10-24 17:29:25,2521.2776418612543,2,17,0.5499359965324402,3.9346461296081534,16.153651526607863,15.786294701196542,64.47960306124453,57.58417211499962,6.47544875391759e-05,0.0900387018918991,0,0,0
5382,187569.875107959,2010-10-24 17:29:55,2551.292851158272,2,17,0.5501165986061096,3.936103105545044,16.158237527553162,15.786294701196542,64.497651087325,57.58417211499962,3.237724376958795e-05,0.0900387018918991,0,0,0
5383,187599.89045322489,2010-10-24 17:30:25,2581.30819641414,2,17,0.5501165986061096,3.937721967697144,16.16282356339874,15.786294701196542,64.51570611932557,57.58417211499962,3.237724376958795e-05,0.0900387018918991,0,0,0
5384,187629.90554877845,2010-10-24 17:30:55,2611.323291952636,2,17,0.5499359965324402,3.939340829849243,16.167409563662364,15.786294701196542,64.53376828399439,57.58417211499962,3.237724376958795e-05,0.0900387018918991,0,0,0
5385,187659.920863814,2010-10-24 17:31:25,2641.338607003224,2,17,0.5501165986061096,3.940959692001343,16.171995596798556,15.786294701196542,64.55183778505538,57.58417211499962,6.47544875391759e-05,0.0900387018918991,0,0,0
5386,187689.93594456563,2010-10-24 17:31:55,2671.3536877648908,2,17,0.5499359965324402,3.942416667938232,16.176581567168604,15.786294701196542,64.56991425412025,57.58417211499962,3.237724376958795e-05,0.0900387018918991,0,0,0
5387,187719.9511781632,2010-10-24 17:32:25,2701.3689213624725,2,17,0.5501165986061096,3.944035530090332,16.1811675234796,15.786294701196542,64.5879980429095,57.58417211499962,0.0,0.0900387018918991,0,0,0
5388,187749.96637067336,2010-10-24 17:32:55,2731.384113872652,2,17,0.5501165986061096,3.945978164672852,16.185753585831577,15.786294701196542,64.60608964101758,57.58417211499962,6.47544875391759e-05,0.0900387018918991,0,0,0
5389,187779.9815879904,2010-10-24 17:33:25,2761.3993311996824,2,17,0.5501165986061096,3.947435140609741,16.190339677055142,15.786294701196542,64.62418878694871,57.58417211499962,6.47544875391759e-05,0.0900387018918991,0,0,0
5390,187809.9967951872,2010-10-24 17:33:55,2791.414538391453,2,17,0.5499359965324402,3.948892116546631,16.194925677376357,15.786294701196542,64.64229506825501,57.58417211499962,3.237724376958795e-05,0.0900387018918991,0,0,0
5391,187840.0120308549,2010-10-24 17:34:25,2821.4297740341312,2,17,0.550297200679779,3.9508347511291504,16.199511724828334,15.786294701196542,64.66040908313951,57.58417211499962,9.713172767078504e-05,0.0900387018918991,0,0,0
5392,187870.02726177085,2010-10-24 17:34:55,2851.445004960054,2,17,0.5499359965324402,3.95212984085083,16.20409782106628,15.786294701196542,64.67853094565902,57.58417211499962,0.0,0.0900387018918991,0,0,0
5393,187900.0424283363,2010-10-24 17:35:25,2881.460171510534,2,17,0.5501165986061096,3.95391058921814,16.20868384187144,15.786294701196542,64.6966601901309,57.58417211499962,3.237724376958795e-05,0.0900387018918991,0,0,0
5394,187930.0576484503,2010-10-24 17:35:55,2911.4753916495724,2,17,0.5499359965324402,3.9555294513702393,16.21326988459723,15.786294701196542,64.7147972327015,57.58417211499962,0.0,0.0900387018918991,0,0,0
5395,187960.07289137613,2010-10-24 17:36:25,2941.4906345453287,2,17,0.550297200679779,3.957472085952759,16.21785594051735,15.786294701196542,64.7329421194173,57.58417211499962,3.237724376958795e-05,0.0900387018918991,0,0,0
5396,187990.0880715456,2010-10-24 17:36:55,2971.505814840063,2,17,0.5499359965324402,3.9590909481048575,16.222442005638822,15.786294701196542,64.75109492375083,57.58417211499962,6.47544875391759e-05,0.0900387018918991,0,0,0
5397,188020.10340132288,2010-10-24 17:37:25,3001.5211445020664,2,17,0.5501165986061096,3.960871696472168,16.227028031968427,15.786294701196542,64.7692555259802,57.58417211499962,3.237724376958795e-05,0.0900387018918991,0,0,0
5398,188050.118653216,2010-10-24 17:37:55,3031.5363964353464,2,17,0.5501165986061096,3.9626524448394775,16.231614114589334,15.786294701196542,64.78742440196217,57.58417211499962,3.237724376958795e-05,0.0900387018918991,0,0,0
5399,188080.13384887407,2010-10-24 17:38:25,3061.5515920883586,2,17,0.5499359965324402,3.964433193206787,16.236200158659397,15.786294701196542,64.80560119106043,57.58417211499962,3.237724376958795e-05,0.0900387018918991,0,0,0
5400,188110.1490298605,2010-10-24 17:38:55,3091.5667730497544,2,17,0.5499359965324402,3.9662139415740967,16.24078626868753,15.786294701196542,64.82378641487506,57.58417211499962,6.47544875391759e-05,0.0900387018918991,0,0,0
5401,188140.16411588027,2010-10-24 17:39:25,3121.581859054489,2,17,0.5501165986061096,3.968156576156616,16.245372345521275,15.786294701196542,64.84197973052709,57.58417211499962,0.0001295089750783,0.0900387018918991,0,0,0
5402,188170.17933780377,2010-10-24 17:39:55,3151.597081008051,2,17,0.5501165986061096,3.969775438308716,16.249958401771146,15.786294701196542,64.86018122637299,57.58417211499962,3.237724376958795e-05,0.0900387018918991,0,0,0
5403,188200.19455712577,2010-10-24 17:40:25,3181.61230030499,2,17,0.5499359965324402,3.9715561866760254,16.25454451532943,15.786294701196542,64.87839132560858,57.58417211499962,0.0,0.0900387018918991,0,0,0
5404,188230.20974890413,2010-10-24 17:40:55,3211.627492078333,2,17,0.5501165986061096,3.973498821258545,16.2591306375126,15.786294701196542,64.89660985037418,57.58417211499962,6.47544875391759e-05,0.0900387018918991,0,0,0
5405,188260.22757870724,2010-10-24 17:41:25,3241.645321906521,2,17,0.5499359965324402,3.9752795696258554,16.26371704238723,15.786294701196542,64.91483794141531,57.58417211499962,3.237724376958795e-05,0.0900387018918991,0,0,0
5406,188290.240404554,2010-10-24 17:41:55,3271.6581477281843,2,17,0.5501165986061096,3.977222204208374,16.26830279589854,15.786294701196542,64.93307198603566,57.58417211499962,6.47544875391759e-05,0.0900387018918991,0,0,0
5407,188320.255534398,2010-10-24 17:42:25,3301.673277617293,2,17,0.5501165986061096,3.9791648387908936,16.27288878347245,15.786294701196542,64.95131516218122,57.58417211499962,6.47544875391759e-05,0.0900387018918991,0,0,0
5408,188350.2706030144,2010-10-24 17:42:55,3331.6883462186524,2,17,0.5501165986061096,3.980945587158203,16.27747477253786,15.786294701196542,64.96956749295431,57.58417211499962,3.237724376958795e-05,0.0900387018918991,0,0,0
5409,188380.2858285519,2010-10-24 17:43:25,3361.7035717411086,2,17,0.5499359965324402,3.9827263355255127,16.282060760054666,15.786294701196542,64.98782862404471,57.58417211499962,0.0,0.0900387018918991,0,0,0
5410,188410.3010175082,2010-10-24 17:43:55,3391.718760727505,2,17,0.5501165986061096,3.984830856323242,16.28664675461055,15.786294701196542,65.0060985399222,57.58417211499962,6.47544875391759e-05,0.0900387018918991,0,0,0
5411,188440.31645527965,2010-10-24 17:44:25,3421.7341984839136,2,17,0.5501165986061096,3.9867734909057617,16.29123278725809,15.786294701196542,65.0243775880908,57.58417211499962,6.47544875391759e-05,0.0900387018918991,0,0,0
5412,188470.33159660728,2010-10-24 17:44:55,3451.7493397964927,2,17,0.5499359965324402,3.988878011703491,16.29581883138953,15.786294701196542,65.0426657340041,57.58417211499962,6.47544875391759e-05,0.0900387018918991,0,0,0
5413,188500.3466527676,2010-10-24 17:45:25,3481.7643959468214,2,17,0.550297200679779,3.9909825325012207,16.300404749739567,15.786294701196542,65.06096255164198,57.58417211499962,0.0001295089750783,0.0900387018918991,0,0,0
5414,188530.36186464105,2010-10-24 17:45:55,3511.779607915497,2,17,0.5499359965324402,3.99292516708374,16.30499065192298,15.786294701196542,65.07926863770295,57.58417211499962,3.237724376958795e-05,0.0900387018918991,0,0,0
5415,188560.37708761715,2010-10-24 17:46:25,3541.7948307963693,2,17,0.5501165986061096,3.99502944946289,16.30957662522493,15.786294701196542,65.09758441912044,57.58417211499962,6.47544875391759e-05,0.0900387018918991,0,0,0
5416,188590.3922767389,2010-10-24 17:46:55,3571.8100199281284,2,17,0.5501165986061096,3.99697208404541,16.314162535652148,15.786294701196542,65.11590950191423,57.58417211499962,6.47544875391759e-05,0.0900387018918991,0,0,0
5417,188620.40749989543,2010-10-24 17:47:25,3601.825243074663,2,17,0.5501165986061096,3.99907660484314,16.318748501466345,15.786294701196542,65.13424438747263,57.58417211499962,6.47544875391759e-05,0.0900387018918991,0,0,0
5418,188650.42278667056,2010-10-24 17:47:55,3631.840529869829,2,17,0.5501165986061096,4.001181125640869,16.32333444528517,15.786294701196542,65.15258891617174,57.58417211499962,6.47544875391759e-05,0.0900387018918991,0,0,0
5419,188680.43794269985,2010-10-24 17:48:25,3661.8556858990873,2,17,0.5501165986061096,4.003447532653809,16.32792033678174,15.786294701196542,65.17094312872707,57.58417211499962,3.23295607813634e-05,0.0900387018918991,0,0,0
5420,188710.45313297445,2010-10-24 17:48:55,3691.870876153645,2,17,0.5501165986061096,4.005713939666748,16.33250622103545,15.786294701196542,65.1893072362195,57.58417211499962,6.47544875391759e-05,0.0900387018918991,0,0,0
5421,188740.4684641001,2010-10-24 17:49:25,3721.8862073043583,2,17,0.5499359965324402,4.007818698883057,16.337092218523825,15.786294701196542,65.20768188252606,57.58417211499962,6.47544875391759e-05,0.0900387018918991,0,0,0
5422,188770.483555403,2010-10-24 17:49:55,3751.901298582236,2,17,0.5501165986061096,4.009922981262207,16.341678183988265,15.786294701196542,65.22606651670532,57.58417211499962,6.47544875391759e-05,0.0900387018918991,0,0,0
5423,188800.4987829405,2010-10-24 17:50:25,3781.9165261197136,2,17,0.5499359965324402,4.0121893882751465,16.346264080676654,15.786294701196542,65.2444611450273,57.58417211499962,3.23295607813634e-05,0.0900387018918991,0,0,0
5424,188830.51398595687,2010-10-24 17:50:55,3811.93172916114,2,17,0.5499359965324402,4.014617919921875,16.35085007238506,15.786294701196542,65.26286648798565,57.58417211499962,9.71794142969884e-05,0.0900387018918991,0,0,0
5425,188860.52919352456,2010-10-24 17:51:25,3841.946936703785,2,17,0.5501165986061096,4.016884326934815,16.355435990580965,15.786294701196542,65.28128198441425,57.58417211499962,6.47544875391759e-05,0.0900387018918991,0,0,0
5426,188890.5444627359,2010-10-24 17:51:55,3871.962205915127,2,17,0.5501165986061096,4.019150733947754,16.36002204112459,15.786294701196542,65.29970862536314,57.58417211499962,6.47544875391759e-05,0.0900387018918991,0,0,0
5427,188920.55963674496,2010-10-24 17:52:25,3901.977379924196,2,17,0.5501165986061096,4.021417140960693,16.364608033593438,15.786294701196542,65.31814541155896,57.58417211499962,6.47544875391759e-05,0.0900387018918991,0,0,0
5428,188950.57483710977,2010-10-24 17:52:55,3931.99258028895,2,17,0.5501165986061096,4.023683547973633,16.369193962405888,15.786294701196542,65.33659271350875,57.58417211499962,3.24249267578125e-05,0.0900387018918991,0,0,0
5429,188980.5901826012,2010-10-24 17:53:25,3962.0079257804064,2,17,0.550297200679779,4.026111602783203,16.373779984009396,15.786294701196542,65.35505114945359,57.58417211499962,6.47544875391759e-05,0.0900387018918991,0,0,0
5430,189010.6052789868,2010-10-24 17:53:55,3992.0230221960887,2,17,0.5499359965324402,4.028378009796143,16.378365975959387,15.786294701196542,65.37352031700122,57.58417211499962,3.23295607813634e-05,0.0900387018918991,0,0,0
5431,189040.62055204777,2010-10-24 17:54:25,4022.038295322188,2,17,0.5501165986061096,4.030806541442871,16.382952001488714,15.786294701196542,65.39200053394462,57.58417211499962,6.47544875391759e-05,0.0900387018918991,0,0,0
5432,189070.6358063469,2010-10-24 17:54:55,4052.0535495261274,2,17,0.5501165986061096,4.033234596252441,16.38753801618394,15.786294701196542,65.41049177162216,57.58417211499962,3.23295607813634e-05,0.0900387018918991,0,0,0
5433,189100.65090973492,2010-10-24 17:55:25,4082.068652914186,2,17,0.5501165986061096,4.035824775695801,16.392123982941012,15.786294701196542,65.428993936235,57.58417211499962,9.71794142969884e-05,0.0900387018918991,0,0,0
5434,189130.6661136185,2010-10-24 17:55:56,4112.083856797711,2,17,0.5501165986061096,4.038252830505371,16.396710030590526,15.786294701196542,65.44750768804141,57.58417211499962,6.47544875391759e-05,0.0900387018918991,0,0,0
5435,189160.68134623364,2010-10-24 17:56:26,4142.0990894128445,2,17,0.5499359965324402,4.040519237518311,16.401296050850693,15.786294701196542,65.4660325385683,57.58417211499962,3.23295607813634e-05,0.0900387018918991,0,0,0
5436,189190.6968120901,2010-10-24 17:56:56,4172.114555319412,2,17,0.5499359965324402,4.04310941696167,16.40588212970699,15.786294701196542,65.48456907630388,57.58417211499962,3.23295607813634e-05,0.0900387018918991,0,0,0
5437,189220.71175806585,2010-10-24 17:57:26,4202.129501245026,2,17,0.5501165986061096,4.045861721038818,16.410468113427356,15.786294701196542,65.50311678875218,57.58417211499962,0.0001295089750783,0.0900387018918991,0,0,0
5438,189250.7269695934,2010-10-24 17:57:56,4232.144712772602,2,17,0.5499359965324402,4.048289775848389,16.41505412967245,15.786294701196542,65.52167626170151,57.58417211499962,9.70840483205393e-05,0.0900387018918991,0,0,0
5439,189280.742204409,2010-10-24 17:58:26,4262.159947613282,2,17,0.5501165986061096,4.050879955291748,16.419640140790243,15.786294701196542,65.54024745905424,57.58417211499962,9.70840483205393e-05,0.0900387018918991,0,0,0
5440,189310.75740950555,2010-10-24 17:58:56,4292.175152684767,2,17,0.5501165986061096,4.053470134735107,16.424226110900975,15.786294701196542,65.55883039050485,57.58417211499962,9.70840483205393e-05,0.0900387018918991,0,0,0
5441,189340.77262746412,2010-10-24 17:59:26,4322.190370673447,2,17,0.5501165986061096,4.056060314178467,16.428812214869165,15.786294701196542,65.57742592217316,57.58417211499962,6.47544875391759e-05,0.0900387018918991,0,0,0
5442,189370.78786275093,2010-10-24 17:59:56,4352.205606055477,2,17,0.5501165986061096,4.058650493621826,16.4333982832986,15.786294701196542,65.59603338620309,57.58417211499962,6.47544875391759e-05,0.0900387018918991,0,0,0
5443,189400.80326952515,2010-10-24 18:00:26,4382.221012729417,2,17,0.5499359965324402,4.061079025268555,16.43798428676064,15.786294701196542,65.61465259829441,57.58417211499962,3.24249267578125e-05,0.0900387018918991,0,0,0
5444,189430.81825685396,2010-10-24 18:00:56,4412.23600003316,2,17,0.5499359965324402,4.063992977142334,16.442570149984768,15.786294701196542,65.63328337598175,57.58417211499962,6.47544875391759e-05,0.0900387018918991,0,0,0
5445,189460.83346148435,2010-10-24 18:01:26,4442.251204683596,2,17,0.5499359965324402,4.066744804382324,16.44715602598479,15.786294701196542,65.65192666495834,57.58417211499962,6.47544875391759e-05,0.0900387018918991,0,0,0
5446,189490.8486161352,2010-10-24 18:01:56,4472.266359339431,2,17,0.5499359965324402,4.069497108459473,16.451741885538233,15.786294701196542,65.67058243651724,57.58417211499962,3.24249267578125e-05,0.0900387018918991,0,0,0
5447,189520.86392129608,2010-10-24 18:02:26,4502.281664475308,2,17,0.5501165986061096,4.072248935699463,16.45632792967818,15.786294701196542,65.68925152695967,57.58417211499962,9.70840483205393e-05,0.0900387018918991,0,0,0
5448,189550.8792294796,2010-10-24 18:02:56,4532.296972658781,2,17,0.5501165986061096,4.075001239776611,16.46091392950186,15.786294701196542,65.70793318538317,57.58417211499962,3.24249267578125e-05,0.0900387018918991,0,0,0
5449,189580.894346256,2010-10-24 18:03:26,4562.312089435208,2,17,0.5501165986061096,4.077591419219971,16.465499916223465,15.786294701196542,65.72662770143313,57.58417211499962,3.24249267578125e-05,0.0900387018918991,0,0,0
5450,189610.9095328364,2010-10-24 18:03:56,4592.327276015609,2,17,0.5499359965324402,4.080667018890381,16.470085920853112,15.786294701196542,65.74533535476198,57.58417211499962,9.70840483205393e-05,0.0900387018918991,0,0,0
5451,189640.92476346155,2010-10-24 18:04:26,4622.342506665845,2,17,0.5499359965324402,4.08358097076416,16.4746719374727,15.786294701196542,65.76405616467095,57.58417211499962,6.47544875391759e-05,0.0900387018918991,0,0,0
5452,189670.9400865522,2010-10-24 18:04:56,4652.357829731408,2,17,0.5499359965324402,4.08649492263794,16.479257930495184,15.786294701196542,65.78279018754893,57.58417211499962,9.70840483205393e-05,0.0900387018918991,0,0,0
5453,189700.955177805,2010-10-24 18:05:26,4682.3729210142965,2,17,0.5499359965324402,4.089408874511719,16.483843893107938,15.786294701196542,65.80153742439275,57.58417211499962,9.70840483205393e-05,0.0900387018918991,0,0,0
5454,189730.9705347851,2010-10-24 18:05:56,4712.388277964311,2,17,0.5499359965324402,4.092322826385498,16.488429928970206,15.786294701196542,65.82029837966415,57.58417211499962,9.70840483205393e-05,0.0900387018918991,0,0,0
5455,189760.9856562432,2010-10-24 18:06:26,4742.403399422406,2,17,0.5501165986061096,4.095398902893066,16.493015944375628,15.786294701196542,65.83907276836024,57.58417211499962,9.71794142969884e-05,0.0900387018918991,0,0,0
5456,189791.0008204679,2010-10-24 18:06:56,4772.418563647089,2,17,0.5499359965324402,4.098312854766846,16.49760193268617,15.786294701196542,65.85786074593098,57.58417211499962,6.47544875391759e-05,0.0900387018918991,0,0,0
5457,189821.0160385017,2010-10-24 18:07:26,4802.433781680882,2,17,0.5499359965324402,4.101226806640625,16.502187967391492,15.786294701196542,65.87666280595683,57.58417211499962,3.24249267578125e-05,0.0900387018918991,0,0,0
5458,189851.0312484904,2010-10-24 18:07:56,4832.448991669623,2,17,0.5499359965324402,4.104464530944824,16.506773966334762,15.786294701196542,65.89547864384137,57.58417211499962,9.71794142969884e-05,0.0900387018918991,0,0,0
5459,189881.0464767096,2010-10-24 18:08:26,4862.464219913863,2,17,0.5501165986061096,4.107540130615234,16.511359985499023,15.786294701196542,65.91430872804274,57.58417211499962,9.70840483205393e-05,0.0900387018918991,0,0,0
5460,189911.06168365572,2010-10-24 18:08:56,4892.479426834958,2,17,0.5499359965324402,4.110616207122803,16.51594602273082,15.786294701196542,65.93315313235068,57.58417211499962,6.47544875391759e-05,0.0900387018918991,0,0,0
5461,189941.0770410168,2010-10-24 18:09:26,4922.494784221059,2,17,0.5501165986061096,4.113853931427002,16.520532075109806,15.786294701196542,65.95201192011966,57.58417211499962,9.71794142969884e-05,0.0900387018918991,0,0,0
5462,189971.09211987373,2010-10-24 18:09:56,4952.509863052916,2,17,0.5501165986061096,4.117091178894043,16.525118088672837,15.786294701196542,65.97088495059873,57.58417211499962,0.0001295089750783,0.0900387018918991,0,0,0
5463,190001.1073500277,2010-10-24 18:10:26,4982.525093206916,2,17,0.5499359965324402,4.120167255401611,16.52970411090107,15.786294701196542,65.98977255220564,57.58417211499962,9.71794142969884e-05,0.0900387018918991,0,0,0
5464,190031.1225338312,2010-10-24 18:10:56,5012.540277010396,2,17,0.5499359965324402,4.1232428550720215,16.534290151781526,15.786294701196542,66.00867489195022,57.58417211499962,9.70840483205393e-05,0.0900387018918991,0,0,0
5465,190061.13775084243,2010-10-24 18:11:26,5042.555494016626,2,17,0.5501165986061096,4.12664270401001,16.53887625353043,15.786294701196542,66.02759223000817,57.58417211499962,9.71794142969884e-05,0.0900387018918991,0,0,0
5466,190091.1529632272,2010-10-24 18:11:56,5072.570706406351,2,17,0.550297200679779,4.129880428314209,16.543463054658012,15.786294701196542,66.04652736123725,57.58417211499962,0.0001295089750783,0.0900387018918991,0,0,0
5467,190121.16819224835,2010-10-24 18:12:26,5102.585935422515,2,17,0.550297200679779,4.132956027984619,16.54804984596838,15.786294701196542,66.06547739487709,57.58417211499962,6.47544875391759e-05,0.0900387018918991,0,0,0
5468,190151.1835719701,2010-10-24 18:12:56,5132.601315149295,2,17,0.5501165986061096,4.136355876922607,16.55263668319271,15.786294701196542,66.08444258718887,57.58417211499962,6.47544875391759e-05,0.0900387018918991,0,0,0
5469,190181.20122653645,2010-10-24 18:13:26,5162.61896986605,2,17,0.5501165986061096,4.1397552490234375,16.55722369623349,15.786294701196542,66.1034237228299,57.58417211499962,9.70840483205393e-05,0.0900387018918991,0,0,0
5470,190211.2140578418,2010-10-24 18:13:56,5192.631801146318,2,17,0.5501165986061096,4.143155097961426,16.561809446937076,15.786294701196542,66.12241502251555,57.58417211499962,0.0001295089750783,0.0900387018918991,0,0,0
5471,190241.2290696817,2010-10-24 18:14:26,5222.6468128859615,2,17,0.5501165986061096,4.146554470062256,16.566395392515794,15.786294701196542,66.14142276106898,57.58417211499962,9.70840483205393e-05,0.0900387018918991,0,0,0
5472,190271.24426206652,2010-10-24 18:14:56,5252.662005240754,2,17,0.5501165986061096,4.150115966796875,16.570981314389677,15.786294701196542,66.16044617868907,57.58417211499962,0.0001618385285837,0.0900387018918991,0,0,0
5473,190301.25947861664,2010-10-24 18:15:26,5282.677221820923,2,17,0.5499359965324402,4.153353691101074,16.57556728346426,15.786294701196542,66.17948555518174,57.58417211499962,9.70840483205393e-05,0.0900387018918991,0,0,0
5474,190331.27469908152,2010-10-24 18:15:56,5312.692442280761,2,17,0.5497553944587708,4.156753540039063,16.580153159217677,15.786294701196542,66.19854030115569,57.58417211499962,9.71794142969884e-05,0.0900387018918991,0,0,0
5475,190361.29019308308,2010-10-24 18:16:26,5342.7079364026495,2,17,0.5501165986061096,4.160315036773682,16.584739113833795,15.786294701196542,66.21761130963493,57.58417211499962,0.0001295089750783,0.0900387018918991,0,0,0
5476,190391.30526384985,2010-10-24 18:16:56,5372.723007049107,2,17,0.5497553944587708,4.163714408874512,16.5893250561554,15.786294701196542,66.23669835306363,57.58417211499962,6.47544875391759e-05,0.0900387018918991,0,0,0
5477,190421.32034113284,2010-10-24 18:17:26,5402.7380843371175,2,17,0.5501165986061096,4.16743803024292,16.59391093424558,15.786294701196542,66.25580116764986,57.58417211499962,9.71794142969884e-05,0.0900387018918991,0,0,0
5478,190451.3356869752,2010-10-24 18:17:56,5432.753430209522,2,17,0.5501165986061096,4.17083740234375,16.598496828856238,15.786294701196542,66.27492031337142,57.58417211499962,9.70840483205393e-05,0.0900387018918991,0,0,0
5479,190481.35091840732,2010-10-24 18:18:26,5462.76866158657,2,17,0.5501165986061096,4.174561023712158,16.603082720927873,15.786294701196542,66.29405584377727,57.58417211499962,9.71794142969884e-05,0.0900387018918991,0,0,0
5480,190511.36610662183,2010-10-24 18:18:56,5492.783849801043,2,17,0.5501165986061096,4.177960395812988,16.607668589150197,15.786294701196542,66.3132076130085,57.58417211499962,9.70840483205393e-05,0.0900387018918991,0,0,0
5481,190541.3812019197,2010-10-24 18:19:26,5522.798945108964,2,17,0.550297200679779,4.1816840171813965,16.612254504802042,15.786294701196542,66.33237619775845,57.58417211499962,0.0001295089750783,0.0900387018918991,0,0,0
5482,190571.39643698093,2010-10-24 18:19:56,5552.814180160169,2,17,0.5499359965324402,4.185245513916016,16.616840398924396,15.786294701196542,66.35156127212402,57.58417211499962,9.71794142969884e-05,0.0900387018918991,0,0,0
5483,190601.4116445888,2010-10-24 18:20:26,5582.829387767975,2,17,0.5501165986061096,4.188968658447266,16.62142626633842,15.786294701196542,66.37076296330528,57.58417211499962,9.70840483205393e-05,0.0900387018918991,0,0,0
5484,190631.42684758507,2010-10-24 18:20:56,5612.84459076429,2,17,0.5501165986061096,4.192692279815674,16.62601214672131,15.786294701196542,66.38998160575558,57.58417211499962,9.71794142969884e-05,0.0900387018918991,0,0,0
5485,190661.44218148265,2010-10-24 18:21:26,5642.85992466185,2,17,0.5499359965324402,4.196415424346924,16.630598117878506,15.786294701196542,66.40921758881682,57.58417211499962,9.71794142969884e-05,0.0900387018918991,0,0,0
5486,190689.7541704656,2010-10-24 18:21:55,5671.171913669838,2,17,0.5501165986061096,4.200138568878174,16.63492375635036,15.786294701196542,66.42737736009161,57.58417211499962,0.0001295089750783,0.0900387018918991,0,0,0
5487,190719.76819050225,2010-10-24 18:22:25,30.01525196836732,3,17,0.0,4.117738723754883,16.63492375635036,15.786294701196542,66.42737736009161,57.58417211499962,-0.0003885269106831,0.0900387018918991,0,0,0
5488,190749.7832561663,2010-10-24 18:22:55,60.030317637419415,3,17,0.0,4.107702255249023,16.63492375635036,15.786294701196542,66.42737736009161,57.58417211499962,-0.0001942634553415,0.0900387018918991,0,0,0
5489,190779.7985946202,2010-10-24 18:23:25,90.0456561163978,3,17,0.0,4.101874351501465,16.63492375635036,15.786294701196542,66.42737736009161,57.58417211499962,-9.70840483205393e-05,0.0900387018918991,0,0,0
5490,190809.76680247017,2010-10-24 18:23:55,120.01386396634688,3,17,0.0,4.097989082336426,16.63492375635036,15.786294701196542,66.42737736009161,57.58417211499962,-6.47544875391759e-05,0.0900387018918991,0,0,0
5491,190809.76721466208,2010-10-24 18:23:55,2.917270736e-06,4,17,0.9992918968200684,4.199653148651123,16.63492375716014,15.786294701196542,66.4273773634924,57.58417211499962,0.0,0.0900387018918991,0,0,0
5492,190810.42334066497,2010-10-24 18:23:56,0.656128950229804,4,17,0.948901891708374,4.199491024017334,16.63509961296688,15.786294701196542,66.42811588357539,57.58417211499962,-3.24249267578125e-05,0.0900387018918991,0,0,0
5493,190812.2983179202,2010-10-24 18:23:57,2.531106150328511,4,17,0.8985118865966797,4.199653148651123,16.635579595825185,15.786294701196542,66.43013161887156,57.58417211499962,0.0,0.0900387018918991,0,0,0
5494,190815.28263388385,2010-10-24 18:24:00,5.515422128998427,4,17,0.8479413390159607,4.199653148651123,16.636302521481017,15.786294701196542,66.43316762742688,57.58417211499962,0.0,0.0900387018918991,0,0,0
5495,190819.4388263192,2010-10-24 18:24:05,9.671614584425798,4,17,0.7977319359779358,4.199653148651123,16.63725146473492,15.786294701196542,66.43715283003483,57.58417211499962,3.24249267578125e-05,0.0900387018918991,0,0,0
5496,190824.90773747355,2010-10-24 18:24:10,15.140525733751812,4,17,0.7473419308662415,4.199491024017334,16.63842380030154,15.786294701196542,66.44207620607479,57.58417211499962,-3.24249267578125e-05,0.0900387018918991,0,0,0
5497,190831.98577439945,2010-10-24 18:24:17,22.21856268469108,4,17,0.6973131895065308,4.199329376220703,16.639842341943663,15.786294701196542,66.44803355304,57.58417211499962,-3.23295607813634e-05,0.0900387018918991,0,0,0
5498,190841.3604301611,2010-10-24 18:24:27,31.5932183912212,4,17,0.6471037864685059,4.199491024017334,16.641590471162772,15.786294701196542,66.45537507074988,57.58417211499962,-3.24249267578125e-05,0.0900387018918991,0,0,0
5499,190854.39147003705,2010-10-24 18:24:40,44.62425829220519,4,17,0.5970750451087952,4.199491024017334,16.643838099156792,15.786294701196542,66.46481428976126,57.58417211499962,-3.24249267578125e-05,0.0900387018918991,0,0,0
5500,190873.90708810205,2010-10-24 18:24:59,64.13987646249113,4,17,0.5470462441444397,4.199653148651123,16.646929824572645,15.786294701196542,66.47779843873916,57.58417211499962,0.0,0.0900387018918991,0,0,0
5501,190906.156391504,2010-10-24 18:25:31,96.38917973410652,4,17,0.4970174729824066,4.199491024017334,16.65158724618369,15.786294701196542,66.49735796574352,57.58417211499962,-3.24249267578125e-05,0.0900387018918991,0,0,0
5502,190964.1712362177,2010-10-24 18:26:29,154.40402445286713,4,17,0.4468080997467041,4.199491024017334,16.659159987810465,15.786294701196542,66.52916079394396,57.58417211499962,-3.24249267578125e-05,0.0900387018918991,0,0,0
5503,191054.95142163217,2010-10-24 18:28:00,245.18420986227213,4,17,0.396779328584671,4.199653148651123,16.66976700500177,15.786294701196542,66.57370648193022,57.58417211499962,0.0,0.0900387018918991,0,0,0
5504,191169.26232994825,2010-10-24 18:29:54,359.495118188408,4,17,0.3465699553489685,4.199653148651123,16.681554285893068,15.786294701196542,66.62320890620477,57.58417211499962,0.0,0.0900387018918991,0,0,0
5505,191306.6977996616,2010-10-24 18:32:12,496.9305878917456,4,17,0.2965411841869354,4.199491024017334,16.693817502054724,15.786294701196542,66.67471008364014,57.58417211499962,0.0,0.0900387018918991,0,0,0
5506,191469.89893347785,2010-10-24 18:34:55,660.131721738024,4,17,0.2465124130249023,4.199491024017334,16.706106056554567,15.786294701196542,66.72631766320676,57.58417211499962,-3.24249267578125e-05,0.0900387018918991,0,0,0
5507,191672.1459458976,2010-10-24 18:38:17,862.3787341277491,4,17,0.1964836567640304,4.199491024017334,16.718513271461262,15.786294701196542,66.77842347867896,57.58417211499962,-3.24249267578125e-05,0.0900387018918991,0,0,0
5508,191940.5329542029,2010-10-24 18:42:46,1130.765742433064,4,17,0.1464548856019973,4.199491024017334,16.73122036162294,15.786294701196542,66.83178869937034,57.58417211499962,-3.24249267578125e-05,0.0900387018918991,0,0,0
5509,192342.88707353457,2010-10-24 18:49:28,1533.119861804806,4,17,0.0964261144399643,4.199491024017334,16.74460163625051,15.786294701196542,66.88798529800526,57.58417211499962,-3.24249267578125e-05,0.0900387018918991,0,0,0
5510,193047.08037564327,2010-10-24 19:01:12,2237.3131638784357,4,17,0.0498289167881011,4.199491024017334,16.758393907349156,15.786294701196542,66.94590801875577,57.58417211499962,0.0,0.0900387018918991,0,0,0
5511,193077.0953550071,2010-10-24 19:01:42,30.01535826829945,5,17,0.0,4.192044734954834,16.758393907349156,15.786294701196542,66.94590801875577,57.58417211499962,-3.23295607813634e-05,0.0900387018918991,0,0,0
5512,193107.094809388,2010-10-24 19:02:12,60.01481278956785,5,17,0.0,4.191073417663574,16.758393907349156,15.786294701196542,66.94590801875577,57.58417211499962,0.0,0.0900387018918991,0,0,0
5513,193107.28287287377,2010-10-24 19:02:13,0.18763103928252,6,17,-1.9243103452026844e-05,4.190749645233154,16.758393907349156,15.786294702199488,66.94590801875577,57.58417211920271,0.0,0.0931148082017898,0,0,0
5514,193112.11083456984,2010-10-24 19:02:18,5.01559279049323,6,17,0.0003419754502829,4.190749645233154,16.75839449289851,15.786294702365506,66.94591047278047,57.58417211989847,-3.23295607813634e-05,0.0931148082017898,0,0,0
5515,193142.1266541205,2010-10-24 19:02:48,30.01533263441192,7,17,-1.099929690361023,4.021093368530273,16.75839449289851,15.795464594962224,66.94591047278047,57.62123472245283,-0.0008741378551349,0.0931148082017898,0,0,0
5516,193172.14176160377,2010-10-24 19:03:18,60.03044010765292,7,17,-1.099568486213684,3.995353221893311,16.75839449289851,15.80463440159014,66.94591047278047,57.657980133851005,-0.0005504131549969,0.0931148082017898,0,0,0
5517,193202.15733533405,2010-10-24 19:03:48,90.04601396827478,7,17,-1.1001102924346924,3.977384090423584,16.75839449289851,15.813804320406598,66.94591047278047,57.69453155252144,-0.0004532813909463,0.0931148082017898,0,0,0
5518,193232.17220633297,2010-10-24 19:04:18,120.06088486188656,7,17,-1.0997490882873535,3.963623762130737,16.75839449289851,15.822973894552534,66.94591047278047,57.730937883240365,-0.0003237724304199,0.0931148082017898,0,0,0
5519,193262.1873907279,2010-10-24 19:04:48,150.07606923177767,7,17,-1.099929690361023,3.9516441822052,16.75839449289851,15.83214358495005,66.94591047278047,57.76722689633915,-0.0003237724304199,0.0931148082017898,0,0,0
5520,193292.20261196967,2010-10-24 19:05:18,180.0912904685524,7,17,-1.0997490882873535,3.9411215782165527,16.75839449289851,15.841313321645949,66.94591047278047,57.80341335898516,-0.0002590179501567,0.0931148082017898,0,0,0
5521,193322.2178325097,2010-10-24 19:05:48,210.10651101360315,7,17,-1.099929690361023,3.931084632873535,16.75839449289851,15.85048303717218,66.94591047278047,57.83950591763178,-0.0002913951757363,0.0931148082017898,0,0,0
5522,193352.23305407737,2010-10-24 19:06:18,240.12173260626489,7,17,-1.1001102924346924,3.921695232391357,16.75839449289851,15.85965275127622,66.94591047278047,57.87551048362158,-0.0002590179501567,0.0931148082017898,0,0,0
5523,193382.2483883408,2010-10-24 19:06:48,270.1370668546994,7,17,-1.0997490882873535,3.9127917289733887,16.75839449289851,15.868822509234652,66.94591047278047,57.91143099211705,-0.0002265930233988,0.0931148082017898,0,0,0
5524,193412.2634677992,2010-10-24 19:07:18,300.15214632815633,7,17,-1.099929690361023,3.904049873352051,16.75839449289851,15.877992218580191,66.94591047278047,57.947270222302606,-0.0002590179501567,0.0931148082017898,0,0,0
5525,193442.2788105388,2010-10-24 19:07:48,330.1674890677535,7,17,-1.099568486213684,3.895793676376343,16.75839449289851,15.887161305843572,66.94591047278047,57.983028474497736,-0.0001942634553415,0.0931148082017898,0,0,0
5526,193472.2938992102,2010-10-24 19:08:18,360.1825777090595,7,17,-1.099929690361023,3.887213706970215,16.75839449289851,15.896330203830672,66.94591047278047,58.01870951039908,-0.0002590179501567,0.0931148082017898,0,0,0
5527,193502.3091234344,2010-10-24 19:08:48,390.1978019633548,7,17,-1.1001102924346924,3.879119396209717,16.75839449289851,15.905499804037614,66.94591047278047,58.054317582180765,-0.0002266406954731,0.0931148082017898,0,0,0
5528,193532.3243407565,2010-10-24 19:09:18,420.2130192603103,7,17,-1.099929690361023,3.8711869716644287,16.75839449289851,15.914669597158223,66.94591047278047,58.0898522149708,-0.0001942634553415,0.0931148082017898,0,0,0
5529,193562.33956308596,2010-10-24 19:09:48,450.2282415898084,7,17,-1.0997490882873535,3.8632545471191406,16.75839449289851,15.923839423684706,66.94591047278047,58.12531439939033,-0.0002266406954731,0.0931148082017898,0,0,0
5530,193592.3549086676,2010-10-24 19:10:18,480.2435871765014,7,17,-1.0997490882873535,3.8558077812194815,16.75839449289851,15.933009302931984,66.94591047278047,58.1607050551375,-0.0001295089750783,0.0931148082017898,0,0,0
5531,193622.3699783316,2010-10-24 19:10:48,510.2586568354977,7,17,-1.0997490882873535,3.848037242889404,16.75839449289851,15.942179165470314,66.94591047278047,58.19602530694954,-0.0001618862152099,0.0931148082017898,0,0,0
5532,193652.38519572385,2010-10-24 19:11:18,540.2738742276905,7,17,-1.0997490882873535,3.840428590774536,16.75839449289851,15.951349078010209,66.94591047278047,58.23127624900354,-0.0001942634553415,0.0931148082017898,0,0,0
5533,193682.40042557707,2010-10-24 19:11:48,570.28910420124,7,17,-1.0997490882873535,3.833143949508667,16.75839449289851,15.960519007364663,66.94591047278047,58.26645842051408,-0.0001942157687153,0.0931148082017898,0,0,0
5534,193712.41562041303,2010-10-24 19:12:18,600.3042989419785,7,17,-1.1001102924346924,3.825535297393799,16.75839449289851,15.969688920110787,66.94591047278047,58.30157270404092,-0.0002266406954731,0.0931148082017898,0,0,0
5535,193742.43096933805,2010-10-24 19:12:48,630.319647841929,7,17,-1.0997490882873535,3.818412303924561,16.75839449289851,15.97885888195861,66.94591047278047,58.3366201773309,-0.0001942634553415,0.0931148082017898,0,0,0
5536,193772.4461106757,2010-10-24 19:13:18,660.334789304883,7,17,-1.0997490882873535,3.811127424240112,16.75839449289851,15.988028724671986,66.94591047278047,58.37160173327171,-0.0001942634553415,0.0931148082017898,0,0,0
5537,193802.46129847417,2010-10-24 19:13:48,690.3499770080816,7,17,-1.0997490882873535,3.804490089416504,16.75839449289851,15.997198574786724,66.94591047278047,58.40651887861796,-0.0001618862152099,0.0931148082017898,0,0,0
5538,193832.4764883728,2010-10-24 19:14:18,720.3651668766773,7,17,-1.1001102924346924,3.797528982162476,16.75839449289851,16.006368484447762,66.94591047278047,58.44137335535242,-0.0001942634553415,0.0931148082017898,0,0,0
5539,193862.49169703323,2010-10-24 19:14:48,750.3803755571578,7,17,-1.0997490882873535,3.790891647338867,16.75839449289851,16.015538414570127,66.94591047278047,58.47616621842759,-0.0001942634553415,0.0931148082017898,0,0,0
5540,193892.506911448,2010-10-24 19:15:18,780.39558995188,7,17,-1.0997490882873535,3.784578084945679,16.75839449289851,16.02470833149048,66.94591047278047,58.51089882703898,-0.0001618862152099,0.0931148082017898,0,0,0
5541,193922.5221490205,2010-10-24 19:15:48,810.4108275494309,7,17,-1.0997490882873535,3.77826452255249,16.75839449289851,16.033878237396927,66.94591047278047,58.54557256924452,-0.0001295089750783,0.0931148082017898,0,0,0
5542,193952.5374513644,2010-10-24 19:16:18,840.4261299935995,7,17,-1.099929690361023,3.771789073944092,16.75839449289851,16.04304815211904,66.94591047278047,58.58018873924339,-0.0001942634553415,0.0931148082017898,0,0,0
5543,193982.55517184507,2010-10-24 19:16:48,870.4438504742589,7,17,-1.099568486213684,3.765961170196533,16.75839449289851,16.05221884618888,66.94591047278047,58.614751272367855,-0.0001295089750783,0.0931148082017898,0,0,0
5544,194012.56803077424,2010-10-24 19:17:18,900.4567093132114,7,17,-1.099929690361023,3.7598094940185542,16.75839449289851,16.061387990722015,66.94591047278047,58.649252726664194,-0.0001942634553415,0.0931148082017898,0,0,0
5545,194042.58307587204,2010-10-24 19:17:48,930.4717544009684,7,17,-1.099929690361023,3.753981590270996,16.75839449289851,16.07055791650165,66.94591047278047,58.683703060377205,-0.0001618862152099,0.0931148082017898,0,0,0
5546,194072.59828702867,2010-10-24 19:18:18,960.4869656578704,7,17,-1.099929690361023,3.7481539249420166,16.75839449289851,16.079727888497736,66.94591047278047,58.71809989018686,-0.0001942634553415,0.0931148082017898,0,0,0
5547,194102.6134099955,2010-10-24 19:18:48,990.502088499414,7,17,-1.0997490882873535,3.742487907409668,16.75839449289851,16.088897774574395,66.94591047278047,58.7524439502384,-0.0001618862152099,0.0931148082017898,0,0,0
5548,194132.62862736263,2010-10-24 19:19:18,1020.5173058966192,7,17,-1.1001102924346924,3.7368218898773193,16.75839449289851,16.09806767868193,66.94591047278047,58.78673597841866,-0.0001295089750783,0.0931148082017898,0,0,0
5549,194162.64421136852,2010-10-24 19:19:48,1050.5328900178135,7,17,-1.1001102924346924,3.7313177585601807,16.75839449289851,16.107237746084728,66.94591047278047,58.820977352281176,-0.0001295089750783,0.0931148082017898,0,0,0
5550,194192.65905231252,2010-10-24 19:20:18,1080.5477308164195,7,17,-1.099929690361023,3.725975513458252,16.75839449289851,16.116407476188158,66.94591047278047,58.85516739445858,-0.0001295089750783,0.0931148082017898,0,0,0
5551,194222.6743480901,2010-10-24 19:20:48,1110.5630265939726,7,17,-1.099929690361023,3.7206332683563232,16.75839449289851,16.12557738823505,66.94591047278047,58.88930944234296,-0.0001295089750783,0.0931148082017898,0,0,0
5552,194252.68952149767,2010-10-24 19:21:18,1140.5782000316171,7,17,-1.1002910137176514,3.7152910232543945,16.75839449289851,16.13474722310147,66.94591047278047,58.92340330129194,-0.0001942634553415,0.0931148082017898,0,0,0
5553,194282.70473270948,2010-10-24 19:21:48,1170.5934112183445,7,17,-1.0997490882873535,3.7102725505828857,16.75839449289851,16.143917155884054,66.94591047278047,58.95745034941121,-0.0001295089750783,0.0931148082017898,0,0,0
5554,194312.7199322772,2010-10-24 19:22:18,1200.608610856288,7,17,-1.099929690361023,3.705254077911377,16.75839449289851,16.153087097181487,66.94591047278047,58.99145064530271,-0.0001295089750783,0.0931148082017898,0,0,0
5555,194342.7351501105,2010-10-24 19:22:48,1230.6238286143928,7,17,-1.099929690361023,3.700235605239868,16.75839449289851,16.162257056069553,66.94591047278047,59.02540455569664,-0.0001295089750783,0.0931148082017898,0,0,0
5556,194372.7503667859,2010-10-24 19:23:18,1260.639045289799,7,17,-1.099929690361023,3.695379018783569,16.75839449289851,16.17142696887873,66.94591047278047,59.059312663988585,-0.0001295089750783,0.0931148082017898,0,0,0
5557,194402.76572699405,2010-10-24 19:23:48,1290.6544055029458,7,17,-1.099929690361023,3.6905224323272714,16.75839449289851,16.180596927460254,66.94591047278047,59.093176216529145,-0.0001295089750783,0.0931148082017898,0,0,0
5558,194432.7809323964,2010-10-24 19:24:18,1320.6696110506186,7,17,-1.099929690361023,3.685342073440552,16.75839449289851,16.189766922055366,66.94591047278047,59.126995571511294,-0.0001942634553415,0.0931148082017898,0,0,0
5559,194462.79612983885,2010-10-24 19:24:48,1350.684808352741,7,17,-1.0997490882873535,3.680971145629883,16.75839449289851,16.198936820197424,66.94591047278047,59.16077095132237,-0.0001295089750783,0.0931148082017898,0,0,0
5560,194492.8112191468,2010-10-24 19:25:18,1380.6998976506834,7,17,-1.099929690361023,3.676438331604004,16.75839449289851,16.208106720749267,66.94591047278047,59.19450348825546,-6.47544875391759e-05,0.0931148082017898,0,0,0
5561,194522.82644995747,2010-10-24 19:25:48,1410.715128461319,7,17,-1.0997490882873535,3.671743869781494,16.75839449289851,16.21727671756431,66.94591047278047,59.22819398240698,-0.0001295089750783,0.0931148082017898,0,0,0
5562,194552.841732076,2010-10-24 19:26:18,1440.7304106901047,7,17,-1.0997490882873535,3.6672110557556152,16.75839449289851,16.22644672246903,66.94591047278047,59.26184249878012,-9.713172767078504e-05,0.0931148082017898,0,0,0
5563,194582.85686303777,2010-10-24 19:26:48,1470.7455415716863,7,17,-1.099929690361023,3.662678241729736,16.75839449289851,16.235616657238555,66.94591047278047,59.29544995526546,-0.0001618862152099,0.0931148082017898,0,0,0
5564,194612.872225301,2010-10-24 19:27:18,1500.7609038399548,7,17,-1.1001102924346924,3.6583073139190674,16.75839449289851,16.244786689729896,66.94591047278047,59.32901746341088,-0.0001618862152099,0.0931148082017898,0,0,0
5565,194642.8873565184,2010-10-24 19:27:48,1530.776035022286,7,17,-1.0997490882873535,3.654098272323608,16.75839449289851,16.253956620458347,66.94591047278047,59.36254480386235,-9.713172767078504e-05,0.0931148082017898,0,0,0
5566,194672.9026314991,2010-10-24 19:28:18,1560.7913100130324,7,17,-1.099929690361023,3.64972734451294,16.75839449289851,16.263126653196682,66.94591047278047,59.39603357371349,-9.713172767078504e-05,0.0931148082017898,0,0,0
5567,194702.91784950788,2010-10-24 19:28:48,1590.8065280117369,7,17,-1.099568486213684,3.645842075347901,16.75839449289851,16.272296595267715,66.94591047278047,59.42948349234189,-6.47544875391759e-05,0.0931148082017898,0,0,0
5568,194732.9330586996,2010-10-24 19:29:18,1620.8217372135168,7,17,-1.099929690361023,3.6416330337524414,16.75839449289851,16.281466490429505,66.94591047278047,59.46289557164397,-9.713172767078504e-05,0.0931148082017898,0,0,0
5569,194762.94816536084,2010-10-24 19:29:48,1650.836843864709,7,17,-1.0997490882873535,3.637585878372192,16.75839449289851,16.290636386337717,66.94591047278047,59.49627071466598,-0.0001295089750783,0.0931148082017898,0,0,0
5570,194792.96349647647,2010-10-24 19:30:18,1680.852174985348,7,17,-1.099929690361023,3.633700609207153,16.75839449289851,16.299806317144753,66.94591047278047,59.52960966850179,-9.713172767078504e-05,0.0931148082017898,0,0,0
5571,194822.97858544852,2010-10-24 19:30:48,1710.867263952466,7,17,-1.0997490882873535,3.629977226257324,16.75839449289851,16.308976178107613,66.94591047278047,59.562912949059886,-9.713172767078504e-05,0.0931148082017898,0,0,0
5572,194852.993936143,2010-10-24 19:31:19,1740.8826146468894,7,17,-1.0997490882873535,3.626253843307495,16.75839449289851,16.31814613387963,66.94591047278047,59.59618176689566,-9.713172767078504e-05,0.0931148082017898,0,0,0
5573,194883.00902454875,2010-10-24 19:31:49,1770.897703052608,7,17,-1.099929690361023,3.622530460357666,16.75839449289851,16.327316000810715,66.94591047278047,59.629416375539016,-9.713172767078504e-05,0.0931148082017898,0,0,0
5574,194913.02422194107,2010-10-24 19:32:19,1800.9129004449553,7,17,-1.1001102924346924,3.618968963623047,16.75839449289851,16.336485957868696,66.94591047278047,59.66261835743872,-6.47544875391759e-05,0.0931148082017898,0,0,0
5575,194943.03943705765,2010-10-24 19:32:49,1830.9281155614765,7,17,-1.0997490882873535,3.615407466888428,16.75839449289851,16.34565583619508,66.94591047278047,59.69578761893979,-9.713172767078504e-05,0.0931148082017898,0,0,0
5576,194973.05466192844,2010-10-24 19:33:19,1860.9433404573708,7,17,-1.0997490882873535,3.612169742584229,16.75839449289851,16.35482575975214,66.94591047278047,59.72892568963952,-6.47544875391759e-05,0.0931148082017898,0,0,0
5577,195003.06988783184,2010-10-24 19:33:49,1890.9585663357136,7,17,-1.099568486213684,3.6087701320648193,16.75839449289851,16.36399574144602,66.94591047278047,59.76203321369331,-6.47544875391759e-05,0.0931148082017898,0,0,0
5578,195033.08508343977,2010-10-24 19:34:19,1920.9737619436137,7,17,-1.0997490882873535,3.60553240776062,16.75839449289851,16.37316570131047,66.94591047278047,59.79511041829289,-9.713172767078504e-05,0.0931148082017898,0,0,0
5579,195063.10028908768,2010-10-24 19:34:49,1950.9889676165983,7,17,-1.0997490882873535,3.602294683456421,16.75839449289851,16.382335637362402,66.94591047278047,59.82815779114874,-6.47544875391759e-05,0.0931148082017898,0,0,0
5580,195093.1154877281,2010-10-24 19:35:19,1981.0041662319936,7,17,-1.0997490882873535,3.5990569591522217,16.75839449289851,16.391505529432216,66.94591047278047,59.86117625769496,-9.713172767078504e-05,0.0931148082017898,0,0,0
5581,195123.1309156601,2010-10-24 19:35:49,2011.0195941639165,7,17,-1.0997490882873535,3.5961430072784424,16.75839449289851,16.40067549114329,66.94591047278047,59.89416650096167,-6.47544875391759e-05,0.0931148082017898,0,0,0
5582,195153.14594098352,2010-10-24 19:36:19,2041.034619512477,7,17,-1.0997490882873535,3.593229055404663,16.75839449289851,16.409845298201574,66.94591047278047,59.92712839602205,-3.237724376958795e-05,0.0931148082017898,0,0,0
5583,195183.1611428721,2010-10-24 19:36:49,2071.04982138098,7,17,-1.0997490882873535,3.590153455734253,16.75839449289851,16.419015264649683,66.94591047278047,59.96006322060838,-6.47544875391759e-05,0.0931148082017898,0,0,0
5584,195213.17650545115,2010-10-24 19:37:19,2101.065183965036,7,17,-1.099929690361023,3.587077617645264,16.75839449289851,16.42818521967433,66.94591047278047,59.99297085723878,-9.713172767078504e-05,0.0931148082017898,0,0,0
5585,195243.19157558127,2010-10-24 19:37:49,2131.0802540952063,7,17,-1.099929690361023,3.5840017795562744,16.75839449289851,16.437355087297764,66.94591047278047,60.02585092035687,-9.713172767078504e-05,0.0931148082017898,0,0,0
5586,195273.2067936301,2010-10-24 19:38:19,2161.095472134011,7,17,-1.099929690361023,3.581249713897705,16.75839449289851,16.446524994949904,66.94591047278047,60.0587044670224,-9.713172767078504e-05,0.0931148082017898,0,0,0
5587,195303.22214769296,2010-10-24 19:38:49,2191.110826206854,7,17,-1.099929690361023,3.578335762023926,16.75839449289851,16.455694963723644,66.94591047278047,60.09153158115262,-9.713172767078504e-05,0.0931148082017898,0,0,0
5588,195333.23719989345,2010-10-24 19:39:19,2221.125878407338,7,17,-1.0997490882873535,3.5755836963653564,16.75839449289851,16.464864849933427,66.94591047278047,60.12433177956618,-3.237724376958795e-05,0.0931148082017898,0,0,0
5589,195363.2525216457,2010-10-24 19:39:49,2251.141200274916,7,17,-1.0997490882873535,3.572507858276367,16.75839449289851,16.47403481977171,66.94591047278047,60.15710525610262,-9.713172767078504e-05,0.0931148082017898,0,0,0
5590,195393.2677504664,2010-10-24 19:40:19,2281.156428980305,7,17,-1.0997490882873535,3.569593906402588,16.75839449289851,16.483204763778026,66.94591047278047,60.18985160600972,-6.47544875391759e-05,0.0931148082017898,0,0,0
5591,195423.28284189463,2010-10-24 19:40:49,2311.1715204085567,7,17,-1.099929690361023,3.566518068313598,16.75839449289851,16.492374616487275,66.94591047278047,60.222570377418414,-0.0001295089750783,0.0931148082017898,0,0,0
5592,195453.29805472543,2010-10-24 19:41:19,2341.1867332293564,7,17,-1.099929690361023,3.5632803440093994,16.75839449289851,16.50154453627074,66.94591047278047,60.25526147470792,-9.713172767078504e-05,0.0931148082017898,0,0,0
5593,195483.3132951952,2010-10-24 19:41:49,2371.201973699065,7,17,-1.0997490882873535,3.56052827835083,16.75839449289851,16.510714361214596,66.94591047278047,60.28792501564127,-6.47544875391759e-05,0.0931148082017898,0,0,0
5594,195513.3286101355,2010-10-24 19:42:19,2401.217288669453,7,17,-1.0997490882873535,3.557452440261841,16.75839449289851,16.51988426461435,66.94591047278047,60.32056043489859,-6.47544875391759e-05,0.0931148082017898,0,0,0
5595,195543.34369173925,2010-10-24 19:42:49,2431.232370243144,7,17,-1.099929690361023,3.554052829742432,16.75839449289851,16.52905414250642,66.94591047278047,60.35316687647634,-0.0001295089750783,0.0931148082017898,0,0,0
5596,195573.3590332458,2010-10-24 19:43:19,2461.2477117596936,7,17,-1.099929690361023,3.5509769916534424,16.75839449289851,16.538224100311297,66.94591047278047,60.38574399469858,-6.47544875391759e-05,0.0931148082017898,0,0,0
5597,195603.37426252264,2010-10-24 19:43:49,2491.2629410264813,7,17,-1.099929690361023,3.547577381134033,16.75839449289851,16.547394028305657,66.94591047278047,60.418290655052296,-6.47544875391759e-05,0.0931148082017898,0,0,0
5598,195633.389340342,2010-10-24 19:44:19,2521.278018870878,7,17,-1.099929690361023,3.544177770614624,16.75839449289851,16.55656396747329,66.94591047278047,60.45080629373041,-9.713172767078504e-05,0.0931148082017898,0,0,0
5599,195663.40468113168,2010-10-24 19:44:49,2551.293359655603,7,17,-1.0997490882873535,3.540778160095215,16.75839449289851,16.565733941194857,66.94591047278047,60.48329021829796,-6.47544875391759e-05,0.0931148082017898,0,0,0
5600,195693.4197948555,2010-10-24 19:45:19,2581.3084733894475,7,17,-1.099929690361023,3.536892890930176,16.75839449289851,16.574903837037535,66.94591047278047,60.51574097169409,-0.0001295089750783,0.0931148082017898,0,0,0
5601,195723.43500455352,2010-10-24 19:45:49,2611.3236830624014,7,17,-1.099929690361023,3.5330076217651367,16.75839449289851,16.58407381412268,66.94591047278047,60.54815791564991,-0.0001295089750783,0.0931148082017898,0,0,0
5602,195753.45021706857,2010-10-24 19:46:19,2641.3388955724267,7,17,-1.099929690361023,3.5291223526000977,16.75839449289851,16.59324373931375,66.94591047278047,60.5805392843973,-0.0001295089750783,0.0931148082017898,0,0,0
5603,195783.465409679,2010-10-24 19:46:49,2671.354088182856,7,17,-1.099929690361023,3.5250751972198486,16.75839449289851,16.602413740881794,66.94591047278047,60.61288391770828,-0.0001295089750783,0.0931148082017898,0,0,0
5604,195813.48063054483,2010-10-24 19:47:19,2701.369309078781,7,17,-1.099929690361023,3.52070426940918,16.75839449289851,16.611583679281743,66.94591047278047,60.645189378539705,-0.0001618862152099,0.0931148082017898,0,0,0
5605,195843.49584805232,2010-10-24 19:47:49,2731.384526586261,7,17,-1.099929690361023,3.5163333415985107,16.75839449289851,16.620753639661597,66.94591047278047,60.67745399123362,-0.0001295089750783,0.0931148082017898,0,0,0
5606,195873.51104833183,2010-10-24 19:48:19,2761.399726835729,7,17,-1.099929690361023,3.511315107345581,16.75839449289851,16.6299235998942,66.94591047278047,60.70967510450789,-9.70840483205393e-05,0.0931148082017898,0,0,0
5607,195903.5275987313,2010-10-24 19:48:49,2791.416277450724,7,17,-1.099929690361023,3.5059728622436523,16.75839449289851,16.639093931359017,66.94591047278047,60.74185069620387,-0.0001618862152099,0.0931148082017898,0,0,0
5608,195933.5277968408,2010-10-24 19:49:19,2821.4164754399426,7,17,-1.1001102924346924,3.499983072280884,16.75839449289851,16.648259282485064,66.94591047278047,60.77395736979418,-0.0001942634553415,0.0931148082017898,0,0,0
5609,195963.54132889264,2010-10-24 19:49:49,2851.430007436611,7,17,-1.099929690361023,3.4933457374572754,16.75839449289851,16.65742873346018,66.94591047278047,60.80602141755203,-0.0002266406954731,0.0931148082017898,0,0,0
5610,195993.55643601,2010-10-24 19:50:19,2881.445114538928,7,17,-1.0997490882873535,3.486222743988037,16.75839449289851,16.666598687807664,66.94591047278047,60.83802361823373,-0.0001942634553415,0.0931148082017898,0,0,0
5611,196023.57149598983,2010-10-24 19:50:49,2911.4601745188006,7,17,-1.099929690361023,3.477642774581909,16.75839449289851,16.67576855844918,66.94591047278047,60.86995292883155,-0.0002590179501567,0.0931148082017898,0,0,0
5612,196053.5867333769,2010-10-24 19:51:19,2941.4754119108397,7,17,-1.099929690361023,3.4679296016693115,16.75839449289851,16.684938504863073,66.94591047278047,60.90179888061722,-0.0002913951757363,0.0931148082017898,0,0,0
5613,196083.60189967675,2010-10-24 19:51:49,2971.490578185632,7,17,-1.0997490882873535,3.4564356803894043,16.75839449289851,16.69410844686897,66.94591047278047,60.933547680708976,-0.0003237724304199,0.0931148082017898,0,0,0
5614,196113.61732006987,2010-10-24 19:52:19,3001.505998573753,7,17,-1.1001102924346924,3.4423515796661377,16.75839449289851,16.703278440147404,66.94591047278047,60.96518115654735,-0.0004532813909463,0.0931148082017898,0,0,0
5615,196143.6323535838,2010-10-24 19:52:49,3031.52103211774,7,17,-1.1001102924346924,3.425191879272461,16.75839449289851,16.712448361857295,66.94591047278047,60.99667316982955,-0.0005504131549969,0.0931148082017898,0,0,0
5616,196173.64756165777,2010-10-24 19:53:19,3061.5362401666466,7,17,-1.099929690361023,3.4031753540039062,16.75839449289851,16.721618381509003,66.94591047278047,61.02798616473344,-0.0006475448608398,0.0931148082017898,0,0,0
5617,196203.6629180915,2010-10-24 19:53:49,3091.5515966053854,7,17,-1.0997490882873535,3.373064517974853,16.75839449289851,16.73078837339041,66.94591047278047,61.059061772246295,-0.0009065627818927,0.0931148082017898,0,0,0
5618,196233.67796936468,2010-10-24 19:54:19,3121.566647863521,7,17,-1.0997490882873535,3.330812454223633,16.75839449289851,16.739958203272025,66.94591047278047,61.08980850696389,-0.0012627125252038,0.0931148082017898,0,0,0
5619,196263.6932290272,2010-10-24 19:54:49,3151.58190753609,7,17,-1.0997490882873535,3.2705910205841064,16.75839449289851,16.749128116978053,66.94591047278047,61.12009145010754,-0.0018454551463946,0.0931148082017898,0,0,0
5620,196293.7085072109,2010-10-24 19:55:19,3181.5971858250564,7,17,-1.099929690361023,3.182363271713257,16.75839449289851,16.758297989193835,66.94591047278047,61.1497046198163,-0.0027843951247632,0.0931148082017898,0,0,0
5621,196323.72364084932,2010-10-24 19:55:49,3211.612319353234,7,17,-1.0997490882873535,3.04184627532959,16.75839449289851,16.76746784396262,66.94591047278047,61.17829964736128,-0.0047270776703953,0.0931148082017898,0,0,0
5622,196344.98898477465,2010-10-24 19:56:11,3232.877663278479,7,17,-1.0997490882873535,2.841593742370605,16.75839449289851,16.773964541968883,66.94591047278047,61.19749686485632,-0.0101664066314697,0.0931148082017898,0,0,0
5623,196354.3639103437,2010-10-24 19:56:20,3242.2525888576142,7,17,-1.0997490882873535,2.699781894683838,16.75839449289851,16.776828638002847,66.94591047278047,61.20543795565266,-0.0125946998596191,0.0931148082017898,0,0,0
5624,196414.37673679207,2010-10-24 19:57:20,60.014888508282176,8,17,0.0,3.3118717670440674,16.75839449289851,16.776828638002847,66.94591047278047,61.20543795565266,0.0013922214275225,0.0931148082017898,0,0,0
5625,196414.5630780149,2010-10-24 19:57:20,0.187602934236096,9,17,-0.001102898735553,3.312681198120117,16.75839449289851,16.77682869547703,66.94591047278047,61.20543814604629,0.0,0.0914128422737121,0,0,0
5626,196419.39104178612,2010-10-24 19:57:25,5.015566735556309,9,17,0.0003419754502829,3.319966077804565,16.75839494908892,16.776828695642642,66.9459119858252,61.205438146595576,0.0011332035064697,0.0914128422737121,0,0,0
