Data_Point,Test_Time(s),Date_Time,Step_Time(s),Step_Index,Cycle_Index,Current(A),Voltage(V),Charge_Capacity(Ah),Discharge_Capacity(Ah),Charge_Energy(Wh),Discharge_Energy(Wh),dV/dt(V/s),Internal_Resistance(Ohm),Is_FC_Data,AC_Impedance(Ohm),ACI_Phase_Angle(Deg)
650,23241.59983999355,2010-10-22 19:50:49,30.01515133756439,1,3,0.0,3.422439813613892,1.947683965303797,1.951855740556913,7.809339066936984,7.081205267945023,0.0008418083307333,0.0939245000481605,0,0,0
651,23271.614976619443,2010-10-22 19:51:19,60.03028792336284,1,3,0.0,3.4468843936920166,1.947683965303797,1.951855740556913,7.809339066936984,7.081205267945023,0.0005504131549969,0.0939245000481605,0,0,0
652,23301.630113270407,2010-10-22 19:51:49,90.04542458434868,1,3,0.0,3.465339422225952,1.947683965303797,1.951855740556913,7.809339066936984,7.081205267945023,0.0004532813909463,0.0939245000481605,0,0,0
653,23331.598371370597,2010-10-22 19:52:19,120.01368268453685,1,3,0.0,3.4803948402404785,1.947683965303797,1.951855740556913,7.809339066936984,7.081205267945023,0.0003885269106831,0.0939245000481605,0,0,0
654,23361.614575678235,2010-10-22 19:52:49,30.015155618233138,2,3,0.5501165986061096,3.633700609207153,1.952270275245239,1.951855740556913,7.825852787957169,7.081205267945023,0.0015217304462566,0.0939245000481605,0,0,0
655,23391.629672489908,2010-10-22 19:53:19,60.03025240483975,2,3,0.5499359965324402,3.676923990249634,1.956856642440987,1.951855740556913,7.842623703654291,7.081205267945023,0.0009388923645019,0.0939245000481605,0,0,0
656,23421.64480471484,2010-10-22 19:53:49,90.04538462976959,2,3,0.550297200679779,3.7080061435699454,1.961442963921054,1.951855740556913,7.859561590226396,7.081205267945023,0.0007446765666827,0.0939245000481605,0,0,0
657,23451.6601651736,2010-10-22 19:54:19,120.06074516872822,2,3,0.5501165986061096,3.7318034172058105,1.966029317250042,1.951855740556913,7.876624357792805,7.081205267945023,0.0005504131549969,0.0939245000481605,0,0,0
658,23481.675106222057,2010-10-22 19:54:49,150.07568613698754,2,3,0.5501165986061096,3.751067876815796,1.970615680284394,1.951855740556913,7.893785915304603,7.081205267945023,0.0004209041653666,0.0939245000481605,0,0,0
659,23511.690215600043,2010-10-22 19:55:19,180.09079551497578,2,3,0.5499359965324402,3.766123056411743,1.975202043551314,1.951855740556913,7.911026433119549,7.081205267945023,0.0003237724304199,0.0939245000481605,0,0,0
660,23541.705355549224,2010-10-22 19:55:49,210.10593546415683,2,3,0.5501165986061096,3.7761600017547607,1.979788440169819,1.951855740556913,7.928324272754729,7.081205267945023,0.0002266406954731,0.0939245000481605,0,0,0
661,23571.72051643057,2010-10-22 19:56:19,240.12109634550728,2,3,0.5499359965324402,3.7823116779327393,1.984374822568304,1.951855740556913,7.945657822598676,7.081205267945023,0.0001618862152099,0.0939245000481605,0,0,0
662,23601.73563186867,2010-10-22 19:56:49,270.1362118136741,2,3,0.5501165986061096,3.786682605743408,1.988961174676771,1.951855740556913,7.963014815984034,7.081205267945023,0.0001295089750783,0.0939245000481605,0,0,0
663,23631.75076171266,2010-10-22 19:57:19,300.1513416526574,2,3,0.5501165986061096,3.790729761123657,1.993547529180087,1.951855740556913,7.98039131052977,7.081205267945023,9.713172767078504e-05,0.0939245000481605,0,0,0
664,23661.765906539,2010-10-22 19:57:49,330.1664864489188,2,3,0.5499359965324402,3.794615030288696,1.998133924600646,1.951855740556913,7.997786164665396,7.081205267945023,9.713172767078504e-05,0.0939245000481605,0,0,0
665,23691.781062282545,2010-10-22 19:58:19,360.18164219747683,2,3,0.5501165986061096,3.798500299453736,2.002720332285441,1.951855740556913,8.015198924763034,7.081205267945023,0.0001295089750783,0.0939245000481605,0,0,0
666,23721.79617863792,2010-10-22 19:58:49,390.1967585829298,2,3,0.550297200679779,3.8023855686187744,2.007306685318715,1.951855740556913,8.032628856588385,7.081205267945023,0.0001295089750783,0.0939245000481605,0,0,0
667,23751.811431523576,2010-10-22 19:59:19,420.2120114485333,2,3,0.550297200679779,3.806108951568604,2.011893062944052,1.951855740556913,8.050076038175543,7.081205267945023,0.0001295089750783,0.0939245000481605,0,0,0
668,23781.82646230568,2010-10-22 19:59:49,450.2270422506864,2,3,0.5501165986061096,3.809670448303223,2.016479411726126,1.951855740556913,8.067539962851667,7.081205267945023,9.713172767078504e-05,0.0939245000481605,0,0,0
669,23811.841600635827,2010-10-22 20:00:19,480.24218055075727,2,3,0.5497553944587708,3.813231945037842,2.021065834963976,1.951855740556913,8.08502065033717,7.081205267945023,0.0001295089750783,0.0939245000481605,0,0,0
670,23841.85672165282,2010-10-22 20:00:49,510.2573015677534,2,3,0.5501165986061096,3.816793441772461,2.025652224161816,1.951855740556913,8.102517722680128,7.081205267945023,0.0001295089750783,0.0939245000481605,0,0,0
671,23871.87185435394,2010-10-22 20:01:19,540.272434298945,2,3,0.550297200679779,3.82035493850708,2.030238581412455,1.951855740556913,8.120030580073887,7.081205267945023,0.0001295089750783,0.0939245000481605,0,0,0
672,23901.8870054108,2010-10-22 20:01:49,570.2875853558099,2,3,0.5499359965324402,3.823430776596069,2.034824892400092,1.951855740556913,8.137558786058596,7.081205267945023,6.47544875391759e-05,0.0939245000481605,0,0,0
673,23931.90216433728,2010-10-22 20:02:19,600.3027442522132,2,3,0.5501165986061096,3.8268303871154794,2.039411215840139,1.951855740556913,8.155102187718994,7.081205267945023,6.47544875391759e-05,0.0939245000481605,0,0,0
674,23961.91727741449,2010-10-22 20:02:49,630.317857359496,2,3,0.5501165986061096,3.829906225204468,2.043997558960417,1.951855740556913,8.172660633717838,7.081205267945023,6.47544875391759e-05,0.0939245000481605,0,0,0
675,23991.932559317465,2010-10-22 20:03:19,660.3331392323946,2,3,0.5501165986061096,3.833305597305298,2.048583968173678,1.951855740556913,8.190234188849185,7.081205267945023,9.70840483205393e-05,0.0939245000481605,0,0,0
676,24021.947549713917,2010-10-22 20:03:49,690.3481296589192,2,3,0.5501165986061096,3.836543321609497,2.053170219764155,1.951855740556913,8.207822048671744,7.081205267945023,9.713172767078504e-05,0.0939245000481605,0,0,0
677,24051.96282581743,2010-10-22 20:04:19,720.3634057423886,2,3,0.5501165986061096,3.839781045913696,2.057756610269966,1.951855740556913,8.2254254475296,7.081205267945023,6.47544875391759e-05,0.0939245000481605,0,0,0
678,24081.977835682403,2010-10-22 20:04:49,750.3784155973349,2,3,0.5499359965324402,3.843018770217896,2.062342907644686,1.951855740556913,8.243043626847383,7.081205267945023,3.237724376958795e-05,0.0939245000481605,0,0,0
679,24111.99296962661,2010-10-22 20:05:19,780.3935495415498,2,3,0.550297200679779,3.846580266952514,2.066929279571892,1.951855740556913,8.260677337362218,7.081205267945023,9.713172767078504e-05,0.0939245000481605,0,0,0
680,24142.00810313976,2010-10-22 20:05:50,810.4086830546902,2,3,0.5501165986061096,3.849817991256714,2.071515607371639,1.951855740556913,8.278326276941112,7.081205267945023,9.713172767078504e-05,0.0939245000481605,0,0,0
681,24172.02325966525,2010-10-22 20:06:20,840.4238395801844,2,3,0.5501165986061096,3.853217601776123,2.076102001129421,1.951855740556913,8.29599086656521,7.081205267945023,9.713172767078504e-05,0.0939245000481605,0,0,0
682,24202.038402050508,2010-10-22 20:06:50,870.4389819654369,2,3,0.5501165986061096,3.856455326080322,2.080688384306129,1.951855740556913,8.313670531839364,7.081205267945023,6.47544875391759e-05,0.0939245000481605,0,0,0
683,24232.053569463133,2010-10-22 20:07:20,900.4541494031279,2,3,0.5501165986061096,3.8596930503845215,2.085274795915875,1.951855740556913,8.33136536965749,7.081205267945023,9.713172767078504e-05,0.0939245000481605,0,0,0
684,24262.068674811075,2010-10-22 20:07:50,930.4692547260096,2,3,0.550297200679779,3.8629307746887207,2.089861189962705,1.951855740556913,8.349074880067164,7.081205267945023,9.713172767078504e-05,0.0939245000481605,0,0,0
685,24292.08383730645,2010-10-22 20:08:20,960.4844172213824,2,3,0.5499359965324402,3.8658447265625,2.094447640049205,1.951855740556913,8.366799027105518,7.081205267945023,3.237724376958795e-05,0.0939245000481605,0,0,0
686,24322.09894713055,2010-10-22 20:08:50,990.4995270454824,2,3,0.5499359965324402,3.869082450866699,2.099033997058065,1.951855740556913,8.384536964526376,7.081205267945023,6.47544875391759e-05,0.0939245000481605,0,0,0
687,24352.11408990678,2010-10-22 20:09:20,1020.5146698217096,2,3,0.5499359965324402,3.8719964027404794,2.103620422017958,1.951855740556913,8.40228894299911,7.081205267945023,9.713172767078504e-05,0.0939245000481605,0,0,0
688,24382.129355469027,2010-10-22 20:09:50,1050.5299353939818,2,3,0.5501165986061096,3.874910354614258,2.108206856836809,1.951855740556913,8.420054354965728,7.081205267945023,9.713172767078504e-05,0.0939245000481605,0,0,0
689,24412.14441407548,2010-10-22 20:10:20,1080.544993990407,2,3,0.550297200679779,3.877662420272827,2.112793266955003,1.951855740556913,8.437832634356484,7.081205267945023,9.713172767078504e-05,0.0939245000481605,0,0,0
690,24442.159535122548,2010-10-22 20:10:50,1110.560115037478,2,3,0.5501165986061096,3.8802525997161865,2.11737969344242,1.951855740556913,8.455623431522513,7.081205267945023,9.713172767078504e-05,0.0939245000481605,0,0,0
691,24472.17469473072,2010-10-22 20:11:20,1140.575274645655,2,3,0.5501165986061096,3.882842779159546,2.121966097976613,1.951855740556913,8.473426019990104,7.081205267945023,3.237724376958795e-05,0.0939245000481605,0,0,0
692,24502.1898289406,2010-10-22 20:11:50,1170.5904089808446,2,3,0.5501165986061096,3.8852710723876953,2.126552569147157,1.951855740556913,8.49124021515572,7.081205267945023,3.237724376958795e-05,0.0939245000481605,0,0,0
693,24532.204971621588,2010-10-22 20:12:20,1200.6055516267468,2,3,0.5501165986061096,3.887375593185425,2.131138928522661,1.951855740556913,8.509064595791822,7.081205267945023,3.237724376958795e-05,0.0939245000481605,0,0,0
694,24562.22009159097,2010-10-22 20:12:50,1230.620671505907,2,3,0.5499359965324402,3.889642000198364,2.135725395925533,1.951855740556913,8.526899541714519,7.081205267945023,6.47544875391759e-05,0.0939245000481605,0,0,0
695,24592.23523305393,2010-10-22 20:13:20,1260.6358129688608,2,3,0.5499359965324402,3.891584634780884,2.140311836581886,1.951855740556913,8.544743762698966,7.081205267945023,3.237724376958795e-05,0.0939245000481605,0,0,0
696,24622.250401027955,2010-10-22 20:13:50,1290.6509809428885,2,3,0.550297200679779,3.893365383148194,2.144898312104365,1.951855740556913,8.56259698869646,7.081205267945023,3.237724376958795e-05,0.0939245000481605,0,0,0
697,24652.265549302887,2010-10-22 20:14:20,1320.6661292428823,2,3,0.5501165986061096,3.894984245300293,2.149484784472745,1.951855740556913,8.580458325589738,7.081205267945023,3.237724376958795e-05,0.0939245000481605,0,0,0
698,24682.28073636449,2010-10-22 20:14:50,1350.681316284432,2,3,0.550297200679779,3.896926879882813,2.154071210280586,1.951855740556913,8.598326833962952,7.081205267945023,6.47544875391759e-05,0.0939245000481605,0,0,0
699,24712.295808394392,2010-10-22 20:15:20,1380.696388309325,2,3,0.5499359965324402,3.898221969604492,2.158657620850856,1.951855740556913,8.616202557363714,7.081205267945023,3.237724376958795e-05,0.0939245000481605,0,0,0
700,24742.310949747072,2010-10-22 20:15:50,1410.7115296620038,2,3,0.5499359965324402,3.899678945541382,2.163244102789069,1.951855740556913,8.6340853779776,7.081205267945023,0.0,0.0939245000481605,0,0,0
701,24772.326113510604,2010-10-22 20:16:20,1440.7266934255376,2,3,0.5501165986061096,3.901135921478272,2.167830538677695,1.951855740556913,8.65197431189843,7.081205267945023,3.237724376958795e-05,0.0939245000481605,0,0,0
702,24802.34137420071,2010-10-22 20:16:50,1470.7419541206546,2,3,0.5497553944587708,3.9021072387695312,2.17241691987916,1.951855740556913,8.669869201612217,7.081205267945023,0.0,0.0939245000481605,0,0,0
703,24832.35643041119,2010-10-22 20:17:20,1500.757010331133,2,3,0.5499359965324402,3.903564214706421,2.177003325726875,1.951855740556913,8.68777007429801,7.081205267945023,0.0,0.0939245000481605,0,0,0
704,24862.371544150043,2010-10-22 20:17:50,1530.772124064977,2,3,0.5497553944587708,3.9048593044281006,2.181589806358663,1.951855740556913,8.705677102264149,7.081205267945023,3.237724376958795e-05,0.0939245000481605,0,0,0
705,24892.38672113653,2010-10-22 20:18:20,1560.7873010514668,2,3,0.5499359965324402,3.9059925079345694,2.186176289123031,1.951855740556913,8.723589694505426,7.081205267945023,0.0,0.0939245000481605,0,0,0
706,24922.401834138556,2010-10-22 20:18:50,1590.8024140534872,2,3,0.5499359965324402,3.90728759765625,2.190762680475112,1.951855740556913,8.741507639799002,7.081205267945023,3.237724376958795e-05,0.0939245000481605,0,0,0
707,24952.417110287184,2010-10-22 20:19:20,1620.8176902021191,2,3,0.5501165986061096,3.90874457359314,2.195349172524859,1.951855740556913,8.759431603035978,7.081205267945023,6.47544875391759e-05,0.0939245000481605,0,0,0
708,24982.432072072326,2010-10-22 20:19:50,1650.8326519872608,2,3,0.5499359965324402,3.9097158908844,2.199935589423032,1.951855740556913,8.777360986993171,7.081205267945023,-3.237724376958795e-05,0.0939245000481605,0,0,0
709,25012.447259905857,2010-10-22 20:20:20,1680.847839830809,2,3,0.5501165986061096,3.911172866821289,2.204522126774332,1.951855740556913,8.795296427554614,7.081205267945023,6.47544875391759e-05,0.0939245000481605,0,0,0
710,25042.462417759656,2010-10-22 20:20:50,1710.862997684614,2,3,0.5501165986061096,3.912306070327759,2.209108628202187,1.951855740556913,8.813237444611795,7.081205267945023,3.237724376958795e-05,0.0939245000481605,0,0,0
711,25072.477556641177,2010-10-22 20:21:20,1740.8781365611217,2,3,0.5501165986061096,3.913762807846069,2.213695132048545,1.951855740556913,8.831184166322625,7.081205267945023,6.470680091297254e-05,0.0939245000481605,0,0,0
712,25102.492654831283,2010-10-22 20:21:50,1770.8932347462137,2,3,0.5499359965324402,3.914896011352539,2.218281677102621,1.951855740556913,8.84913686524766,7.081205267945023,6.47544875391759e-05,0.0939245000481605,0,0,0
713,25132.508049931377,2010-10-22 20:22:20,1800.9086298864092,2,3,0.5501165986061096,3.916029214859009,2.222868333839527,1.951855740556913,8.867095695488663,7.081205267945023,3.237724376958795e-05,0.0939245000481605,0,0,0
714,25162.52299001744,2010-10-22 20:22:50,1830.92356993237,2,3,0.550297200679779,3.9174861907958975,2.227454831991937,1.951855740556913,8.88505978048308,7.081205267945023,3.237724376958795e-05,0.0939245000481605,0,0,0
715,25192.54082012131,2010-10-22 20:23:20,1860.9414001014063,2,3,0.5499359965324402,3.918619394302368,2.232041779329128,1.951855740556913,8.903031527962195,7.081205267945023,3.237724376958795e-05,0.0939245000481605,0,0,0
716,25222.55351741264,2010-10-22 20:23:50,1890.954097362658,2,3,0.5501165986061096,3.920076370239258,2.236627918538846,1.951855740556913,8.921006025152694,7.081205267945023,6.47544875391759e-05,0.0939245000481605,0,0,0
717,25252.568617803227,2010-10-22 20:24:20,1920.969197728184,2,3,0.5501165986061096,3.921209573745728,2.241214461321651,1.951855740556913,8.938988034507824,7.081205267945023,3.237724376958795e-05,0.0939245000481605,0,0,0
718,25282.58361357808,2010-10-22 20:24:50,1950.984193523088,2,3,0.5501165986061096,3.922666549682617,2.245800964152493,1.951855740556913,8.956975917710247,7.081205267945023,3.237724376958795e-05,0.0939245000481605,0,0,0
719,25312.59887737092,2010-10-22 20:25:20,1980.999457295876,2,3,0.5499359965324402,3.923799753189087,2.250387536701185,1.951855740556913,8.974970170047461,7.081205267945023,0.0,0.0939245000481605,0,0,0
720,25342.61390599264,2010-10-22 20:25:50,2011.0144859075697,2,3,0.5501165986061096,3.925256729125977,2.254974077026197,1.951855740556913,8.992970418284008,7.081205267945023,6.47544875391759e-05,0.0939245000481605,0,0,0
721,25372.62926127349,2010-10-22 20:26:20,2041.0298412084733,2,3,0.5499359965324402,3.926551818847656,2.259560723438575,1.951855740556913,9.010977150913906,7.081205267945023,3.237724376958795e-05,0.0939245000481605,0,0,0
722,25402.644197063844,2010-10-22 20:26:50,2071.044776978778,2,3,0.5501165986061096,3.928008794784546,2.264147222286608,1.951855740556913,9.028989532648335,7.081205267945023,6.47544875391759e-05,0.0939245000481605,0,0,0
723,25432.6593539352,2010-10-22 20:27:20,2101.0599338501343,2,3,0.550297200679779,3.9296276569366455,2.268733806295502,1.951855740556913,9.047008513707423,7.081205267945023,9.713172767078504e-05,0.0939245000481605,0,0,0
724,25462.674548039355,2010-10-22 20:27:50,2131.075127954286,2,3,0.5499359965324402,3.930598974227905,2.273320409870647,1.951855740556913,9.065033941353857,7.081205267945023,3.237724376958795e-05,0.0939245000481605,0,0,0
725,25492.68965718677,2010-10-22 20:28:20,2161.0902371017,2,3,0.5501165986061096,3.931894063949585,2.277907004327651,1.951855740556913,9.083065618586376,7.081205267945023,0.0,0.0939245000481605,0,0,0
726,25522.70479040417,2010-10-22 20:28:50,2191.105370319103,2,3,0.5501165986061096,3.933512926101685,2.282493534789093,1.951855740556913,9.10110348822274,7.081205267945023,3.237724376958795e-05,0.0939245000481605,0,0,0
727,25552.7199172908,2010-10-22 20:29:20,2221.120497205728,2,3,0.550297200679779,3.934969902038574,2.287080098123464,1.951855740556913,9.119147965720472,7.081205267945023,6.47544875391759e-05,0.0939245000481605,0,0,0
728,25582.735155795606,2010-10-22 20:29:50,2251.135735735603,2,3,0.550297200679779,3.936426877975464,2.291666821328318,1.951855740556913,9.137199639886976,7.081205267945023,6.47544875391759e-05,0.0939245000481605,0,0,0
729,25612.75028346919,2010-10-22 20:30:20,2281.1508633841268,2,3,0.5501165986061096,3.938045740127564,2.296253411577649,1.951855740556913,9.15525723135548,7.081205267945023,9.713172767078504e-05,0.0939245000481605,0,0,0
730,25642.765419007384,2010-10-22 20:30:50,2311.16599893234,2,3,0.550297200679779,3.939340829849243,2.300840000562807,1.951855740556913,9.173321562769758,7.081205267945023,6.47544875391759e-05,0.0939245000481605,0,0,0
731,25672.780713165903,2010-10-22 20:31:20,2341.1812930808323,2,3,0.5499359965324402,3.940635919570923,2.305426542355232,1.951855740556913,9.191392442567464,7.081205267945023,3.237724376958795e-05,0.0939245000481605,0,0,0
732,25702.79572936666,2010-10-22 20:31:50,2371.1963092866067,2,3,0.5501165986061096,3.942092895507813,2.310013103623642,1.951855740556913,9.209470118035416,7.081205267945023,3.237724376958795e-05,0.0939245000481605,0,0,0
733,25732.81089223296,2010-10-22 20:32:20,2401.2114721980165,2,3,0.5501165986061096,3.943549871444702,2.314599674118887,1.951855740556913,9.22755462947562,7.081205267945023,0.0,0.0939245000481605,0,0,0
734,25762.826029741056,2010-10-22 20:32:50,2431.226609655989,2,3,0.5501165986061096,3.945006847381592,2.319186276049406,1.951855740556913,9.245646075980314,7.081205267945023,3.237724376958795e-05,0.0939245000481605,0,0,0
735,25792.841173409503,2010-10-22 20:33:20,2461.2417533244397,2,3,0.5499359965324402,3.9464638233184814,2.323772854127698,1.951855740556913,9.26374436539272,7.081205267945023,0.0,0.0939245000481605,0,0,0
736,25822.85634193992,2010-10-22 20:33:50,2491.2569218548538,2,3,0.5501165986061096,3.948082685470581,2.328359491599542,1.951855740556913,9.28184968727076,7.081205267945023,0.0,0.0939245000481605,0,0,0
737,25852.871495949144,2010-10-22 20:34:20,2521.2720758640767,2,3,0.5501165986061096,3.949539661407471,2.332946050719935,1.951855740556913,9.299961747105964,7.081205267945023,0.0,0.0939245000481605,0,0,0
738,25882.886675983227,2010-10-22 20:34:50,2551.2872558981617,2,3,0.5501165986061096,3.95132040977478,2.337532613029562,1.951855740556913,9.31808090806086,7.081205267945023,6.47544875391759e-05,0.0939245000481605,0,0,0
739,25912.9019177612,2010-10-22 20:35:20,2581.302497791419,2,3,0.5501165986061096,3.95293927192688,2.342119267680482,1.951855740556913,9.336207518267338,7.081205267945023,9.713172767078504e-05,0.0939245000481605,0,0,0
740,25942.916938763927,2010-10-22 20:35:50,2611.3175187189613,2,3,0.5501165986061096,3.9543962478637695,2.346705803992545,1.951855740556913,9.354340843723747,7.081205267945023,6.47544875391759e-05,0.0939245000481605,0,0,0
741,25972.93213405604,2010-10-22 20:36:20,2641.3327140561864,2,3,0.550297200679779,3.956176996231079,2.351292400802884,1.951855740556913,9.372481619735742,7.081205267945023,6.47544875391759e-05,0.0939245000481605,0,0,0
742,26002.94724595531,2010-10-22 20:36:50,2671.347825910346,2,3,0.5501165986061096,3.9576339721679688,2.355879040486581,1.951855740556913,9.390629812521464,7.081205267945023,9.713172767078504e-05,0.0939245000481605,0,0,0
743,26032.962519031287,2010-10-22 20:37:20,2701.363098956245,2,3,0.550297200679779,3.959252834320069,2.360465700034019,1.951855740556913,9.408785445958763,7.081205267945023,9.713172767078504e-05,0.0939245000481605,0,0,0
744,26062.97755155773,2010-10-22 20:37:51,2731.3781315077576,2,3,0.5501165986061096,3.960709810256958,2.365052238827266,1.951855740556913,9.426947955321976,7.081205267945023,3.237724376958795e-05,0.0939245000481605,0,0,0
745,26092.992855029468,2010-10-22 20:38:21,2761.3934349544247,2,3,0.5501165986061096,3.962490558624268,2.369638883702406,1.951855740556913,9.445118346846746,7.081205267945023,6.47544875391759e-05,0.0939245000481605,0,0,0
746,26123.00785247849,2010-10-22 20:38:51,2791.408432403452,2,3,0.550297200679779,3.964109420776367,2.374225487273721,1.951855740556913,9.463296047423768,7.081205267945023,3.237724376958795e-05,0.0939245000481605,0,0,0
747,26153.02313150429,2010-10-22 20:39:21,2821.423711424242,2,3,0.5501165986061096,3.965728282928467,2.378812096952665,1.951855740556913,9.481481317485777,7.081205267945023,3.237724376958795e-05,0.0939245000481605,0,0,0
748,26183.037679618443,2010-10-22 20:39:51,2851.438259232626,2,3,0.550297200679779,3.9673471450805664,2.383398617304375,1.951855740556913,9.49967386999274,7.081205267945023,3.237724376958795e-05,0.0939245000481605,0,0,0
749,26213.03769215546,2010-10-22 20:40:21,2881.4382721004654,2,3,0.5499359965324402,3.968966007232666,2.387982912549695,1.951855740556913,9.517865118156262,7.081205267945023,3.237724376958795e-05,0.0939245000481605,0,0,0
750,26243.052376308657,2010-10-22 20:40:51,2911.452955922838,2,3,0.5501165986061096,3.970746755599976,2.392569433340219,1.951855740556913,9.53607294029757,7.081205267945023,3.237724376958795e-05,0.0939245000481605,0,0,0
751,26273.05246921097,2010-10-22 20:41:21,2941.453049150961,2,3,0.5501165986061096,3.972527503967285,2.397153748321221,1.951855740556913,9.554279825710193,7.081205267945023,9.713172767078504e-05,0.0939245000481605,0,0,0
752,26303.06787648641,2010-10-22 20:41:51,2971.468456546701,2,3,0.5499359965324402,3.973984479904175,2.401740409081208,1.951855740556913,9.572503799505895,7.081205267945023,3.237724376958795e-05,0.0939245000481605,0,0,0
753,26333.08268025773,2010-10-22 20:42:21,3001.4832601726607,2,3,0.5501165986061096,3.9759271144866943,2.406326985320688,1.951855740556913,9.5907353616664,7.081205267945023,6.47544875391759e-05,0.0939245000481605,0,0,0
754,26363.097981198152,2010-10-22 20:42:51,3031.498561113082,2,3,0.5501165986061096,3.977545976638794,2.410913701620466,1.951855740556913,9.608975537212713,7.081205267945023,0.0,0.0939245000481605,0,0,0
755,26393.1132191566,2010-10-22 20:43:21,3061.5137991617567,2,3,0.5501165986061096,3.979326725006104,2.415500362021177,1.951855740556913,9.627223035075607,7.081205267945023,6.47544875391759e-05,0.0939245000481605,0,0,0
756,26423.12816333285,2010-10-22 20:43:51,3091.528743247787,2,3,0.5501165986061096,3.981107473373413,2.420086824217135,1.951855740556913,9.645478442651251,7.081205267945023,3.237724376958795e-05,0.0939245000481605,0,0,0
757,26453.14330359281,2010-10-22 20:44:21,3121.543883542829,2,3,0.550297200679779,3.9830501079559326,2.424673406066924,1.951855740556913,9.66374256349606,7.081205267945023,6.47544875391759e-05,0.0939245000481605,0,0,0
758,26483.15845172237,2010-10-22 20:44:51,3151.559031692449,2,3,0.5499359965324402,3.984668970108032,2.429259968624207,1.951855740556913,9.682014836688266,7.081205267945023,0.0,0.0939245000481605,0,0,0
759,26513.17362187684,2010-10-22 20:45:21,3181.5742017917737,2,3,0.5501165986061096,3.986611604690552,2.433846543025246,1.951855740556913,9.700295549767796,7.081205267945023,3.237724376958795e-05,0.0939245000481605,0,0,0
760,26543.188766993902,2010-10-22 20:45:51,3211.589346913847,2,3,0.5499359965324402,3.9882304668426514,2.438433117237179,1.951855740556913,9.718584725007473,7.081205267945023,0.0,0.0939245000481605,0,0,0
761,26573.203927479262,2010-10-22 20:46:21,3241.6045074342974,2,3,0.5501165986061096,3.990334987640381,2.443019686875537,1.951855740556913,9.73688243596864,7.081205267945023,3.237724376958795e-05,0.0939245000481605,0,0,0
762,26603.21912104708,2010-10-22 20:46:51,3271.619700962013,2,3,0.5501165986061096,3.992277622222901,2.447606193571284,1.951855740556913,9.755188497476572,7.081205267945023,6.47544875391759e-05,0.0939245000481605,0,0,0
763,26633.23424309665,2010-10-22 20:47:21,3301.634823021608,2,3,0.5501165986061096,3.994220018386841,2.452192809508942,1.951855740556913,9.773503743370531,7.081205267945023,6.470680091297254e-05,0.0939245000481605,0,0,0
764,26663.24949394222,2010-10-22 20:47:51,3331.6500738671766,2,3,0.5501165986061096,3.9960007667541504,2.456779317419832,1.951855740556913,9.79182738452396,7.081205267945023,3.237724376958795e-05,0.0939245000481605,0,0,0
765,26693.26453819289,2010-10-22 20:48:21,3361.665118112835,2,3,0.5499359965324402,3.99794340133667,2.461365899462388,1.951855740556913,9.81016027112293,7.081205267945023,3.237724376958795e-05,0.0939245000481605,0,0,0
766,26723.27969149535,2010-10-22 20:48:51,3391.680271420309,2,3,0.5501165986061096,4.0000481605529785,2.465952426057883,1.951855740556913,9.82850181598628,7.081205267945023,3.24249267578125e-05,0.0939245000481605,0,0,0
767,26753.29487250687,2010-10-22 20:49:21,3421.695452421805,2,3,0.5501165986061096,4.001990795135498,2.4705389056532,1.951855740556913,9.846852375729709,7.081205267945023,3.24249267578125e-05,0.0939245000481605,0,0,0
768,26783.31012771331,2010-10-22 20:49:51,3451.710707633255,2,3,0.550297200679779,4.004095077514648,2.475125412280928,1.951855740556913,9.865212305421064,7.081205267945023,6.47544875391759e-05,0.0939245000481605,0,0,0
769,26813.325170319884,2010-10-22 20:50:21,3481.7257502598786,2,3,0.5499359965324402,4.006037712097168,2.479711887353917,1.951855740556913,9.883581521638904,7.081205267945023,6.47544875391759e-05,0.0939245000481605,0,0,0
770,26843.340431947323,2010-10-22 20:50:51,3511.741011872282,2,3,0.5501165986061096,4.008142471313477,2.484298449127458,1.951855740556913,9.901960592102352,7.081205267945023,3.24249267578125e-05,0.0939245000481605,0,0,0
771,26873.355479982427,2010-10-22 20:51:21,3541.756059937459,2,3,0.5501165986061096,4.010246753692627,2.488884918234832,1.951855740556913,9.920348803228682,7.081205267945023,3.23295607813634e-05,0.0939245000481605,0,0,0
772,26903.37061661333,2010-10-22 20:51:51,3571.7711965282706,2,3,0.5499359965324402,4.012351512908936,2.493471436811955,1.951855740556913,9.938746905451248,7.081205267945023,3.24249267578125e-05,0.0939245000481605,0,0,0
773,26933.386047226944,2010-10-22 20:52:21,3601.7866272471388,2,3,0.5499359965324402,4.014617919921875,2.498058025402514,1.951855740556913,9.957155087091856,7.081205267945023,6.47544875391759e-05,0.0939245000481605,0,0,0
774,26963.40093858155,2010-10-22 20:52:51,3631.8015184964834,2,3,0.550297200679779,4.016884326934815,2.50264456114151,1.951855740556913,9.97557301469921,7.081205267945023,9.71794142969884e-05,0.0939245000481605,0,0,0
775,26993.4162408152,2010-10-22 20:53:21,3661.816820735139,2,3,0.5501165986061096,4.018988609313965,2.507231196253921,1.951855740556913,9.9940014253328,7.081205267945023,6.47544875391759e-05,0.0939245000481605,0,0,0
776,27023.43126035929,2010-10-22 20:53:51,3691.8318402742216,2,3,0.5501165986061096,4.021255016326904,2.511817721870666,1.951855740556913,10.012439374509226,7.081205267945023,6.47544875391759e-05,0.0939245000481605,0,0,0
777,27053.44640218314,2010-10-22 20:54:21,3721.8469820980754,2,3,0.5501165986061096,4.023359775543213,2.516404235727171,1.951855740556913,10.030887639566687,7.081205267945023,3.24249267578125e-05,0.0939245000481605,0,0,0
778,27083.46156525495,2010-10-22 20:54:51,3751.862145169885,2,3,0.5501165986061096,4.025626182556152,2.520990799544075,1.951855740556913,10.04934645743922,7.081205267945023,6.47544875391759e-05,0.0939245000481605,0,0,0
779,27113.47672756988,2010-10-22 20:55:21,3781.877307484808,2,3,0.5501165986061096,4.027892589569092,2.525577390981796,1.951855740556913,10.067815837661785,7.081205267945023,3.24249267578125e-05,0.0939245000481605,0,0,0
780,27143.491868561658,2010-10-22 20:55:51,3811.8924485116754,2,3,0.5499359965324402,4.030158996582031,2.530163936677639,1.951855740556913,10.086295518187788,7.081205267945023,3.24249267578125e-05,0.0939245000481605,0,0,0
781,27173.509641723613,2010-10-22 20:56:21,3841.9102217638574,2,3,0.550297200679779,4.032587051391602,2.534750867021109,1.951855740556913,10.10478736917254,7.081205267945023,3.23295607813634e-05,0.0939245000481605,0,0,0
782,27203.52241288905,2010-10-22 20:56:51,3871.9229928440886,2,3,0.5499359965324402,4.034853458404541,2.53933700871782,1.951855740556913,10.123286787420758,7.081205267945023,6.47544875391759e-05,0.0939245000481605,0,0,0
783,27233.537379621528,2010-10-22 20:57:21,3901.93795953646,2,3,0.5501165986061096,4.037281513214111,2.543923452484312,1.951855740556913,10.14179825736556,7.081205267945023,3.23295607813634e-05,0.0939245000481605,0,0,0
784,27263.552508327688,2010-10-22 20:57:51,3931.953088267682,2,3,0.5499359965324402,4.03971004486084,2.548510013559837,1.951855740556913,10.160321110724505,7.081205267945023,9.71794142969884e-05,0.0939245000481605,0,0,0
785,27293.56764767036,2010-10-22 20:58:21,3961.9682275852897,2,3,0.5501165986061096,4.04213809967041,2.55309659474486,1.951855740556913,10.178854881934043,7.081205267945023,6.47544875391759e-05,0.0939245000481605,0,0,0
786,27323.582926084637,2010-10-22 20:58:51,3991.9835059945553,2,3,0.5501165986061096,4.04440450668335,2.557683135415741,1.951855740556913,10.197399618275435,7.081205267945023,6.47544875391759e-05,0.0939245000481605,0,0,0
787,27353.59798039538,2010-10-22 20:59:21,4021.998560310312,2,3,0.5499359965324402,4.046833038330078,2.562269731123268,1.951855740556913,10.215955744557617,7.081205267945023,3.24249267578125e-05,0.0939245000481605,0,0,0
788,27383.61311990346,2010-10-22 20:59:51,4052.0136998183934,2,3,0.5501165986061096,4.0494232177734375,2.566855440289245,1.951855740556913,10.234519393875798,7.081205267945023,9.71794142969884e-05,0.0939245000481605,0,0,0
789,27413.628278699613,2010-10-22 21:00:21,4082.028858614547,2,3,0.5499359965324402,4.051851272583008,2.571441170222134,1.951855740556913,10.253094430933354,7.081205267945023,6.47544875391759e-05,0.0939245000481605,0,0,0
790,27443.643453781355,2010-10-22 21:00:51,4112.0440337013015,2,3,0.5499359965324402,4.054441452026367,2.576026847594863,1.951855740556913,10.271680766794251,7.081205267945023,6.47544875391759e-05,0.0939245000481605,0,0,0
791,27473.65869663701,2010-10-22 21:01:21,4142.05927658202,2,3,0.5501165986061096,4.057031631469727,2.580612545525412,1.951855740556913,10.29027881893883,7.081205267945023,9.70840483205393e-05,0.0939245000481605,0,0,0
792,27503.67374637636,2010-10-22 21:01:51,4172.07432632137,2,3,0.5501165986061096,4.059621810913086,2.585199068642902,1.951855740556913,10.308892215618528,7.081205267945023,6.47544875391759e-05,0.0939245000481605,0,0,0
793,27533.68889257612,2010-10-22 21:02:21,4202.089472491055,2,3,0.5501165986061096,4.061888217926025,2.589785685716537,1.951855740556913,10.327517650852954,7.081205267945023,3.23295607813634e-05,0.0939245000481605,0,0,0
794,27563.704191732093,2010-10-22 21:02:51,4232.104771657054,2,3,0.5501165986061096,4.064802169799805,2.594372202870244,1.951855740556913,10.346154611969386,7.081205267945023,0.0001295089750783,0.0939245000481605,0,0,0
795,27593.719247962625,2010-10-22 21:03:21,4262.119827877556,2,3,0.5501165986061096,4.067554473876953,2.598958796172559,1.951855740556913,10.36480394934137,7.081205267945023,9.71794142969884e-05,0.0939245000481605,0,0,0
796,27623.73437783669,2010-10-22 21:03:51,4292.134957751627,2,3,0.5499359965324402,4.069982528686523,2.60354537938527,1.951855740556913,10.383465476577085,7.081205267945023,9.70840483205393e-05,0.0939245000481605,0,0,0
797,27653.749663940136,2010-10-22 21:04:21,4322.15024385507,2,3,0.550297200679779,4.073058605194092,2.608131878485786,1.951855740556913,10.40213887801254,7.081205267945023,0.0001295089750783,0.0939245000481605,0,0,0
798,27683.76468348423,2010-10-22 21:04:51,4352.165263399164,2,3,0.550297200679779,4.075648784637451,2.612718402144302,1.951855740556913,10.420824748449231,7.081205267945023,0.0001295089750783,0.0939245000481605,0,0,0
799,27713.77985454094,2010-10-22 21:05:21,4382.180434455874,2,3,0.5501165986061096,4.0782389640808105,2.617304893058107,1.951855740556913,10.4395229402956,7.081205267945023,6.47544875391759e-05,0.0939245000481605,0,0,0
800,27743.79499963795,2010-10-22 21:05:51,4412.195579552886,2,3,0.5499359965324402,4.080990791320801,2.621891486004872,1.951855740556913,10.4582342450901,7.081205267945023,6.47544875391759e-05,0.0939245000481605,0,0,0
801,27773.810158373955,2010-10-22 21:06:21,4442.21073828889,2,3,0.550297200679779,4.083743095397949,2.626478007859694,1.951855740556913,10.476957967095228,7.081205267945023,6.47544875391759e-05,0.0939245000481605,0,0,0
802,27803.825347305217,2010-10-22 21:06:51,4472.225927250223,2,3,0.5501165986061096,4.0866570472717285,2.631064528285649,1.951855740556913,10.495694590069691,7.081205267945023,9.71794142969884e-05,0.0939245000481605,0,0,0
803,27833.84048106397,2010-10-22 21:07:21,4502.241060978901,2,3,0.5501165986061096,4.089247226715088,2.635651025278021,1.951855740556913,10.514444049033504,7.081205267945023,3.24249267578125e-05,0.0939245000481605,0,0,0
804,27863.85565793517,2010-10-22 21:07:51,4532.256237870153,2,3,0.5501165986061096,4.092322826385498,2.640237538366659,1.951855740556913,10.53320664213246,7.081205267945023,6.47544875391759e-05,0.0939245000481605,0,0,0
805,27893.87093295098,2010-10-22 21:08:21,4562.271512865912,2,3,0.5499359965324402,4.095075130462647,2.64482409950112,1.951855740556913,10.551982688532837,7.081205267945023,6.47544875391759e-05,0.0939245000481605,0,0,0
806,27923.88594832969,2010-10-22 21:08:51,4592.286528244625,2,3,0.5501165986061096,4.097989082336426,2.649410571018269,1.951855740556913,10.570771731431046,7.081205267945023,6.47544875391759e-05,0.0939245000481605,0,0,0
807,27953.901122268588,2010-10-22 21:09:21,4622.301702183519,2,3,0.550297200679779,4.101064682006836,2.653997117121598,1.951855740556913,10.589574653371033,7.081205267945023,9.70840483205393e-05,0.0939245000481605,0,0,0
808,27983.91625832807,2010-10-22 21:09:51,4652.316838243006,2,3,0.5501165986061096,4.103978633880615,2.658583720155904,1.951855740556913,10.608391386775464,7.081205267945023,6.47544875391759e-05,0.0939245000481605,0,0,0
809,28013.9314168335,2010-10-22 21:10:21,4682.331996748434,2,3,0.5499359965324402,4.107054710388184,2.663170295568941,1.951855740556913,10.627221764752566,7.081205267945023,9.71794142969884e-05,0.0939245000481605,0,0,0
810,28043.94657399057,2010-10-22 21:10:52,4712.347153935578,2,3,0.5501165986061096,4.110130310058594,2.667756852172675,1.951855740556913,10.646065870495448,7.081205267945023,6.47544875391759e-05,0.0939245000481605,0,0,0
811,28073.961764380467,2010-10-22 21:11:22,4742.362344295398,2,3,0.5499359965324402,4.113206386566162,2.672343325922113,1.951855740556913,10.664923518026262,7.081205267945023,0.0001295089750783,0.0939245000481605,0,0,0
812,28103.97689731216,2010-10-22 21:11:52,4772.377477227089,2,3,0.5501165986061096,4.116119861602783,2.676929848771776,1.951855740556913,10.68379538891862,7.081205267945023,6.47544875391759e-05,0.0939245000481605,0,0,0
813,28133.99204832391,2010-10-22 21:12:22,4802.392628238841,2,3,0.550297200679779,4.119519710540772,2.681516443872352,1.951855740556913,10.702681778614435,7.081205267945023,0.0001295089750783,0.0939245000481605,0,0,0
814,28164.00720778171,2010-10-22 21:12:52,4832.407787726719,2,3,0.5501165986061096,4.122271537780762,2.686103051601846,1.951855740556913,10.721582519126372,7.081205267945023,6.47544875391759e-05,0.0939245000481605,0,0,0
815,28194.022391429804,2010-10-22 21:13:22,4862.422971369799,2,3,0.5501165986061096,4.12567138671875,2.69068963128691,1.951855740556913,10.740497425117812,7.081205267945023,0.0001295089750783,0.0939245000481605,0,0,0
816,28224.03752109335,2010-10-22 21:13:52,4892.438101008282,2,3,0.5501165986061096,4.12874698638916,2.69527620226846,1.951855740556913,10.759426786513512,7.081205267945023,9.70840483205393e-05,0.0939245000481605,0,0,0
817,28254.052718786443,2010-10-22 21:14:22,4922.453298701378,2,3,0.550297200679779,4.131984710693359,2.699862665475484,1.951855740556913,10.77837031720964,7.081205267945023,9.70840483205393e-05,0.0939245000481605,0,0,0
818,28284.06785303141,2010-10-22 21:14:52,4952.468432946343,2,3,0.5501165986061096,4.135222434997559,2.704449270644288,1.951855740556913,10.7973292361677,7.081205267945023,6.47544875391759e-05,0.0939245000481605,0,0,0
819,28314.08320041759,2010-10-22 21:15:22,4982.483780427759,2,3,0.5501165986061096,4.138460159301758,2.70903583998521,1.951855740556913,10.816303017945,7.081205267945023,6.47544875391759e-05,0.0939245000481605,0,0,0
820,28344.098284357176,2010-10-22 21:15:52,5012.498864272109,2,3,0.550297200679779,4.141860008239746,2.713622391698994,1.951855740556913,10.835291869397704,7.081205267945023,9.71794142969884e-05,0.0939245000481605,0,0,0
821,28374.11331700893,2010-10-22 21:16:22,5042.513896923872,2,3,0.5501165986061096,4.145259380340576,2.718208909132732,1.951855740556913,10.854295810093204,7.081205267945023,9.70840483205393e-05,0.0939245000481605,0,0,0
822,28404.12859986929,2010-10-22 21:16:52,5072.529179794256,2,3,0.5501165986061096,4.1486592292785645,2.722795399427443,1.951855740556913,10.873315259557168,7.081205267945023,0.0001295089750783,0.0939245000481605,0,0,0
823,28434.14364093704,2010-10-22 21:17:22,5102.54422085197,2,3,0.550297200679779,4.151896953582764,2.727381895177099,1.951855740556913,10.892350062827797,7.081205267945023,9.71794142969884e-05,0.0939245000481605,0,0,0
824,28464.158794254537,2010-10-22 21:17:52,5132.559374169469,2,3,0.5501165986061096,4.155296325683594,2.731968475638321,1.951855740556913,10.911400706330337,7.081205267945023,9.70840483205393e-05,0.0939245000481605,0,0,0
825,28494.17396322605,2010-10-22 21:18:22,5162.574543140982,2,3,0.5501165986061096,4.158696174621582,2.736554989137926,1.951855740556913,10.930466661148134,7.081205267945023,6.47544875391759e-05,0.0939245000481605,0,0,0
826,28524.18910474414,2010-10-22 21:18:52,5192.589684659073,2,3,0.5501165986061096,4.162095546722412,2.741141524556545,1.951855740556913,10.949548440018456,7.081205267945023,6.47544875391759e-05,0.0939245000481605,0,0,0
827,28554.20428575566,2010-10-22 21:19:22,5222.604865670594,2,3,0.550297200679779,4.165657043457031,2.745728046953495,1.951855740556913,10.968646053530348,7.081205267945023,0.0001295089750783,0.0939245000481605,0,0,0
828,28584.219548661287,2010-10-22 21:19:52,5252.620128701533,2,3,0.5501165986061096,4.16921854019165,2.750314555384573,1.951855740556913,10.987759533688658,7.081205267945023,0.0001295089750783,0.0939245000481605,0,0,0
829,28614.23455436088,2010-10-22 21:20:22,5282.635134275811,2,3,0.5501165986061096,4.172618389129639,2.754901043847201,1.951855740556913,11.00688893156754,7.081205267945023,9.71794142969884e-05,0.0939245000481605,0,0,0
830,28644.249832569643,2010-10-22 21:20:52,5312.65041250964,2,3,0.5501165986061096,4.176179885864258,2.75948763635712,1.951855740556913,11.026034841035049,7.081205267945023,0.0001295089750783,0.0939245000481605,0,0,0
831,28674.26488462477,2010-10-22 21:21:22,5342.665464539699,2,3,0.550297200679779,4.179741382598877,2.764074117685667,1.951855740556913,11.045196582991885,7.081205267945023,9.71794142969884e-05,0.0939245000481605,0,0,0
832,28704.2800217469,2010-10-22 21:21:52,5372.680601661834,2,3,0.5501165986061096,4.183464527130127,2.768660710505935,1.951855740556913,11.064375234951289,7.081205267945023,0.0001295089750783,0.0939245000481605,0,0,0
833,28734.295165655956,2010-10-22 21:22:22,5402.695745570884,2,3,0.5501165986061096,4.186864376068115,2.773247249624971,1.951855740556913,11.083570160452943,7.081205267945023,0.0001295089750783,0.0939245000481605,0,0,0
834,28764.31043811539,2010-10-22 21:22:52,5432.7110180303225,2,3,0.5501165986061096,4.190587520599365,2.777834098828321,1.951855740556913,11.102783128997588,7.081205267945023,0.0001295089750783,0.0939245000481605,0,0,0
835,28794.325485137968,2010-10-22 21:23:22,5462.7260650529015,2,3,0.550297200679779,4.194149017333984,2.782421325053638,1.951855740556913,11.122014502567897,7.081205267945023,9.70840483205393e-05,0.0939245000481605,0,0,0
836,28824.3406333728,2010-10-22 21:23:52,5492.7412132877325,2,3,0.5501165986061096,4.197710514068604,2.787008591513472,1.951855740556913,11.141262814481909,7.081205267945023,6.47544875391759e-05,0.0939245000481605,0,0,0
837,28840.80913689581,2010-10-22 21:24:08,5509.209716810743,2,3,0.550297200679779,4.200138568878174,2.7895254909849,1.951855740556913,11.151831015442657,7.081205267945023,0.0001618385285837,0.0939245000481605,0,0,0
838,28870.824546175587,2010-10-22 21:24:39,30.01510380910885,3,3,0.0,4.113368034362793,2.7895254909849,1.951855740556913,11.151831015442657,7.081205267945023,-0.0003561019839253,0.0939245000481605,0,0,0
839,28900.839752535285,2010-10-22 21:25:09,60.03031011366791,3,3,0.0,4.102521896362305,2.7895254909849,1.951855740556913,11.151831015442657,7.081205267945023,-0.0001942634553415,0.0939245000481605,0,0,0
840,28930.85492117096,2010-10-22 21:25:39,90.04547874433203,3,3,0.0,4.095884323120117,2.7895254909849,1.951855740556913,11.151831015442657,7.081205267945023,-0.0001619339018361,0.0939245000481605,0,0,0
841,28960.823216133016,2010-10-22 21:26:09,120.0137737114038,3,3,0.0,4.091675281524658,2.7895254909849,1.951855740556913,11.151831015442657,7.081205267945023,-6.47544875391759e-05,0.0939245000481605,0,0,0
842,28960.82341706933,2010-10-22 21:26:09,2.66163361e-06,4,3,0.9951378703117372,4.199653148651123,2.789525491720648,1.951855740556913,11.15183101853254,7.081205267945023,0.0,0.0939245000481605,0,0,0
843,28961.760914927458,2010-10-22 21:26:10,0.937500564869367,4,3,0.9451091289520264,4.199653148651123,2.789776593653594,1.951855740556913,11.152885568321707,7.081205267945023,0.0,0.0939245000481605,0,0,0
844,28963.901512480203,2010-10-22 21:26:12,3.078098087541257,4,3,0.8948997259140015,4.199491024017334,2.790322484653681,1.951855740556913,11.155178154070976,7.081205267945023,-3.24249267578125e-05,0.0939245000481605,0,0,0
845,28967.135843663687,2010-10-22 21:26:15,6.312429271029335,4,3,0.8446903228759766,4.199653148651123,2.791102779038293,1.951855740556913,11.15845517385542,7.081205267945023,-3.23295607813634e-05,0.0939245000481605,0,0,0
846,28971.541998356926,2010-10-22 21:26:19,10.718583964264782,4,3,0.7946615815162659,4.199814796447754,2.792104843870046,1.951855740556913,11.162663572894424,7.081205267945023,3.23295607813634e-05,0.0939245000481605,0,0,0
847,28977.338836546336,2010-10-22 21:26:25,16.51542214365033,4,3,0.7446327805519104,4.199653148651123,2.793342609001656,1.951855740556913,11.167861867709163,7.081205267945023,3.24249267578125e-05,0.0939245000481605,0,0,0
848,28984.85433164759,2010-10-22 21:26:33,24.030917285002623,4,3,0.6946040391921997,4.199814796447754,2.794842462941915,1.951855740556913,11.174160877991184,7.081205267945023,3.23295607813634e-05,0.0939245000481605,0,0,0
849,28994.77604240864,2010-10-22 21:26:43,33.95262804104075,4,3,0.6445752382278442,4.199653148651123,2.796684624623318,1.951855740556913,11.18189749149736,7.081205267945023,-3.23295607813634e-05,0.0939245000481605,0,0,0
850,29008.697693321297,2010-10-22 21:26:57,47.87427892863753,4,3,0.5945464968681335,4.199814796447754,2.799075003754675,1.951855740556913,11.191936486581268,7.081205267945023,3.23295607813634e-05,0.0939245000481605,0,0,0
851,29029.91635559651,2010-10-22 21:27:18,69.09294143442116,4,3,0.5443370938301086,4.199653148651123,2.802420836124236,1.951855740556913,11.20598815968194,7.081205267945023,-6.47544875391759e-05,0.0939245000481605,0,0,0
852,29066.27513236052,2010-10-22 21:27:54,105.45171805307072,4,3,0.4943083524703979,4.199653148651123,2.807642946276912,1.951855740556913,11.227919718398482,7.081205267945023,-3.23295607813634e-05,0.0939245000481605,0,0,0
853,29132.820750656887,2010-10-22 21:29:01,171.99733626422778,4,3,0.4442795813083648,4.199653148651123,2.816278337548305,1.951855740556913,11.26418618061658,7.081205267945023,0.0,0.0939245000481605,0,0,0
854,29235.412910140138,2010-10-22 21:30:43,274.58949574747834,4,3,0.3942508101463318,4.199814796447754,2.828199423082282,1.951855740556913,11.314251778376812,7.081205267945023,-3.24249267578125e-05,0.0939245000481605,0,0,0
855,29363.161048658447,2010-10-22 21:32:51,402.3376342657856,4,3,0.3442220389842987,4.199814796447754,2.841282346679559,1.951855740556913,11.369196805734182,7.081205267945023,3.23295607813634e-05,0.0939245000481605,0,0,0
856,29515.19004517592,2010-10-22 21:35:23,554.3666308183472,4,3,0.2941932678222656,4.199653148651123,2.8547484488606,1.951855740556913,11.42575100480463,7.081205267945023,-3.23295607813634e-05,0.0939245000481605,0,0,0
857,29699.483831236565,2010-10-22 21:38:27,738.6604168439032,4,3,0.2441644966602325,4.199653148651123,2.868507874728115,1.951855740556913,11.48353704380566,7.081205267945023,0.0,0.0939245000481605,0,0,0
858,29925.652203224825,2010-10-22 21:42:14,964.8287888622416,4,3,0.1941357254981994,4.199653148651123,2.8822350399698,1.951855740556913,11.541187618663342,7.081205267945023,0.0,0.0939245000481605,0,0,0
859,30225.39759412831,2010-10-22 21:47:13,1264.574179760711,4,3,0.1441069543361663,4.199653148651123,2.896233729992791,1.951855740556913,11.59997842963644,7.081205267945023,0.0,0.0939245000481605,0,0,0
860,30671.71884525573,2010-10-22 21:54:40,1710.8954308881366,4,3,0.0940781906247139,4.199814796447754,2.910795086907526,1.951855740556913,11.661132498205095,7.081205267945023,0.0,0.0939245000481605,0,0,0
861,31405.285625931032,2010-10-22 22:06:53,2444.4622115383727,4,3,0.0498289167881011,4.199814796447754,2.924967969247983,1.951855740556913,11.720655040340256,7.081205267945023,0.0,0.0939245000481605,0,0,0
862,31435.30154616764,2010-10-22 22:07:23,30.015018686958264,5,3,0.0,4.191720962524414,2.924967969247983,1.951855740556913,11.720655040340256,7.081205267945023,0.0,0.0939245000481605,0,0,0
863,31465.301070823705,2010-10-22 22:07:53,60.01454334302415,5,3,0.0,4.190425872802734,2.924967969247983,1.951855740556913,11.720655040340256,7.081205267945023,-3.23295607813634e-05,0.0939245000481605,0,0,0
864,31465.48847147082,2010-10-22 22:07:54,0.187493742095685,6,3,-1.9243103452026844e-05,4.190425872802734,2.924967969247983,1.951855741559125,11.720655040340256,7.081205272144716,0.0,0.0956302732229232,0,0,0
865,31470.31653022379,2010-10-22 22:07:58,5.015552470002159,6,3,0.0005225847125984,4.190263748168945,2.924968894263196,1.951855741726198,11.720658916645071,7.081205272844823,-6.47544875391759e-05,0.0956302732229232,0,0,0
866,31500.331720068465,2010-10-22 22:08:29,30.015221206699778,7,3,-1.099568486213684,4.010408878326416,2.924968894263196,1.961023669355603,11.720658916645071,7.118173562375127,-0.0008741378551349,0.0956302732229232,0,0,0
867,31530.346872769427,2010-10-22 22:08:59,60.03037387257472,7,3,-1.0997490882873535,3.9824025630950928,2.924968894263196,1.970191596290288,11.720658916645071,7.154803259637659,-0.0006151676061563,0.0956302732229232,0,0,0
868,31560.36198457847,2010-10-22 22:09:29,90.04548570668436,7,3,-1.0993878841400146,3.9631381034851074,2.924968894263196,1.979359383033728,11.720658916645071,7.191220636048609,-0.0004532813909463,0.0956302732229232,0,0,0
869,31590.37714575055,2010-10-22 22:09:59,120.06064687875936,7,3,-1.099568486213684,3.948244571685791,2.924968894263196,1.988527158733841,11.720658916645071,7.227482978485747,-0.0003237724304199,0.0956302732229232,0,0,0
870,31620.39242540793,2010-10-22 22:10:29,150.07592651107376,7,3,-1.099568486213684,3.935941219329834,2.924968894263196,1.997694978318105,11.720658916645071,7.263621359986593,-0.0002590179501567,0.0956302732229232,0,0,0
871,31650.40769629344,2010-10-22 22:10:59,180.09119751187575,7,3,-1.099568486213684,3.9247710704803462,2.924968894263196,2.006862798455368,11.720658916645071,7.299652350537478,-0.0002913951757363,0.0956302732229232,0,0,0
872,31680.422635306822,2010-10-22 22:11:29,210.10613643503808,7,3,-1.0993878841400146,3.914896011352539,2.924968894263196,2.016030508343018,11.720658916645071,7.335586871280087,-0.0001942634553415,0.0956302732229232,0,0,0
873,31710.43793792644,2010-10-22 22:11:59,240.1214390295814,7,3,-1.099568486213684,3.905183076858521,2.924968894263196,2.025198378370722,11.720658916645071,7.371433121569011,-0.0002913951757363,0.0956302732229232,0,0,0
874,31740.452948914204,2010-10-22 22:12:29,270.13645003238844,7,3,-1.0997490882873535,3.8961174488067623,2.924968894263196,2.034366154255075,11.720658916645071,7.407194230368592,-0.0002266406954731,0.0956302732229232,0,0,0
875,31770.46825126815,2010-10-22 22:12:59,300.1517523712946,7,3,-1.099568486213684,3.8876993656158447,2.924968894263196,2.043533986905376,11.720658916645071,7.442874894686399,-0.0002590179501567,0.0956302732229232,0,0,0
876,31800.48328816048,2010-10-22 22:13:29,330.16678929370124,7,3,-1.099568486213684,3.879119396209717,2.924968894263196,2.052701772828134,11.720658916645071,7.478476910556988,-0.0002266406954731,0.0956302732229232,0,0,0
877,31830.49843840031,2010-10-22 22:13:59,360.1819395034548,7,3,-1.0992072820663452,3.8711869716644287,2.924968894263196,2.061869555525314,11.720658916645071,7.514002341587442,-0.0001295089750783,0.0956302732229232,0,0,0
878,31860.51359590825,2010-10-22 22:14:29,390.1970970414726,7,3,-1.099568486213684,3.862768888473511,2.924968894263196,2.071037398422052,11.720658916645071,7.549453403075805,-0.0002266406954731,0.0956302732229232,0,0,0
879,31890.528774147864,2010-10-22 22:14:59,420.2122752510102,7,3,-1.0993878841400146,3.854836463928223,2.924968894263196,2.080205224351535,11.720658916645071,7.584830541785466,-0.0001942634553415,0.0956302732229232,0,0,0
880,31920.54396600641,2010-10-22 22:15:29,450.227467134628,7,3,-1.099568486213684,3.847065925598145,2.924968894263196,2.089373042818465,11.720658916645071,7.620135459043304,-0.0002266406954731,0.0956302732229232,0,0,0
881,31950.559085228942,2010-10-22 22:15:59,480.24258636216416,7,3,-1.099568486213684,3.839457273483277,2.924968894263196,2.098540935519697,11.720658916645071,7.655369649226493,-0.0001942634553415,0.0956302732229232,0,0,0
882,31980.57424395993,2010-10-22 22:16:29,510.25774506308034,7,3,-1.099929690361023,3.8318488597869873,2.924968894263196,2.107708832866091,11.720658916645071,7.690533706741912,-0.0001618862152099,0.0956302732229232,0,0,0
883,32010.58942339753,2010-10-22 22:16:59,540.2729245006786,7,3,-1.099568486213684,3.824563980102539,2.924968894263196,2.116876716661957,11.720658916645071,7.725629111112571,-0.0001942634553415,0.0956302732229232,0,0,0
884,32040.604568414343,2010-10-22 22:17:29,570.2880695174897,7,3,-1.0993878841400146,3.817117214202881,2.924968894263196,2.126044597278437,11.720658916645071,7.760656904216217,-0.0001942634553415,0.0956302732229232,0,0,0
885,32070.61976246837,2010-10-22 22:17:59,600.3032635765293,7,3,-1.099568486213684,3.809670448303223,2.924968894263196,2.135212496891626,11.720658916645071,7.795617746243766,-0.0001942634553415,0.0956302732229232,0,0,0
886,32100.63502460207,2010-10-22 22:18:29,630.3185257603566,7,3,-1.099568486213684,3.802871227264404,2.924968894263196,2.144380409028776,11.720658916645071,7.830513564099132,-0.0001942634553415,0.0956302732229232,0,0,0
887,32130.65009325356,2010-10-22 22:18:59,660.3335943567043,7,3,-1.099568486213684,3.795748233795166,2.924968894263196,2.153548236491993,11.720658916645071,7.865345603383375,-0.0001942634553415,0.0956302732229232,0,0,0
888,32160.665221999818,2010-10-22 22:19:29,690.3487231129893,7,3,-1.0997490882873535,3.788949012756348,2.924968894263196,2.16271608844502,11.720658916645071,7.900114646855758,-0.0002266406954731,0.0956302732229232,0,0,0
889,32190.680518985384,2010-10-22 22:19:59,720.3640200835158,7,3,-1.099568486213684,3.782473564147949,2.924968894263196,2.171884027235502,11.720658916645071,7.934822142249076,-0.0001618862152099,0.0956302732229232,0,0,0
890,32220.695538103413,2010-10-22 22:20:29,750.379039206561,7,3,-1.099568486213684,3.775998115539551,2.924968894263196,2.181051910171437,11.720658916645071,7.969469010548505,-0.0001942634553415,0.0956302732229232,0,0,0
891,32250.710716633752,2010-10-22 22:20:59,780.3942177368981,7,3,-1.099568486213684,3.769522666931152,2.924968894263196,2.190219782227237,11.720658916645071,8.004056866904877,-0.0001942634553415,0.0956302732229232,0,0,0
892,32280.725862638024,2010-10-22 22:21:29,810.4093637411703,7,3,-1.099568486213684,3.763209104537964,2.924968894263196,2.199387673284638,11.720658916645071,8.03858699793988,-0.0001942634553415,0.0956302732229232,0,0,0
893,32310.74103349925,2010-10-22 22:21:59,840.4245346023936,7,3,-1.099568486213684,3.757057428359986,2.924968894263196,2.208555364585552,11.720658916645071,8.07306003874662,-0.0001942634553415,0.0956302732229232,0,0,0
894,32340.756238786267,2010-10-22 22:22:29,870.4397398894168,7,3,-1.099568486213684,3.751067876815796,2.924968894263196,2.217722605392491,11.720658916645071,8.107475811174018,-0.0001942634553415,0.0956302732229232,0,0,0
895,32370.77140899085,2010-10-22 22:22:59,900.4549100940035,7,3,-1.0993878841400146,3.7454018592834473,2.924968894263196,2.226890048775912,11.720658916645071,8.1418374693132,-0.0001295089750783,0.0956302732229232,0,0,0
896,32400.786730156688,2010-10-22 22:23:29,930.4702313851444,7,3,-1.099568486213684,3.739412069320679,2.924968894263196,2.236058056347357,11.720658916645071,8.176147751676467,-0.0001618862152099,0.0956302732229232,0,0,0
897,32430.8028641784,2010-10-22 22:23:59,960.4863653767852,7,3,-1.099568486213684,3.73390793800354,2.924968894263196,2.245226376979178,11.720658916645071,8.210406743375689,-0.0001295089750783,0.0956302732229232,0,0,0
898,32460.81711816449,2010-10-22 22:24:29,990.5006193829236,7,3,-1.099568486213684,3.7285656929016113,2.924968894263196,2.254394057826776,11.720658916645071,8.244612184422607,-9.713172767078504e-05,0.0956302732229232,0,0,0
899,32490.83206257132,2010-10-22 22:24:59,1020.5155636744656,7,3,-1.0997490882873535,3.722899675369263,2.924968894263196,2.263561915529216,11.720658916645071,8.278768459463445,-0.0001295089750783,0.0956302732229232,0,0,0
900,32520.847286098804,2010-10-22 22:25:29,1050.5307872971869,7,3,-1.099568486213684,3.717395544052124,2.924968894263196,2.272729878383097,11.720658916645071,8.312874880229606,-0.0001618862152099,0.0956302732229232,0,0,0
901,32550.862377617283,2010-10-22 22:25:59,1080.5458787204263,7,3,-1.0993878841400146,3.712215185165405,2.924968894263196,2.281897842975988,11.720658916645071,8.346931792861886,-0.0001295089750783,0.0956302732229232,0,0,0
902,32580.87751298003,2010-10-22 22:26:29,1110.5610140831766,7,3,-1.099568486213684,3.706872940063477,2.924968894263196,2.291065781464838,11.720658916645071,8.380940146503304,-0.0001295089750783,0.0956302732229232,0,0,0
903,32610.89289529325,2010-10-22 22:26:59,1140.5763963964034,7,3,-1.0997490882873535,3.701854467391968,2.924968894263196,2.300233829065226,11.720658916645071,8.414901703354376,-9.713172767078504e-05,0.0956302732229232,0,0,0
904,32640.907835895607,2010-10-22 22:27:29,1170.5913369987506,7,3,-1.099568486213684,3.696674108505249,2.924968894263196,2.309401801607409,11.720658916645071,8.44881594522044,-0.0001295089750783,0.0956302732229232,0,0,0
905,32670.923171261824,2010-10-22 22:27:59,1200.6066723649712,7,3,-1.099568486213684,3.6914937496185294,2.924968894263196,2.318569829541529,11.720658916645071,8.482684046754605,-0.0001618862152099,0.0956302732229232,0,0,0
906,32700.938152695937,2010-10-22 22:28:29,1230.6216537990838,7,3,-1.099568486213684,3.6867990493774414,2.924968894263196,2.327737790906347,11.720658916645071,8.51650651224037,-0.0001295089750783,0.0956302732229232,0,0,0
907,32730.953456709016,2010-10-22 22:28:59,1260.6369578422375,7,3,-1.0997490882873535,3.6817805767059326,2.924968894263196,2.336905839852252,11.720658916645071,8.550284233859667,-0.0001618862152099,0.0956302732229232,0,0,0
908,32760.9685117566,2010-10-22 22:29:29,1290.6520128898176,7,3,-1.099568486213684,3.677085876464844,2.924968894263196,2.346073809014836,11.720658916645071,8.584017026075436,-0.0001295089750783,0.0956302732229232,0,0,0
909,32790.98364467325,2010-10-22 22:29:59,1320.6671457763966,7,3,-1.099568486213684,3.672229528427124,2.924968894263196,2.355241750317882,11.720658916645071,8.617706166317536,-0.0001294612884521,0.0956302732229232,0,0,0
910,32820.99880613605,2010-10-22 22:30:29,1350.6823072391962,7,3,-1.0997490882873535,3.667696714401245,2.924968894263196,2.364409783307095,11.720658916645071,8.651352878370032,-9.713172767078504e-05,0.0956302732229232,0,0,0
911,32851.01398351351,2010-10-22 22:30:59,1380.69748461666,7,3,-1.099929690361023,3.663002014160156,2.924968894263196,2.373577810715352,11.720658916645071,8.684957084667813,-0.0001618862152099,0.0956302732229232,0,0,0
912,32881.02913129722,2010-10-22 22:31:29,1410.712632430442,7,3,-1.099568486213684,3.658469200134277,2.924968894263196,2.382745800438458,11.720658916645071,8.718519172188515,-9.713172767078504e-05,0.0956302732229232,0,0,0
913,32911.04441746081,2010-10-22 22:31:59,1440.7279185639595,7,3,-1.099568486213684,3.654098272323608,2.924968894263196,2.391913794619773,11.720658916645071,8.752040245189013,-0.0001295089750783,0.0956302732229232,0,0,0
914,32941.059453811795,2010-10-22 22:32:29,1470.742954945017,7,3,-1.099568486213684,3.64972734451294,2.924968894263196,2.401081764925852,11.720658916645071,8.785520733861867,-9.713172767078504e-05,0.0956302732229232,0,0,0
915,32971.07473599547,2010-10-22 22:32:59,1500.7582370986147,7,3,-1.0993878841400146,3.6453564167022714,2.924968894263196,2.410249693478329,11.720658916645071,8.818960617697513,-0.0001295089750783,0.0956302732229232,0,0,0
916,33001.08978221605,2010-10-22 22:33:29,1530.7732833191956,7,3,-1.0993878841400146,3.641147375106812,2.924968894263196,2.419417624226087,11.720658916645071,8.852360956556884,-9.713172767078504e-05,0.0956302732229232,0,0,0
917,33031.10493783428,2010-10-22 22:33:59,1560.7884389374287,7,3,-1.0997490882873535,3.636938333511353,2.924968894263196,2.428585609659998,11.720658916645071,8.885722862780945,-9.713172767078504e-05,0.0956302732229232,0,0,0
918,33061.120232925125,2010-10-22 22:34:29,1590.8037340282704,7,3,-1.099568486213684,3.632891178131104,2.924968894263196,2.437753560603316,11.720658916645071,8.919047031549042,-9.713172767078504e-05,0.0956302732229232,0,0,0
919,33091.1352822735,2010-10-22 22:34:59,1620.8187834067214,7,3,-1.0997490882873535,3.6288440227508554,2.924968894263196,2.446921575531432,11.720658916645071,8.95233449686846,-9.713172767078504e-05,0.0956302732229232,0,0,0
920,33121.15043574137,2010-10-22 22:35:29,1650.8339368445202,7,3,-1.099568486213684,3.6247968673706055,2.924968894263196,2.456089569165331,11.720658916645071,8.985585429320558,-0.0001295089750783,0.0956302732229232,0,0,0
921,33151.16572190998,2010-10-22 22:35:59,1680.8492231284124,7,3,-1.099568486213684,3.621073484420776,2.924968894263196,2.465257605515214,11.720658916645071,9.018800976946515,-9.713172767078504e-05,0.0956302732229232,0,0,0
922,33181.18077435106,2010-10-22 22:36:29,1710.8642754542093,7,3,-1.0997490882873535,3.617188215255737,2.924968894263196,2.474425601095201,11.720658916645071,9.051981181002088,-0.0001295089750783,0.0956302732229232,0,0,0
923,33211.195943137114,2010-10-22 22:36:59,1740.8794442402605,7,3,-1.0997490882873535,3.613626718521118,2.924968894263196,2.483593529434883,11.720658916645071,9.085127274119902,-9.713172767078504e-05,0.0956302732229232,0,0,0
924,33241.21108073042,2010-10-22 22:37:29,1770.89458183357,7,3,-1.099568486213684,3.610065221786499,2.924968894263196,2.492761551475908,11.720658916645071,9.118240529420197,-6.47544875391759e-05,0.0956302732229232,0,0,0
925,33271.226242784694,2010-10-22 22:37:59,1800.9097439429809,7,3,-1.099568486213684,3.60650372505188,2.924968894263196,2.501929614637399,11.720658916645071,9.151321505090047,-0.0001618862152099,0.0956302732229232,0,0,0
926,33301.241417455414,2010-10-22 22:38:30,1830.924918558561,7,3,-1.099568486213684,3.603104114532471,2.924968894263196,2.511097654982295,11.720658916645071,9.1843707040957,-9.713172767078504e-05,0.0956302732229232,0,0,0
927,33331.256751864246,2010-10-22 22:39:00,1860.9402529673955,7,3,-1.099568486213684,3.5998663902282715,2.924968894263196,2.520265653773965,11.720658916645071,9.217388631653623,-6.47544875391759e-05,0.0956302732229232,0,0,0
928,33361.27175545358,2010-10-22 22:39:30,1890.955256556726,7,3,-1.099568486213684,3.5964667797088623,2.924968894263196,2.529433624596814,11.720658916645071,9.250375915702977,-9.713172767078504e-05,0.0956302732229232,0,0,0
929,33391.286950820875,2010-10-22 22:40:00,1920.970451954101,7,3,-1.099568486213684,3.593229055404663,2.924968894263196,2.538601614443156,11.720658916645071,9.283333166739348,-9.713172767078504e-05,0.0956302732229232,0,0,0
930,33421.30206505096,2010-10-22 22:40:30,1950.9855661541071,7,3,-1.099568486213684,3.589991569519043,2.924968894263196,2.547769638765031,11.720658916645071,9.316261300664696,-9.713172767078504e-05,0.0956302732229232,0,0,0
931,33451.31736844249,2010-10-22 22:41:00,1981.000869545637,7,3,-1.0993878841400146,3.5869157314300537,2.924968894263196,2.556937683779537,11.720658916645071,9.349160923079705,-9.713172767078504e-05,0.0956302732229232,0,0,0
932,33481.33239227227,2010-10-22 22:41:30,2011.0158934105,7,3,-1.0997490882873535,3.5836780071258545,2.924968894263196,2.566105680378135,11.720658916645071,9.382031808761196,-9.713172767078504e-05,0.0956302732229232,0,0,0
933,33511.34756243675,2010-10-22 22:42:00,2041.0310635298745,7,3,-1.0997490882873535,3.580925941467285,2.924968894263196,2.575273682307659,11.720658916645071,9.4148749754205,-3.237724376958795e-05,0.0956302732229232,0,0,0
934,33541.36283616435,2010-10-22 22:42:30,2071.0463372674976,7,3,-1.099568486213684,3.577850103378296,2.924968894263196,2.584441719082067,11.720658916645071,9.447690764730677,-0.0001295089750783,0.0956302732229232,0,0,0
935,33571.37806379205,2010-10-22 22:43:00,2101.0615648952007,7,3,-1.099568486213684,3.574774265289306,2.924968894263196,2.593609812438846,11.720658916645071,9.480479316126534,-0.0001295089750783,0.0956302732229232,0,0,0
936,33601.393031391686,2010-10-22 22:43:30,2131.0765325249085,7,3,-1.0993878841400146,3.5721840858459477,2.924968894263196,2.602777791178452,11.720658916645071,9.51324003126363,-3.237724376958795e-05,0.0956302732229232,0,0,0
937,33631.408319640475,2010-10-22 22:44:00,2161.091820763673,7,3,-1.099568486213684,3.569108247756958,2.924968894263196,2.611945909954812,11.720658916645071,9.545974097256252,-3.237724376958795e-05,0.0956302732229232,0,0,0
938,33661.423329289915,2010-10-22 22:44:30,2191.106830398069,7,3,-1.099568486213684,3.565870523452759,2.924968894263196,2.621113917653358,11.720658916645071,9.578680363714415,-6.47544875391759e-05,0.0956302732229232,0,0,0
939,33691.43853254186,2010-10-22 22:45:00,2221.122033645008,7,3,-1.0997490882873535,3.5629565715789795,2.924968894263196,2.630281983779906,11.720658916645071,9.611359102065643,-6.47544875391759e-05,0.0956302732229232,0,0,0
940,33721.45366391968,2010-10-22 22:45:30,2251.137165022826,7,3,-1.099568486213684,3.5600426197052,2.924968894263196,2.639449941898787,11.720658916645071,9.6440106882816,-6.47544875391759e-05,0.0956302732229232,0,0,0
941,33751.46895004317,2010-10-22 22:46:00,2281.1524511463185,7,3,-1.0997490882873535,3.556804895401001,2.924968894263196,2.648618017491977,11.720658916645071,9.67663487567924,-9.713172767078504e-05,0.0956302732229232,0,0,0
942,33781.483984970604,2010-10-22 22:46:30,2311.167486073753,7,3,-1.0997490882873535,3.5538909435272217,2.924968894263196,2.657785960188609,11.720658916645071,9.709230496314447,-6.47544875391759e-05,0.0956302732229232,0,0,0
943,33811.49930444723,2010-10-22 22:47:00,2341.1828055603964,7,3,-1.099568486213684,3.5508151054382324,2.924968894263196,2.666953942095272,11.720658916645071,9.741798334652414,-6.47544875391759e-05,0.0956302732229232,0,0,0
944,33841.51434556509,2010-10-22 22:47:30,2371.1978466682344,7,3,-1.099568486213684,3.547739267349243,2.924968894263196,2.676121927702321,11.720658916645071,9.774337959091824,-6.47544875391759e-05,0.0956302732229232,0,0,0
945,33871.52960511736,2010-10-22 22:48:00,2401.2131062205035,7,3,-1.099568486213684,3.544501543045044,2.924968894263196,2.685289839622142,11.720658916645071,9.806848567463868,-9.713172767078504e-05,0.0956302732229232,0,0,0
946,33901.54463735809,2010-10-22 22:48:30,2431.228138471267,7,3,-1.099568486213684,3.5412638187408447,2.924968894263196,2.694457507043186,11.720658916645071,9.839329077632826,-6.47544875391759e-05,0.0956302732229232,0,0,0
947,33931.55994941121,2010-10-22 22:49:00,2461.2434505143588,7,3,-1.0997490882873535,3.538026094436645,2.924968894263196,2.703625359224362,11.720658916645071,9.871780484628976,-9.713172767078504e-05,0.0956302732229232,0,0,0
948,33961.57496920593,2010-10-22 22:49:30,2491.2584703090783,7,3,-1.099568486213684,3.5346264839172363,2.924968894263196,2.712793075336298,11.720658916645071,9.904200927551509,-6.47544875391759e-05,0.0956302732229232,0,0,0
949,33991.590132768964,2010-10-22 22:50:00,2521.2736338721124,7,3,-1.099568486213684,3.531388759613037,2.924968894263196,2.721960999211072,11.720658916645071,9.936590869863274,-6.47544875391759e-05,0.0956302732229232,0,0,0
950,34021.60531516895,2010-10-22 22:50:30,2551.288816267081,7,3,-1.0993878841400146,3.527827262878418,2.924968894263196,2.731129051679848,11.720658916645071,9.96894926757885,-6.47544875391759e-05,0.0956302732229232,0,0,0
951,34051.62047416059,2010-10-22 22:51:00,2581.303975263734,7,3,-1.099568486213684,3.523941993713379,2.924968894263196,2.740297107543836,11.720658916645071,10.001274366106244,-0.0001295089750783,0.0956302732229232,0,0,0
952,34081.635646535586,2010-10-22 22:51:30,2611.3191477590303,7,3,-1.099568486213684,3.52005672454834,2.924968894263196,2.749465088142371,11.720658916645071,10.03356457611801,-0.0001295089750783,0.0956302732229232,0,0,0
953,34111.65085891027,2010-10-22 22:52:00,2641.334360043493,7,3,-1.099568486213684,3.516009569168091,2.924968894263196,2.758633164800987,11.720658916645071,10.065818523833158,-9.713172767078504e-05,0.0956302732229232,0,0,0
954,34141.6659361632,2010-10-22 22:52:30,2671.3494373916533,7,3,-1.099568486213684,3.511638879776001,2.924968894263196,2.767801224280605,11.720658916645071,10.098034060841936,-0.0001618385285837,0.0956302732229232,0,0,0
955,34171.68107230288,2010-10-22 22:53:00,2701.3645734060274,7,3,-1.0997490882873535,3.506944179534912,2.924968894263196,2.776969264008757,11.720658916645071,10.130208980327762,-0.0001618862152099,0.0956302732229232,0,0,0
956,34201.69629693813,2010-10-22 22:53:30,2731.379798041272,7,3,-1.0997490882873535,3.5022494792938232,2.924968894263196,2.786137429746285,11.720658916645071,10.162341009434147,-0.0001618862152099,0.0956302732229232,0,0,0
957,34231.71147679678,2010-10-22 22:54:00,2761.39497789992,7,3,-1.099568486213684,3.496745347976685,2.924968894263196,2.795305528621245,11.720658916645071,10.194426153567674,-0.0001942634553415,0.0956302732229232,0,0,0
958,34261.72663910167,2010-10-22 22:54:30,2791.410140199805,7,3,-1.099568486213684,3.491241216659546,2.924968894263196,2.804473653018826,11.720658916645071,10.22646030626458,-0.0001295089750783,0.0956302732229232,0,0,0
959,34291.74180684012,2010-10-22 22:55:00,2821.4253079432583,7,3,-1.0997490882873535,3.484603881835937,2.924968894263196,2.813641780059038,11.720658916645071,10.2584381057093,-0.0001942634553415,0.0956302732229232,0,0,0
960,34321.75711499852,2010-10-22 22:55:30,2851.4406161016686,7,3,-1.099568486213684,3.4771571159362797,2.924968894263196,2.822809923096133,11.720658916645071,10.290352547824764,-0.0002266406954731,0.0956302732229232,0,0,0
961,34351.77321925606,2010-10-22 22:56:00,2881.456720479503,7,3,-1.0997490882873535,3.4689009189605717,2.924968894263196,2.831978354215359,11.720658916645071,10.322196233337564,-0.0002266406954731,0.0956302732229232,0,0,0
962,34381.77444229501,2010-10-22 22:56:30,2911.4579434382613,7,3,-1.099568486213684,3.459349632263184,2.924968894263196,2.841142236195991,11.720658916645071,10.35394240461138,-0.0002590179501567,0.0956302732229232,0,0,0
963,34411.78704770233,2010-10-22 22:57:00,2941.470548815509,7,3,-1.099568486213684,3.4481794834136963,2.924968894263196,2.850309563972997,11.720658916645071,10.385605664378554,-0.0003237724304199,0.0956302732229232,0,0,0
964,34441.80214005288,2010-10-22 22:57:30,2971.485641161047,7,3,-1.099568486213684,3.434742927551269,2.924968894263196,2.85947768181012,11.720658916645071,10.41715923600381,-0.0003885269106831,0.0956302732229232,0,0,0
965,34471.81775401846,2010-10-22 22:58:00,3001.501255266973,7,3,-1.099568486213684,3.4183926582336426,2.924968894263196,2.868645957309258,11.720658916645071,10.448578343374791,-0.0004856586456298,0.0956302732229232,0,0,0
966,34501.832307997225,2010-10-22 22:58:30,3031.5158091304484,7,3,-1.099568486213684,3.397833108901977,2.924968894263196,2.877813952959243,11.720658916645071,10.479829304633794,-0.0006475448608398,0.0956302732229232,0,0,0
967,34531.84760023095,2010-10-22 22:59:00,3061.531101339107,7,3,-1.099568486213684,3.371121883392334,2.924968894263196,2.886982195347106,11.720658916645071,10.510866044296671,-0.0008094310760498,0.0956302732229232,0,0,0
968,34561.86285735216,2010-10-22 22:59:30,3091.546358565579,7,3,-1.099568486213684,3.334535837173462,2.924968894263196,2.896150395991062,11.720658916645071,10.541613404616031,-0.0010684489971026,0.0956302732229232,0,0,0
969,34591.87782542296,2010-10-22 23:00:00,3121.561326521098,7,3,-1.099568486213684,3.2824084758758545,2.924968894263196,2.905318451385812,11.720658916645071,10.571958745716996,-0.0016188621520996,0.0956302732229232,0,0,0
970,34621.89297599362,2010-10-22 23:00:30,3151.5764770967644,7,3,-1.0997490882873535,3.2074553966522217,2.924968894263196,2.914486618819165,11.720658916645071,10.601731055542755,-0.0023635388351976,0.0956302732229232,0,0,0
971,34651.90813334117,2010-10-22 23:01:00,3181.59163446937,7,3,-1.099568486213684,3.0928404331207275,2.924968894263196,2.923654819654634,11.720658916645071,10.630653400873689,-0.003755712416023,0.0956302732229232,0,0,0
972,34679.93894714904,2010-10-22 23:01:28,3209.6224482521825,7,3,-1.0997490882873535,2.892587661743164,2.924968894263196,2.932216887930833,11.720658916645071,10.656396359386637,-0.008094310760498,0.0956302732229232,0,0,0
973,34694.407482656374,2010-10-22 23:01:43,3224.090983789599,7,3,-1.0997490882873535,2.699781894683838,2.924968894263196,2.936636301260716,11.720658916645071,10.668778497500169,-0.0118824001401662,0.0956302732229232,0,0,0
974,34754.42309678839,2010-10-22 23:02:43,60.01481771684814,8,3,0.0,3.339068651199341,2.924968894263196,2.936636301260716,11.720658916645071,10.668778497500169,0.0013922214275225,0.0956302732229232,0,0,0
975,34754.61212221724,2010-10-22 23:02:43,0.187449085798452,9,3,-1.9243103452026844e-05,3.339230537414551,2.924968894263196,2.936636302262689,11.720658916645071,10.668778500845985,0.0,0.0923885703086853,0,0,0
976,34759.44016011824,2010-10-22 23:02:48,5.015487016872822,9,3,0.0007031940040178,3.347324848175049,2.924969662592778,2.936636302429659,11.720661485772364,10.668778501403535,0.0011979580158367,0.0923885703086853,0,0,0
