Data_Point,Test_Time(s),Date_Time,Step_Time(s),Step_Index,Cycle_Index,Current(A),Voltage(V),Charge_Capacity(Ah),Discharge_Capacity(Ah),Charge_Energy(Wh),Discharge_Energy(Wh),dV/dt(V/s),Internal_Resistance(Ohm),Is_FC_Data,AC_Impedance(Ohm),ACI_Phase_Angle(Deg)
6293,219494.51653804304,2010-10-25 02:22:03,30.015317852571023,1,20,0.0,3.3563902378082275,18.73851018850708,18.75727636552167,74.84439834274691,68.44514610768351,0.0007446765666827,0.0922218039631843,0,0,0
6294,219524.53162880967,2010-10-25 02:22:33,60.03040861917394,1,20,0.0,3.3818063735961914,18.73851018850708,18.75727636552167,74.84439834274691,68.44514610768351,0.0005827903514727,0.0922218039631843,0,0,0
6295,219554.54686820667,2010-10-25 02:23:03,90.0456480412721,1,20,0.0,3.400747060775757,18.73851018850708,18.75727636552167,74.84439834274691,68.44514610768351,0.0004209041653666,0.0922218039631843,0,0,0
6296,219584.51534144807,2010-10-25 02:23:33,120.01412125759585,1,20,0.0,3.416288137435913,18.73851018850708,18.75727636552167,74.84439834274691,68.44514610768351,0.0004532813909463,0.0922218039631843,0,0,0
6297,219614.5330257514,2010-10-25 02:24:03,30.015098916916006,2,20,0.5501165986061096,3.572831630706787,18.74309608501848,18.75727636552167,74.8606108620466,68.44514610768351,0.0017159938579425,0.0922218039631843,0,0,0
6298,219644.54825327388,2010-10-25 02:24:33,60.03032639925661,2,20,0.5499359965324402,3.6238255500793457,18.74768202726629,18.75727636552167,74.87711947221331,68.44514610768351,0.0011655807029455,0.0922218039631843,0,0,0
6299,219674.5634467164,2010-10-25 02:25:03,90.04551984175947,2,20,0.5501165986061096,3.6610593795776367,18.75226787398197,18.75727636552167,74.89382673036545,68.44514610768351,0.0009065627818927,0.0922218039631843,0,0,0
6300,219704.57868828884,2010-10-25 02:25:33,120.06076142424196,2,20,0.5499359965324402,3.6900367736816406,18.756853718190424,18.75727636552167,74.91068472122073,68.44514610768351,0.0007122993702068,0.0922218039631843,0,0,0
6301,219734.5938905182,2010-10-25 02:26:03,150.07596365364446,2,20,0.5501165986061096,3.713995933532715,18.761439525593985,18.75727636552167,74.92766351919924,68.44514610768351,0.0005180359003134,0.0922218039631843,0,0,0
6302,219764.60912000053,2010-10-25 02:26:33,180.09119313596966,2,20,0.5499359965324402,3.73374605178833,18.7660253847624,18.75727636552167,74.94474242430228,68.44514610768351,0.0004532813909463,0.0922218039631843,0,0,0
6303,219794.6244549457,2010-10-25 02:27:03,210.1065280711157,2,20,0.5497553944587708,3.749772787094116,18.7706112322324,18.75727636552167,74.96190369910994,68.44514610768351,0.0003561496851034,0.0922218039631843,0,0,0
6304,219824.64042980075,2010-10-25 02:27:33,240.1225030414263,2,20,0.5501165986061096,3.7614283561706543,18.77519724264133,18.75727636552167,74.97912922826278,68.44514610768351,0.0002590179501567,0.0922218039631843,0,0,0
6305,219854.6417530545,2010-10-25 02:28:03,270.1238262099386,2,20,0.5501165986061096,3.768065690994263,18.779780933999383,18.75727636552167,74.9963866453159,68.44514610768351,0.0001618862152099,0.0922218039631843,0,0,0
6306,219884.65458039992,2010-10-25 02:28:33,300.13665353534964,2,20,0.5501165986061096,3.7722747325897217,18.78436641131472,18.75727636552167,75.01367519107065,68.44514610768351,6.47544875391759e-05,0.0922218039631843,0,0,0
6307,219914.6696406004,2010-10-25 02:29:03,330.15171375582224,2,20,0.5501165986061096,3.7761600017547607,18.788952237375955,18.75727636552167,75.0309832448063,68.44514610768351,0.0001295089750783,0.0922218039631843,0,0,0
6308,219944.6847923339,2010-10-25 02:29:33,360.1668654592985,2,20,0.5499359965324402,3.77972149848938,18.79353803027279,18.75727636552167,75.04830776821218,68.44514610768351,9.713172767078504e-05,0.0922218039631843,0,0,0
6309,219974.70001621728,2010-10-25 02:30:03,390.1820893727444,2,20,0.5501165986061096,3.783282995223999,18.798123867535978,18.75727636552167,75.06564856026084,68.44514610768351,0.0001295089750783,0.0922218039631843,0,0,0
6310,220004.7152216296,2010-10-25 02:30:33,420.19729478507975,2,20,0.5501165986061096,3.786682605743408,18.80270968989981,18.75727636552167,75.08300502025601,68.44514610768351,0.0001295089750783,0.0922218039631843,0,0,0
6311,220034.73069494465,2010-10-25 02:31:03,450.2127680650236,2,20,0.5499359965324402,3.7897584438323975,18.80729551919213,18.75727636552167,75.10037684815414,68.44514610768351,9.713172767078504e-05,0.0922218039631843,0,0,0
6312,220064.7458010946,2010-10-25 02:31:33,480.227874230004,2,20,0.5501165986061096,3.793158054351807,18.81188133897609,18.75727636552167,75.11776361468765,68.44514610768351,9.713172767078504e-05,0.0922218039631843,0,0,0
6313,220094.7608755155,2010-10-25 02:32:03,510.2429486709182,2,20,0.5501165986061096,3.796233892440796,18.816467092387818,18.75727636552167,75.13516487319838,68.44514610768351,6.47544875391759e-05,0.0922218039631843,0,0,0
6314,220124.7762048216,2010-10-25 02:32:33,540.2582779820475,2,20,0.5501165986061096,3.799309730529785,18.82105300096467,18.75727636552167,75.15258112337355,68.44514610768351,6.47544875391759e-05,0.0922218039631843,0,0,0
6315,220154.79133233972,2010-10-25 02:33:03,570.2734054701718,2,20,0.550297200679779,3.8023855686187744,18.825638931164885,18.75727636552167,75.17001161962193,68.44514610768351,9.713172767078504e-05,0.0922218039631843,0,0,0
6316,220184.80663867865,2010-10-25 02:33:33,600.2887118040346,2,20,0.5501165986061096,3.805461406707764,18.83022485086185,18.75727636552167,75.18745598725297,68.44514610768351,9.713172767078504e-05,0.0922218039631843,0,0,0
6317,220214.82175026715,2010-10-25 02:34:03,630.3038234175947,2,20,0.5501165986061096,3.808537244796753,18.834810707490306,18.75727636552167,75.2049139807295,68.44514610768351,0.0001295089750783,0.0922218039631843,0,0,0
6318,220244.8369503963,2010-10-25 02:34:33,660.3190235517751,2,20,0.5499359965324402,3.811451196670532,18.83939661552245,18.75727636552167,75.22238607666495,68.44514610768351,9.713172767078504e-05,0.0922218039631843,0,0,0
6319,220274.8521957081,2010-10-25 02:35:03,690.3342688334773,2,20,0.5501165986061096,3.814688920974731,18.8439824600215,18.75727636552167,75.23987200160167,68.44514610768351,0.0001295089750783,0.0922218039631843,0,0,0
6320,220304.86739462425,2010-10-25 02:35:33,720.3494677496221,2,20,0.550297200679779,3.8177647590637207,18.8485683523631,18.75727636552167,75.25737236896205,68.44514610768351,9.713172767078504e-05,0.0922218039631843,0,0,0
6321,220334.88280078187,2010-10-25 02:36:03,750.3648739072764,2,20,0.5501165986061096,3.82100248336792,18.853154249586648,18.75727636552167,75.27488724968826,68.44514610768351,0.0001295089750783,0.0922218039631843,0,0,0
6322,220364.897802281,2010-10-25 02:36:33,780.3798754063976,2,20,0.5499359965324402,3.824078321456909,18.85774011851801,18.75727636552167,75.29241685613158,68.44514610768351,6.47544875391759e-05,0.0922218039631843,0,0,0
6323,220394.91314623863,2010-10-25 02:37:03,810.3952193690429,2,20,0.5501165986061096,3.8274779319763184,18.862326011380983,18.75727636552167,75.30996180910277,68.44514610768351,6.47544875391759e-05,0.0922218039631843,0,0,0
6324,220424.9282238775,2010-10-25 02:37:33,840.4102970079274,2,20,0.5501165986061096,3.8310394287109375,18.866911837718117,18.75727636552167,75.32752198698262,68.44514610768351,0.0001618862152099,0.0922218039631843,0,0,0
6325,220454.9434308688,2010-10-25 02:38:03,870.4255040292729,2,20,0.5501165986061096,3.834438800811768,18.87149769534897,18.75727636552167,75.34509800956867,68.44514610768351,9.713172767078504e-05,0.0922218039631843,0,0,0
6326,220484.95870187963,2010-10-25 02:38:33,900.4407750350875,2,20,0.5499359965324402,3.837676525115967,18.87608364264826,18.75727636552167,75.36269017387477,68.44514610768351,6.47544875391759e-05,0.0922218039631843,0,0,0
6327,220514.9739151014,2010-10-25 02:39:03,930.4559882268112,2,20,0.5499359965324402,3.841076135635376,18.880669505123947,18.75727636552167,75.3802975578264,68.44514610768351,9.713172767078504e-05,0.0922218039631843,0,0,0
6328,220544.9891168697,2010-10-25 02:39:33,960.4711899950646,2,20,0.5501165986061096,3.844475746154785,18.885255409348115,18.75727636552167,75.39792056644039,68.44514610768351,6.47544875391759e-05,0.0922218039631843,0,0,0
6329,220575.00456130272,2010-10-25 02:40:03,990.486634518338,2,20,0.5501165986061096,3.8478753566741934,18.88984137267153,18.75727636552167,75.41555892385631,68.44514610768351,9.713172767078504e-05,0.0922218039631843,0,0,0
6330,220605.01954368412,2010-10-25 02:40:33,1020.5016168346494,2,20,0.5501165986061096,3.8511130809783936,18.89442728432497,18.75727636552167,75.43321191647149,68.44514610768351,9.713172767078504e-05,0.0922218039631843,0,0,0
6331,220635.03476206385,2010-10-25 02:41:03,1050.516835189241,2,20,0.5501165986061096,3.854027032852173,18.899013248135763,18.75727636552167,75.45087960681794,68.44514610768351,9.713172767078504e-05,0.0922218039631843,0,0,0
6332,220665.04996328577,2010-10-25 02:41:33,1080.5320364111324,2,20,0.5501165986061096,3.857264757156372,18.903599165403648,18.75727636552167,75.46856135060865,68.44514610768351,9.713172767078504e-05,0.0922218039631843,0,0,0
6333,220695.06532556904,2010-10-25 02:42:03,1110.5473987044634,2,20,0.5501165986061096,3.860016822814941,18.908185192423907,18.75727636552167,75.48625738789508,68.44514610768351,3.237724376958795e-05,0.0922218039631843,0,0,0
6334,220725.08040631068,2010-10-25 02:42:34,1140.562479436056,2,20,0.5499359965324402,3.86309266090393,18.91277110183379,18.75727636552167,75.50396636414193,68.44514610768351,6.47544875391759e-05,0.0922218039631843,0,0,0
6335,220755.0956314221,2010-10-25 02:43:04,1170.5777045474877,2,20,0.5499359965324402,3.86568284034729,18.917357088742225,18.75727636552167,75.52168849820367,68.44514610768351,6.47544875391759e-05,0.0922218039631843,0,0,0
6336,220785.1108342981,2010-10-25 02:43:34,1200.5929074235016,2,20,0.5497553944587708,3.8682730197906494,18.921943009758103,18.75727636552167,75.53942271293631,68.44514610768351,6.47544875391759e-05,0.0922218039631843,0,0,0
6337,220815.12605448224,2010-10-25 02:44:04,1230.6081276076527,2,20,0.5501165986061096,3.870863199234009,18.926529002868044,18.75727636552167,75.55716891762738,68.44514610768351,6.47544875391759e-05,0.0922218039631843,0,0,0
6338,220845.14127444584,2010-10-25 02:44:34,1260.6233476013294,2,20,0.550297200679779,3.873291492462158,18.931114994984213,18.75727636552167,75.57492626435972,68.44514610768351,6.47544875391759e-05,0.0922218039631843,0,0,0
6339,220875.1565072465,2010-10-25 02:45:04,1290.6385804019249,2,20,0.5501165986061096,3.8755578994750977,18.93570104394433,18.75727636552167,75.5926942962924,68.44514610768351,9.713172767078504e-05,0.0922218039631843,0,0,0
6340,220905.17184576552,2010-10-25 02:45:34,1320.6539189210032,2,20,0.5501165986061096,3.877662420272827,18.94028706237733,18.75727636552167,75.61047210067179,68.44514610768351,6.47544875391759e-05,0.0922218039631843,0,0,0
6341,220935.186926457,2010-10-25 02:46:04,1350.6689995824208,2,20,0.5499359965324402,3.8794431686401367,18.94487304657261,18.75727636552167,75.62825906327139,68.44514610768351,3.237724376958795e-05,0.0922218039631843,0,0,0
6342,220965.2021409921,2010-10-25 02:46:34,1380.6842141425554,2,20,0.5501165986061096,3.881385803222656,18.94945902708157,18.75727636552167,75.64605463684381,68.44514610768351,3.237724376958795e-05,0.0922218039631843,0,0,0
6343,220995.21760746508,2010-10-25 02:47:04,1410.6996807107714,2,20,0.5499359965324402,3.882842779159546,18.95404501059225,18.75727636552167,75.66385830173067,68.44514610768351,-3.237724376958795e-05,0.0922218039631843,0,0,0
6344,221025.23271439195,2010-10-25 02:47:34,1440.7147875273758,2,20,0.550297200679779,3.884623527526856,18.95863101937579,18.75727636552167,75.68166964387208,68.44514610768351,3.237724376958795e-05,0.0922218039631843,0,0,0
6345,221055.2477942865,2010-10-25 02:48:04,1470.729867441932,2,20,0.5501165986061096,3.886242389678955,18.96321700511934,18.75727636552167,75.6994878860212,68.44514610768351,6.47544875391759e-05,0.0922218039631843,0,0,0
6346,221085.2631291916,2010-10-25 02:48:34,1500.7452023269534,2,20,0.5501165986061096,3.8876993656158447,18.96780303203761,18.75727636552167,75.71731298074882,68.44514610768351,3.237724376958795e-05,0.0922218039631843,0,0,0
6347,221115.27826047916,2010-10-25 02:49:04,1530.7603336345967,2,20,0.5499359965324402,3.8888325691223145,18.97238901331027,18.75727636552167,75.735144330112,68.44514610768351,3.237724376958795e-05,0.0922218039631843,0,0,0
6348,221145.29357881792,2010-10-25 02:49:34,1560.7756519783925,2,20,0.5497553944587708,3.890289545059204,18.976975041036305,18.75727636552167,75.75298206644044,68.44514610768351,6.47544875391759e-05,0.0922218039631843,0,0,0
6349,221175.3088019795,2010-10-25 02:50:04,1590.7908752251765,2,20,0.5499359965324402,3.891422748565674,18.981561101137768,18.75727636552167,75.77082601060454,68.44514610768351,3.237724376958795e-05,0.0922218039631843,0,0,0
6350,221205.32387329763,2010-10-25 02:50:34,1620.8059464230082,2,20,0.5499359965324402,3.892879724502564,18.98614708990575,18.75727636552167,75.78867559820175,68.44514610768351,0.0,0.0922218039631843,0,0,0
6351,221235.3391397521,2010-10-25 02:51:04,1650.8212128724667,2,20,0.5501165986061096,3.894174814224243,18.99073309000496,18.75727636552167,75.80653114678626,68.44514610768351,3.237724376958795e-05,0.0922218039631843,0,0,0
6352,221265.35430535523,2010-10-25 02:51:34,1680.836378480598,2,20,0.5499359965324402,3.895146131515503,18.99531915735699,18.75727636552167,75.82439253582464,68.44514610768351,3.237724376958795e-05,0.0922218039631843,0,0,0
6353,221295.369490472,2010-10-25 02:52:04,1710.8515635973504,2,20,0.5501165986061096,3.8966031074523926,18.999905113693547,18.75727636552167,75.8422592463119,68.44514610768351,3.237724376958795e-05,0.0922218039631843,0,0,0
6354,221325.38473888143,2010-10-25 02:52:34,1740.866812006848,2,20,0.5501165986061096,3.897898197174072,19.00449106177995,18.75727636552167,75.86013177614022,68.44514610768351,3.237724376958795e-05,0.0922218039631843,0,0,0
6355,221355.40008202204,2010-10-25 02:53:04,1770.8821551574697,2,20,0.5501165986061096,3.899193286895752,19.00907703853369,18.75727636552167,75.87801029136403,68.44514610768351,6.47544875391759e-05,0.0922218039631843,0,0,0
6356,221385.4151565332,2010-10-25 02:53:34,1800.8972297688083,2,20,0.5499359965324402,3.9003264904022217,19.01366301683393,18.75727636552167,75.89589467013043,68.44514610768351,3.237724376958795e-05,0.0922218039631843,0,0,0
6357,221415.4303639004,2010-10-25 02:54:04,1830.9124370257407,2,20,0.5501165986061096,3.9017834663391113,19.018248996290804,18.75727636552167,75.91378492974698,68.44514610768351,6.47544875391759e-05,0.0922218039631843,0,0,0
6358,221445.44558254565,2010-10-25 02:54:34,1860.927655671057,2,20,0.5501165986061096,3.903078556060791,19.02283493649996,18.75727636552167,75.93168094425154,68.44514610768351,3.237724376958795e-05,0.0922218039631843,0,0,0
6359,221475.46081653924,2010-10-25 02:55:04,1890.9428896746508,2,20,0.5499359965324402,3.9042117595672607,19.027420921808908,18.75727636552167,75.94958314411143,68.44514610768351,3.237724376958795e-05,0.0922218039631843,0,0,0
6360,221505.47602895903,2010-10-25 02:55:34,1920.958102114501,2,20,0.5499359965324402,3.905506849288941,19.032006976491463,18.75727636552167,75.96749152266558,68.44514610768351,3.237724376958795e-05,0.0922218039631843,0,0,0
6361,221535.49139232005,2010-10-25 02:56:04,1950.973465445418,2,20,0.5501165986061096,3.90696382522583,19.03659292589971,18.75727636552167,75.98540549838235,68.44514610768351,3.237724376958795e-05,0.0922218039631843,0,0,0
6362,221565.5065736373,2010-10-25 02:56:34,1980.988646772726,2,20,0.5501165986061096,3.90842080116272,19.04117891868401,18.75727636552167,76.00332571286076,68.44514610768351,9.713172767078504e-05,0.0922218039631843,0,0,0
6363,221595.52168173715,2010-10-25 02:57:04,2011.003754887566,2,20,0.5501165986061096,3.9097158908844,19.045764810612024,18.75727636552167,76.02125163635765,68.44514610768351,6.47544875391759e-05,0.0922218039631843,0,0,0
6364,221625.5368768889,2010-10-25 02:57:34,2041.0189500142665,2,20,0.5499359965324402,3.910849094390869,19.05035081942176,18.75727636552167,76.03918416780976,68.44514610768351,0.0,0.0922218039631843,0,0,0
6365,221655.5520966319,2010-10-25 02:58:04,2071.034169782381,2,20,0.5501165986061096,3.912306070327759,19.05493677509916,18.75727636552167,76.05712266315179,68.44514610768351,3.237724376958795e-05,0.0922218039631843,0,0,0
6366,221685.56731150285,2010-10-25 02:58:34,2101.0493846282275,2,20,0.5499359965324402,3.9136011600494394,19.05952272094644,18.75727636552167,76.07506736223807,68.44514610768351,0.0,0.0922218039631843,0,0,0
6367,221715.58255547128,2010-10-25 02:59:04,2131.0646286517936,2,20,0.5501165986061096,3.915057897567749,19.06410866976764,18.75727636552167,76.09301841720114,68.44514610768351,0.0,0.0922218039631843,0,0,0
6368,221745.59789158436,2010-10-25 02:59:34,2161.0799647097383,2,20,0.5499359965324402,3.9163529872894287,19.068694666615222,18.75727636552167,76.11097585098629,68.44514610768351,0.0,0.0922218039631843,0,0,0
6369,221775.61565239556,2010-10-25 03:00:04,2191.097725515901,2,20,0.5499359965324402,3.9178099632263184,19.073281021476344,18.75727636552167,76.12894114008444,68.44514610768351,3.237724376958795e-05,0.0922218039631843,0,0,0
6370,221805.62841279915,2010-10-25 03:00:34,2221.11048593456,2,20,0.5499359965324402,3.919266939163208,19.077866567335168,18.75727636552167,76.146909672847,68.44514610768351,3.237724376958795e-05,0.0922218039631843,0,0,0
6371,221835.6434236416,2010-10-25 03:01:04,2251.1254968170674,2,20,0.550297200679779,3.9207239151000977,19.08245250869474,18.75727636552167,76.16488627788853,68.44514610768351,9.713172767078504e-05,0.0922218039631843,0,0,0
6372,221865.6586208183,2010-10-25 03:01:34,2281.140693943752,2,20,0.5499359965324402,3.922019004821777,19.087038525128527,18.75727636552167,76.18286969319442,68.44514610768351,3.237724376958795e-05,0.0922218039631843,0,0,0
6373,221895.67383112287,2010-10-25 03:02:04,2311.1559042583053,2,20,0.5497553944587708,3.923314094543457,19.091624487882537,18.75727636552167,76.20085951874054,68.44514610768351,0.0,0.0922218039631843,0,0,0
6374,221925.68917555167,2010-10-25 03:02:34,2341.171248687113,2,20,0.5499359965324402,3.9249329566955566,19.09621049276047,18.75727636552167,76.21885614800696,68.44514610768351,0.0,0.0922218039631843,0,0,0
6375,221955.70447945956,2010-10-25 03:03:04,2371.186552579891,2,20,0.5501165986061096,3.9263899326324463,19.100796535879653,18.75727636552167,76.23685957777867,68.44514610768351,3.237724376958795e-05,0.0922218039631843,0,0,0
6376,221985.7195182716,2010-10-25 03:03:34,2401.201591392008,2,20,0.5501165986061096,3.928008794784546,19.105382528027217,18.75727636552167,76.25486955626914,68.44514610768351,3.237724376958795e-05,0.0922218039631843,0,0,0
6377,222015.7347061302,2010-10-25 03:04:04,2431.216779285681,2,20,0.5499359965324402,3.9293038845062256,19.10996851551541,18.75727636552167,76.27288628068075,68.44514610768351,3.237724376958795e-05,0.0922218039631843,0,0,0
6378,222045.7500569499,2010-10-25 03:04:34,2461.232130085367,2,20,0.550297200679779,3.931084632873535,19.114554521905607,18.75727636552167,76.2909099778515,68.44514610768351,6.47544875391759e-05,0.0922218039631843,0,0,0
6379,222075.76515504983,2010-10-25 03:05:04,2491.2472281752216,2,20,0.5499359965324402,3.932379722595215,19.11914052613077,18.75727636552167,76.30894052470317,68.44514610768351,3.237724376958795e-05,0.0922218039631843,0,0,0
6380,222105.78035896344,2010-10-25 03:05:34,2521.262432143959,2,20,0.5499359965324402,3.9339985847473145,19.123726569952257,18.75727636552167,76.32697823487283,68.44514610768351,9.713172767078504e-05,0.0922218039631843,0,0,0
6381,222135.79557677667,2010-10-25 03:06:04,2551.2776499070765,2,20,0.5501165986061096,3.935455560684204,19.12831258946397,18.75727636552167,76.3450229014487,68.44514610768351,6.47544875391759e-05,0.0922218039631843,0,0,0
6382,222165.81084776245,2010-10-25 03:06:34,2581.292920887828,2,20,0.5501165986061096,3.937074422836304,19.13289868388597,18.75727636552167,76.36307480129479,68.44514610768351,9.713172767078504e-05,0.0922218039631843,0,0,0
6383,222195.82603813728,2010-10-25 03:07:04,2611.308111287748,2,20,0.550297200679779,3.938531398773194,19.137484653101787,18.75727636552167,76.38113343007373,68.44514610768351,0.0,0.0922218039631843,0,0,0
6384,222225.84122619132,2010-10-25 03:07:34,2641.323299316759,2,20,0.5499359965324402,3.940150260925293,19.142070617014333,18.75727636552167,76.39919921377466,68.44514610768351,3.237724376958795e-05,0.0922218039631843,0,0,0
6385,222255.85655637467,2010-10-25 03:08:04,2671.338629495049,2,20,0.550297200679779,3.9417691230773926,19.14665725810493,18.75727636552167,76.41727498711526,68.44514610768351,3.237724376958795e-05,0.0922218039631843,0,0,0
6386,222285.8716474521,2010-10-25 03:08:34,2701.3537205724265,2,20,0.5501165986061096,3.943387985229492,19.1512439309742,18.75727636552167,76.43535819866896,68.44514610768351,3.237724376958795e-05,0.0922218039631843,0,0,0
6387,222315.88701348467,2010-10-25 03:09:04,2731.369086705327,2,20,0.550297200679779,3.945006847381592,19.155830666087944,18.75727636552167,76.45344905248275,68.44514610768351,6.47544875391759e-05,0.0922218039631843,0,0,0
6388,222345.9022175687,2010-10-25 03:09:34,2761.384290789352,2,20,0.5501165986061096,3.9466257095336914,19.160417356130026,18.75727636552167,76.47154718517255,68.44514610768351,3.237724376958795e-05,0.0922218039631843,0,0,0
6389,222375.91732231012,2010-10-25 03:10:04,2791.3993954455723,2,20,0.550297200679779,3.948244571685791,19.165003488894083,18.75727636552167,76.48965047457027,68.44514610768351,6.47544875391759e-05,0.0922218039631843,0,0,0
6390,222405.9325517825,2010-10-25 03:10:34,2821.4146249329096,2,20,0.5499359965324402,3.94986343383789,19.1695895514554,18.75727636552167,76.50776115586662,68.44514610768351,3.237724376958795e-05,0.0922218039631843,0,0,0
6391,222435.9477482876,2010-10-25 03:11:04,2851.4298214029586,2,20,0.5499359965324402,3.9516441822052,19.17417548420388,18.75727636552167,76.5258790190523,68.44514610768351,3.237724376958795e-05,0.0922218039631843,0,0,0
6392,222465.9630772278,2010-10-25 03:11:34,2881.445150363213,2,20,0.550297200679779,3.9532630443573,19.17876143555648,18.75727636552167,76.54400458928077,68.44514610768351,3.237724376958795e-05,0.0922218039631843,0,0,0
6393,222495.97831470505,2010-10-25 03:12:04,2911.460387950739,2,20,0.5501165986061096,3.95504379272461,19.18334741986518,18.75727636552167,76.56213808350364,68.44514610768351,6.47544875391759e-05,0.0922218039631843,0,0,0
6394,222525.9934299076,2010-10-25 03:12:34,2941.4755030229185,2,20,0.5501165986061096,3.956662654876709,19.187933390050027,18.75727636552167,76.58027935879797,68.44514610768351,6.47544875391759e-05,0.0922218039631843,0,0,0
6395,222556.0086204428,2010-10-25 03:13:04,2971.4906935682006,2,20,0.5501165986061096,3.9584434032440186,19.19251939322015,18.75727636552167,76.59842851552442,68.44514610768351,9.713172767078504e-05,0.0922218039631843,0,0,0
6396,222586.0238515492,2010-10-25 03:13:34,3001.505924699636,2,20,0.5501165986061096,3.960224151611328,19.19710530580812,18.75727636552167,76.61658532722213,68.44514610768351,9.713172767078504e-05,0.0922218039631843,0,0,0
6397,222616.0390412624,2010-10-25 03:14:04,3031.5211143877814,2,20,0.5501165986061096,3.961843013763428,19.20169131413013,18.75727636552167,76.63475057864822,68.44514610768351,6.47544875391759e-05,0.0922218039631843,0,0,0
6398,222646.05426089515,2010-10-25 03:14:35,3061.536334045621,2,20,0.550297200679779,3.963623762130737,19.206277274560858,18.75727636552167,76.65292364817368,68.44514610768351,6.47544875391759e-05,0.0922218039631843,0,0,0
6399,222676.06948116457,2010-10-25 03:15:05,3091.5515542899225,2,20,0.5497553944587708,3.965404510498047,19.210863189101183,18.75727636552167,76.67110468325569,68.44514610768351,3.237724376958795e-05,0.0922218039631843,0,0,0
6400,222706.0846895693,2010-10-25 03:15:35,3121.566762719778,2,20,0.5499359965324402,3.967185258865357,19.215449112802283,18.75727636552167,76.68929397326772,68.44514610768351,3.237724376958795e-05,0.0922218039631843,0,0,0
6401,222736.09990001924,2010-10-25 03:16:05,3151.581973154632,2,20,0.5501165986061096,3.969127893447876,19.22003507811246,18.75727636552167,76.70749158555275,68.44514610768351,9.713172767078504e-05,0.0922218039631843,0,0,0
6402,222766.11524430767,2010-10-25 03:16:35,3181.597317443089,2,20,0.5499359965324402,3.970746755599976,19.22462102034697,18.75727636552167,76.72569744751809,68.44514610768351,6.47544875391759e-05,0.0922218039631843,0,0,0
6403,222796.13036963544,2010-10-25 03:17:05,3211.612442770829,2,20,0.5497553944587708,3.972689390182495,19.229206842315342,18.75727636552167,76.74391124910102,68.44514610768351,6.47544875391759e-05,0.0922218039631843,0,0,0
6404,222826.14560926304,2010-10-25 03:17:35,3241.6276824184893,2,20,0.5499359965324402,3.974632024765015,19.233792785109987,18.75727636552167,76.76213400585254,68.44514610768351,6.47544875391759e-05,0.0922218039631843,0,0,0
6405,222856.16076877096,2010-10-25 03:18:05,3271.642841896341,2,20,0.5499359965324402,3.976250886917114,19.238378658654923,18.75727636552167,76.7803650972895,68.44514610768351,6.47544875391759e-05,0.0922218039631843,0,0,0
6406,222886.1762406524,2010-10-25 03:18:35,3301.658313787825,2,20,0.5499359965324402,3.977869749069214,19.242964745126827,18.75727636552167,76.79860546578242,68.44514610768351,0.0,0.0922218039631843,0,0,0
6407,222916.1912206429,2010-10-25 03:19:05,3331.6732937683146,2,20,0.5499359965324402,3.980459928512573,19.247550481645217,18.75727636552167,76.8168534119453,68.44514610768351,6.47544875391759e-05,0.0922218039631843,0,0,0
6408,222946.20656157803,2010-10-25 03:19:35,3361.68863471344,2,20,0.5501165986061096,3.982240676879883,19.252136329223976,18.75727636552167,76.83511076005453,68.44514610768351,6.47544875391759e-05,0.0922218039631843,0,0,0
6409,222976.22165776807,2010-10-25 03:20:05,3391.703730918597,2,20,0.5499359965324402,3.9841833114624015,19.25672212432841,18.75727636552167,76.85337685541823,68.44514610768351,9.713172767078504e-05,0.0922218039631843,0,0,0
6410,223006.2368751253,2010-10-25 03:20:35,3421.7189482757026,2,20,0.5497553944587708,3.985964059829712,19.2613079142676,18.75727636552167,76.87165194011128,68.44514610768351,3.237724376958795e-05,0.0922218039631843,0,0,0
6411,223036.252090322,2010-10-25 03:21:05,3451.734163447361,2,20,0.5499359965324402,3.9880685806274414,19.26589369114849,18.75727636552167,76.88993613515314,68.44514610768351,3.237724376958795e-05,0.0922218039631843,0,0,0
6412,223066.26728723312,2010-10-25 03:21:35,3481.7493603835715,2,20,0.5501165986061096,3.990173101425171,19.27047954161814,18.75727636552167,76.90822978809159,68.44514610768351,3.237724376958795e-05,0.0922218039631843,0,0,0
6413,223096.28254248967,2010-10-25 03:22:05,3511.7646156451465,2,20,0.5499359965324402,3.992277622222901,19.27506530198185,18.75727636552167,76.92653241581924,68.44514610768351,9.713172767078504e-05,0.0922218039631843,0,0,0
6414,223126.29771862907,2010-10-25 03:22:35,3541.77979175445,2,20,0.5499359965324402,3.994220018386841,19.27965116904011,18.75727636552167,76.9448449429728,68.44514610768351,3.237724376958795e-05,0.0922218039631843,0,0,0
6415,223156.3129521916,2010-10-25 03:23:05,3571.7950253269687,2,20,0.5501165986061096,3.99648642539978,19.284236962806247,18.75727636552167,76.9631667516221,68.44514610768351,9.713172767078504e-05,0.0922218039631843,0,0,0
6416,223186.3281450175,2010-10-25 03:23:35,3601.810218147922,2,20,0.5501165986061096,3.9985909461975098,19.288822833613526,18.75727636552167,76.98149860824206,68.44514610768351,6.47544875391759e-05,0.0922218039631843,0,0,0
6417,223216.34350928577,2010-10-25 03:24:05,3631.825582416176,2,20,0.5499359965324402,4.000695705413818,19.293408673632392,18.75727636552167,76.99984002266119,68.44514610768351,6.47544875391759e-05,0.0922218039631843,0,0,0
6418,223246.3585840475,2010-10-25 03:24:35,3661.840657172877,2,20,0.5501165986061096,4.002799987792969,19.297994475839204,18.75727636552167,77.0181912289446,68.44514610768351,6.47544875391759e-05,0.0922218039631843,0,0,0
6419,223276.37383705343,2010-10-25 03:25:05,3691.855910178831,2,20,0.5501165986061096,4.005066394805908,19.302580194740123,18.75727636552167,77.03655203013251,68.44514610768351,6.47544875391759e-05,0.0922218039631843,0,0,0
6420,223306.3891495677,2010-10-25 03:25:35,3721.8712227432216,2,20,0.5497553944587708,4.007171154022217,19.307166037353177,18.75727636552167,77.05492338574051,68.44514610768351,6.47544875391759e-05,0.0922218039631843,0,0,0
6421,223336.404281522,2010-10-25 03:26:05,3751.8863546774255,2,20,0.5501165986061096,4.009599208831787,19.311751823619066,18.75727636552167,77.07330466091543,68.44514610768351,9.70840483205393e-05,0.0922218039631843,0,0,0
6422,223366.41957355017,2010-10-25 03:26:35,3781.901646685586,2,20,0.5499359965324402,4.011703968048096,19.31633766148267,18.75727636552167,77.09169639854707,68.44514610768351,6.47544875391759e-05,0.0922218039631843,0,0,0
6423,223396.43468011115,2010-10-25 03:27:05,3811.91675326159,2,20,0.5499359965324402,4.013970375061035,19.3209235056256,18.75727636552167,77.11009858813354,68.44514610768351,6.47544875391759e-05,0.0922218039631843,0,0,0
6424,223426.44989887672,2010-10-25 03:27:35,3841.9319720272074,2,20,0.5501165986061096,4.0163984298706055,19.32550933391108,18.75727636552167,77.1285112100905,68.44514610768351,9.70840483205393e-05,0.0922218039631843,0,0,0
6425,223456.4652666788,2010-10-25 03:28:05,3871.947339844304,2,20,0.5504778623580933,4.018664836883545,19.330095212021625,18.75727636552167,77.14693465450986,68.44514610768351,9.70840483205393e-05,0.0922218039631843,0,0,0
6426,223486.4804597053,2010-10-25 03:28:35,3901.96253287077,2,20,0.5501165986061096,4.020931243896484,19.33468105017504,18.75727636552167,77.16536842732957,68.44514610768351,6.47544875391759e-05,0.0922218039631843,0,0,0
6427,223516.4955813839,2010-10-25 03:29:05,3931.977654534378,2,20,0.5501165986061096,4.023036003112793,19.339266848270448,18.75727636552167,77.18381286510936,68.44514610768351,3.24249267578125e-05,0.0922218039631843,0,0,0
6428,223546.5108716778,2010-10-25 03:29:35,3961.992944813227,2,20,0.5499359965324402,4.025626182556152,19.343852657426847,18.75727636552167,77.20226810460547,68.44514610768351,6.47544875391759e-05,0.0922218039631843,0,0,0
6429,223576.5259615572,2010-10-25 03:30:05,3992.0080346926175,2,20,0.5501165986061096,4.028054237365723,19.34843843836018,18.75727636552167,77.22073413307287,68.44514610768351,6.47544875391759e-05,0.0922218039631843,0,0,0
6430,223606.5411828892,2010-10-25 03:30:35,4022.0232560146055,2,20,0.5501165986061096,4.030644416809082,19.35302425918449,18.75727636552167,77.23921122593948,68.44514610768351,9.70840483205393e-05,0.0922218039631843,0,0,0
6431,223636.5564253739,2010-10-25 03:31:05,4052.038498524399,2,20,0.5497553944587708,4.032749176025391,19.357610046926684,18.75727636552167,77.25769926742656,68.44514610768351,6.47544875391759e-05,0.0922218039631843,0,0,0
6432,223666.57164778863,2010-10-25 03:31:35,4082.053720914047,2,20,0.5499359965324402,4.035338878631592,19.36219584349564,18.75727636552167,77.27619846667244,68.44514610768351,6.47544875391759e-05,0.0922218039631843,0,0,0
6433,223696.5894424091,2010-10-25 03:32:05,4112.071515564561,2,20,0.5499359965324402,4.037605285644531,19.36678207546291,18.75727636552167,77.29471068167031,68.44514610768351,3.23295607813634e-05,0.0922218039631843,0,0,0
6434,223726.60227823065,2010-10-25 03:32:35,4142.084351396172,2,20,0.5499359965324402,4.04003381729126,19.371367538446837,18.75727636552167,77.31323111874887,68.44514610768351,3.24249267578125e-05,0.0922218039631843,0,0,0
6435,223756.61728749413,2010-10-25 03:33:05,4172.099360619544,2,20,0.5501165986061096,4.04278564453125,19.375953320577366,18.75727636552167,77.33176425575195,68.44514610768351,6.47544875391759e-05,0.0922218039631843,0,0,0
6436,223786.63248213968,2010-10-25 03:33:35,4202.114555290108,2,20,0.5501165986061096,4.0450520515441895,19.38053912277381,18.75727636552167,77.3503090675827,68.44514610768351,3.23295607813634e-05,0.0922218039631843,0,0,0
6437,223816.6476912462,2010-10-25 03:34:05,4232.129764371588,2,20,0.5499359965324402,4.047804355621338,19.38512489453418,18.75727636552167,77.36886544931757,68.44514610768351,6.47544875391759e-05,0.0922218039631843,0,0,0
6438,223846.66293055305,2010-10-25 03:34:35,4262.145003678398,2,20,0.5499359965324402,4.050232410430908,19.38971073989273,18.75727636552167,77.38743397870743,68.44514610768351,0.0,0.0922218039631843,0,0,0
6439,223876.6783316931,2010-10-25 03:35:05,4292.160404818548,2,20,0.5501165986061096,4.052984714508057,19.3942966304187,18.75727636552167,77.40601454625991,68.44514610768351,6.47544875391759e-05,0.0922218039631843,0,0,0
6440,223906.69347401825,2010-10-25 03:35:35,4322.175547153675,2,20,0.5497553944587708,4.055412769317627,19.398882512984283,18.75727636552167,77.42460714947765,68.44514610768351,3.23295607813634e-05,0.0922218039631843,0,0,0
6441,223936.7085834263,2010-10-25 03:36:05,4352.190656606851,2,20,0.5501165986061096,4.058326721191406,19.4034683915628,18.75727636552167,77.44321181060202,68.44514610768351,9.70840483205393e-05,0.0922218039631843,0,0,0
6442,223966.7237819465,2010-10-25 03:36:35,4382.205855096933,2,20,0.5499359965324402,4.060755252838135,19.408054264546728,18.75727636552167,77.46182864636505,68.44514610768351,3.24249267578125e-05,0.0922218039631843,0,0,0
6443,223996.73901603528,2010-10-25 03:37:05,4412.221089215816,2,20,0.5499359965324402,4.063507080078125,19.41264011195538,18.75727636552167,77.48045737892176,68.44514610768351,6.47544875391759e-05,0.0922218039631843,0,0,0
6444,224026.75421162316,2010-10-25 03:37:35,4442.23628475354,2,20,0.5501165986061096,4.066583156585693,19.41722596662419,18.75727636552167,77.49909875316816,68.44514610768351,9.71794142969884e-05,0.0922218039631843,0,0,0
6445,224056.76960168063,2010-10-25 03:38:05,4472.251674811068,2,20,0.5499359965324402,4.068849563598633,19.42181181786657,18.75727636552167,77.51775277213356,68.44514610768351,3.24249267578125e-05,0.0922218039631843,0,0,0
6446,224086.7846465278,2010-10-25 03:38:35,4502.266719693313,2,20,0.5499359965324402,4.071925163269043,19.426397623157943,18.75727636552167,77.53641932054033,68.44514610768351,9.70840483205393e-05,0.0922218039631843,0,0,0
6447,224116.7999019949,2010-10-25 03:39:05,4532.281975235587,2,20,0.5501165986061096,4.074677467346191,19.430983376136396,18.75727636552167,77.55509853723842,68.44514610768351,6.47544875391759e-05,0.0922218039631843,0,0,0
6448,224146.8151978226,2010-10-25 03:39:35,4562.297270973041,2,20,0.550297200679779,4.077753067016602,19.43556917588668,18.75727636552167,77.5737908893284,68.44514610768351,0.0001618385285837,0.0922218039631843,0,0,0
6449,224176.8304128539,2010-10-25 03:40:05,4592.312485979287,2,20,0.5501165986061096,4.080343246459961,19.440154921712427,18.75727636552167,77.59249607549977,68.44514610768351,3.23295607813634e-05,0.0922218039631843,0,0,0
6450,224206.8455106029,2010-10-25 03:40:35,4622.327583728292,2,20,0.5501165986061096,4.08325719833374,19.444740644753924,18.75727636552167,77.61121425105547,68.44514610768351,6.47544875391759e-05,0.0922218039631843,0,0,0
6451,224236.86074983457,2010-10-25 03:41:05,4652.342822959916,2,20,0.5499359965324402,4.086009502410889,19.449326364645938,18.75727636552167,77.62994571857408,68.44514610768351,6.47544875391759e-05,0.0922218039631843,0,0,0
6452,224266.87597162768,2010-10-25 03:41:35,4682.35804477814,2,20,0.5499359965324402,4.088923454284668,19.45391213486253,18.75727636552167,77.64869077171367,68.44514610768351,0.0,0.0922218039631843,0,0,0
6453,224296.8911728496,2010-10-25 03:42:05,4712.373245964944,2,20,0.5501165986061096,4.092161178588867,19.45849801474981,18.75727636552167,77.66744984086785,68.44514610768351,6.47544875391759e-05,0.0922218039631843,0,0,0
6454,224326.90640807123,2010-10-25 03:42:35,4742.38848122166,2,20,0.5501165986061096,4.095075130462647,19.463083878818864,18.75727636552167,77.68622250768321,68.44514610768351,9.71794142969884e-05,0.0922218039631843,0,0,0
6455,224356.9216596987,2010-10-25 03:43:05,4772.403732824115,2,20,0.5501165986061096,4.097989082336426,19.467669649990025,18.75727636552167,77.70500852028707,68.44514610768351,3.24249267578125e-05,0.0922218039631843,0,0,0
6456,224386.9369392609,2010-10-25 03:43:35,4802.419012411317,2,20,0.5501165986061096,4.101226806640625,19.47225547463061,18.75727636552167,77.7238086290642,68.44514610768351,9.71794142969884e-05,0.0922218039631843,0,0,0
6457,224416.9521600716,2010-10-25 03:44:05,4832.434233196968,2,20,0.5499359965324402,4.104140758514404,19.47684128679456,18.75727636552167,77.7426225636699,68.44514610768351,6.47544875391759e-05,0.0922218039631843,0,0,0
6458,224446.96726690824,2010-10-25 03:44:35,4862.449340043647,2,20,0.5499359965324402,4.107216358184815,19.481427104826853,18.75727636552167,77.76145067986728,68.44514610768351,6.47544875391759e-05,0.0922218039631843,0,0,0
6459,224476.9827424939,2010-10-25 03:45:05,4892.464815759662,2,20,0.5501165986061096,4.110616207122803,19.4860129220792,18.75727636552167,77.78029300641582,68.44514610768351,9.71794142969884e-05,0.0922218039631843,0,0,0
6460,224506.99771177777,2010-10-25 03:45:35,4922.479784928206,2,20,0.5499359965324402,4.113530158996582,19.490598686971104,18.75727636552167,77.79914948468682,68.44514610768351,9.71794142969884e-05,0.0922218039631843,0,0,0
6461,224537.013020262,2010-10-25 03:46:05,4952.495093387365,2,20,0.5501165986061096,4.116767406463623,19.495184414109147,18.75727636552167,77.81802019483833,68.44514610768351,9.70840483205393e-05,0.0922218039631843,0,0,0
6462,224567.02811682803,2010-10-25 03:46:36,4982.51018994841,2,20,0.5501165986061096,4.120005130767822,19.499770169646304,18.75727636552167,77.83690564957345,68.44514610768351,9.70840483205393e-05,0.0922218039631843,0,0,0
6463,224597.04334453595,2010-10-25 03:47:06,5012.5254176663375,2,20,0.5501165986061096,4.122919082641602,19.50435598023529,18.75727636552167,77.85580605326459,68.44514610768351,3.23295607813634e-05,0.0922218039631843,0,0,0
6464,224627.058551447,2010-10-25 03:47:36,5042.540624572396,2,20,0.5499359965324402,4.12631893157959,19.50894182604516,18.75727636552167,77.87472139586555,68.44514610768351,6.47544875391759e-05,0.0922218039631843,0,0,0
6465,224657.07376761115,2010-10-25 03:48:06,5072.555840731516,2,20,0.5499359965324402,4.129556655883789,19.513527682395395,18.75727636552167,77.89365171761779,68.44514610768351,3.24249267578125e-05,0.0922218039631843,0,0,0
6466,224687.08900352448,2010-10-25 03:48:36,5102.571076644868,2,20,0.5499359965324402,4.132956027984619,19.518113499978124,18.75727636552167,77.91259692335146,68.44514610768351,9.70840483205393e-05,0.0922218039631843,0,0,0
6467,224717.1042231322,2010-10-25 03:49:06,5132.586296282659,2,20,0.5499359965324402,4.136193752288818,19.52269936981444,18.75727636552167,77.9315574082192,68.44514610768351,9.70840483205393e-05,0.0922218039631843,0,0,0
6468,224747.11953993217,2010-10-25 03:49:36,5162.601613067568,2,20,0.5501165986061096,4.139593601226807,19.527285234982102,18.75727636552167,77.95053321952918,68.44514610768351,9.71794142969884e-05,0.0922218039631843,0,0,0
6469,224777.13463289425,2010-10-25 03:50:06,5192.616706009593,2,20,0.5501165986061096,4.142992973327637,19.53187106294927,18.75727636552167,77.96952429334307,68.44514610768351,9.70840483205393e-05,0.0922218039631843,0,0,0
6470,224807.14985301823,2010-10-25 03:50:36,5222.631926143619,2,20,0.5499359965324402,4.146392822265625,19.53645681038296,18.75727636552167,77.98853065775845,68.44514610768351,9.71794142969884e-05,0.0922218039631843,0,0,0
6471,224837.1653185789,2010-10-25 03:51:06,5252.647391724374,2,20,0.5499359965324402,4.149792194366455,19.54104264251623,18.75727636552167,78.00755315690702,68.44514610768351,6.47544875391759e-05,0.0922218039631843,0,0,0
6472,224867.1802966497,2010-10-25 03:51:36,5282.662369830192,2,20,0.5501165986061096,4.153353691101074,19.545628362419976,18.75727636552167,78.02659090042685,68.44514610768351,0.0001295089750783,0.0922218039631843,0,0,0
6473,224897.1955527684,2010-10-25 03:52:06,5312.677625918829,2,20,0.5501165986061096,4.156753540039063,19.55021414936263,18.75727636552167,78.04564460789992,68.44514610768351,6.47544875391759e-05,0.0922218039631843,0,0,0
6474,224927.21072983005,2010-10-25 03:52:36,5342.692802980505,2,20,0.5499359965324402,4.160152912139893,19.55479998069326,18.75727636552167,78.06471445406251,68.44514610768351,9.70840483205393e-05,0.0922218039631843,0,0,0
6475,224957.22608309588,2010-10-25 03:53:06,5372.708156221274,2,20,0.5499359965324402,4.163714408874512,19.55938581827268,18.75727636552167,78.08380042243918,68.44514610768351,9.70840483205393e-05,0.0922218039631843,0,0,0
6476,224987.24115668968,2010-10-25 03:53:36,5402.72322984014,2,20,0.5499359965324402,4.1671142578125,19.563971572776865,18.75727636552167,78.10290207142447,68.44514610768351,6.47544875391759e-05,0.0922218039631843,0,0,0
6477,225017.25637956552,2010-10-25 03:54:06,5432.738452690937,2,20,0.5499359965324402,4.170675754547119,19.56855739742172,18.75727636552167,78.12202029991556,68.44514610768351,9.71794142969884e-05,0.0922218039631843,0,0,0
6478,225047.27159151417,2010-10-25 03:54:36,5462.753664639563,2,20,0.5499359965324402,4.174398899078369,19.573143188898733,18.75727636552167,78.14115478802026,68.44514610768351,9.70840483205393e-05,0.0922218039631843,0,0,0
6479,225077.28695170223,2010-10-25 03:55:06,5492.769024862735,2,20,0.5501165986061096,4.177960395812988,19.577729094964788,18.75727636552167,78.16030610210407,68.44514610768351,0.0001295089750783,0.0922218039631843,0,0,0
6480,225107.30204649887,2010-10-25 03:55:36,5522.784119624294,2,20,0.5497553944587708,4.181521892547607,19.582314955082083,18.75727636552167,78.17947375658387,68.44514610768351,6.47544875391759e-05,0.0922218039631843,0,0,0
6481,225137.31724473336,2010-10-25 03:56:06,5552.79931785874,2,20,0.5501165986061096,4.185083389282227,19.58690081511609,18.75727636552167,78.19865800535702,68.44514610768351,6.47544875391759e-05,0.0922218039631843,0,0,0
6482,225167.3324619752,2010-10-25 03:56:36,5582.814535100559,2,20,0.5501165986061096,4.188807010650635,19.59148666253824,18.75727636552167,78.21785897945276,68.44514610768351,9.71794142969884e-05,0.0922218039631843,0,0,0
6483,225197.3478312008,2010-10-25 03:57:06,5612.829904331179,2,20,0.5501165986061096,4.192530155181885,19.596072585504515,18.75727636552167,78.23707718073702,68.44514610768351,9.70840483205393e-05,0.0922218039631843,0,0,0
6484,225227.3629721123,2010-10-25 03:57:36,5642.845045232733,2,20,0.5501165986061096,4.196415424346924,19.60065851092953,18.75727636552167,78.25631241832487,68.44514610768351,0.0001295089750783,0.0922218039631843,0,0,0
6485,225256.58148138275,2010-10-25 03:58:05,5672.063554548259,2,20,0.550297200679779,4.200138568878174,19.605122610347905,18.75727636552167,78.275053037378,68.44514610768351,0.0001295089750783,0.0922218039631843,0,0,0
6486,225286.598213186,2010-10-25 03:58:35,30.015182555368767,3,20,0.0,4.117900848388672,19.605122610347905,18.75727636552167,78.275053037378,68.44514610768351,-0.0003561019839253,0.0922218039631843,0,0,0
6487,225316.61340407212,2010-10-25 03:59:05,60.03037338636294,3,20,0.0,4.107863903045654,19.605122610347905,18.75727636552167,78.275053037378,68.44514610768351,-0.0001942634553415,0.0922218039631843,0,0,0
6488,225346.62862403577,2010-10-25 03:59:35,90.04559338003949,3,20,0.0,4.101874351501465,19.605122610347905,18.75727636552167,78.275053037378,68.44514610768351,-6.47544875391759e-05,0.0922218039631843,0,0,0
6489,225376.59698284196,2010-10-25 04:00:05,120.013952166168,3,20,0.0,4.097826957702637,19.605122610347905,18.75727636552167,78.275053037378,68.44514610768351,-9.71794142969884e-05,0.0922218039631843,0,0,0
6490,225376.60037988145,2010-10-25 04:00:05,2.842083346e-06,4,20,0.9944154620170592,4.199653148651123,19.605122611132963,18.75727636552167,78.27505304067498,68.44514610768351,0.0,0.0922218039631843,0,0,0
6491,225377.4128908237,2010-10-25 04:00:06,0.812513709167463,4,20,0.943483591079712,4.199653148651123,19.605339649009125,18.75727636552167,78.27596451496112,68.44514610768351,0.0,0.0922218039631843,0,0,0
6492,225379.42847629284,2010-10-25 04:00:08,2.828099168311792,4,20,0.8930936455726624,4.199653148651123,19.60585270619032,18.75727636552167,78.27811915519061,68.44514610768351,0.0,0.0922218039631843,0,0,0
6493,225382.53801718057,2010-10-25 04:00:11,5.937640091073137,4,20,0.842703640460968,4.199653148651123,19.60660119503728,18.75727636552167,78.28126252007108,68.44514610768351,3.24249267578125e-05,0.0922218039631843,0,0,0
6494,225386.83461556572,2010-10-25 04:00:16,10.234238476279344,4,20,0.7924942374229431,4.199653148651123,19.60757566030535,18.75727636552167,78.28535491188575,68.44514610768351,0.0,0.0922218039631843,0,0,0
6495,225392.4283466798,2010-10-25 04:00:21,15.827969680588543,4,20,0.7424654960632324,4.199653148651123,19.60876644458764,18.75727636552167,78.29035576498629,68.44514610768351,0.0,0.0922218039631843,0,0,0
6496,225399.69382513769,2010-10-25 04:00:28,23.093448023150007,4,20,0.692436695098877,4.199653148651123,19.61021213206221,18.75727636552167,78.29642711715304,68.44514610768351,0.0,0.0922218039631843,0,0,0
6497,225409.38120151032,2010-10-25 04:00:38,32.78082440081434,4,20,0.6424079537391663,4.199653148651123,19.612004736741618,18.75727636552167,78.30395540332763,68.44514610768351,0.0,0.0922218039631843,0,0,0
6498,225422.78728023844,2010-10-25 04:00:52,46.18690312393967,4,20,0.5921985507011414,4.199653148651123,19.61429858458156,18.75727636552167,78.3135887405247,68.44514610768351,-3.23295607813634e-05,0.0922218039631843,0,0,0
6499,225443.36509892927,2010-10-25 04:01:12,66.7647218097412,4,20,0.5421698093414307,4.199653148651123,19.617530722506864,18.75727636552167,78.32716257032756,68.44514610768351,-3.23295607813634e-05,0.0922218039631843,0,0,0
6500,225477.7396475763,2010-10-25 04:01:47,101.13927047680372,4,20,0.4921410381793976,4.199653148651123,19.622446910609465,18.75727636552167,78.34780884173105,68.44514610768351,-3.23295607813634e-05,0.0922218039631843,0,0,0
6501,225537.4888105297,2010-10-25 04:02:46,160.88843341019157,4,20,0.441931664943695,4.199653148651123,19.630167748442062,18.75727636552167,78.38023393522985,68.44514610768351,3.24249267578125e-05,0.0922218039631843,0,0,0
6502,225627.7844366583,2010-10-25 04:04:17,251.18405953376103,4,20,0.3917222917079925,4.199653148651123,19.64060023002477,18.75727636552167,78.4240473766243,68.44514610768351,-3.23295607813634e-05,0.0922218039631843,0,0,0
6503,225739.59543409228,2010-10-25 04:06:08,362.9950570028378,4,20,0.3416935205459595,4.199653148651123,19.651972510840483,18.75727636552167,78.47180777492215,68.44514610768351,-3.23295607813634e-05,0.0922218039631843,0,0,0
6504,225871.92163846432,2010-10-25 04:08:21,495.3212613598507,4,20,0.2916647493839264,4.199491024017334,19.66359480727155,18.75727636552167,78.52061803657433,68.44514610768351,-6.47544875391759e-05,0.0922218039631843,0,0,0
6505,226033.71629393377,2010-10-25 04:11:02,657.1159168292513,4,20,0.2416359633207321,4.199653148651123,19.67555347856463,18.75727636552167,78.57084103987216,68.44514610768351,-3.23295607813634e-05,0.0922218039631843,0,0,0
6506,226235.91633022457,2010-10-25 04:14:25,859.3159531100589,4,20,0.1916072070598602,4.199653148651123,19.687671097047435,18.75727636552167,78.62173150956404,68.44514610768351,0.0,0.0922218039631843,0,0,0
6507,226508.91226584988,2010-10-25 04:18:58,1132.3118888857614,4,20,0.1415784358978271,4.199653148651123,19.7002189825666,18.75727636552167,78.67442895511701,68.44514610768351,0.0,0.0922218039631843,0,0,0
6508,226932.968252748,2010-10-25 04:26:02,1556.3678756836268,4,20,0.0915496572852134,4.199653148651123,19.713716714103228,18.75727636552167,78.73111547849999,68.44514610768351,0.0,0.0922218039631843,0,0,0
6509,227590.67699684025,2010-10-25 04:36:59,2214.0766197206885,4,20,0.0498289167881011,4.199653148651123,19.7262328655238,18.75727636552167,78.78367978220913,68.44514610768351,0.0,0.0922218039631843,0,0,0
6510,227620.69714837527,2010-10-25 04:37:30,30.01523236450847,5,20,0.0,4.191720962524414,19.7262328655238,18.75727636552167,78.78367978220913,68.44514610768351,-6.47544875391759e-05,0.0922218039631843,0,0,0
6511,227650.6966752268,2010-10-25 04:38:00,60.014759226071135,5,20,0.0,4.190587520599365,19.7262328655238,18.75727636552167,78.78367978220913,68.44514610768351,0.0,0.0922218039631843,0,0,0
6512,227650.8901122507,2010-10-25 04:38:00,0.187561315509423,6,20,-1.9243103452026844e-05,4.190263748168945,19.7262328655238,18.75727636652424,78.78367978220913,68.44514611188457,0.0,0.0954576581716537,0,0,0
6513,227655.71800538088,2010-10-25 04:38:05,5.015454345445573,6,20,0.0001613661734154,4.190425872802734,19.7262334332087,18.75727636677413,78.78368216113284,68.4451461129317,-3.23295607813634e-05,0.0954576581716537,0,0,0
6514,227685.7392726092,2010-10-25 04:38:35,30.015199577793886,7,20,-1.0997490882873535,4.011218070983887,19.7262334332087,18.766445139286457,78.78368216113284,68.48212767181919,-0.0010037422180175,0.0954576581716537,0,0,0
6515,227715.7543887641,2010-10-25 04:39:05,60.0303157326722,7,20,-1.099568486213684,3.983697652816773,19.7262334332087,18.77561386694041,78.78368216113284,68.51877132407573,-0.0006475448608398,0.0954576581716537,0,0,0
6516,227745.7695433898,2010-10-25 04:39:35,90.04547035843179,7,20,-1.0993878841400146,3.964595079421997,19.7262334332087,18.7847824775336,78.78368216113284,68.55520390274792,-0.0003885269106831,0.0954576581716537,0,0,0
6517,227775.784693775,2010-10-25 04:40:05,120.06062081379746,7,20,-1.099568486213684,3.949539661407471,19.7262334332087,18.79395114365544,78.78368216113284,68.59148189850106,-0.0003561496851034,0.0954576581716537,0,0,0
6518,227805.7998317493,2010-10-25 04:40:35,150.0757586878065,7,20,-1.099568486213684,3.937074422836304,19.7262334332087,18.803119793710028,78.78368216113284,68.62763467477653,-0.0002913951757363,0.0954576581716537,0,0,0
6519,227835.8152140775,2010-10-25 04:41:05,180.09114114639564,7,20,-1.0997490882873535,3.925904273986816,19.7262334332087,18.812288400153843,78.78368216113284,68.66367955377932,-0.0002590179501567,0.0954576581716537,0,0,0
6520,227865.830196078,2010-10-25 04:41:35,210.1061230165952,7,20,-1.0997490882873535,3.915543556213379,19.7262334332087,18.82145695681723,78.78368216113284,68.69962715114184,-0.0002913951757363,0.0954576581716537,0,0,0
6521,227895.8455133291,2010-10-25 04:42:05,240.12144037794195,7,20,-1.099929690361023,3.90615439414978,19.7262334332087,18.83062562483327,78.78368216113284,68.73548495453892,-0.0002266406954731,0.0954576581716537,0,0,0
6522,227925.86049926444,2010-10-25 04:42:35,270.1364262029983,7,20,-1.099568486213684,3.8970887660980233,19.7262334332087,18.839794182698824,78.78368216113284,68.77125643422434,-0.0002266406954731,0.0954576581716537,0,0,0
6523,227955.8756994738,2010-10-25 04:43:05,300.1516264424411,7,20,-1.0997490882873535,3.8881850242614746,19.7262334332087,18.84896282118528,78.78368216113284,68.8069459691005,-0.0002590179501567,0.0954576581716537,0,0,0
6524,227985.8908183304,2010-10-25 04:43:35,330.16674527399056,7,20,-1.099568486213684,3.8796050548553462,19.7262334332087,18.85813138691996,78.78368216113284,68.84255495040978,-0.0002266406954731,0.0954576581716537,0,0,0
6525,228015.90598433453,2010-10-25 04:44:05,360.1819113282334,7,20,-1.0997490882873535,3.8710250854492183,19.7262334332087,18.86730004999366,78.78368216113284,68.87808591676647,-0.0002590179501567,0.0954576581716537,0,0,0
6526,228045.9211237524,2010-10-25 04:44:35,390.1970506909528,7,20,-1.0997490882873535,3.862768888473511,19.7262334332087,18.876468669765075,78.78368216113284,68.91353943965957,-0.0002266406954731,0.0954576581716537,0,0,0
6527,228075.93906313865,2010-10-25 04:45:05,420.2149901774423,7,20,-1.0997490882873535,3.8545126914978023,19.7262334332087,18.88563817193563,78.78368216113284,68.94892083167872,-0.0002266406954731,0.0954576581716537,0,0,0
6528,228105.951695849,2010-10-25 04:45:35,450.2276228276628,7,20,-1.099568486213684,3.846256494522095,19.7262334332087,18.89480591795079,78.78368216113284,68.98422063204367,-0.0002266406954731,0.0954576581716537,0,0,0
6529,228135.96663561428,2010-10-25 04:46:05,480.2425625578365,7,20,-1.099568486213684,3.8384859561920166,19.7262334332087,18.903974512729462,78.78368216113284,69.01945068069377,-0.0002590179501567,0.0954576581716537,0,0,0
6530,228165.98175610995,2010-10-25 04:46:35,510.2576830535334,7,20,-1.0993878841400146,3.8310394287109375,19.7262334332087,18.913143143984225,78.78368216113284,69.0546093233313,-0.0001618862152099,0.0954576581716537,0,0,0
6531,228195.9969147407,2010-10-25 04:47:05,540.2728416842746,7,20,-1.099568486213684,3.8232688903808594,19.7262334332087,18.922311822179868,78.78368216113284,69.08969745717376,-0.0001942634553415,0.0954576581716537,0,0,0
6532,228226.0120812962,2010-10-25 04:47:35,570.2880082397668,7,20,-1.0997490882873535,3.815822124481201,19.7262334332087,18.931480462484707,78.78368216113284,69.12471630332247,-0.0001942634553415,0.0954576581716537,0,0,0
6533,228256.02743260213,2010-10-25 04:48:05,600.3033595707764,7,20,-1.0997490882873535,3.808213472366333,19.7262334332087,18.94064913983125,78.78368216113284,69.1596668914703,-0.0002266406954731,0.0954576581716537,0,0,0
6534,228286.04239869805,2010-10-25 04:48:35,630.3183256365866,7,20,-1.099568486213684,3.8012523651123047,19.7262334332087,18.94981770398774,78.78368216113284,69.19455028770666,-0.0001295089750783,0.0954576581716537,0,0,0
6535,228316.05759327332,2010-10-25 04:49:05,660.3335202369752,7,20,-1.0997490882873535,3.7941293716430655,19.7262334332087,18.958986365109737,78.78368216113284,69.2293691612758,-0.0001942634553415,0.0954576581716537,0,0,0
6536,228346.0727151926,2010-10-25 04:49:35,690.3486421361702,7,20,-1.0997490882873535,3.787168264389038,19.7262334332087,18.96815495514988,78.78368216113284,69.26412327241425,-0.0001295089750783,0.0954576581716537,0,0,0
6537,228376.087872876,2010-10-25 04:50:05,720.3637998195502,7,20,-1.0997490882873535,3.7802071571350098,19.7262334332087,18.977323621243112,78.78368216113284,69.2988143057686,-0.0001618862152099,0.0954576581716537,0,0,0
6538,228406.10300873,2010-10-25 04:50:35,750.3789357035997,7,20,-1.099568486213684,3.7737317085266113,19.7262334332087,18.98649233727284,78.78368216113284,69.3334439231765,-0.0001618862152099,0.0954576581716537,0,0,0
6539,228436.11820369624,2010-10-25 04:51:05,780.3941306699003,7,20,-1.099568486213684,3.767094373703003,19.7262334332087,18.9956609790828,78.78368216113284,69.36801248350007,-0.0001942634553415,0.0954576581716537,0,0,0
6540,228466.13332791624,2010-10-25 04:51:35,810.4092548999043,7,20,-1.099568486213684,3.7607808113098153,19.7262334332087,19.004829575616792,78.78368216113284,69.40252182537097,-0.0001295089750783,0.0954576581716537,0,0,0
6541,228496.1485254189,2010-10-25 04:52:05,840.4244523874888,7,20,-1.099568486213684,3.754305362701416,19.7262334332087,19.013998204289276,78.78368216113284,69.43697279122738,-0.0001618862152099,0.0954576581716537,0,0,0
6542,228526.1636877789,2010-10-25 04:52:35,870.4396147174496,7,20,-1.099568486213684,3.7481539249420166,19.7262334332087,19.02316686258905,78.78368216113284,69.47136653931179,-0.0001942634553415,0.0954576581716537,0,0,0
6543,228556.1793187168,2010-10-25 04:53:05,900.4552458207378,7,20,-1.099568486213684,3.742002248764038,19.7262334332087,19.0323356393536,78.78368216113284,69.50570428795011,-0.0001618862152099,0.0954576581716537,0,0,0
6544,228586.1939453466,2010-10-25 04:53:35,930.4698722901694,7,20,-1.0997490882873535,3.7360124588012695,19.7262334332087,19.041504139290662,78.78368216113284,69.53998582453491,-0.0002266406954731,0.0954576581716537,0,0,0
6545,228616.20911410256,2010-10-25 04:54:05,960.485041071208,7,20,-1.0997490882873535,3.730184555053711,19.7262334332087,19.050672773782505,78.78368216113284,69.57421395711467,-0.0001942634553415,0.0954576581716537,0,0,0
6546,228646.2242637459,2010-10-25 04:54:35,990.500190684475,7,20,-1.0997490882873535,3.724680423736572,19.7262334332087,19.05984134253838,78.78368216113284,69.6083895372005,-0.0001618862152099,0.0954576581716537,0,0,0
6547,228676.2394452938,2010-10-25 04:55:05,1020.5153730694192,7,20,-1.099929690361023,3.719014406204224,19.7262334332087,19.069009953187138,78.78368216113284,69.64251338960842,-0.0001618862152099,0.0954576581716537,0,0,0
6548,228706.2545875086,2010-10-25 04:55:35,1050.5305144672104,7,20,-1.0997490882873535,3.713510274887085,19.7262334332087,19.07817857282197,78.78368216113284,69.67658642023109,-0.0001295089750783,0.0954576581716537,0,0,0
6549,228736.2697545704,2010-10-25 04:56:05,1080.5456815389896,7,20,-1.099568486213684,3.708168029785156,19.7262334332087,19.087347291108888,78.78368216113284,69.7106094556053,-9.713172767078504e-05,0.0954576581716537,0,0,0
6550,228766.284885482,2010-10-25 04:56:35,1110.560812425584,7,20,-1.099568486213684,3.7026638984680176,19.7262334332087,19.09651594051736,78.78368216113284,69.74458252512134,-0.0001295089750783,0.0954576581716537,0,0,0
6551,228796.30016082863,2010-10-25 04:57:05,1140.5760877722169,7,20,-1.0997490882873535,3.697159767150879,19.7262334332087,19.105684622752328,78.78368216113284,69.77850618054316,-0.0001295089750783,0.0954576581716537,0,0,0
6552,228826.3151838163,2010-10-25 04:57:35,1170.5911107548814,7,20,-1.0997490882873535,3.69197940826416,19.7262334332087,19.114853244040457,78.78368216113284,69.8123808297334,-0.0001618862152099,0.0954576581716537,0,0,0
6553,228856.3305200748,2010-10-25 04:58:05,1200.6064470133256,7,20,-1.099568486213684,3.6869609355926514,19.7262334332087,19.124021914761464,78.78368216113284,69.84620768502322,-0.0001295089750783,0.0954576581716537,0,0,0
6554,228886.34549549388,2010-10-25 04:58:35,1230.6214224324472,7,20,-1.0997490882873535,3.6817805767059326,19.7262334332087,19.133190497218983,78.78368216113284,69.87998767341573,-0.0001295089750783,0.0954576581716537,0,0,0
6555,228916.36064852568,2010-10-25 04:59:05,1260.636575464234,7,20,-1.099929690361023,3.676762104034424,19.7262334332087,19.142359182980613,78.78368216113284,69.91372224808876,-0.0001618862152099,0.0954576581716537,0,0,0
6556,228946.3759534761,2010-10-25 04:59:36,1290.651880414649,7,20,-1.0997490882873535,3.671905755996704,19.7262334332087,19.15152784589004,78.78368216113284,69.9474114513059,-0.0001294612884521,0.0954576581716537,0,0,0
6557,228976.3909774011,2010-10-25 05:00:06,1320.666904339662,7,20,-1.099568486213684,3.667049169540405,19.7262334332087,19.16069649678255,78.78368216113284,69.98105568485633,-0.0001618862152099,0.0954576581716537,0,0,0
6558,229006.40611681892,2010-10-25 05:00:36,1350.6820437625313,7,20,-1.0997490882873535,3.6621925830841056,19.7262334332087,19.16986511689351,78.78368216113284,70.01465572978985,-0.0001618862152099,0.0954576581716537,0,0,0
6559,229036.42126653247,2010-10-25 05:01:06,1380.697193496098,7,20,-1.099568486213684,3.6574978828430176,19.7262334332087,19.17903376690808,78.78368216113284,70.04821214673034,-0.0001618862152099,0.0954576581716537,0,0,0
6560,229066.43642388505,2010-10-25 05:01:36,1410.7123508486536,7,20,-1.099568486213684,3.6531269550323486,19.7262334332087,19.18820234932199,78.78368216113284,70.08172587118332,-9.713172767078504e-05,0.0954576581716537,0,0,0
6561,229096.4516017938,2010-10-25 05:02:06,1440.7275287774914,7,20,-1.0997490882873535,3.64843225479126,19.7262334332087,19.197370930411623,78.78368216113284,70.11519781988625,-0.0001295089750783,0.0954576581716537,0,0,0
6562,229126.4667416277,2010-10-25 05:02:36,1470.7426685662729,7,20,-1.099568486213684,3.643899440765381,19.7262334332087,19.206539434464336,78.78368216113284,70.14862768729472,-0.0001295089750783,0.0954576581716537,0,0,0
6563,229156.4819176468,2010-10-25 05:03:06,1500.7578446104137,7,20,-1.0997490882873535,3.639528512954712,19.7262334332087,19.215708001479875,78.78368216113284,70.18201677512697,-9.713172767078504e-05,0.0954576581716537,0,0,0
6564,229186.49704603216,2010-10-25 05:03:36,1530.7729729656992,7,20,-1.0997490882873535,3.635157585144043,19.7262334332087,19.22487651456519,78.78368216113284,70.21536512005422,-9.713172767078504e-05,0.0954576581716537,0,0,0
6565,229216.5124055987,2010-10-25 05:04:06,1560.7883325623093,7,20,-1.099568486213684,3.630948543548584,19.7262334332087,19.23404521077689,78.78368216113284,70.24867476885761,-9.713172767078504e-05,0.0954576581716537,0,0,0
6566,229246.52751523236,2010-10-25 05:04:36,1590.803442180897,7,20,-1.099929690361023,3.626577615737915,19.7262334332087,19.24321387014338,78.78368216113284,70.28194522451885,-0.0001295089750783,0.0954576581716537,0,0,0
6567,229276.5425421197,2010-10-25 05:05:06,1620.8184690582682,7,20,-1.0997490882873535,3.622692346572876,19.7262334332087,19.252382437628626,78.78368216113284,70.31517740723918,-3.237724376958795e-05,0.0954576581716537,0,0,0
6568,229306.55781493505,2010-10-25 05:05:36,1650.8337419187053,7,20,-1.099568486213684,3.618483304977417,19.7262334332087,19.26155118399205,78.78368216113284,70.34837313235862,-9.713172767078504e-05,0.0954576581716537,0,0,0
6569,229336.5728553361,2010-10-25 05:06:06,1680.8487822997315,7,20,-1.099568486213684,3.614598035812378,19.7262334332087,19.27071979671987,78.78368216113284,70.38153187559348,-6.47544875391759e-05,0.0954576581716537,0,0,0
6570,229366.58813488323,2010-10-25 05:06:36,1710.8640618368088,7,20,-1.0997490882873535,3.610712766647339,19.7262334332087,19.2798884498302,78.78368216113284,70.41465487072936,-9.713172767078504e-05,0.0954576581716537,0,0,0
6571,229396.6031344325,2010-10-25 05:07:06,1740.8790613710323,7,20,-1.099568486213684,3.6068274974823,19.7262334332087,19.289057062351816,78.78368216113284,70.44774225166317,-9.713172767078504e-05,0.0954576581716537,0,0,0
6572,229426.61829085773,2010-10-25 05:07:36,1770.8942177962767,7,20,-1.099568486213684,3.603104114532471,19.7262334332087,19.298225708250357,78.78368216113284,70.48079541401353,-0.0001295089750783,0.0954576581716537,0,0,0
6573,229456.63359884068,2010-10-25 05:08:06,1800.9095258995496,7,20,-1.0997490882873535,3.599542617797852,19.7262334332087,19.30739434859716,78.78368216113284,70.51381476664874,-0.0001295089750783,0.0954576581716537,0,0,0
6574,229486.6486251216,2010-10-25 05:08:36,1830.924552085197,7,20,-1.099568486213684,3.5961430072784424,19.7262334332087,19.31656295240157,78.78368216113284,70.54680127804579,-3.237724376958795e-05,0.0954576581716537,0,0,0
6575,229516.66377521103,2010-10-25 05:09:06,1860.939702149588,7,20,-1.0993878841400146,3.5925815105438232,19.7262334332087,19.32573156428148,78.78368216113284,70.57975529319788,-6.47544875391759e-05,0.0954576581716537,0,0,0
6576,229546.67890862896,2010-10-25 05:09:36,1890.9548355674915,7,20,-1.099568486213684,3.589020252227783,19.7262334332087,19.334900209842043,78.78368216113284,70.6126777576365,-9.713172767078504e-05,0.0954576581716537,0,0,0
6577,229576.69409588104,2010-10-25 05:10:06,1920.9700228195657,7,20,-1.0997490882873535,3.585782527923584,19.7262334332087,19.34406889619101,78.78368216113284,70.64556947999765,-6.47544875391759e-05,0.0954576581716537,0,0,0
6578,229606.70923131896,2010-10-25 05:10:36,1950.9851582524907,7,20,-1.099568486213684,3.5825448036193848,19.7262334332087,19.35323754961388,78.78368216113284,70.67843081230572,-9.713172767078504e-05,0.0954576581716537,0,0,0
6579,229636.72436096743,2010-10-25 05:11:06,1981.000287906012,7,20,-1.099568486213684,3.5794689655303955,19.7262334332087,19.3624062071198,78.78368216113284,70.71126273516411,-3.237724376958795e-05,0.0954576581716537,0,0,0
6580,229666.739635878,2010-10-25 05:11:36,2011.0155628215707,7,20,-1.0997490882873535,3.5760693550109863,19.7262334332087,19.371574948582296,78.78368216113284,70.74406563157974,-6.47544875391759e-05,0.0954576581716537,0,0,0
6581,229696.75467844948,2010-10-25 05:12:06,2041.0306053880445,7,20,-1.099568486213684,3.572993516921997,19.7262334332087,19.38074356895213,78.78368216113284,70.7768385564027,-6.47544875391759e-05,0.0954576581716537,0,0,0
6582,229726.7698174413,2010-10-25 05:12:36,2071.045744379839,7,20,-1.0997490882873535,3.569755792617798,19.7262334332087,19.389912311227818,78.78368216113284,70.80958275824977,-9.713172767078504e-05,0.0954576581716537,0,0,0
6583,229756.7851031287,2010-10-25 05:13:06,2101.061030072257,7,20,-1.0997490882873535,3.5666799545288086,19.7262334332087,19.399080992051257,78.78368216113284,70.84229773540406,-6.47544875391759e-05,0.0954576581716537,0,0,0
6584,229786.800145244,2010-10-25 05:13:36,2131.076072212669,7,20,-1.099568486213684,3.5634422302246094,19.7262334332087,19.40824960350595,78.78368216113284,70.87498403635662,-6.47544875391759e-05,0.0954576581716537,0,0,0
6585,229816.8154180794,2010-10-25 05:14:06,2161.09134502298,7,20,-1.099568486213684,3.56052827835083,19.7262334332087,19.41741826970756,78.78368216113284,70.9076431696861,-6.47544875391759e-05,0.0954576581716537,0,0,0
6586,229846.83043547315,2010-10-25 05:14:36,2191.106362411703,7,20,-1.0997490882873535,3.557452440261841,19.7262334332087,19.426586865194857,78.78368216113284,70.9402738995664,-9.713172767078504e-05,0.0954576581716537,0,0,0
6587,229876.84589948,2010-10-25 05:15:06,2221.1218265288103,7,20,-1.099568486213684,3.554376602172852,19.7262334332087,19.435755662278908,78.78368216113284,70.97287711604574,-9.713172767078504e-05,0.0954576581716537,0,0,0
6588,229906.86073212328,2010-10-25 05:15:36,2251.136659086878,7,20,-1.099568486213684,3.5513007640838623,19.7262334332087,19.44492423601443,78.78368216113284,71.00545081224203,-6.47544875391759e-05,0.0954576581716537,0,0,0
6589,229936.87589932032,2010-10-25 05:16:06,2281.151826283969,7,20,-1.099929690361023,3.547901153564453,19.7262334332087,19.454092860472613,78.78368216113284,71.0379958222987,-9.713172767078504e-05,0.0954576581716537,0,0,0
6590,229966.89111094817,2010-10-25 05:16:36,2311.1670378967574,7,20,-1.0997490882873535,3.544987201690674,19.7262334332087,19.463261585710327,78.78368216113284,71.0705120061351,-3.237724376958795e-05,0.0954576581716537,0,0,0
6591,229996.90896926235,2010-10-25 05:17:06,2341.1848963412663,7,20,-1.099568486213684,3.5415875911712646,19.7262334332087,19.472431057354004,78.78368216113284,71.10300123616823,-9.713172767078504e-05,0.0954576581716537,0,0,0
6592,230026.92155118613,2010-10-25 05:17:36,2371.197478129723,7,20,-1.099568486213684,3.538349866867065,19.7262334332087,19.481598996768188,78.78368216113284,71.13545491602241,-3.237724376958795e-05,0.0954576581716537,0,0,0
6593,230056.93649450527,2010-10-25 05:18:06,2401.2124214488417,7,20,-1.0997490882873535,3.534950256347656,19.7262334332087,19.490767610101692,78.78368216113284,71.16788050423742,-6.47544875391759e-05,0.0954576581716537,0,0,0
6594,230086.9516646447,2010-10-25 05:18:36,2431.2275916183407,7,20,-1.099568486213684,3.531550645828247,19.7262334332087,19.49993627596547,78.78368216113284,71.20027531124165,-9.713172767078504e-05,0.0954576581716537,0,0,0
6595,230116.96682302983,2010-10-25 05:19:06,2461.242749973396,7,20,-1.0997490882873535,3.527989149093628,19.7262334332087,19.50910503512637,78.78368216113284,71.2326389970801,-0.0001295089750783,0.0954576581716537,0,0,0
6596,230146.9819679965,2010-10-25 05:19:36,2491.257894935069,7,20,-1.0997490882873535,3.524427652359009,19.7262334332087,19.51827370563632,78.78368216113284,71.26496986526901,-9.713172767078504e-05,0.0954576581716537,0,0,0
6597,230176.9971460156,2010-10-25 05:20:06,2521.273072959144,7,20,-1.099568486213684,3.5208661556243896,19.7262334332087,19.527442419710265,78.78368216113284,71.2972670463128,-6.47544875391759e-05,0.0954576581716537,0,0,0
6598,230207.01242325697,2010-10-25 05:20:36,2551.2883502105246,7,20,-1.0997490882873535,3.5169808864593506,19.7262334332087,19.53661118256694,78.78368216113284,71.32953018012375,-6.47544875391759e-05,0.0954576581716537,0,0,0
6599,230237.02744880097,2010-10-25 05:21:06,2581.3033757846483,7,20,-1.099568486213684,3.5130956172943115,19.7262334332087,19.545779841665897,78.78368216113284,71.361757567681,-9.713172767078504e-05,0.0954576581716537,0,0,0
6600,230267.0425768405,2010-10-25 05:21:36,2611.318503779034,7,20,-1.099929690361023,3.5087249279022217,19.7262334332087,19.55494846407955,78.78368216113284,71.39394813491641,-9.713172767078504e-05,0.0954576581716537,0,0,0
6601,230297.05775429812,2010-10-25 05:22:06,2641.333681271785,7,20,-1.0997490882873535,3.5046777725219727,19.7262334332087,19.56411718411002,78.78368216113284,71.42610060610214,-6.47544875391759e-05,0.0954576581716537,0,0,0
6602,230327.07300846692,2010-10-25 05:22:36,2671.3489354205867,7,20,-1.099568486213684,3.499983072280884,19.7262334332087,19.573285914852733,78.78368216113284,71.45821200072285,-0.0001618862152099,0.0954576581716537,0,0,0
6603,230357.08803257745,2010-10-25 05:23:06,2701.3639595360746,7,20,-1.0997490882873535,3.495126485824585,19.7262334332087,19.5824545364176,78.78368216113284,71.49027916899577,-6.47544875391759e-05,0.0954576581716537,0,0,0
6604,230387.10317801533,2010-10-25 05:23:36,2731.379104953885,7,20,-1.0997490882873535,3.4894604682922363,19.7262334332087,19.591623262120848,78.78368216113284,71.5222987398743,-0.0001295089750783,0.0954576581716537,0,0,0
6605,230417.11837916705,2010-10-25 05:24:06,2761.3943062359267,7,20,-1.099568486213684,3.4836325645446777,19.7262334332087,19.6007919723722,78.78368216113284,71.55426668917329,-0.0001618862152099,0.0954576581716537,0,0,0
6606,230447.13348654503,2010-10-25 05:24:36,2791.409413518693,7,20,-1.0997490882873535,3.47683334350586,19.7262334332087,19.609960555505623,78.78368216113284,71.5861759276515,-0.0001942634553415,0.0954576581716537,0,0,0
6607,230477.1487667939,2010-10-25 05:25:06,2821.4246937374687,7,20,-1.0997490882873535,3.469224691390991,19.7262334332087,19.619129287719016,78.78368216113284,71.61802046020907,-0.0001942634553415,0.0954576581716537,0,0,0
6608,230507.1637817315,2010-10-25 05:25:36,2851.43970875027,7,20,-1.0997490882873535,3.4606447219848637,19.7262334332087,19.62829790637437,78.78368216113284,71.64979044280383,-0.0002590179501567,0.0954576581716537,0,0,0
6609,230537.17892459297,2010-10-25 05:26:06,2881.454851566597,7,20,-1.0997490882873535,3.450769662857056,19.7262334332087,19.637466521230536,78.78368216113284,71.68147514368351,-0.0002266406954731,0.0954576581716537,0,0,0
6610,230567.19405964995,2010-10-25 05:26:36,2911.4699866235846,7,20,-1.0997490882873535,3.4389519691467285,19.7262334332087,19.646635177498275,78.78368216113284,71.71306165380201,-0.0003885269106831,0.0954576581716537,0,0,0
6611,230597.2092116592,2010-10-25 05:27:06,2941.485138597736,7,20,-1.099568486213684,3.425353765487671,19.7262334332087,19.655803761323124,78.78368216113284,71.74453150147336,-0.0003885269106831,0.0954576581716537,0,0,0
6612,230627.2244118184,2010-10-25 05:27:36,2971.500338857229,7,20,-1.099568486213684,3.408679485321045,19.7262334332087,19.664972446572275,78.78368216113284,71.77586251751892,-0.0004532813909463,0.0954576581716537,0,0,0
6613,230657.23953701585,2010-10-25 05:28:06,3001.5154639543944,7,20,-1.099568486213684,3.38811993598938,19.7262334332087,19.674141107434817,78.78368216113284,71.80702392994831,-0.0005504131549969,0.0954576581716537,0,0,0
6614,230687.2546669801,2010-10-25 05:28:36,3031.530593953777,7,20,-1.0997490882873535,3.3612468242645264,19.7262334332087,19.68330970781357,78.78368216113284,71.83797166040961,-0.0008418083307333,0.0954576581716537,0,0,0
6615,230717.26994830163,2010-10-25 05:29:06,3061.545875330439,7,20,-1.0997490882873535,3.326279640197754,19.7262334332087,19.69247838763389,78.78368216113284,71.86863897242317,-0.0010360718006268,0.0954576581716537,0,0,0
6616,230747.2849805925,2010-10-25 05:29:36,3091.56090757619,7,20,-1.0993878841400146,3.2786850929260254,19.7262334332087,19.70164691563852,78.78368216113284,71.898929265006,-0.0014569759368896,0.0954576581716537,0,0,0
6617,230777.30014424576,2010-10-25 05:30:06,3121.576071179324,7,20,-1.099568486213684,3.210855007171631,19.7262334332087,19.710815482712263,78.78368216113284,71.92869703343163,-0.0021045207977294,0.0954576581716537,0,0,0
6618,230807.31527249585,2010-10-25 05:30:36,3151.591199459422,7,20,-1.0997490882873535,3.109838485717773,19.7262334332087,19.71998411619696,78.78368216113284,71.95770706657969,-0.0032052993774414,0.0954576581716537,0,0,0
6619,230837.33044970283,2010-10-25 05:31:06,3181.6063766464117,7,20,-1.0997490882873535,2.9327354431152344,19.7262334332087,19.729152771824705,78.78368216113284,71.9855105369601,-0.0065401555038988,0.0954576581716537,0,0,0
6620,230855.29890727287,2010-10-25 05:31:24,3199.574834216432,7,20,-1.0997490882873535,2.732482671737671,19.7262334332087,19.73464154733303,78.78368216113284,72.00110040305024,-0.0104254726320505,0.0954576581716537,0,0,0
6621,230857.7051049629,2010-10-25 05:31:27,3201.9810319014314,7,20,-1.099568486213684,2.699620008468628,19.7262334332087,19.73537657260649,78.78368216113284,72.00309693959484,-0.010846328921616,0.0954576581716537,0,0,0
6622,230917.7137470797,2010-10-25 05:32:27,60.0148673505506,8,20,0.0,3.358656644821167,19.7262334332087,19.73537657260649,78.78368216113284,72.00309693959484,0.0013922214275225,0.0954576581716537,0,0,0
6623,230917.89572097643,2010-10-25 05:32:27,0.18743746182794,9,20,-1.9243103452026844e-05,3.358656644821167,19.7262334332087,19.73537657360841,78.78368216113284,72.00309694295991,0.0,0.0923885703086853,0,0,0
6624,230922.7239517782,2010-10-25 05:32:32,5.015668288657886,9,20,0.0003419754502829,3.366912841796875,19.726233914847622,19.73537657393973,78.78368378108549,72.00309694407385,0.0011655807029455,0.0923885703086853,0,0,0
