Data_Point,Test_Time(s),Date_Time,Step_Time(s),Step_Index,Cycle_Index,Current(A),Voltage(V),Charge_Capacity(Ah),Discharge_Capacity(Ah),Charge_Energy(Wh),Discharge_Energy(Wh),dV/dt(V/s),Internal_Resistance(Ohm),Is_FC_Data,AC_Impedance(Ohm),ACI_Phase_Angle(Deg)
3629,127249.31547735888,2010-10-24 00:44:28,30.01520202890281,1,12,0.0,3.363675117492676,10.82155406221881,10.83769639032977,43.25711766992801,39.50186071144032,0.0008418083307333,0.0906857252120971,0,0,0
3630,127279.33066127768,2010-10-24 00:44:58,60.030386002807,1,12,0.0,3.3889293670654297,10.82155406221881,10.83769639032977,43.25711766992801,39.50186071144032,0.0005827903514727,0.0906857252120971,0,0,0
3631,127309.34584677036,2010-10-24 00:45:28,90.04557144035905,1,12,0.0,3.408031940460205,10.82155406221881,10.83769639032977,43.25711766992801,39.50186071144032,0.0004209041653666,0.0906857252120971,0,0,0
3632,127339.31431388648,2010-10-24 00:45:58,120.0140385665042,1,12,0.0,3.4235730171203613,10.82155406221881,10.83769639032977,43.25711766992801,39.50186071144032,0.0004209041653666,0.0906857252120971,0,0,0
3633,127369.33042496158,2010-10-24 00:46:28,30.015200640442337,2,12,0.550297200679779,3.5797927379608154,10.826140766627114,10.83769639032977,43.27336721384025,39.50186071144032,0.0016836166614666,0.0906857252120971,0,0,0
3634,127399.34574328532,2010-10-24 00:46:58,60.030519004287605,2,12,0.5501165986061096,3.630139112472534,10.83072743593423,10.83769639032977,43.28990906265163,39.50186071144032,0.0011332035064697,0.0906857252120971,0,0,0
3635,127429.36081806206,2010-10-24 00:47:28,90.04559374093895,2,12,0.5501165986061096,3.666725397109986,10.835314111619397,10.83769639032977,43.30664689246147,39.50186071144032,0.0008741855854168,0.0906857252120971,0,0,0
3636,127459.37626029966,2010-10-24 00:47:58,120.06103601861564,2,12,0.5501165986061096,3.69521713256836,10.839900772001814,10.83769639032977,43.32353247769131,39.50186071144032,0.0006799221155233,0.0906857252120971,0,0,0
3637,127489.39120729292,2010-10-24 00:48:28,150.07598297179123,2,12,0.5501165986061096,3.7185287475585938,10.844487347432793,10.83769639032977,43.34053629880669,39.50186071144032,0.0005504131549969,0.0906857252120971,0,0,0
3638,127519.406464369,2010-10-24 00:48:58,180.0912400478886,2,12,0.5501165986061096,3.737955093383789,10.849073990226984,10.83769639032977,43.357637996309,39.50186071144032,0.0004856586456298,0.0906857252120971,0,0,0
3639,127549.42162338072,2010-10-24 00:49:28,210.10639908965425,2,12,0.550297200679779,3.753657817840576,10.853660602540474,10.83769639032977,43.37481957601152,39.50186071144032,0.0004208564641885,0.0906857252120971,0,0,0
3640,127579.43680031708,2010-10-24 00:49:58,240.12157604606867,2,12,0.5501165986061096,3.763856649398804,10.858247208038666,10.83769639032977,43.3920613519791,39.50186071144032,0.0002266406954731,0.0906857252120971,0,0,0
3641,127609.45212508188,2010-10-24 00:50:28,270.1369008008421,2,12,0.550297200679779,3.770170211791992,10.862833854658373,10.83769639032977,43.40934068667156,39.50186071144032,9.713172767078504e-05,0.0906857252120971,0,0,0
3642,127639.46731225876,2010-10-24 00:50:58,300.15208795266665,2,12,0.5501165986061096,3.774379253387451,10.867420474783987,10.83769639032977,43.42664288058374,39.50186071144032,9.713172767078504e-05,0.0906857252120971,0,0,0
3643,127669.482511611,2010-10-24 00:51:28,330.16728729988586,2,12,0.5501165986061096,3.77826452255249,10.872007071951767,10.83769639032977,43.44396296594695,39.50186071144032,0.0001295089750783,0.0906857252120971,0,0,0
3644,127699.50036179493,2010-10-24 00:51:58,360.1851375138808,2,12,0.5501165986061096,3.7816641330718994,10.876594127957542,10.83769639032977,43.46130144777742,39.50186071144032,6.47544875391759e-05,0.0906857252120971,0,0,0
3645,127729.51320905,2010-10-24 00:52:28,390.19798476395016,2,12,0.5501165986061096,3.7850637435913086,10.88118043459832,10.83769639032977,43.47865336266777,39.50186071144032,6.47544875391759e-05,0.0906857252120971,0,0,0
3646,127759.52803760808,2010-10-24 00:52:58,420.2128132969863,2,12,0.5499359965324402,3.7884633541107178,10.88576692579089,10.83769639032977,43.49602185415112,39.50186071144032,6.47544875391759e-05,0.0906857252120971,0,0,0
3647,127789.5433332854,2010-10-24 00:53:28,450.2281090996021,2,12,0.550297200679779,3.792186737060547,10.890353542055523,10.83769639032977,43.51340640236603,39.50186071144032,0.0001295089750783,0.0906857252120971,0,0,0
3648,127819.55837926538,2010-10-24 00:53:58,480.2431549793331,2,12,0.5499359965324402,3.795262575149536,10.894940116557374,10.83769639032977,43.53080595105347,39.50186071144032,9.713172767078504e-05,0.0906857252120971,0,0,0
3649,127849.57358150982,2010-10-24 00:54:28,510.25835721374807,2,12,0.5501165986061096,3.798662185668945,10.899526731452314,10.83769639032977,43.54822057317138,39.50186071144032,0.0001295089750783,0.0906857252120971,0,0,0
3650,127879.58879052612,2010-10-24 00:54:58,540.2735662100157,2,12,0.5501165986061096,3.8015761375427246,10.904113339530223,10.83769639032977,43.56564984512685,39.50186071144032,6.47544875391759e-05,0.0906857252120971,0,0,0
3651,127909.60411165688,2010-10-24 00:55:28,570.2888873457695,2,12,0.5501165986061096,3.804651975631714,10.908699997803913,10.83769639032977,43.58309365471231,39.50186071144032,6.47544875391759e-05,0.0906857252120971,0,0,0
3652,127939.61918090984,2010-10-24 00:55:58,600.3039566188038,2,12,0.5501165986061096,3.807889699935913,10.913286605517234,10.83769639032977,43.6005515485228,39.50186071144032,6.47544875391759e-05,0.0906857252120971,0,0,0
3653,127969.63451332873,2010-10-24 00:56:28,630.3192890477035,2,12,0.5501165986061096,3.810803651809693,10.917873291118664,10.83769639032977,43.61802389820308,39.50186071144032,3.237724376958795e-05,0.0906857252120971,0,0,0
3654,127999.6495894388,2010-10-24 00:56:58,660.3343651377279,2,12,0.5501165986061096,3.814041376113892,10.922459978840882,10.83769639032977,43.6355104449248,39.50186071144032,9.713172767078504e-05,0.0906857252120971,0,0,0
3655,128029.66486989318,2010-10-24 00:57:28,690.349645582066,2,12,0.550297200679779,3.817117214202881,10.927046619430104,10.83769639032977,43.65301125988741,39.50186071144032,6.47544875391759e-05,0.0906857252120971,0,0,0
3656,128059.67994140176,2010-10-24 00:57:58,720.3647171357845,2,12,0.5501165986061096,3.82035493850708,10.931633238243464,10.83769639032977,43.67052632223059,39.50186071144032,9.713172767078504e-05,0.0906857252120971,0,0,0
3657,128089.69516291424,2010-10-24 00:58:28,750.3799386031341,2,12,0.5501165986061096,3.8235926628112793,10.936219873170892,10.83769639032977,43.68805610457429,39.50186071144032,6.47544875391759e-05,0.0906857252120971,0,0,0
3658,128119.71036064744,2010-10-24 00:58:58,780.3951363263056,2,12,0.5501165986061096,3.8268303871154794,10.940806457324788,10.83769639032977,43.70560071697367,39.50186071144032,6.47544875391759e-05,0.0906857252120971,0,0,0
3659,128149.72554990952,2010-10-24 00:59:28,810.410325613452,2,12,0.5501165986061096,3.830229997634888,10.945393083441308,10.83769639032977,43.72316088278947,39.50186071144032,9.713172767078504e-05,0.0906857252120971,0,0,0
3660,128179.74085404792,2010-10-24 00:59:58,840.4256297468305,2,12,0.550297200679779,3.8336293697357178,10.949979769840011,10.83769639032977,43.74073691862908,39.50186071144032,9.70840483205393e-05,0.0906857252120971,0,0,0
3661,128209.75592319564,2010-10-24 01:00:28,870.4406988995651,2,12,0.5501165986061096,3.837190866470337,10.954566371963216,10.83769639032977,43.75832839968431,39.50186071144032,9.713172767078504e-05,0.0906857252120971,0,0,0
3662,128239.77113320943,2010-10-24 01:00:58,900.4559089133686,2,12,0.5501165986061096,3.840428590774536,10.959153026170352,10.83769639032977,43.775935860813576,39.50186071144032,6.47544875391759e-05,0.0906857252120971,0,0,0
3663,128269.78632151916,2010-10-24 01:01:28,930.4710971980164,2,12,0.5501165986061096,3.8439900875091553,10.963739627480432,10.83769639032977,43.79355872440821,39.50186071144032,9.713172767078504e-05,0.0906857252120971,0,0,0
3664,128299.80151824983,2010-10-24 01:01:58,960.4862939537768,2,12,0.550297200679779,3.8472278118133545,10.968326226205038,10.83769639032977,43.81119693110376,39.50186071144032,9.713172767078504e-05,0.0906857252120971,0,0,0
3665,128329.81684156603,2010-10-24 01:02:28,990.5016172850026,2,12,0.5499359965324402,3.8504655361175537,10.972912832004331,10.83769639032977,43.82885028621664,39.50186071144032,9.713172767078504e-05,0.0906857252120971,0,0,0
3666,128359.83192729008,2010-10-24 01:02:58,1020.5167029789628,2,12,0.550297200679779,3.853541374206543,10.977499494663856,10.83769639032977,43.84651870110115,39.50186071144032,3.237724376958795e-05,0.0906857252120971,0,0,0
3667,128389.84722616032,2010-10-24 01:03:28,1050.5320018442117,2,12,0.5501165986061096,3.856940984725952,10.982086113597626,10.83769639032977,43.86420149096309,39.50186071144032,6.47544875391759e-05,0.0906857252120971,0,0,0
3668,128419.86253490522,2010-10-24 01:03:58,1080.5473105940962,2,12,0.5501165986061096,3.859854936599731,10.986672709111044,10.83769639032977,43.88189843595925,39.50186071144032,6.47544875391759e-05,0.0906857252120971,0,0,0
3669,128449.87761662425,2010-10-24 01:04:28,1110.5623923131498,2,12,0.5501165986061096,3.8629307746887207,10.991259222402736,10.83769639032977,43.89960884003002,39.50186071144032,6.47544875391759e-05,0.0906857252120971,0,0,0
3670,128479.89270609764,2010-10-24 01:04:58,1140.5774817765046,2,12,0.5499359965324402,3.86568284034729,10.995845785421114,10.83769639032977,43.91733273746631,39.50186071144032,6.47544875391759e-05,0.0906857252120971,0,0,0
3671,128509.90788963044,2010-10-24 01:05:28,1170.5926653093093,2,12,0.5501165986061096,3.8684349060058594,11.000432352345538,10.83769639032977,43.93506942828122,39.50186071144032,6.47544875391759e-05,0.0906857252120971,0,0,0
3672,128539.92308218071,2010-10-24 01:05:58,1200.6078578846511,2,12,0.5501165986061096,3.8710250854492183,11.005018991928432,10.83769639032977,43.95281860327525,39.50186071144032,6.47544875391759e-05,0.0906857252120971,0,0,0
3673,128569.9383019338,2010-10-24 01:06:29,1230.6230776678028,2,12,0.550297200679779,3.873615264892578,11.009605591632498,10.83769639032977,43.97057926479592,39.50186071144032,6.47544875391759e-05,0.0906857252120971,0,0,0
3674,128599.95349924594,2010-10-24 01:06:59,1260.6382749248123,2,12,0.5501165986061096,3.8758816719055176,11.014192217596912,10.83769639032977,43.98835095939644,39.50186071144032,6.47544875391759e-05,0.0906857252120971,0,0,0
3675,128629.96868047802,2010-10-24 01:07:29,1290.6534561568833,2,12,0.5501165986061096,3.878148078918457,11.018778854162422,10.83769639032977,44.006133143079104,39.50186071144032,6.47544875391759e-05,0.0906857252120971,0,0,0
3676,128659.98399831554,2010-10-24 01:07:59,1320.6687739944168,2,12,0.550297200679779,3.8802525997161865,11.02336559691608,10.83769639032977,44.02392549808556,39.50186071144032,6.47544875391759e-05,0.0906857252120971,0,0,0
3677,128689.99908459096,2010-10-24 01:08:29,1350.6838602698265,2,12,0.5501165986061096,3.882033348083496,11.027952233544433,10.83769639032977,44.04172659035222,39.50186071144032,6.47544875391759e-05,0.0906857252120971,0,0,0
3678,128720.01429603332,2010-10-24 01:08:59,1380.6990717222152,2,12,0.5501165986061096,3.8838140964508057,11.032538852330378,10.83769639032977,44.05953614048198,39.50186071144032,3.237724376958795e-05,0.0906857252120971,0,0,0
3679,128750.02948799716,2010-10-24 01:09:29,1410.7142637060829,2,12,0.550297200679779,3.885432958602905,11.037125530080644,10.83769639032977,44.07735376755614,39.50186071144032,3.237724376958795e-05,0.0906857252120971,0,0,0
3680,128780.04468729424,2010-10-24 01:09:59,1440.7294629731025,2,12,0.5501165986061096,3.887051820755005,11.041712131662695,10.83769639032977,44.09517853129813,39.50186071144032,6.47544875391759e-05,0.0906857252120971,0,0,0
3681,128810.05987208516,2010-10-24 01:10:29,1470.7446477640426,2,12,0.5499359965324402,3.8885087966918954,11.046298740063529,10.83769639032977,44.113010285233706,39.50186071144032,3.237724376958795e-05,0.0906857252120971,0,0,0
3682,128840.0752706088,2010-10-24 01:10:59,1500.7600463979456,2,12,0.550297200679779,3.890127658843994,11.050885379458808,10.83769639032977,44.13084881739896,39.50186071144032,9.713172767078504e-05,0.0906857252120971,0,0,0
3683,128870.09026484984,2010-10-24 01:11:29,1530.7750405287022,2,12,0.5501165986061096,3.891260862350464,11.055471895406502,10.83769639032977,44.14869318337106,39.50186071144032,0.0,0.0906857252120971,0,0,0
3684,128900.10546051287,2010-10-24 01:11:59,1560.7902361917393,2,12,0.5501165986061096,3.892555952072144,11.060058497888008,10.83769639032977,44.16654410399322,39.50186071144032,3.237724376958795e-05,0.0906857252120971,0,0,0
3685,128930.12065379998,2010-10-24 01:12:29,1590.805429478855,2,12,0.550297200679779,3.8938510417938232,11.06464516173909,10.83769639032977,44.18440132208811,39.50186071144032,3.237724376958795e-05,0.0906857252120971,0,0,0
3686,128960.1358769766,2010-10-24 01:12:59,1620.8206526554643,2,12,0.5501165986061096,3.895146131515503,11.069231828142438,10.83769639032977,44.20226433141902,39.50186071144032,3.237724376958795e-05,0.0906857252120971,0,0,0
3687,128990.15109434372,2010-10-24 01:13:29,1650.8358700225947,2,12,0.5501165986061096,3.896441221237183,11.0738184699139,10.83769639032977,44.2201328354734,39.50186071144032,3.237724376958795e-05,0.0906857252120971,0,0,0
3688,129020.16624874894,2010-10-24 01:13:59,1680.8510244278043,2,12,0.5501165986061096,3.8977363109588623,11.078405066255188,10.83769639032977,44.23800713326602,39.50186071144032,6.47544875391759e-05,0.0906857252120971,0,0,0
3689,129050.18153727843,2010-10-24 01:14:29,1710.8663130826058,2,12,0.550297200679779,3.899031400680542,11.082991877738865,10.83769639032977,44.25588809433596,39.50186071144032,3.237724376958795e-05,0.0906857252120971,0,0,0
3690,129080.19669186408,2010-10-24 01:14:59,1740.881467542953,2,12,0.550297200679779,3.9003264904022217,11.087579239878671,10.83769639032977,44.27377712027524,39.50186071144032,6.47544875391759e-05,0.0906857252120971,0,0,0
3691,129110.21185469528,2010-10-24 01:15:29,1770.896630369151,2,12,0.5499359965324402,3.9014596939086914,11.092166405790756,10.83769639032977,44.29167122111164,39.50186071144032,3.237724376958795e-05,0.0906857252120971,0,0,0
3692,129140.2270131506,2010-10-24 01:15:59,1800.91178885453,2,12,0.5497553944587708,3.902592897415161,11.096752586542909,10.83769639032977,44.30956728499528,39.50186071144032,3.237724376958795e-05,0.0906857252120971,0,0,0
3693,129170.24220674348,2010-10-24 01:16:29,1830.92698243237,2,12,0.5501165986061096,3.9042117595672607,11.101338221598215,10.83769639032977,44.32746702765005,39.50186071144032,6.47544875391759e-05,0.0906857252120971,0,0,0
3694,129200.25745487728,2010-10-24 01:16:59,1860.9422305561552,2,12,0.5499359965324402,3.9053449630737305,11.105924080372958,10.83769639032977,44.34537362429496,39.50186071144032,3.237724376958795e-05,0.0906857252120971,0,0,0
3695,129230.27262808935,2010-10-24 01:17:29,1890.9574037682376,2,12,0.5501165986061096,3.90664005279541,11.110509749571184,10.83769639032977,44.36328530684312,39.50186071144032,3.237724376958795e-05,0.0906857252120971,0,0,0
3696,129260.2878174517,2010-10-24 01:17:59,1920.972593130572,2,12,0.5501165986061096,3.9082589149475098,11.115095467430235,10.83769639032977,44.381203249632456,39.50186071144032,9.713172767078504e-05,0.0906857252120971,0,0,0
3697,129290.30314379044,2010-10-24 01:18:29,1950.9879194793173,2,12,0.5501165986061096,3.90939211845398,11.11968110773906,10.83769639032977,44.39912691804544,39.50186071144032,6.47544875391759e-05,0.0906857252120971,0,0,0
3698,129320.31823994045,2010-10-24 01:18:59,1981.003015649388,2,12,0.5501165986061096,3.910525321960449,11.124267028842716,10.83769639032977,44.41705780957506,39.50186071144032,0.0,0.0906857252120971,0,0,0
3699,129350.33341596957,2010-10-24 01:19:29,2011.018191648416,2,12,0.5501165986061096,3.912144184112549,11.12885361294377,10.83769639032977,44.434997549186846,39.50186071144032,9.713172767078504e-05,0.0906857252120971,0,0,0
3700,129380.3488624828,2010-10-24 01:19:59,2041.033638266911,2,12,0.5501165986061096,3.913439273834229,11.133440287246868,10.83769639032977,44.45294388299487,39.50186071144032,3.237724376958795e-05,0.0906857252120971,0,0,0
3701,129410.36383742072,2010-10-24 01:20:29,2071.048613129646,2,12,0.5499359965324402,3.914734125137329,11.138026885323193,10.83769639032977,44.47089613660213,39.50186071144032,3.237724376958795e-05,0.0906857252120971,0,0,0
3702,129440.37905297831,2010-10-24 01:20:59,2101.0638286622043,2,12,0.5501165986061096,3.916029214859009,11.14261355608129,10.83769639032977,44.48885486090061,39.50186071144032,3.237724376958795e-05,0.0906857252120971,0,0,0
3703,129470.3943467108,2010-10-24 01:21:29,2131.0791224247355,2,12,0.5499359965324402,3.917648077011109,11.147200198839792,10.83769639032977,44.50681982751839,39.50186071144032,6.47544875391759e-05,0.0906857252120971,0,0,0
3704,129500.40940387864,2010-10-24 01:21:59,2161.094179587588,2,12,0.5501165986061096,3.918943166732788,11.151786781468434,10.83769639032977,44.52479091603228,39.50186071144032,3.237724376958795e-05,0.0906857252120971,0,0,0
3705,129530.42459119589,2010-10-24 01:22:29,2191.1093668747494,2,12,0.5501165986061096,3.9204001426696777,11.156373407208248,10.83769639032977,44.54276862237639,39.50186071144032,6.47544875391759e-05,0.0906857252120971,0,0,0
3706,129560.43998018577,2010-10-24 01:22:59,2221.1247558646164,2,12,0.5501165986061096,3.921695232391357,11.16096005913618,10.83769639032977,44.56075283864588,39.50186071144032,3.237724376958795e-05,0.0906857252120971,0,0,0
3707,129590.4551218893,2010-10-24 01:23:29,2251.1398975982447,2,12,0.5501165986061096,3.923152208328247,11.16554664713909,10.83769639032977,44.57874332584037,39.50186071144032,3.237724376958795e-05,0.0906857252120971,0,0,0
3708,129620.47197369496,2010-10-24 01:23:59,2281.1567495592863,2,12,0.5501165986061096,3.924447298049927,11.17013347597233,10.83769639032977,44.59674134457736,39.50186071144032,0.0,0.0906857252120971,0,0,0
3709,129650.48564701383,2010-10-24 01:24:29,2311.170422818024,2,12,0.5501165986061096,3.9260661602020255,11.174719904447718,10.83769639032977,44.614744459865165,39.50186071144032,3.237724376958795e-05,0.0906857252120971,0,0,0
3710,129680.50060966614,2010-10-24 01:24:59,2341.185385345014,2,12,0.5499359965324402,3.927361249923706,11.179306512193358,10.83769639032977,44.632754834339785,39.50186071144032,0.0,0.0906857252120971,0,0,0
3711,129710.51581093816,2010-10-24 01:25:29,2371.2005866170302,2,12,0.5501165986061096,3.9289801120758057,11.183893164213837,10.83769639032977,44.65077218493301,39.50186071144032,6.47544875391759e-05,0.0906857252120971,0,0,0
3712,129740.53097206511,2010-10-24 01:25:59,2401.215747743993,2,12,0.5501165986061096,3.9304370880126953,11.188479854816404,10.83769639032977,44.6687965028331,39.50186071144032,3.237724376958795e-05,0.0906857252120971,0,0,0
3713,129770.5461793822,2010-10-24 01:26:29,2431.2309550911505,2,12,0.5501165986061096,3.931894063949585,11.193066557964416,10.83769639032977,44.68682768933859,39.50186071144032,3.237724376958795e-05,0.0906857252120971,0,0,0
3714,129800.56159649718,2010-10-24 01:26:59,2461.2463722061134,2,12,0.5501165986061096,3.933512926101685,11.197653260915606,10.83769639032977,44.7048657896038,39.50186071144032,6.47544875391759e-05,0.0906857252120971,0,0,0
3715,129830.5766022168,2010-10-24 01:27:29,2491.2613778956784,2,12,0.5501165986061096,3.935131788253784,11.202239945662155,10.83769639032977,44.722910749787765,39.50186071144032,6.47544875391759e-05,0.0906857252120971,0,0,0
3716,129860.59189661592,2010-10-24 01:27:59,2521.276672304821,2,12,0.5499359965324402,3.936426877975464,11.206826632984786,10.83769639032977,44.74096271652514,39.50186071144032,3.237724376958795e-05,0.0906857252120971,0,0,0
3717,129890.60696233009,2010-10-24 01:28:29,2551.291738039036,2,12,0.550297200679779,3.938045740127564,11.211413253033376,10.83769639032977,44.7590214254038,39.50186071144032,3.237724376958795e-05,0.0906857252120971,0,0,0
3718,129920.62217156196,2010-10-24 01:28:59,2581.306947265878,2,12,0.5501165986061096,3.939502716064453,11.215999802280349,10.83769639032977,44.77708702171728,39.50186071144032,0.0,0.0906857252120971,0,0,0
3719,129950.63736782147,2010-10-24 01:29:29,2611.3221435304145,2,12,0.550297200679779,3.9412834644317623,11.220586414933802,10.83769639032977,44.795160081780175,39.50186071144032,6.47544875391759e-05,0.0906857252120971,0,0,0
3720,129980.65257737914,2010-10-24 01:29:59,2641.337353058006,2,12,0.5501165986061096,3.9429023265838623,11.225173076216103,10.83769639032977,44.81324050154874,39.50186071144032,6.47544875391759e-05,0.0906857252120971,0,0,0
3721,130010.6677497742,2010-10-24 01:30:29,2671.352525478115,2,12,0.5501165986061096,3.944197416305542,11.229759710421783,10.83769639032977,44.83132811655221,39.50186071144032,3.237724376958795e-05,0.0906857252120971,0,0,0
3722,130040.68305667446,2010-10-24 01:30:59,2701.367832563852,2,12,0.5499359965324402,3.9458162784576416,11.234346405928507,10.83769639032977,44.84942334794185,39.50186071144032,0.0,0.0906857252120971,0,0,0
3723,130070.69814582705,2010-10-24 01:31:29,2731.382921520945,2,12,0.550297200679779,3.947597026824951,11.238933092670132,10.83769639032977,44.86752585621431,39.50186071144032,6.47544875391759e-05,0.0906857252120971,0,0,0
3724,130100.71348169952,2010-10-24 01:31:59,2761.3982574084644,2,12,0.5499359965324402,3.949215888977051,11.243519765222617,10.83769639032977,44.88563577719934,39.50186071144032,3.237724376958795e-05,0.0906857252120971,0,0,0
3725,130130.72853926838,2010-10-24 01:32:29,2791.413315002391,2,12,0.5501165986061096,3.95099663734436,11.24810640227228,10.83769639032977,44.90375310379038,39.50186071144032,3.237724376958795e-05,0.0906857252120971,0,0,0
3726,130160.74375021452,2010-10-24 01:32:59,2821.4285259184426,2,12,0.5501165986061096,3.95261549949646,11.25269309643082,10.83769639032977,44.92187821941241,39.50186071144032,3.237724376958795e-05,0.0906857252120971,0,0,0
3727,130190.7589650704,2010-10-24 01:33:29,2851.4437407743144,2,12,0.5501165986061096,3.95423436164856,11.257279745110973,10.83769639032977,44.940010812449664,39.50186071144032,3.237724376958795e-05,0.0906857252120971,0,0,0
3728,130220.7741394203,2010-10-24 01:33:59,2881.45891509917,2,12,0.5501165986061096,3.955853223800659,11.26186650131428,10.83769639032977,44.95815150043013,39.50186071144032,3.237724376958795e-05,0.0906857252120971,0,0,0
3729,130250.78935550422,2010-10-24 01:34:29,2911.474131203153,2,12,0.5501165986061096,3.9576339721679688,11.266453272169697,10.83769639032977,44.97629993017857,39.50186071144032,6.47544875391759e-05,0.0906857252120971,0,0,0
3730,130280.8045461548,2010-10-24 01:34:59,2941.489321858709,2,12,0.5499359965324402,3.9590909481048575,11.271039955925293,10.83769639032977,44.994455790610814,39.50186071144032,3.237724376958795e-05,0.0906857252120971,0,0,0
3731,130310.81972970262,2010-10-24 01:35:29,2971.5045054316142,2,12,0.5501165986061096,3.961033582687378,11.27562664966336,10.83769639032977,45.01261957870847,39.50186071144032,6.47544875391759e-05,0.0906857252120971,0,0,0
3732,130340.83529292172,2010-10-24 01:35:59,3001.520068640689,2,12,0.5501165986061096,3.9626524448394775,11.280213360765964,10.83769639032977,45.030791342022205,39.50186071144032,9.713172767078504e-05,0.0906857252120971,0,0,0
3733,130370.85014115888,2010-10-24 01:36:29,3031.5349168928715,2,12,0.5501165986061096,3.964595079421997,11.28479996541561,10.83769639032977,45.04897074248763,39.50186071144032,9.713172767078504e-05,0.0906857252120971,0,0,0
3734,130400.86533861636,2010-10-24 01:36:59,3061.5501143052684,2,12,0.5501165986061096,3.9662139415740967,11.289386655421344,10.83769639032977,45.06715855398492,39.50186071144032,3.237724376958795e-05,0.0906857252120971,0,0,0
3735,130430.88052387348,2010-10-24 01:37:29,3091.5652995774085,2,12,0.5501165986061096,3.9679946899414062,11.293973348986384,10.83769639032977,45.085354507779215,39.50186071144032,3.237724376958795e-05,0.0906857252120971,0,0,0
3736,130460.895740188,2010-10-24 01:37:59,3121.5805158668527,2,12,0.5501165986061096,3.969775438308716,11.298559977999156,10.83769639032977,45.10355837023142,39.50186071144032,6.47544875391759e-05,0.0906857252120971,0,0,0
3737,130490.9109170642,2010-10-24 01:38:30,3151.595692743067,2,12,0.5501165986061096,3.9715561866760254,11.30314663144372,10.83769639032977,45.12177059467473,39.50186071144032,0.0,0.0906857252120971,0,0,0
3738,130520.92612388002,2010-10-24 01:39:00,3181.6108995639133,2,12,0.5499359965324402,3.973336935043335,11.307733354210308,10.83769639032977,45.139991451888,39.50186071144032,3.237724376958795e-05,0.0906857252120971,0,0,0
3739,130550.94131482132,2010-10-24 01:39:30,3211.6260905502945,2,12,0.5499359965324402,3.9752795696258554,11.31232006468296,10.83769639032977,45.15822068395211,39.50186071144032,6.47544875391759e-05,0.0906857252120971,0,0,0
3740,130580.95666288416,2010-10-24 01:40:00,3241.641438603134,2,12,0.5501165986061096,3.977060317993164,11.316906839892065,10.83769639032977,45.176458724514845,39.50186071144032,3.237724376958795e-05,0.0906857252120971,0,0,0
3741,130610.97170953082,2010-10-24 01:40:30,3271.656485209676,2,12,0.5501165986061096,3.979002952575684,11.321493466797511,10.83769639032977,45.19470434840052,39.50186071144032,6.47544875391759e-05,0.0906857252120971,0,0,0
3742,130640.98692576012,2010-10-24 01:41:00,3301.671701464033,2,12,0.550297200679779,3.981269359588623,11.32608008923224,10.83769639032977,45.21295913984903,39.50186071144032,9.713172767078504e-05,0.0906857252120971,0,0,0
3743,130671.00214215982,2010-10-24 01:41:30,3331.686917833678,2,12,0.550297200679779,3.9827263355255127,11.33066667185724,10.83769639032977,45.231222590397714,39.50186071144032,3.237724376958795e-05,0.0906857252120971,0,0,0
3744,130701.01730437952,2010-10-24 01:42:00,3361.7020800583764,2,12,0.5501165986061096,3.984668970108032,11.335253336817171,10.83769639032977,45.24949516960054,39.50186071144032,0.0,0.0906857252120971,0,0,0
3745,130731.0324995012,2010-10-24 01:42:30,3391.7172752051265,2,12,0.5501165986061096,3.986935377120972,11.339839968587954,10.83769639032977,45.267776591641166,39.50186071144032,6.47544875391759e-05,0.0906857252120971,0,0,0
3746,130761.04792828024,2010-10-24 01:43:00,3421.7327040042105,2,12,0.5499359965324402,3.988716125488281,11.344426680354276,10.83769639032977,45.28606731166469,39.50186071144032,6.47544875391759e-05,0.0906857252120971,0,0,0
3747,130791.06291209528,2010-10-24 01:43:30,3451.74768780422,2,12,0.5501165986061096,3.990658760070801,11.349013267676494,10.83769639032977,45.30436663317212,39.50186071144032,3.237724376958795e-05,0.0906857252120971,0,0,0
3748,130821.07811490112,2010-10-24 01:44:00,3481.762890579984,2,12,0.5499359965324402,3.9927632808685294,11.35359984419288,10.83769639032977,45.322675180648815,39.50186071144032,6.47544875391759e-05,0.0906857252120971,0,0,0
3749,130851.0932918074,2010-10-24 01:44:30,3511.7780675414106,2,12,0.550297200679779,3.99502944946289,11.35818648576134,10.83769639032977,45.340993263317245,39.50186071144032,9.713172767078504e-05,0.0906857252120971,0,0,0
3750,130881.10852098397,2010-10-24 01:45:00,3541.7932966528115,2,12,0.5501165986061096,3.9968101978302,11.362773109100994,10.83769639032977,45.35932075762038,39.50186071144032,3.237724376958795e-05,0.0906857252120971,0,0,0
3751,130911.12410984698,2010-10-24 01:45:30,3571.8088855358737,2,12,0.550297200679779,3.99907660484314,11.36735981007326,10.83769639032977,45.377658099588935,39.50186071144032,9.713172767078504e-05,0.0906857252120971,0,0,0
3752,130941.13914311527,2010-10-24 01:46:00,3601.823918949536,2,12,0.5501165986061096,4.001181125640869,11.371946267608832,10.83769639032977,45.39600413390615,39.50186071144032,6.47544875391759e-05,0.0906857252120971,0,0,0
3753,130971.15411381764,2010-10-24 01:46:30,3631.838889516565,2,12,0.550297200679779,4.003285884857178,11.376532786033602,10.83769639032977,45.41436019090458,39.50186071144032,6.47544875391759e-05,0.0906857252120971,0,0,0
3754,131001.16941996604,2010-10-24 01:47:00,3661.854195669978,2,12,0.5501165986061096,4.005390167236328,11.381119338145972,10.83769639032977,45.43272620663602,39.50186071144032,6.47544875391759e-05,0.0906857252120971,0,0,0
3755,131031.18447244725,2010-10-24 01:47:30,3691.8692481210874,2,12,0.5501165986061096,4.007494926452637,11.385705802956693,10.83769639032977,45.45110183127284,39.50186071144032,6.47544875391759e-05,0.0906857252120971,0,0,0
3756,131061.199801222,2010-10-24 01:48:00,3721.8845769409913,2,12,0.5499359965324402,4.009761333465576,11.39029251429532,10.83769639032977,45.46948852372626,39.50186071144032,6.47544875391759e-05,0.0906857252120971,0,0,0
3757,131091.21489259513,2010-10-24 01:48:30,3751.899668299068,2,12,0.550297200679779,4.012027740478516,11.39487913615742,10.83769639032977,45.48788503155063,39.50186071144032,3.24249267578125e-05,0.0906857252120971,0,0,0
3758,131121.2300910752,2010-10-24 01:49:00,3781.914866754064,2,12,0.550297200679779,4.014455795288086,11.39946580425333,10.83769639032977,45.50629211567353,39.50186071144032,6.47544875391759e-05,0.0906857252120971,0,0,0
3759,131151.2452696356,2010-10-24 01:49:30,3811.930045364601,2,12,0.5499359965324402,4.0163984298706055,11.40405238864899,10.83769639032977,45.52470937200374,39.50186071144032,0.0,0.0906857252120971,0,0,0
3760,131181.26046869712,2010-10-24 01:50:00,3841.945244380995,2,12,0.5501165986061096,4.018988609313965,11.408639006544682,10.83769639032977,45.54313733324325,39.50186071144032,6.47544875391759e-05,0.0906857252120971,0,0,0
3761,131211.27566832,2010-10-24 01:50:30,3871.96044399889,2,12,0.5499359965324402,4.021255016326904,11.413225619700489,10.83769639032977,45.56157578330421,39.50186071144032,6.47544875391759e-05,0.0906857252120971,0,0,0
3762,131241.2909142032,2010-10-24 01:51:00,3901.9756899071526,2,12,0.5499359965324402,4.023521423339844,11.417812241713303,10.83769639032977,45.58002505501697,39.50186071144032,6.47544875391759e-05,0.0906857252120971,0,0,0
3763,131271.30606751068,2010-10-24 01:51:30,3931.9908432096154,2,12,0.5501165986061096,4.025787830352783,11.422398902534969,10.83769639032977,45.59848525207859,39.50186071144032,3.23295607813634e-05,0.0906857252120971,0,0,0
3764,131301.32141649586,2010-10-24 01:52:00,3962.006192174728,2,12,0.5501165986061096,4.028378009796143,11.426985570614349,10.83769639032977,45.61695634000176,39.50186071144032,9.70840483205393e-05,0.0906857252120971,0,0,0
3765,131331.3364583155,2010-10-24 01:52:30,3992.021234014389,2,12,0.550297200679779,4.030806541442871,11.431572164152648,10.83769639032977,45.635437974988434,39.50186071144032,9.71794142969884e-05,0.0906857252120971,0,0,0
3766,131361.35182496966,2010-10-24 01:53:00,4022.0366007487896,2,12,0.5501165986061096,4.0330729484558105,11.436158798581992,10.83769639032977,45.65393082541835,39.50186071144032,6.47544875391759e-05,0.0906857252120971,0,0,0
3767,131391.3668707291,2010-10-24 01:53:30,4052.0516465232586,2,12,0.5501165986061096,4.035662651062012,11.44074541910401,10.83769639032977,45.67243467488614,39.50186071144032,6.47544875391759e-05,0.0906857252120971,0,0,0
3768,131421.38204918423,2010-10-24 01:54:00,4082.066824863121,2,12,0.5501165986061096,4.03809118270874,11.445332037943846,10.83769639032977,45.69094966902088,39.50186071144032,6.47544875391759e-05,0.0906857252120971,0,0,0
3769,131451.39736707692,2010-10-24 01:54:30,4112.082142750779,2,12,0.5501165986061096,4.040519237518311,11.449918642189408,10.83769639032977,45.70947584241463,39.50186071144032,6.47544875391759e-05,0.0906857252120971,0,0,0
3770,131481.41256586777,2010-10-24 01:55:00,4142.097341546624,2,12,0.5499359965324402,4.04278564453125,11.454505172788902,10.83769639032977,45.72801307961413,39.50186071144032,3.23295607813634e-05,0.0906857252120971,0,0,0
3771,131511.4276643937,2010-10-24 01:55:30,4172.112440097628,2,12,0.5501165986061096,4.045537948608398,11.45909179172652,10.83769639032977,45.74656221848038,39.50186071144032,9.71794142969884e-05,0.0906857252120971,0,0,0
3772,131541.44299902808,2010-10-24 01:56:00,4202.127774797187,2,12,0.5501165986061096,4.048128128051758,11.463678387518527,10.83769639032977,45.76512282395147,39.50186071144032,9.71794142969884e-05,0.0906857252120971,0,0,0
3773,131571.4433532968,2010-10-24 01:56:30,4232.128129100991,2,12,0.550297200679779,4.050394535064697,11.468262739203318,10.83769639032977,45.78368602216629,39.50186071144032,3.24249267578125e-05,0.0906857252120971,0,0,0
3774,131601.44461661615,2010-10-24 01:57:00,4262.129392410315,2,12,0.5501165986061096,4.052984714508057,11.47284722648082,10.83769639032977,45.80226143538697,39.50186071144032,6.47544875391759e-05,0.0906857252120971,0,0,0
3775,131631.45742212218,2010-10-24 01:57:30,4292.142197836146,2,12,0.5501165986061096,4.055574893951416,11.477433529766294,10.83769639032977,45.82085615694756,39.50186071144032,0.0,0.0906857252120971,0,0,0
3776,131661.47239968163,2010-10-24 01:58:00,4322.157175360514,2,12,0.5501165986061096,4.058326721191406,11.482020099777372,10.83769639032977,45.8394640074853,39.50186071144032,6.47544875391759e-05,0.0906857252120971,0,0,0
3777,131691.48760178074,2010-10-24 01:58:30,4352.172377489666,2,12,0.5501165986061096,4.060916900634766,11.486606801755984,10.83769639032977,45.85808451337591,39.50186071144032,6.47544875391759e-05,0.0906857252120971,0,0,0
3778,131721.5027847421,2010-10-24 01:59:00,4382.18756045606,2,12,0.5501165986061096,4.063669204711914,11.49119338284726,10.83769639032977,45.876716494194206,39.50186071144032,9.71794142969884e-05,0.0906857252120971,0,0,0
3779,131751.51797404428,2010-10-24 01:59:30,4412.202749718143,2,12,0.5501165986061096,4.066259384155273,11.495779951210242,10.83769639032977,45.89536087032759,39.50186071144032,6.47544875391759e-05,0.0906857252120971,0,0,0
3780,131781.5333628938,2010-10-24 02:00:00,4442.218138562648,2,12,0.5501165986061096,4.069173336029053,11.500366590478537,10.83769639032977,45.91401802517012,39.50186071144032,9.71794142969884e-05,0.0906857252120971,0,0,0
3781,131811.54839950043,2010-10-24 02:00:30,4472.233175204356,2,12,0.550297200679779,4.071925163269043,11.50495316991468,10.83769639032977,45.93268752306996,39.50186071144032,6.47544875391759e-05,0.0906857252120971,0,0,0
3782,131841.56356751957,2010-10-24 02:01:00,4502.248343193421,2,12,0.5501165986061096,4.074677467346191,11.509539778720177,10.83769639032977,45.951369839718815,39.50186071144032,3.24249267578125e-05,0.0906857252120971,0,0,0
3783,131871.57888665533,2010-10-24 02:01:30,4532.263662329189,2,12,0.5501165986061096,4.077429294586182,11.514126375874197,10.83769639032977,45.97006491938891,39.50186071144032,6.47544875391759e-05,0.0906857252120971,0,0,0
3784,131901.5939772415,2010-10-24 02:02:00,4562.278752915343,2,12,0.5501165986061096,4.08018159866333,11.518712947166714,10.83769639032977,45.988772881825184,39.50186071144032,3.24249267578125e-05,0.0906857252120971,0,0,0
3785,131931.60916176677,2010-10-24 02:02:30,4592.293937445634,2,12,0.5501165986061096,4.08325719833374,11.523299591604156,10.83769639032977,46.00749419580587,39.50186071144032,0.0001295089750783,0.0906857252120971,0,0,0
3786,131961.6243517306,2010-10-24 02:03:00,4622.309127404455,2,12,0.5499359965324402,4.086009502410889,11.527886179257523,10.83769639032977,46.02622847871342,39.50186071144032,6.47544875391759e-05,0.0906857252120971,0,0,0
3787,131991.63955077206,2010-10-24 02:03:30,4652.324326475987,2,12,0.5501165986061096,4.088923454284668,11.532472748899654,10.83769639032977,46.0449759494042,39.50186071144032,6.47544875391759e-05,0.0906857252120971,0,0,0
3788,132021.65477633962,2010-10-24 02:04:00,4682.33955201348,2,12,0.5501165986061096,4.091837406158447,11.537059278642069,10.83769639032977,46.06373665581424,39.50186071144032,9.71794142969884e-05,0.0906857252120971,0,0,0
3789,132051.66992527622,2010-10-24 02:04:30,4712.354700955072,2,12,0.5499359965324402,4.094751358032227,11.541645875295009,10.83769639032977,46.0825111023368,39.50186071144032,6.47544875391759e-05,0.0906857252120971,0,0,0
3790,132081.685285354,2010-10-24 02:05:00,4742.370061047919,2,12,0.5501165986061096,4.097826957702637,11.546232540927678,10.83769639032977,46.10129948681779,39.50186071144032,6.47544875391759e-05,0.0906857252120971,0,0,0
3791,132111.70038544887,2010-10-24 02:05:30,4772.385161122722,2,12,0.5501165986061096,4.100740909576416,11.550819080043494,10.83769639032977,46.12010109769496,39.50186071144032,6.47544875391759e-05,0.0906857252120971,0,0,0
3792,132141.71557078115,2010-10-24 02:06:00,4802.400346455011,2,12,0.5499359965324402,4.103978633880615,11.55540557190196,10.83769639032977,46.138916375647725,39.50186071144032,0.0001295089750783,0.0906857252120971,0,0,0
3793,132171.73076479006,2010-10-24 02:06:30,4832.415540463925,2,12,0.5501165986061096,4.1068925857543945,11.559992102133684,10.83769639032977,46.15774586196616,39.50186071144032,9.70840483205393e-05,0.0906857252120971,0,0,0
3794,132201.74595893934,2010-10-24 02:07:00,4862.430734618202,2,12,0.5501165986061096,4.110130310058594,11.564578650762812,10.83769639032977,46.17658947877362,39.50186071144032,0.0001295089750783,0.0906857252120971,0,0,0
3795,132231.7611994341,2010-10-24 02:07:30,4892.445975138036,2,12,0.5499359965324402,4.113044261932373,11.569165277316428,10.83769639032977,46.195447690072285,39.50186071144032,9.70840483205393e-05,0.0906857252120971,0,0,0
3796,132261.77638015992,2010-10-24 02:08:00,4922.46115583377,2,12,0.5501165986061096,4.116443634033203,11.573751788889512,10.83769639032977,46.21431974554023,39.50186071144032,9.70840483205393e-05,0.0906857252120971,0,0,0
3797,132291.79155559753,2010-10-24 02:08:30,4952.476331271399,2,12,0.5501165986061096,4.119357585906982,11.578338321502764,10.83769639032977,46.23320651751165,39.50186071144032,6.47544875391759e-05,0.0906857252120971,0,0,0
3798,132321.8069041767,2010-10-24 02:09:00,4982.491679855562,2,12,0.5501165986061096,4.122757434844971,11.582924981376564,10.83769639032977,46.25210853327789,39.50186071144032,0.0001295089750783,0.0906857252120971,0,0,0
3799,132351.8219515301,2010-10-24 02:09:30,5012.506727234029,2,12,0.5501165986061096,4.12599515914917,11.58751148552662,10.83769639032977,46.27102443981567,39.50186071144032,9.71794142969884e-05,0.0906857252120971,0,0,0
3800,132381.83716737843,2010-10-24 02:10:00,5042.521943052299,2,12,0.5501165986061096,4.12907075881958,11.592098030400695,10.83769639032977,46.28995535687344,39.50186071144032,9.70840483205393e-05,0.0906857252120971,0,0,0
3801,132411.85247285516,2010-10-24 02:10:30,5072.537248544063,2,12,0.5501165986061096,4.132308483123779,11.596684555434289,10.83769639032977,46.30890112005799,39.50186071144032,3.23295607813634e-05,0.0906857252120971,0,0,0
3802,132441.867557291,2010-10-24 02:11:00,5102.55233296485,2,12,0.5501165986061096,4.135708332061768,11.601271069162182,10.83769639032977,46.32786191725316,39.50186071144032,9.71794142969884e-05,0.0906857252120971,0,0,0
3803,132471.88275190644,2010-10-24 02:11:31,5132.567527660477,2,12,0.5499359965324402,4.138783931732178,11.60585764815384,10.83769639032977,46.34683815900585,39.50186071144032,6.47544875391759e-05,0.0906857252120971,0,0,0
3804,132501.8978686277,2010-10-24 02:12:01,5162.582644331642,2,12,0.550297200679779,4.142345428466797,11.610444201390434,10.83769639032977,46.3658296466795,39.50186071144032,6.47544875391759e-05,0.0906857252120971,0,0,0
3805,132531.9131181099,2010-10-24 02:12:31,5192.59789378875,2,12,0.5501165986061096,4.145906925201416,11.615030791620764,10.83769639032977,46.38483675844395,39.50186071144032,9.70840483205393e-05,0.0906857252120971,0,0,0
3806,132561.9282685452,2010-10-24 02:13:01,5222.613044224066,2,12,0.5501165986061096,4.149306774139404,11.61961735220872,10.83769639032977,46.40385940749084,39.50186071144032,0.0001295089750783,0.0906857252120971,0,0,0
3807,132591.94356801696,2010-10-24 02:13:31,5252.6283436958265,2,12,0.5501165986061096,4.152706146240234,11.624203880727256,10.83769639032977,46.42289760667351,39.50186071144032,0.0001295089750783,0.0906857252120971,0,0,0
3808,132621.9587772538,2010-10-24 02:14:01,5282.643552952744,2,12,0.5499359965324402,4.155943870544434,11.628790470859729,10.83769639032977,46.44195185295641,39.50186071144032,9.70840483205393e-05,0.0906857252120971,0,0,0
3809,132651.9739780948,2010-10-24 02:14:31,5312.658753773636,2,12,0.5501165986061096,4.159667491912842,11.633377033241576,10.83769639032977,46.4610218208655,39.50186071144032,0.0001295089750783,0.0906857252120971,0,0,0
3810,132681.9891558231,2010-10-24 02:15:01,5342.673931532049,2,12,0.5497553944587708,4.162905216217041,11.637963583124764,10.83769639032977,46.48010770086838,39.50186071144032,6.47544875391759e-05,0.0906857252120971,0,0,0
3811,132712.00437218774,2010-10-24 02:15:31,5372.689147891669,2,12,0.5501165986061096,4.166628360748291,11.64255017324081,10.83769639032977,46.499209820533885,39.50186071144032,0.0001295089750783,0.0906857252120971,0,0,0
3812,132742.01977531283,2010-10-24 02:16:01,5402.7045510167645,2,12,0.5501165986061096,4.170028209686279,11.647136718345184,10.83769639032977,46.51832797883007,39.50186071144032,9.71794142969884e-05,0.0906857252120971,0,0,0
3813,132772.03475497253,2010-10-24 02:16:31,5432.719530651392,2,12,0.5499359965324402,4.173589706420898,11.65172319006764,10.83769639032977,46.53746213273744,39.50186071144032,6.47544875391759e-05,0.0906857252120971,0,0,0
3814,132802.04995743252,2010-10-24 02:17:01,5462.73473311137,2,12,0.5501165986061096,4.177151203155518,11.656309782340156,10.83769639032977,46.55661315629956,39.50186071144032,9.71794142969884e-05,0.0906857252120971,0,0,0
3815,132832.0651441432,2010-10-24 02:17:31,5492.749919817083,2,12,0.5499359965324402,4.180874347686768,11.660896331493133,10.83769639032977,46.575780488384495,39.50186071144032,9.70840483205393e-05,0.0906857252120971,0,0,0
3816,132862.0805290429,2010-10-24 02:18:01,5522.765304721768,2,12,0.5501165986061096,4.184597969055176,11.66548288051103,10.83769639032977,46.59496445182044,39.50186071144032,0.0001295089750783,0.0906857252120971,0,0,0
3817,132892.09552768993,2010-10-24 02:18:31,5552.780303378806,2,12,0.5499359965324402,4.188159465789795,11.670069360789018,10.83769639032977,46.61416478374086,39.50186071144032,0.0001295089750783,0.0906857252120971,0,0,0
3818,132922.11085274542,2010-10-24 02:19:01,5582.795628424304,2,12,0.5501165986061096,4.191720962524414,11.674655913297403,10.83769639032977,46.63338230952366,39.50186071144032,9.71794142969884e-05,0.0906857252120971,0,0,0
3819,132952.12596238407,2010-10-24 02:19:31,5612.810738062942,2,12,0.5501165986061096,4.195444107055664,11.679242385494309,10.83769639032977,46.65261645789338,39.50186071144032,6.47544875391759e-05,0.0906857252120971,0,0,0
3820,132982.14117419237,2010-10-24 02:20:01,5642.825949871218,2,12,0.550297200679779,4.199167251586914,11.683828932151249,10.83769639032977,46.67186798698802,39.50186071144032,9.70840483205393e-05,0.0906857252120971,0,0,0
3821,132988.01641059422,2010-10-24 02:20:07,5648.701186278108,2,12,0.550297200679779,4.200138568878174,11.684726691820764,10.83769639032977,46.67563824985811,39.50186071144032,0.0001295089750783,0.0906857252120971,0,0,0
3822,133018.03473927427,2010-10-24 02:20:37,30.015339165689877,3,12,0.0,4.116929531097412,11.684726691820764,10.83769639032977,46.67563824985811,39.50186071144032,-0.0004208564641885,0.0906857252120971,0,0,0
3823,133048.0497826728,2010-10-24 02:21:07,60.0303825141121,3,12,0.0,4.106568813323975,11.684726691820764,10.83769639032977,46.67563824985811,39.50186071144032,-0.0002266883820993,0.0906857252120971,0,0,0
3824,133078.06510772833,2010-10-24 02:21:37,90.04570759971004,3,12,0.0,4.100740909576416,11.684726691820764,10.83769639032977,46.67563824985811,39.50186071144032,-9.71794142969884e-05,0.0906857252120971,0,0,0
3825,133108.03333251548,2010-10-24 02:22:07,120.01393235679694,3,12,0.0,4.096855640411377,11.684726691820764,10.83769639032977,46.67563824985811,39.50186071144032,-6.47544875391759e-05,0.0906857252120971,0,0,0
3826,133108.03834062073,2010-10-24 02:22:07,2.877170795e-06,4,12,1.0025428533554075,4.199814796447754,11.684726692622013,10.83769639032977,46.6756382532232,39.50186071144032,0.0,0.0906857252120971,0,0,0
3827,133108.6478273241,2010-10-24 02:22:08,0.609489515407631,4,12,0.9517916440963744,4.199653148651123,11.684890585288043,10.83769639032977,46.6763265493653,39.50186071144032,-3.23295607813634e-05,0.0906857252120971,0,0,0
3828,133110.53830157762,2010-10-24 02:22:09,2.499963768931799,4,12,0.9014016389846802,4.199814796447754,11.685376166701,10.83769639032977,46.67836584445039,39.50186071144032,0.0,0.0906857252120971,0,0,0
3829,133113.522747435,2010-10-24 02:22:12,5.484409626299392,4,12,0.8508310317993164,4.199653148651123,11.686101339694815,10.83769639032977,46.6814113381235,39.50186071144032,-3.23295607813634e-05,0.0906857252120971,0,0,0
3830,133117.61632778178,2010-10-24 02:22:17,9.57798999313674,4,12,0.8006216883659363,4.199491024017334,11.687039176977448,10.83769639032977,46.68534996335552,39.50186071144032,-3.24249267578125e-05,0.0906857252120971,0,0,0
3831,133123.05379046686,2010-10-24 02:22:22,15.015452683225885,4,12,0.7505928874015808,4.199653148651123,11.688209301461509,10.83769639032977,46.6902641369848,39.50186071144032,-3.23295607813634e-05,0.0906857252120971,0,0,0
3832,133130.06931120314,2010-10-24 02:22:29,22.03097350473488,4,12,0.7005641460418701,4.199491024017334,11.689621160287803,10.83769639032977,46.69619351079742,39.50186071144032,-6.47544875391759e-05,0.0906857252120971,0,0,0
3833,133139.35039482926,2010-10-24 02:22:38,31.312057010549367,4,12,0.6505353450775146,4.199814796447754,11.691359793767564,10.83769639032977,46.70349526955943,39.50186071144032,3.23295607813634e-05,0.0906857252120971,0,0,0
3834,133152.14730467612,2010-10-24 02:22:51,44.10896691754835,4,12,0.600506603717804,4.199653148651123,11.693578572349308,10.83769639032977,46.712813507246814,39.50186071144032,-3.23295607813634e-05,0.0906857252120971,0,0,0
3835,133171.20934280538,2010-10-24 02:23:10,63.17100498665906,4,12,0.5504778623580933,4.199653148651123,11.696617027836837,10.83769639032977,46.72557415315585,39.50186071144032,-3.23295607813634e-05,0.0906857252120971,0,0,0
3836,133203.0213575745,2010-10-24 02:23:42,94.98301975577594,4,12,0.5004490613937378,4.199814796447754,11.701240850988665,10.83769639032977,46.74499288743508,39.50186071144032,3.23295607813634e-05,0.0906857252120971,0,0,0
3837,133259.62992291735,2010-10-24 02:24:39,151.59158509863042,4,12,0.4504202902317047,4.199653148651123,11.708682188843202,10.83769639032977,46.77624439036302,39.50186071144032,0.0,0.0906857252120971,0,0,0
3838,133349.97240633372,2010-10-24 02:26:09,241.93406854506617,4,12,0.4003915190696716,4.199653148651123,11.719327198057885,10.83769639032977,46.82095045087138,39.50186071144032,0.0,0.0906857252120971,0,0,0
3839,133465.5489177321,2010-10-24 02:28:04,357.51057990337455,4,12,0.3503627479076385,4.199653148651123,11.731360388560429,10.83769639032977,46.8714864795856,39.50186071144032,0.0,0.0906857252120971,0,0,0
3840,133603.406496847,2010-10-24 02:30:22,495.36815903328295,4,12,0.3003339767456054,4.199491024017334,11.74380561805973,10.83769639032977,46.92375291009024,39.50186071144032,-6.47544875391759e-05,0.0906857252120971,0,0,0
3841,133768.65396734385,2010-10-24 02:33:08,660.6156295702366,4,12,0.2503052055835724,4.199653148651123,11.756424118622496,10.83769639032977,46.97674709415176,39.50186071144032,-3.23295607813634e-05,0.0906857252120971,0,0,0
3842,133971.088590773,2010-10-24 02:36:30,863.0502529993984,4,12,0.2002764493227005,4.199814796447754,11.769055560335982,10.83769639032977,47.02979563387973,39.50186071144032,0.0,0.0906857252120971,0,0,0
3843,134237.1629820902,2010-10-24 02:40:56,1129.1246442664797,4,12,0.1500670611858368,4.199491024017334,11.781944172405916,10.83769639032977,47.08392427162503,39.50186071144032,-3.24249267578125e-05,0.0906857252120971,0,0,0
3844,134635.53229678763,2010-10-24 02:47:34,1527.4939589739042,4,12,0.0996770784258842,4.199491024017334,11.795612265997244,10.83769639032977,47.1413264130463,39.50186071144032,-6.47544875391759e-05,0.0906857252120971,0,0,0
3845,135395.16228487523,2010-10-24 03:00:14,2287.1239470615224,4,12,0.0496483072638511,4.199653148651123,11.81074619419487,10.83769639032977,47.20488458354631,39.50186071144032,-3.23295607813634e-05,0.0906857252120971,0,0,0
3846,135425.18373142357,2010-10-24 03:00:44,30.0153796515932,5,12,0.0,4.192044734954834,11.81074619419487,10.83769639032977,47.20488458354631,39.50186071144032,-3.23295607813634e-05,0.0906857252120971,0,0,0
3847,135455.1832371274,2010-10-24 03:01:14,60.01488535542429,5,12,0.0,4.191073417663574,11.81074619419487,10.83769639032977,47.20488458354631,39.50186071144032,-3.23295607813634e-05,0.0906857252120971,0,0,0
3848,135455.37746787362,2010-10-24 03:01:15,0.187287994308893,6,12,-1.9243103452026844e-05,4.191235065460205,11.81074619419487,10.837696391330882,47.20488458354631,39.501860715636205,0.0,0.0930307656526565,0,0,0
3849,135460.20554393975,2010-10-24 03:01:19,5.015364040377556,6,12,0.0003419754502829,4.190749645233154,11.810747048749612,10.837696391414832,47.20488816498912,39.50186071598806,-6.47544875391759e-05,0.0930307656526565,0,0,0
3850,135490.22786275935,2010-10-24 03:01:49,30.01519761289676,7,12,-1.0997490882873535,4.018988609313965,11.810747048749612,10.846865274653542,47.20488816498912,39.53890367933572,-0.0009065627818927,0.0930307656526565,0,0,0
3851,135520.24310833178,2010-10-24 03:02:20,60.03044318532342,7,12,-1.0993878841400146,3.99308705329895,11.810747048749612,10.85603417567564,47.20488816498912,39.575625733903614,-0.0005503654247149,0.0930307656526565,0,0,0
3852,135550.25833541813,2010-10-24 03:02:50,90.04567032681452,7,12,-1.099929690361023,3.9747939109802246,11.810747048749612,10.8652029913413,47.20488816498912,39.61214977513364,-0.0004532813909463,0.0930307656526565,0,0,0
3853,135580.27345902156,2010-10-24 03:03:20,120.06079388013202,7,12,-1.099568486213684,3.960709810256958,11.810747048749612,10.87437175253998,47.20488816498912,39.648527837848846,-0.0003561496851034,0.0930307656526565,0,0,0
3854,135610.2886613061,2010-10-24 03:03:50,150.0759961997594,7,12,-1.0997490882873535,3.948730230331421,11.810747048749612,10.883540445836248,47.20488816498912,39.68478628482954,-0.0003237724304199,0.0930307656526565,0,0,0
3855,135640.30386327987,2010-10-24 03:04:20,180.09119814344982,7,12,-1.0997490882873535,3.9378838539123535,11.810747048749612,10.892709226587504,47.20488816498912,39.72094128355028,-0.0002913951757363,0.0930307656526565,0,0,0
3856,135670.3190825668,2010-10-24 03:04:50,210.1064174203399,7,12,-1.0997490882873535,3.928008794784546,11.810747048749612,10.901878021185196,47.20488816498912,39.75700171910636,-0.0002590179501567,0.0930307656526565,0,0,0
3857,135700.33436362768,2010-10-24 03:05:20,240.12169854637716,7,12,-1.099568486213684,3.918781280517578,11.810747048749612,10.911046717043089,47.20488816498912,39.79297329545483,-0.0002266406954731,0.0930307656526565,0,0,0
3858,135730.3494634819,2010-10-24 03:05:50,270.13679838057925,7,12,-1.0993878841400146,3.9097158908844,11.810747048749612,10.9202153143527,47.20488816498912,39.82886041286832,-0.0002266406954731,0.0930307656526565,0,0,0
3859,135760.36464003733,2010-10-24 03:06:20,300.15197490090685,7,12,-1.0997490882873535,3.9009740352630615,11.810747048749612,10.929383956609168,47.20488816498912,39.86466684102181,-0.0002266406954731,0.0930307656526565,0,0,0
3860,135790.38004893682,2010-10-24 03:06:50,330.1673837953824,7,12,-1.099568486213684,3.892555952072144,11.810747048749612,10.938552672965642,47.20488816498912,39.900395075113074,-0.0002590179501567,0.0930307656526565,0,0,0
3861,135820.39508529782,2010-10-24 03:07:20,360.1824201563897,7,12,-1.099568486213684,3.884299755096436,11.810747048749612,10.947721298911562,47.20488816498912,39.93604684225254,-0.0002266406954731,0.0930307656526565,0,0,0
3862,135850.41027310127,2010-10-24 03:07:50,390.1976079698634,7,12,-1.0993878841400146,3.8762054443359375,11.810747048749612,10.95689006520378,47.20488816498912,39.97162384064851,-0.0001942634553415,0.0930307656526565,0,0,0
3863,135880.42544599756,2010-10-24 03:08:20,420.2127808611462,7,12,-1.099929690361023,3.8679492473602295,11.810747048749612,10.966058765520184,47.20488816498912,40.00712654665495,-0.0002266406954731,0.0930307656526565,0,0,0
3864,135910.440818767,2010-10-24 03:08:50,450.228153640612,7,12,-1.099568486213684,3.860178709030152,11.810747048749612,10.975227559702123,47.20488816498912,40.042555780545456,-0.0001942634553415,0.0930307656526565,0,0,0
3865,135940.4558233789,2010-10-24 03:09:20,480.24315823244086,7,12,-1.099568486213684,3.852408170700073,11.810747048749612,10.98439581477936,47.20488816498912,40.07791055932339,-0.0001618862152099,0.0930307656526565,0,0,0
3866,135970.47102603936,2010-10-24 03:09:50,510.2583608929178,7,12,-1.099568486213684,3.844637632369995,11.810747048749612,10.993563861242295,47.20488816498912,40.11319401149552,-0.0002266406954731,0.0930307656526565,0,0,0
3867,136000.48621575758,2010-10-24 03:10:20,540.273550616151,7,12,-1.099568486213684,3.837190866470337,11.810747048749612,11.002732059200268,47.20488816498912,40.148408337152304,-0.0001942634553415,0.0930307656526565,0,0,0
3868,136030.5014267338,2010-10-24 03:10:50,570.2887615873408,7,12,-1.0997490882873535,3.829744338989258,11.810747048749612,11.01190008294267,47.20488816498912,40.1835537789241,-0.0001942634553415,0.0930307656526565,0,0,0
3869,136060.51661531418,2010-10-24 03:11:20,600.3039501727382,7,12,-1.099568486213684,3.82262134552002,11.810747048749612,11.021068107557175,47.20488816498912,40.21863213886857,-0.0001618862152099,0.0930307656526565,0,0,0
3870,136090.53182540816,2010-10-24 03:11:50,630.3191602667417,7,12,-1.0997490882873535,3.8153364658355713,11.810747048749612,11.030236156328758,47.20488816498912,40.253644427046,-0.0002266406954731,0.0930307656526565,0,0,0
3871,136120.54716325057,2010-10-24 03:12:20,660.3344981191585,7,12,-1.0997490882873535,3.808213472366333,11.810747048749612,11.039404410932027,47.20488816498912,40.28859233973156,-0.0001942634553415,0.0930307656526565,0,0,0
3872,136150.56229377628,2010-10-24 03:12:50,690.3496286799408,7,12,-1.099568486213684,3.801414251327514,11.810747048749612,11.04857302438092,47.20488816498912,40.323477279301045,-0.0002266406954731,0.0930307656526565,0,0,0
3873,136180.57742058768,2010-10-24 03:13:20,720.364755446266,7,12,-1.099929690361023,3.7944531440734863,11.810747048749612,11.057741611487904,47.20488816498912,40.358299816098665,-0.0002266406954731,0.0930307656526565,0,0,0
3874,136210.59261254148,2010-10-24 03:13:50,750.3799474000588,7,12,-1.0997490882873535,3.787977695465088,11.810747048749612,11.06691024838006,47.20488816498912,40.39306077777564,-0.0001942634553415,0.0930307656526565,0,0,0
3875,136240.6078135328,2010-10-24 03:14:20,780.395148396388,7,12,-1.0997490882873535,3.7815022468566895,11.810747048749612,11.076078885808604,47.20488816498912,40.42776124386522,-0.0001295089750783,0.0930307656526565,0,0,0
3876,136270.62306587712,2010-10-24 03:14:50,810.4104007707672,7,12,-1.0997490882873535,3.775026798248291,11.810747048749612,11.085247538285714,47.20488816498912,40.46240315774039,-0.0001942634553415,0.0930307656526565,0,0,0
3877,136300.63822470335,2010-10-24 03:15:20,840.425559581958,7,12,-1.099568486213684,3.7690370082855225,11.810747048749612,11.094416186047516,47.20488816498912,40.49698782959078,-0.0001618862152099,0.0930307656526565,0,0,0
3878,136330.6535497739,2010-10-24 03:15:50,870.4408847277061,7,12,-1.0997490882873535,3.762885332107544,11.810747048749612,11.103584843086017,47.20488816498912,40.531516398816855,-0.0001618862152099,0.0930307656526565,0,0,0
3879,136360.6687610308,2010-10-24 03:16:20,900.4560958993956,7,12,-1.099568486213684,3.756895542144776,11.810747048749612,11.11275357692241,47.20488816498912,40.56598961584139,-0.0001618862152099,0.0930307656526565,0,0,0
3880,136390.6838326296,2010-10-24 03:16:50,930.4711674882014,7,12,-1.0997490882873535,3.751067876815796,11.810747048749612,11.121922268324813,47.20488816498912,40.60040841793096,-0.0001618862152099,0.0930307656526565,0,0,0
3881,136420.6990881669,2010-10-24 03:17:20,960.4864231457632,7,12,-1.099568486213684,3.7454018592834473,11.810747048749612,11.13109098297782,47.20488816498912,40.634774093174336,-0.0001618862152099,0.0930307656526565,0,0,0
3882,136450.71421129914,2010-10-24 03:17:50,990.5015461928192,7,12,-1.099568486213684,3.739412069320679,11.810747048749612,11.140259655573033,47.20488816498912,40.66908707618588,-0.0001942634553415,0.0930307656526565,0,0,0
3883,136480.7294140298,2010-10-24 03:18:20,1020.5167489234708,7,12,-1.099568486213684,3.73406982421875,11.810747048749612,11.149428343086193,47.20488816498912,40.70334854828271,-0.0001295089750783,0.0930307656526565,0,0,0
3884,136510.7446263694,2010-10-24 03:18:50,1050.531961232996,7,12,-1.0997490882873535,3.7285656929016113,11.810747048749612,11.158597045236377,47.20488816498912,40.73755957345879,-0.0001295089750783,0.0930307656526565,0,0,0
3885,136540.7598091754,2010-10-24 03:19:20,1080.5471440440022,7,12,-1.099568486213684,3.7233853340148926,11.810747048749612,11.167765735039076,47.20488816498912,40.771721769441776,-0.0001295089750783,0.0930307656526565,0,0,0
3886,136570.7776586676,2010-10-24 03:19:50,1110.5649936464729,7,12,-1.099568486213684,3.717881202697754,11.810747048749612,11.176935221329495,47.20488816498912,40.80583750573679,-0.0001618862152099,0.0930307656526565,0,0,0
3887,136600.79044115628,2010-10-24 03:20:20,1140.5777760499243,7,12,-1.099568486213684,3.712538957595825,11.810747048749612,11.186103147541017,47.20488816498912,40.839899125463226,-0.0001618862152099,0.0930307656526565,0,0,0
3888,136630.80543543742,2010-10-24 03:20:50,1170.5927703009809,7,12,-1.0997490882873535,3.707520484924317,11.810747048749612,11.195271734796112,47.20488816498912,40.87391566640324,-0.0001618862152099,0.0930307656526565,0,0,0
3889,136660.82061108557,2010-10-24 03:21:20,1200.6079459792095,7,12,-1.099568486213684,3.702502012252808,11.810747048749612,11.204440366757042,47.20488816498912,40.90788548708006,-0.0001295089750783,0.0930307656526565,0,0,0
3890,136690.83596501302,2010-10-24 03:21:50,1230.6232999167155,7,12,-1.099568486213684,3.697483539581299,11.810747048749612,11.213609095817034,47.20488816498912,40.94180958595685,-9.713172767078504e-05,0.0930307656526565,0,0,0
3891,136720.85101605565,2010-10-24 03:22:20,1260.638350939264,7,12,-1.0997490882873535,3.69246506690979,11.810747048749612,11.222777683243953,47.20488816498912,40.975688168548096,-0.0001618862152099,0.0930307656526565,0,0,0
3892,136750.86643205283,2010-10-24 03:22:50,1290.6537669063666,7,12,-1.099568486213684,3.687608480453491,11.810747048749612,11.231946434217903,47.20488816498912,41.00952266154198,-0.0001618862152099,0.0930307656526565,0,0,0
3893,136780.88143244918,2010-10-24 03:23:20,1320.6687673127642,7,12,-1.0997490882873535,3.683075666427612,11.810747048749612,11.241115074499987,47.20488816498912,41.04331306762069,-0.0001295089750783,0.0930307656526565,0,0,0
3894,136810.89663633273,2010-10-24 03:23:50,1350.6839711962891,7,12,-1.0997490882873535,3.678380966186523,11.810747048749612,11.250283767006993,47.20488816498912,41.07706022900519,-0.0001295089750783,0.0930307656526565,0,0,0
3895,136840.9118146876,2010-10-24 03:24:20,1380.699149561214,7,12,-1.099568486213684,3.6736862659454346,11.810747048749612,11.259452453757184,47.20488816498912,41.11076469270018,-0.0001295089750783,0.0930307656526565,0,0,0
3896,136870.9270263054,2010-10-24 03:24:50,1410.714361163978,7,12,-1.0997490882873535,3.668991804122925,11.810747048749612,11.268621108354449,47.20488816498912,41.144426763277714,-0.0001295089750783,0.0930307656526565,0,0,0
3897,136900.94221406878,2010-10-24 03:25:20,1440.7295489273265,7,12,-1.0997490882873535,3.664620876312256,11.810747048749612,11.277789756050018,47.20488816498912,41.1780471428478,-9.713172767078504e-05,0.0930307656526565,0,0,0
3898,136930.9574196014,2010-10-24 03:25:50,1470.744754485024,7,12,-1.099568486213684,3.660249948501587,11.810747048749612,11.286958449928928,47.20488816498912,41.21162669990288,-0.0001295089750783,0.0930307656526565,0,0,0
3899,136960.97261070306,2010-10-24 03:26:20,1500.7599455616305,7,12,-1.099568486213684,3.655879020690918,11.810747048749612,11.2961270787364,47.20488816498912,41.2451655376049,-9.713172767078504e-05,0.0930307656526565,0,0,0
3900,136990.98783488717,2010-10-24 03:26:50,1530.775169750763,7,12,-1.099568486213684,3.651508092880249,11.810747048749612,11.305295741895018,47.20488816498912,41.278664735959616,-9.713172767078504e-05,0.0930307656526565,0,0,0
3901,137021.00301660047,2010-10-24 03:27:20,1560.7903514590207,7,12,-1.099568486213684,3.64729905128479,11.810747048749612,11.314464369603886,47.20488816498912,41.31212494389527,-0.0001295089750783,0.0930307656526565,0,0,0
3902,137051.0183345583,2010-10-24 03:27:50,1590.8056694218667,7,12,-1.099568486213684,3.643251895904541,11.810747048749612,11.323632936261191,47.20488816498912,41.3455466687557,-9.713172767078504e-05,0.0930307656526565,0,0,0
3903,137081.03343693883,2010-10-24 03:28:20,1620.82077193274,7,12,-1.0997490882873535,3.639042854309082,11.810747048749612,11.332801438068437,47.20488816498912,41.37893095118013,-9.713172767078504e-05,0.0930307656526565,0,0,0
3904,137111.0486426068,2010-10-24 03:28:50,1650.8359774603628,7,12,-1.0993878841400146,3.635157585144043,11.810747048749612,11.341970073220647,47.20488816498912,41.41227843820592,-0.0001295089750783,0.0930307656526565,0,0,0
3905,137141.0638092475,2010-10-24 03:29:20,1680.8511441060798,7,12,-1.0997490882873535,3.631110429763794,11.810747048749612,11.351138739462549,47.20488816498912,41.445589676968254,-0.0001618862152099,0.0930307656526565,0,0,0
3906,137171.07900363236,2010-10-24 03:29:50,1710.8663384909314,7,12,-1.099568486213684,3.627387046813965,11.810747048749612,11.360307385904711,47.20488816498912,41.47886537146735,-9.713172767078504e-05,0.0930307656526565,0,0,0
3907,137201.09423352068,2010-10-24 03:30:20,1740.8815684644808,7,12,-1.0997490882873535,3.623663663864136,11.810747048749612,11.369476070285549,47.20488816498912,41.51210639203548,-9.713172767078504e-05,0.0930307656526565,0,0,0
3908,137231.1094164921,2010-10-24 03:30:50,1770.896751350674,7,12,-1.0997490882873535,3.619940280914306,11.810747048749612,11.37864471020066,47.20488816498912,41.54531336745669,-9.713172767078504e-05,0.0930307656526565,0,0,0
3909,137261.1246090925,2010-10-24 03:31:20,1800.9119439761405,7,12,-1.0997490882873535,3.616378784179688,11.810747048749612,11.387813370624428,47.20488816498912,41.578487248530486,-9.713172767078504e-05,0.0930307656526565,0,0,0
3910,137291.1399431705,2010-10-24 03:31:50,1830.927278149388,7,12,-1.099568486213684,3.6126554012298575,11.810747048749612,11.396982067492983,47.20488816498912,41.61162848849524,-0.0001295089750783,0.0930307656526565,0,0,0
3911,137321.15500932577,2010-10-24 03:32:20,1860.942344189364,7,12,-1.099568486213684,3.609417676925659,11.810747048749612,11.406150645762985,47.20488816498912,41.64473755251728,-9.713172767078504e-05,0.0930307656526565,0,0,0
3912,137351.1702169286,2010-10-24 03:32:50,1890.957551822234,7,12,-1.0997490882873535,3.60601806640625,11.810747048749612,11.415319311367652,47.20488816498912,41.67781625189176,-0.0001295089750783,0.0930307656526565,0,0,0
3913,137381.1854053185,2010-10-24 03:33:20,1920.972740172044,7,12,-1.0997490882873535,3.6029422283172607,11.810747048749612,11.424487958927411,47.20488816498912,41.71086453259528,-9.713172767078504e-05,0.0930307656526565,0,0,0
3914,137411.20062029967,2010-10-24 03:33:50,1950.9879551983408,7,12,-1.0997490882873535,3.599542617797852,11.810747048749612,11.433656597078295,47.20488816498912,41.7438831692968,-9.713172767078504e-05,0.0930307656526565,0,0,0
3915,137441.21580746153,2010-10-24 03:34:21,1981.0031423251023,7,12,-1.0997490882873535,3.5966286659240723,11.810747048749612,11.442825249840476,47.20488816498912,41.77687280922333,-3.237724376958795e-05,0.0930307656526565,0,0,0
3916,137471.2311400759,2010-10-24 03:34:51,2011.0184749494897,7,12,-1.0997490882873535,3.593390941619873,11.810747048749612,11.451993964491871,47.20488816498912,41.80983419266859,-9.713172767078504e-05,0.0930307656526565,0,0,0
3917,137501.24619540418,2010-10-24 03:35:21,2041.0335302677445,7,12,-1.0997490882873535,3.590315341949463,11.810747048749612,11.461162619298628,47.20488816498912,41.84276734555542,-9.713172767078504e-05,0.0930307656526565,0,0,0
3918,137531.26152093086,2010-10-24 03:35:51,2071.048855794442,7,12,-1.0997490882873535,3.587401390075684,11.810747048749612,11.470331301869722,47.20488816498912,41.87567295395046,-9.713172767078504e-05,0.0930307656526565,0,0,0
3919,137561.27657883053,2010-10-24 03:36:21,2101.063913724205,7,12,-1.099568486213684,3.5844874382019043,11.810747048749612,11.4795000160254,47.20488816498912,41.90855136166319,-6.47544875391759e-05,0.0930307656526565,0,0,0
3920,137591.29179131554,2010-10-24 03:36:51,2131.07912617408,7,12,-1.099568486213684,3.581573486328125,11.810747048749612,11.488668657952507,47.20488816498912,41.94140256186554,-3.237724376958795e-05,0.0930307656526565,0,0,0
3921,137621.3070164069,2010-10-24 03:37:21,2161.0943512804997,7,12,-1.0997490882873535,3.5786595344543457,11.810747048749612,11.497837328095583,47.20488816498912,41.97422687822015,-6.47544875391759e-05,0.0930307656526565,0,0,0
3922,137651.32217982455,2010-10-24 03:37:51,2191.109514713208,7,12,-1.0997490882873535,3.5755836963653564,11.810747048749612,11.507005989680614,47.20488816498912,42.00702437545393,-0.0001295089750783,0.0930307656526565,0,0,0
3923,137681.3373777332,2010-10-24 03:38:21,2221.1247126168296,7,12,-1.0997490882873535,3.572669744491577,11.810747048749612,11.516175194823267,47.20488816498912,42.0397966120483,-0.0001295089750783,0.0930307656526565,0,0,0
3924,137711.35288103297,2010-10-24 03:38:51,2251.140215896542,7,12,-1.099568486213684,3.569755792617798,11.810747048749612,11.525344713450703,47.20488816498912,42.07254305622812,-9.713172767078504e-05,0.0930307656526565,0,0,0
3925,137741.36780717928,2010-10-24 03:39:21,2281.1551420629107,7,12,-1.099929690361023,3.5666799545288086,11.810747048749612,11.534513493175917,47.20488816498912,42.10526010652958,-0.0001295089750783,0.0930307656526565,0,0,0
3926,137771.38300526337,2010-10-24 03:39:51,2311.1703401219197,7,12,-1.0997490882873535,3.56360411643982,11.810747048749612,11.543682155157008,47.20488816498912,42.13794946679904,-0.0001295089750783,0.0930307656526565,0,0,0
3927,137801.39821843003,2010-10-24 03:40:21,2341.1855533437183,7,12,-1.0997490882873535,3.56085205078125,11.810747048749612,11.552850860961378,47.20488816498912,42.17061179070098,-9.713172767078504e-05,0.0930307656526565,0,0,0
3928,137831.41343844376,2010-10-24 03:40:51,2371.200773297295,7,12,-1.099568486213684,3.5577762126922607,11.810747048749612,11.562019526473971,47.20488816498912,42.203246079736594,-6.47544875391759e-05,0.0930307656526565,0,0,0
3929,137861.42860693907,2010-10-24 03:41:21,2401.215941832722,7,12,-1.0997490882873535,3.554862260818481,11.810747048749612,11.571188234310766,47.20488816498912,42.23585214133142,-6.47544875391759e-05,0.0930307656526565,0,0,0
3930,137891.443814201,2010-10-24 03:41:51,2431.2311490696043,7,12,-1.0997490882873535,3.5513007640838623,11.810747048749612,11.580356944575447,47.20488816498912,42.26842912701109,-0.0001295089750783,0.0930307656526565,0,0,0
3931,137921.45912627416,2010-10-24 03:42:21,2461.2464611578084,7,12,-1.099568486213684,3.548224925994873,11.810747048749612,11.589525681664307,47.20488816498912,42.30097656900227,-6.47544875391759e-05,0.0930307656526565,0,0,0
3932,137951.47420962233,2010-10-24 03:42:51,2491.2615444858725,7,12,-1.0997490882873535,3.544987201690674,11.810747048749612,11.598694341823498,47.20488816498912,42.33349357449329,-3.237724376958795e-05,0.0930307656526565,0,0,0
3933,137981.48952285835,2010-10-24 03:43:21,2521.276857747,7,12,-1.0997490882873535,3.5414257049560547,11.810747048749612,11.607863047159134,47.20488816498912,42.36597962195023,-9.713172767078504e-05,0.0930307656526565,0,0,0
3934,138011.50471962916,2010-10-24 03:43:51,2551.292054492736,7,12,-1.099568486213684,3.538026094436645,11.810747048749612,11.617031831211362,47.20488816498912,42.39843399757394,-6.47544875391759e-05,0.0930307656526565,0,0,0
3935,138041.51993924688,2010-10-24 03:44:21,2581.3072741205,7,12,-1.0997490882873535,3.5341408252716064,11.810747048749612,11.626200573702626,47.20488816498912,42.43085528822525,-9.713172767078504e-05,0.0930307656526565,0,0,0
3936,138071.53501952736,2010-10-24 03:44:51,2611.322354395956,7,12,-1.0993878841400146,3.5305793285369877,11.810747048749612,11.635369248914753,47.20488816498912,42.46324228526671,-9.713172767078504e-05,0.0930307656526565,0,0,0
3937,138101.55034444254,2010-10-24 03:45:21,2641.337679306117,7,12,-1.0997490882873535,3.5265321731567383,11.810747048749612,11.64453802359112,47.20488816498912,42.49559416442133,-6.47544875391759e-05,0.0930307656526565,0,0,0
3938,138131.5653907283,2010-10-24 03:45:51,2671.352725586848,7,12,-1.0997490882873535,3.5224850177764893,11.810747048749612,11.653706735046695,47.20488816498912,42.52790879877893,-9.713172767078504e-05,0.0930307656526565,0,0,0
3939,138161.58059226596,2010-10-24 03:46:21,2701.367927124526,7,12,-1.0997490882873535,3.5179522037506104,11.810747048749612,11.662875431746452,47.20488816498912,42.56018431314018,-0.0001295089750783,0.0930307656526565,0,0,0
3940,138191.59596217828,2010-10-24 03:46:51,2731.383297051884,7,12,-1.0997490882873535,3.5134193897247314,11.810747048749612,11.672044255311926,47.20488816498912,42.59241884830025,-9.713172767078504e-05,0.0930307656526565,0,0,0
3941,138221.61112467866,2010-10-24 03:47:21,2761.398459547256,7,12,-1.0997490882873535,3.508239269256592,11.810747048749612,11.681212947283608,47.20488816498912,42.62460873704617,-0.0001295089750783,0.0930307656526565,0,0,0
3942,138251.626456882,2010-10-24 03:47:51,2791.413791785681,7,12,-1.099929690361023,3.502735137939453,11.810747048749612,11.690381722189054,47.20488816498912,42.65675076035134,-0.0001618862152099,0.0930307656526565,0,0,0
3943,138281.64140639157,2010-10-24 03:48:21,2821.4287412501158,7,12,-1.0997490882873535,3.4969072341918945,11.810747048749612,11.699550446953037,47.20488816498912,42.688839932415945,-0.0001295089750783,0.0930307656526565,0,0,0
3944,138311.6566095382,2010-10-24 03:48:51,2851.443944431892,7,12,-1.0997490882873535,3.490108013153076,11.810747048749612,11.708719176663031,47.20488816498912,42.7208708646544,-0.0001942634553415,0.0930307656526565,0,0,0
3945,138341.6718181786,2010-10-24 03:49:21,2881.4591530722723,7,12,-1.0997490882873535,3.482499361038208,11.810747048749612,11.717887852363264,47.20488816498912,42.75283644054549,-0.0002266406954731,0.0930307656526565,0,0,0
3946,138371.68701583662,2010-10-24 03:49:51,2911.4743507403064,7,12,-1.0997490882873535,3.47359561920166,11.810747048749612,11.727056564962142,47.20488816498912,42.78472745413713,-0.0002590179501567,0.0930307656526565,0,0,0
3947,138401.70218950484,2010-10-24 03:50:21,2941.489524358401,7,12,-1.0997490882873535,3.4637205600738525,11.810747048749612,11.736225175943964,47.20488816498912,42.81653257996639,-0.0002913951757363,0.0930307656526565,0,0,0
3948,138431.7175412168,2010-10-24 03:50:51,2971.504876100435,7,12,-1.099568486213684,3.452064752578736,11.810747048749612,11.7453939224611,47.20488816498912,42.84823848267598,-0.0003237724304199,0.0930307656526565,0,0,0
3949,138461.73261759256,2010-10-24 03:51:21,3001.519952456121,7,12,-1.0997490882873535,3.437656879425049,11.810747048749612,11.754562568264628,47.20488816498912,42.87982542933933,-0.0004209041653666,0.0930307656526565,0,0,0
3950,138491.75039860405,2010-10-24 03:51:51,3031.5377335829294,7,12,-1.099568486213684,3.420011520385742,11.810747048749612,11.763732013116734,47.20488816498912,42.91126946014292,-0.0005180359003134,0.0930307656526565,0,0,0
3951,138521.76321807993,2010-10-24 03:52:21,3061.5505529735647,7,12,-1.0997490882873535,3.397023677825928,11.810747048749612,11.772899941721104,47.20488816498912,42.94252307339483,-0.0006475448608398,0.0930307656526565,0,0,0
3952,138551.77821663168,2010-10-24 03:52:51,3091.5655515153157,7,12,-1.0997490882873535,3.3659415245056152,11.810747048749612,11.782068503136047,47.20488816498912,42.9735345217418,-0.0009713172912597,0.0930307656526565,0,0,0
3953,138581.79353877495,2010-10-24 03:53:21,3121.580873648555,7,12,-1.0997490882873535,3.322232484817505,11.810747048749612,11.791237259316668,47.20488816498912,43.004208279999,-0.0013274669181555,0.0930307656526565,0,0,0
3954,138611.80859145662,2010-10-24 03:53:51,3151.595926320213,7,12,-1.099568486213684,3.260230302810669,11.810747048749612,11.800405869141454,47.20488816498912,43.03440216468331,-0.0019102573860436,0.0930307656526565,0,0,0
3955,138641.82379233264,2010-10-24 03:54:21,3181.611127196243,7,12,-1.099568486213684,3.1684410572052,11.810747048749612,11.809574608876174,47.20488816498912,43.06390171773578,-0.0028815746773034,0.0930307656526565,0,0,0
3956,138671.83920796393,2010-10-24 03:54:51,3211.626542852571,7,12,-1.099568486213684,3.0190205574035645,11.810747048749612,11.818743412012688,47.20488816498912,43.09233343431243,-0.0051155565306544,0.0930307656526565,0,0,0
3957,138691.60433458106,2010-10-24 03:55:11,3231.391669444616,7,12,-1.0997490882873535,2.818767786026001,11.810747048749612,11.824781064431209,47.20488816498912,43.11002850254448,-0.0105549339205026,0.0930307656526565,0,0,0
3958,138699.43246005336,2010-10-24 03:55:19,3239.219794947021,7,12,-1.0997490882873535,2.699781894683838,11.810747048749612,11.827172320569504,47.20488816498912,43.116629563442174,-0.0124651910737156,0.0930307656526565,0,0,0
3959,138759.45332386965,2010-10-24 03:56:19,60.01476313581541,8,12,0.0,3.318023443222046,11.810747048749612,11.827172320569504,47.20488816498912,43.116629563442174,0.0013598442310467,0.0930307656526565,0,0,0
3960,138759.6479909111,2010-10-24 03:56:19,0.187615079505845,9,12,-0.001102898735553,3.3186709880828857,11.810747048749612,11.827172378047404,47.20488816498912,43.11662975419241,0.0,0.0914954170584678,0,0,0
3961,138764.47593154467,2010-10-24 03:56:24,5.01555573313489,9,12,0.0007031940040178,3.326279640197754,11.810747917251152,11.82717238329214,47.20489105085994,43.116629771599655,0.0011979580158367,0.0914954170584678,0,0,0
