Data_Point,Test_Time(s),Date_Time,Step_Time(s),Step_Index,Cycle_Index,Current(A),Voltage(V),Charge_Capacity(Ah),Discharge_Capacity(Ah),Charge_Energy(Wh),Discharge_Energy(Wh),dV/dt(V/s),Internal_Resistance(Ohm),Is_FC_Data,AC_Impedance(Ohm),ACI_Phase_Angle(Deg)
15047,527584.2971408168,2010-10-28 15:57:27,30.01508175414109,1,47,0.0,3.403499126434326,44.91565945762229,44.9221672883784,179.53106399083117,163.5397048178639,0.0007770538213662,0.0945633500814437,0,0,0
15048,527614.3123268108,2010-10-28 15:57:58,60.03026774807983,1,47,0.0,3.4274582862854004,44.91565945762229,44.9221672883784,179.53106399083117,163.5397048178639,0.0005504131549969,0.0945633500814437,0,0,0
15049,527644.3274033971,2010-10-28 15:58:28,90.04534435940343,1,47,0.0,3.445265531539917,44.91565945762229,44.9221672883784,179.53106399083117,163.5397048178639,0.0003885269106831,0.0945633500814437,0,0,0
15050,527674.295768965,2010-10-28 15:58:57,120.01370990738457,1,47,0.0,3.4596734046936035,44.91565945762229,44.9221672883784,179.53106399083117,163.5397048178639,0.0003237724304199,0.0945633500814437,0,0,0
15051,527704.3318328331,2010-10-28 15:59:28,30.01527553710787,2,47,0.5501165986061096,3.6165406703948975,44.92024591297541,44.9221672883784,179.54749324025775,163.5397048178639,0.0015217304462566,0.0945633500814437,0,0,0
15052,527734.346868337,2010-10-28 15:59:58,60.03031106102903,2,47,0.5501165986061096,3.663002014160156,44.924832315439424,44.9221672883784,179.56419351499034,163.5397048178639,0.0010684489971026,0.0945633500814437,0,0,0
15053,527764.36233279,2010-10-28 16:00:28,90.04577548891082,2,47,0.5501165986061096,3.696188449859619,44.92941875870095,44.9221672883784,179.58107287271514,163.5397048178639,0.0008094310760498,0.0945633500814437,0,0,0
15054,527794.3771527617,2010-10-28 16:00:58,120.06059551073444,2,47,0.5499359965324402,3.721928358078003,44.93400506051668,44.9221672883784,179.59808590035303,163.5397048178639,0.0005827903514727,0.0945633500814437,0,0,0
15055,527824.3922937986,2010-10-28 16:01:28,150.07573651755143,2,47,0.5501165986061096,3.743135452270508,44.93859143099737,44.9221672883784,179.61520638805183,163.5397048178639,0.0004856586456298,0.0945633500814437,0,0,0
15056,527854.4074388355,2010-10-28 16:01:58,180.09088157446251,2,47,0.5501165986061096,3.760133266448975,44.94317776915814,44.9221672883784,179.63241426563016,163.5397048178639,0.0004209041653666,0.0945633500814437,0,0,0
15057,527884.4227446379,2010-10-28 16:02:28,210.10618737198865,2,47,0.5501165986061096,3.7722747325897217,44.9477641405057,44.9221672883784,179.64968980498767,163.5397048178639,0.0002590179501567,0.0945633500814437,0,0,0
15058,527914.437733225,2010-10-28 16:02:58,240.12117594389093,2,47,0.5501165986061096,3.77972149848938,44.95235047667166,44.9221672883784,179.66700931147582,163.5397048178639,0.0001618862152099,0.0945633500814437,0,0,0
15059,527944.4529009484,2010-10-28 16:03:28,270.1363436672939,2,47,0.5501165986061096,3.7847399711608887,44.956936811243374,44.9221672883784,179.68435605740393,163.5397048178639,0.0001295089750783,0.0945633500814437,0,0,0
15060,527974.4680460253,2010-10-28 16:03:58,300.15148878435485,2,47,0.550297200679779,3.7887871265411377,44.96152315458632,44.9221672883784,179.70172331727986,163.5397048178639,9.713172767078504e-05,0.0945633500814437,0,0,0
15061,528004.483191393,2010-10-28 16:04:28,330.16663411194054,2,47,0.5501165986061096,3.7926723957061768,44.966109533539935,44.9221672883784,179.71910916489483,163.5397048178639,9.713172767078504e-05,0.0945633500814437,0,0,0
15062,528034.4983227307,2010-10-28 16:04:58,360.1817654496592,2,47,0.5501165986061096,3.796557664871216,44.97069587090154,44.9221672883784,179.73651266563607,163.5397048178639,9.713172767078504e-05,0.0945633500814437,0,0,0
15063,528064.5134717224,2010-10-28 16:05:28,390.19691443636447,2,47,0.550297200679779,3.800281047821045,44.97528216979331,44.9221672883784,179.7539334726603,163.5397048178639,6.47544875391759e-05,0.0945633500814437,0,0,0
15064,528094.5286223182,2010-10-28 16:05:58,420.2120650571424,2,47,0.5499359965324402,3.804004430770874,44.97986851938775,44.9221672883784,179.771371615826,163.5397048178639,9.713172767078504e-05,0.0945633500814437,0,0,0
15065,528124.5437727985,2010-10-28 16:06:28,450.2272154824332,2,47,0.550297200679779,3.807727813720703,44.9844548446762,44.9221672883784,179.7888263554436,163.5397048178639,9.713172767078504e-05,0.0945633500814437,0,0,0
15066,528154.5589266374,2010-10-28 16:06:58,480.2423693563188,2,47,0.5501165986061096,3.811127424240112,44.989041268311645,44.9221672883784,179.80629789341472,163.5397048178639,6.47544875391759e-05,0.0945633500814437,0,0,0
15067,528184.5767438791,2010-10-28 16:07:28,510.2601865931244,2,47,0.5499359965324402,3.8145270347595215,44.99362802839918,44.9221672883784,179.8237868005179,163.5397048178639,3.237724376958795e-05,0.0945633500814437,0,0,0
15068,528214.58922633,2010-10-28 16:07:58,540.272669044002,2,47,0.5497553944587708,3.81792664527893,44.99821392492732,44.9221672883784,179.84128833792647,163.5397048178639,6.47544875391759e-05,0.0945633500814437,0,0,0
15069,528244.6044985589,2010-10-28 16:08:28,570.2879412628397,2,47,0.5501165986061096,3.82132625579834,45.00280021982783,44.9221672883784,179.85880680620463,163.5397048178639,6.47544875391759e-05,0.0945633500814437,0,0,0
15070,528274.6195163486,2010-10-28 16:08:58,600.3029591477991,2,47,0.5499359965324402,3.824725866317749,45.00738660899103,44.9221672883784,179.87634089273917,163.5397048178639,6.47544875391759e-05,0.0945633500814437,0,0,0
15071,528304.6346687638,2010-10-28 16:09:28,630.3181114577872,2,47,0.550297200679779,3.828125476837158,45.01197295187964,44.9221672883784,179.893889891838,163.5397048178639,0.0001295089750783,0.0945633500814437,0,0,0
15072,528334.649797044,2010-10-28 16:09:58,660.3332397529226,2,47,0.5501165986061096,3.831363201141357,45.016559270168,44.9221672883784,179.91145387177576,163.5397048178639,0.0001295089750783,0.0945633500814437,0,0,0
15073,528364.6649779452,2010-10-28 16:10:28,690.3484206591813,2,47,0.550297200679779,3.8346006870269775,45.021145620013165,44.9221672883784,179.92903302900132,163.5397048178639,9.713172767078504e-05,0.0945633500814437,0,0,0
15074,528394.6801172177,2010-10-28 16:10:58,720.3635599667633,2,47,0.5501165986061096,3.8380002975463863,45.02573198583454,44.9221672883784,179.94662757597564,163.5397048178639,0.0001295089750783,0.0945633500814437,0,0,0
15075,528424.6952427811,2010-10-28 16:11:28,750.378685484978,2,47,0.5497553944587708,3.841238021850586,45.03031837157951,44.9221672883784,179.9642376649395,163.5397048178639,6.47544875391759e-05,0.0945633500814437,0,0,0
15076,528454.7103805247,2010-10-28 16:11:58,780.3938232386872,2,47,0.5501165986061096,3.844961404800415,45.034904690312,44.9221672883784,179.9818632275575,163.5397048178639,0.0001618862152099,0.0945633500814437,0,0,0
15077,528484.7255429148,2010-10-28 16:12:28,810.408985628798,2,47,0.5501165986061096,3.8481991291046143,45.03949099057235,44.9221672883784,179.99950457883384,163.5397048178639,6.47544875391759e-05,0.0945633500814437,0,0,0
15078,528514.7408960554,2010-10-28 16:12:58,840.4243387843549,2,47,0.5501165986061096,3.8517606258392334,45.04407738581149,44.9221672883784,180.017162194736,163.5397048178639,6.47544875391759e-05,0.0945633500814437,0,0,0
15079,528544.7559540052,2010-10-28 16:13:28,870.4393966990808,2,47,0.5499359965324402,3.8551602363586426,45.04866367136972,44.9221672883784,180.03483509847322,163.5397048178639,9.713172767078504e-05,0.0945633500814437,0,0,0
15080,528574.7710087771,2010-10-28 16:13:58,900.4544514960363,2,47,0.550297200679779,3.858559846878052,45.05325003105098,44.9221672883784,180.0525239385833,163.5397048178639,9.713172767078504e-05,0.0945633500814437,0,0,0
15081,528604.7861511022,2010-10-28 16:14:28,930.469593801089,2,47,0.5501165986061096,3.861797571182251,45.05783639945802,44.9221672883784,180.07022811476577,163.5397048178639,6.47544875391759e-05,0.0945633500814437,0,0,0
15082,528634.8012596782,2010-10-28 16:14:58,960.4847023670532,2,47,0.5501165986061096,3.86503529548645,45.0624227704708,44.9221672883784,180.08794741843192,163.5397048178639,9.713172767078504e-05,0.0945633500814437,0,0,0
15083,528664.8164151561,2010-10-28 16:15:28,990.499857869999,2,47,0.5501165986061096,3.8682730197906494,45.06700908966721,44.9221672883784,180.1056812550108,163.5397048178639,6.47544875391759e-05,0.0945633500814437,0,0,0
15084,528694.8316784175,2010-10-28 16:15:58,1020.5151211365248,2,47,0.5501165986061096,3.871348857879639,45.07159541103012,44.9221672883784,180.123429554698,163.5397048178639,6.47544875391759e-05,0.0945633500814437,0,0,0
15085,528724.8469163209,2010-10-28 16:16:28,1050.5303590398378,2,47,0.5501165986061096,3.874424695968628,45.076181789894,44.9221672883784,180.14119222133584,163.5397048178639,9.713172767078504e-05,0.0945633500814437,0,0,0
15086,528754.8618506676,2010-10-28 16:16:58,1080.5452933815818,2,47,0.550297200679779,3.877500534057617,45.08076815855454,44.9221672883784,180.1589685088424,163.5397048178639,0.0001295089750783,0.0945633500814437,0,0,0
15087,528784.8771456783,2010-10-28 16:17:28,1110.5605883771864,2,47,0.5499359965324402,3.880090713500977,45.085354592446045,44.9221672883784,180.1767582642057,163.5397048178639,9.713172767078504e-05,0.0945633500814437,0,0,0
15088,528814.8921425659,2010-10-28 16:17:58,1140.5755852598013,2,47,0.550297200679779,3.883004665374756,45.08994094425287,44.9221672883784,180.19456035148525,163.5397048178639,9.713172767078504e-05,0.0945633500814437,0,0,0
15089,528844.9072910413,2010-10-28 16:18:28,1170.5907337552824,2,47,0.5501165986061096,3.8852710723876953,45.094527340415645,44.9221672883784,180.2123746965008,163.5397048178639,3.237724376958795e-05,0.0945633500814437,0,0,0
15090,528874.9223951412,2010-10-28 16:18:58,1200.605837855116,2,47,0.5501165986061096,3.8880231380462646,45.09911365552223,44.9221672883784,180.2302001312471,163.5397048178639,9.713172767078504e-05,0.0945633500814437,0,0,0
15091,528904.9375836664,2010-10-28 16:19:28,1230.6210263603134,2,47,0.5501165986061096,3.890127658843994,45.103699990773,44.9221672883784,180.24803643441004,163.5397048178639,6.47544875391759e-05,0.0945633500814437,0,0,0
15092,528934.9527745625,2010-10-28 16:19:58,1260.63621725647,2,47,0.5501165986061096,3.8923940658569336,45.10828636108917,44.9221672883784,180.26588302962384,163.5397048178639,6.47544875391759e-05,0.0945633500814437,0,0,0
15093,528964.9682755265,2010-10-28 16:20:28,1290.651718225423,2,47,0.5501165986061096,3.894174814224243,45.11287282866572,44.9221672883784,180.2837394951726,163.5397048178639,0.0,0.0945633500814437,0,0,0
15094,528994.9832142793,2010-10-28 16:20:58,1320.6666570182608,2,47,0.5499359965324402,3.8961174488067623,45.1174591891376,44.9221672883784,180.30160400747496,163.5397048178639,3.237724376958795e-05,0.0945633500814437,0,0,0
15095,529024.998209207,2010-10-28 16:21:28,1350.6816519259537,2,47,0.5501165986061096,3.8977363109588623,45.12204552133383,44.9221672883784,180.3194767289431,163.5397048178639,3.237724376958795e-05,0.0945633500814437,0,0,0
15096,529055.0133581436,2010-10-28 16:21:58,1380.6968008374718,2,47,0.550297200679779,3.899355173110962,45.12663193662521,44.9221672883784,180.3373575040704,163.5397048178639,0.0,0.0945633500814437,0,0,0
15097,529085.028537541,2010-10-28 16:22:28,1410.7119802349705,2,47,0.5499359965324402,3.9009740352630615,45.13121830052968,44.9221672883784,180.35524534152336,163.5397048178639,3.237724376958795e-05,0.0945633500814437,0,0,0
15098,529115.0294416101,2010-10-28 16:22:58,1440.7128843340324,2,47,0.5501165986061096,3.902592897415161,45.13580247837417,44.9221672883784,180.37313162047292,163.5397048178639,6.47544875391759e-05,0.0945633500814437,0,0,0
15099,529145.0441311116,2010-10-28 16:23:28,1470.7275739558593,2,47,0.5501165986061096,3.903726100921631,45.14038882799144,44.9221672883784,180.3910329240196,163.5397048178639,0.0,0.0945633500814437,0,0,0
15100,529175.058339083,2010-10-28 16:23:58,1500.7417818019526,2,47,0.5501165986061096,3.905183076858521,45.14497512406846,44.9221672883784,180.40894045425136,163.5397048178639,0.0,0.0945633500814437,0,0,0
15101,529205.0734607516,2010-10-28 16:24:28,1530.7569035006477,2,47,0.5499359965324402,3.9064781665802,45.14956149594445,44.9221672883784,180.42685432163492,163.5397048178639,3.237724376958795e-05,0.0945633500814437,0,0,0
15102,529235.0888632803,2010-10-28 16:24:58,1560.7723059791326,2,47,0.550297200679779,3.90793514251709,45.154148516503966,44.9221672883784,180.4447769667951,163.5397048178639,3.237724376958795e-05,0.0945633500814437,0,0,0
15103,529265.1037513717,2010-10-28 16:25:28,1590.7871940655943,2,47,0.550297200679779,3.9092302322387695,45.15873568769638,44.9221672883784,180.4627062492826,163.5397048178639,3.237724376958795e-05,0.0945633500814437,0,0,0
15104,529295.1188642936,2010-10-28 16:25:58,1620.80230699744,2,47,0.550297200679779,3.910525321960449,45.16332217360078,44.9221672883784,180.48063885858616,163.5397048178639,0.0,0.0945633500814437,0,0,0
15105,529325.1341705422,2010-10-28 16:26:28,1650.817613241078,2,47,0.5501165986061096,3.911820411682129,45.16790850124994,44.9221672883784,180.4985767861225,163.5397048178639,0.0,0.0945633500814437,0,0,0
15106,529355.1493321804,2010-10-28 16:26:58,1680.8327749194143,2,47,0.550297200679779,3.9132773876190186,45.172494823387645,44.9221672883784,180.51652079417067,163.5397048178639,6.47544875391759e-05,0.0945633500814437,0,0,0
15107,529385.1644027467,2010-10-28 16:27:29,1710.8478454555968,2,47,0.5499359965324402,3.914410352706909,45.17708116166149,44.9221672883784,180.53447096894436,163.5397048178639,-3.237724376958795e-05,0.0945633500814437,0,0,0
15108,529415.179652705,2010-10-28 16:27:59,1740.8630954039295,2,47,0.5499359965324402,3.915705442428589,45.18166759610968,44.9221672883784,180.5524275702892,163.5397048178639,3.237724376958795e-05,0.0945633500814437,0,0,0
15109,529445.1946985997,2010-10-28 16:28:29,1770.8781414089733,2,47,0.5501165986061096,3.9171624183654794,45.18625390925392,44.9221672883784,180.5703897168468,163.5397048178639,3.237724376958795e-05,0.0945633500814437,0,0,0
15110,529475.2098530651,2010-10-28 16:28:59,1800.8932957590457,2,47,0.550297200679779,3.918619394302368,45.19084016905291,44.9221672883784,180.5883578902133,163.5397048178639,9.713172767078504e-05,0.0945633500814437,0,0,0
15111,529505.2249751498,2010-10-28 16:29:29,1830.9084178437024,2,47,0.5499359965324402,3.919914484024048,45.19542651350888,44.9221672883784,180.60633266203664,163.5397048178639,6.47544875391759e-05,0.0945633500814437,0,0,0
15112,529535.2401198308,2010-10-28 16:29:59,1860.9235625246768,2,47,0.5499359965324402,3.921209573745728,45.20001289334124,44.9221672883784,180.6243138302368,163.5397048178639,3.237724376958795e-05,0.0945633500814437,0,0,0
15113,529565.2552863312,2010-10-28 16:30:29,1890.9387290200195,2,47,0.550297200679779,3.922666549682617,45.20459923548666,44.9221672883784,180.64230114139005,163.5397048178639,3.237724376958795e-05,0.0945633500814437,0,0,0
15114,529595.27042015,2010-10-28 16:30:59,1920.9538628689968,2,47,0.5501165986061096,3.924123525619507,45.20918557326886,44.9221672883784,180.66029472985372,163.5397048178639,6.47544875391759e-05,0.0945633500814437,0,0,0
15115,529625.2855525203,2010-10-28 16:31:29,1950.9689952392887,2,47,0.5501165986061096,3.925256729125977,45.21377191737784,44.9221672883784,180.67829478496063,163.5397048178639,0.0,0.0945633500814437,0,0,0
15116,529655.3007082087,2010-10-28 16:31:59,1980.984150957772,2,47,0.550297200679779,3.926875591278076,45.21835828622992,44.9221672883784,180.6963012696516,163.5397048178639,3.237724376958795e-05,0.0945633500814437,0,0,0
15117,529685.3158467795,2010-10-28 16:32:29,2010.99928947338,2,47,0.5499359965324402,3.928332567214966,45.222944630141946,44.9221672883784,180.71431419965532,163.5397048178639,6.47544875391759e-05,0.0945633500814437,0,0,0
15118,529715.3313876629,2010-10-28 16:32:59,2041.014830517212,2,47,0.5501165986061096,3.929789543151856,45.22753024959256,44.9221672883784,180.7323306178529,163.5397048178639,9.713172767078504e-05,0.0945633500814437,0,0,0
15119,529745.3461508831,2010-10-28 16:33:29,2071.029593622181,2,47,0.5499359965324402,3.931084632873535,45.23211560013167,44.9221672883784,180.75035259039217,163.5397048178639,6.47544875391759e-05,0.0945633500814437,0,0,0
15120,529775.3613735134,2010-10-28 16:33:59,2101.0448162624543,2,47,0.5501165986061096,3.932541608810425,45.236701867877805,44.9221672883784,180.7683848884808,163.5397048178639,3.237724376958795e-05,0.0945633500814437,0,0,0
15121,529805.3764537036,2010-10-28 16:34:29,2131.0598964075853,2,47,0.5501165986061096,3.9339985847473145,45.24128826527375,44.9221672883784,180.78642443887972,163.5397048178639,6.47544875391759e-05,0.0945633500814437,0,0,0
15122,529835.391614184,2010-10-28 16:34:59,2161.075056907986,2,47,0.550297200679779,3.935617446899414,45.24587469123188,44.9221672883784,180.80447090182668,163.5397048178639,6.47544875391759e-05,0.0945633500814437,0,0,0
15123,529865.4067374566,2010-10-28 16:35:29,2191.0901801856166,2,47,0.5499359965324402,3.9369125366210938,45.250461088217655,44.9221672883784,180.8225239174121,163.5397048178639,3.237724376958795e-05,0.0945633500814437,0,0,0
15124,529895.4218813357,2010-10-28 16:35:59,2221.105324079629,2,47,0.5501165986061096,3.9386932849884033,45.25504737311429,44.9221672883784,180.8405834170935,163.5397048178639,9.713172767078504e-05,0.0945633500814437,0,0,0
15125,529925.4371538803,2010-10-28 16:36:29,2251.1205965791664,2,47,0.5501165986061096,3.939988374710083,45.25963373769634,44.9221672883784,180.8586501378012,163.5397048178639,3.237724376958795e-05,0.0945633500814437,0,0,0
15126,529955.4521944767,2010-10-28 16:36:59,2281.1356371957804,2,47,0.5501165986061096,3.9414453506469727,45.26422000482955,44.9221672883784,180.8767234196509,163.5397048178639,3.237724376958795e-05,0.0945633500814437,0,0,0
15127,529985.4673597642,2010-10-28 16:37:29,2311.1508024831114,2,47,0.550297200679779,3.943064212799072,45.26880631405107,44.9221672883784,180.89480377930656,163.5397048178639,6.47544875391759e-05,0.0945633500814437,0,0,0
15128,530015.4824648113,2010-10-28 16:37:59,2341.165907545344,2,47,0.5499359965324402,3.944521188735962,45.273392645529256,44.9221672883784,180.912891319458,163.5397048178639,0.0,0.0945633500814437,0,0,0
15129,530045.4976107253,2010-10-28 16:38:29,2371.181053444353,2,47,0.5499359965324402,3.9461400508880615,45.2779789838835,44.9221672883784,180.93098603131585,163.5397048178639,6.47544875391759e-05,0.0945633500814437,0,0,0
15130,530075.5127710403,2010-10-28 16:38:59,2401.1962137392425,2,47,0.5501165986061096,3.947758913040161,45.28256532070476,44.9221672883784,180.94908781069373,163.5397048178639,3.237724376958795e-05,0.0945633500814437,0,0,0
15131,530105.5279029745,2010-10-28 16:39:29,2431.211345668435,2,47,0.5501165986061096,3.949215888977051,45.28715160476011,44.9221672883784,180.96719664760536,163.5397048178639,3.237724376958795e-05,0.0945633500814437,0,0,0
15132,530135.5457646371,2010-10-28 16:39:59,2461.229207421188,2,47,0.5501165986061096,3.95099663734436,45.29173835240373,44.9221672883784,180.9853145910388,163.5397048178639,6.47544875391759e-05,0.0945633500814437,0,0,0
15133,530165.5582265467,2010-10-28 16:40:29,2491.241669250671,2,47,0.550297200679779,3.95261549949646,45.29632427757535,44.9221672883784,181.0034366449466,163.5397048178639,6.47544875391759e-05,0.0945633500814437,0,0,0
15134,530195.5734979636,2010-10-28 16:40:59,2521.256940662497,2,47,0.5501165986061096,3.9540724754333496,45.300910708210814,44.9221672883784,181.02156812259813,163.5397048178639,6.47544875391759e-05,0.0945633500814437,0,0,0
15135,530225.588497959,2010-10-28 16:41:29,2551.271940753108,2,47,0.5499359965324402,3.9555294513702393,45.30549695842822,44.9221672883784,181.0397062482783,163.5397048178639,-3.237724376958795e-05,0.0945633500814437,0,0,0
15136,530255.6036255372,2010-10-28 16:41:59,2581.287068266294,2,47,0.5501165986061096,3.957310199737549,45.31008332634595,44.9221672883784,181.05785233254696,163.5397048178639,3.237724376958795e-05,0.0945633500814437,0,0,0
15137,530285.6187726844,2010-10-28 16:42:29,2611.3022153883526,2,47,0.5501165986061096,3.9590909481048575,45.314669731212014,44.9221672883784,181.0760061048119,163.5397048178639,6.47544875391759e-05,0.0945633500814437,0,0,0
15138,530315.6339384529,2010-10-28 16:42:59,2641.317381161896,2,47,0.5501165986061096,3.960709810256958,45.319256098622304,44.9221672883784,181.09416730811316,163.5397048178639,6.47544875391759e-05,0.0945633500814437,0,0,0
15139,530345.6490885374,2010-10-28 16:43:29,2671.3325312312995,2,47,0.5499359965324402,3.9623286724090576,45.32384241153047,44.9221672883784,181.1123359682956,163.5397048178639,3.237724376958795e-05,0.0945633500814437,0,0,0
15140,530375.6643352727,2010-10-28 16:43:59,2701.347777981662,2,47,0.550297200679779,3.964109420776367,45.32842878909339,44.9221672883784,181.1305125332801,163.5397048178639,9.713172767078504e-05,0.0945633500814437,0,0,0
15141,530405.6794073828,2010-10-28 16:44:29,2731.362850081742,2,47,0.5501165986061096,3.965728282928467,45.33301509606856,44.9221672883784,181.148696581187,163.5397048178639,3.237724376958795e-05,0.0945633500814437,0,0,0
15142,530435.6945170516,2010-10-28 16:44:59,2761.37795974043,2,47,0.5501165986061096,3.9673471450805664,45.33760147711014,44.9221672883784,181.16688875645144,163.5397048178639,3.237724376958795e-05,0.0945633500814437,0,0,0
15143,530465.7099189836,2010-10-28 16:45:29,2791.393361717666,2,47,0.5499359965324402,3.968966007232666,45.3421879032124,44.9221672883784,181.18508885554644,163.5397048178639,3.237724376958795e-05,0.0945633500814437,0,0,0
15144,530495.7247902132,2010-10-28 16:45:59,2821.4082329070143,2,47,0.5499359965324402,3.970746755599976,45.346774248264936,44.9221672883784,181.20329658080453,163.5397048178639,0.0,0.0945633500814437,0,0,0
15145,530525.7400582215,2010-10-28 16:46:29,2851.423500925383,2,47,0.550297200679779,3.972689390182495,45.35136065616717,44.9221672883784,181.22151259763675,163.5397048178639,3.237724376958795e-05,0.0945633500814437,0,0,0
15146,530555.7550933193,2010-10-28 16:46:59,2881.43853601823,2,47,0.550297200679779,3.9744701385498047,45.35594708579328,44.9221672883784,181.23973675452885,163.5397048178639,6.47544875391759e-05,0.0945633500814437,0,0,0
15147,530585.7704190164,2010-10-28 16:47:29,2911.4538617604644,2,47,0.5501165986061096,3.976089000701904,45.36053355498535,44.9221672883784,181.25796922757507,163.5397048178639,3.237724376958795e-05,0.0945633500814437,0,0,0
15148,530615.7853861098,2010-10-28 16:47:59,2941.4688287986983,2,47,0.5501165986061096,3.977869749069214,45.36511995284686,44.9221672883784,181.2762095841928,163.5397048178639,3.237724376958795e-05,0.0945633500814437,0,0,0
15149,530645.8006462385,2010-10-28 16:48:29,2971.484088962491,2,47,0.5501165986061096,3.979812383651733,45.36970631366472,44.9221672883784,181.2944576900649,163.5397048178639,6.47544875391759e-05,0.0945633500814437,0,0,0
15150,530675.81589948,2010-10-28 16:48:59,3001.499342204032,2,47,0.5501165986061096,3.981593132019043,45.374292621512375,44.9221672883784,181.3127142551077,163.5397048178639,3.237724376958795e-05,0.0945633500814437,0,0,0
15151,530705.8308838665,2010-10-28 16:49:29,3031.5143266606774,2,47,0.5501165986061096,3.983373880386353,45.37887890840524,44.9221672883784,181.3309791131424,163.5397048178639,6.47544875391759e-05,0.0945633500814437,0,0,0
15152,530735.8459707985,2010-10-28 16:49:59,3061.5294135425984,2,47,0.5499359965324402,3.985154628753662,45.38346514832477,44.9221672883784,181.3492522211681,163.5397048178639,3.237724376958795e-05,0.0945633500814437,0,0,0
15153,530765.8611050786,2010-10-28 16:50:29,3091.544547807613,2,47,0.5499359965324402,3.9870972633361816,45.38805142436619,44.9221672883784,181.36753401065616,163.5397048178639,6.47544875391759e-05,0.0945633500814437,0,0,0
15154,530795.8762537946,2010-10-28 16:50:59,3121.5596965136183,2,47,0.5501165986061096,3.989039897918701,45.392637734548806,44.9221672883784,181.38582450827712,163.5397048178639,6.47544875391759e-05,0.0945633500814437,0,0,0
15155,530825.891422295,2010-10-28 16:51:29,3151.574864993908,2,47,0.5497553944587708,3.9908206462860103,45.39722401798948,44.9221672883784,181.40412354653708,163.5397048178639,3.237724376958795e-05,0.0945633500814437,0,0,0
15156,530855.9065317481,2010-10-28 16:51:59,3181.589974442071,2,47,0.5499359965324402,3.9927632808685294,45.40181028897128,44.9221672883784,181.4224312711778,163.5397048178639,3.237724376958795e-05,0.0945633500814437,0,0,0
15157,530885.9216696222,2010-10-28 16:52:29,3211.605112361193,2,47,0.5501165986061096,3.994705677032471,45.40639654823987,44.9221672883784,181.44074777791835,163.5397048178639,3.237724376958795e-05,0.0945633500814437,0,0,0
15158,530915.9369486279,2010-10-28 16:52:59,3241.620391326845,2,47,0.5501165986061096,3.9966483116149902,45.410982908802936,44.9221672883784,181.4590736236334,163.5397048178639,3.237724376958795e-05,0.0945633500814437,0,0,0
15159,530945.9520927926,2010-10-28 16:53:29,3271.635535516595,2,47,0.5499359965324402,3.9985909461975098,45.4155692763328,44.9221672883784,181.47740845867332,163.5397048178639,3.237724376958795e-05,0.0945633500814437,0,0,0
15160,530975.9671164019,2010-10-28 16:53:59,3301.650559120809,2,47,0.5499359965324402,4.000533580780029,45.420155500883965,44.9221672883784,181.49575170866927,163.5397048178639,0.0,0.0945633500814437,0,0,0
15161,531005.9822562156,2010-10-28 16:54:29,3331.6656989346525,2,47,0.5501165986061096,4.002638339996338,45.42474178801908,44.9221672883784,181.5141044675529,163.5397048178639,6.47544875391759e-05,0.0945633500814437,0,0,0
15162,531035.9974482497,2010-10-28 16:54:59,3361.680890953608,2,47,0.5499359965324402,4.004580974578857,45.42932812617635,44.9221672883784,181.53246676410657,163.5397048178639,3.24249267578125e-05,0.0945633500814437,0,0,0
15163,531066.0125425351,2010-10-28 16:55:29,3391.69598523898,2,47,0.5499359965324402,4.006847381591797,45.4339144250236,44.9221672883784,181.55083831398852,163.5397048178639,9.71794142969884e-05,0.0945633500814437,0,0,0
15164,531096.0276935167,2010-10-28 16:55:59,3421.711136240708,2,47,0.550297200679779,4.008790016174316,45.43850074612999,44.9221672883784,181.56921948550297,163.5397048178639,3.24249267578125e-05,0.0945633500814437,0,0,0
15165,531126.042845937,2010-10-28 16:56:29,3451.7262886308954,2,47,0.5501165986061096,4.011056423187256,45.443087071909765,44.9221672883784,181.58761024422336,163.5397048178639,6.47544875391759e-05,0.0945633500814437,0,0,0
15166,531156.0581415191,2010-10-28 16:56:59,3481.741584248049,2,47,0.5499359965324402,4.012999057769775,45.447673410150834,44.9221672883784,181.60601083734235,163.5397048178639,3.24249267578125e-05,0.0945633500814437,0,0,0
15167,531186.0731351686,2010-10-28 16:57:29,3511.756577862519,2,47,0.5499359965324402,4.015265464782715,45.45225977087361,44.9221672883784,181.6244214901556,163.5397048178639,6.47544875391759e-05,0.0945633500814437,0,0,0
15168,531216.0882696542,2010-10-28 16:57:59,3541.7717123731454,2,47,0.5499359965324402,4.017369747161865,45.45684607419274,44.9221672883784,181.64284192084577,163.5397048178639,3.23295607813634e-05,0.0945633500814437,0,0,0
15169,531246.1034364402,2010-10-28 16:58:29,3571.7868791441747,2,47,0.5501165986061096,4.019636154174805,45.46143243371262,44.9221672883784,181.66127260920652,163.5397048178639,6.47544875391759e-05,0.0945633500814437,0,0,0
15170,531276.1186975163,2010-10-28 16:58:59,3601.802140215229,2,47,0.5501165986061096,4.021902561187744,45.46601872490791,44.9221672883784,181.67971326326875,163.5397048178639,3.23295607813634e-05,0.0945633500814437,0,0,0
15171,531306.1337010254,2010-10-28 16:59:30,3631.8171437193473,2,47,0.550297200679779,4.024168968200684,45.47060505316673,44.9221672883784,181.6981644270144,163.5397048178639,6.47544875391759e-05,0.0945633500814437,0,0,0
15172,531336.1488513455,2010-10-28 17:00:00,3661.832294039375,2,47,0.5501165986061096,4.026435375213623,45.47519137126752,44.9221672883784,181.7166259854341,163.5397048178639,3.23295607813634e-05,0.0945633500814437,0,0,0
15173,531366.163998648,2010-10-28 17:00:30,3691.8474413368704,2,47,0.5501165986061096,4.028863906860352,45.47977762497102,44.9221672883784,181.7350978131732,163.5397048178639,6.47544875391759e-05,0.0945633500814437,0,0,0
15174,531396.1791528176,2010-10-28 17:01:00,3721.862595541581,2,47,0.5501165986061096,4.031130313873291,45.484363937466,44.9221672883784,181.7535803697173,163.5397048178639,6.47544875391759e-05,0.0945633500814437,0,0,0
15175,531426.1942836541,2010-10-28 17:01:30,3751.8777263730367,2,47,0.5501165986061096,4.033396720886231,45.48895020021093,44.9221672883784,181.7720734243936,163.5397048178639,6.47544875391759e-05,0.0945633500814437,0,0,0
15176,531456.2095044748,2010-10-28 17:02:00,3781.892947193776,2,47,0.5499359965324402,4.035662651062012,45.49353653241341,44.9221672883784,181.79057761050984,163.5397048178639,0.0,0.0945633500814437,0,0,0
15177,531486.2245686703,2010-10-28 17:02:30,3811.9080113891546,2,47,0.5501165986061096,4.038252830505371,45.49812281850769,44.9221672883784,181.80909256892355,163.5397048178639,6.47544875391759e-05,0.0945633500814437,0,0,0
15178,531516.2397277921,2010-10-28 17:03:00,3841.9231704960825,2,47,0.5501165986061096,4.0406813621521,45.50270915297601,44.9221672883784,181.82761868753684,163.5397048178639,9.71794142969884e-05,0.0945633500814437,0,0,0
15179,531546.254984823,2010-10-28 17:03:30,3871.938427522055,2,47,0.5501165986061096,4.04310941696167,45.50729545667258,44.9221672883784,181.8461557520908,163.5397048178639,9.70840483205393e-05,0.0945633500814437,0,0,0
15180,531576.2700160162,2010-10-28 17:04:00,3901.953458735232,2,47,0.5499359965324402,4.045375823974609,45.51188173058227,44.9221672883784,181.864703888512,163.5397048178639,6.47544875391759e-05,0.0945633500814437,0,0,0
15181,531606.2851516196,2010-10-28 17:04:30,3931.96859431352,2,47,0.550297200679779,4.048128128051758,45.516468026833785,44.9221672883784,181.88326338542768,163.5397048178639,9.71794142969884e-05,0.0945633500814437,0,0,0
15182,531636.3006690496,2010-10-28 17:05:00,3961.9841117785872,2,47,0.550297200679779,4.050394535064697,45.52105444389,44.9221672883784,181.9018347368466,163.5397048178639,6.47544875391759e-05,0.0945633500814437,0,0,0
15183,531666.3154799086,2010-10-28 17:05:30,3991.9989226074986,2,47,0.5499359965324402,4.052984714508057,45.52564076327085,44.9221672883784,181.9204171683945,163.5397048178639,6.47544875391759e-05,0.0945633500814437,0,0,0
15184,531696.330815741,2010-10-28 17:06:00,4022.014258449906,2,47,0.5501165986061096,4.055412769317627,45.53022711731778,44.9221672883784,181.93901145975772,163.5397048178639,3.23295607813634e-05,0.0945633500814437,0,0,0
15185,531726.3457318322,2010-10-28 17:06:30,4052.029174551189,2,47,0.5501165986061096,4.058002948760986,45.53481335686674,44.9221672883784,181.95761696917128,163.5397048178639,6.47544875391759e-05,0.0945633500814437,0,0,0
15186,531756.3610263366,2010-10-28 17:07:00,4082.0444690756194,2,47,0.5501165986061096,4.060593128204346,45.53939974419206,44.9221672883784,181.9762349614035,163.5397048178639,6.47544875391759e-05,0.0945633500814437,0,0,0
15187,531786.3760242368,2010-10-28 17:07:30,4112.059466930658,2,47,0.550297200679779,4.063345432281494,45.5439860221843,44.9221672883784,181.99486394704195,163.5397048178639,6.47544875391759e-05,0.0945633500814437,0,0,0
15188,531816.3911669479,2010-10-28 17:08:00,4142.074609641722,2,47,0.550297200679779,4.0659356117248535,45.54857233740767,44.9221672883784,182.01350518241605,163.5397048178639,6.47544875391759e-05,0.0945633500814437,0,0,0
15189,531846.4064365552,2010-10-28 17:08:30,4172.089879254064,2,47,0.5501165986061096,4.068525791168213,45.55315857549052,44.9221672883784,182.03215818461476,163.5397048178639,6.47544875391759e-05,0.0945633500814437,0,0,0
15190,531876.4214806003,2010-10-28 17:09:00,4202.104923299222,2,47,0.5499359965324402,4.071115970611572,45.55774482431068,44.9221672883784,182.05082353711617,163.5397048178639,6.47544875391759e-05,0.0945633500814437,0,0,0
15191,531906.4367271451,2010-10-28 17:09:30,4232.120169869135,2,47,0.5497553944587708,4.0738677978515625,45.56233103582675,44.9221672883784,182.06950093874005,163.5397048178639,9.70840483205393e-05,0.0945633500814437,0,0,0
15192,531936.4517520827,2010-10-28 17:10:00,4262.13519478161,2,47,0.5499359965324402,4.076457977294922,45.56691731587706,44.9221672883784,182.08819106475343,163.5397048178639,3.23295607813634e-05,0.0945633500814437,0,0,0
15193,531966.466822248,2010-10-28 17:10:30,4292.150264941855,2,47,0.5499359965324402,4.07921028137207,45.57150358773496,44.9221672883784,182.1068937230978,163.5397048178639,6.47544875391759e-05,0.0945633500814437,0,0,0
15194,531996.4819800766,2010-10-28 17:11:00,4322.165422775611,2,47,0.550297200679779,4.08212423324585,45.57608985309101,44.9221672883784,182.1256090002504,163.5397048178639,6.47544875391759e-05,0.0945633500814437,0,0,0
15195,532026.4971801457,2010-10-28 17:11:30,4352.180622834603,2,47,0.5497553944587708,4.08487606048584,45.58067601939445,44.9221672883784,182.1443366406646,163.5397048178639,6.47544875391759e-05,0.0945633500814437,0,0,0
15196,532056.5151456019,2010-10-28 17:12:00,4382.19858835598,2,47,0.5499359965324402,4.087790012359619,45.5852625391323,44.9221672883784,182.16307866676527,163.5397048178639,3.23295607813634e-05,0.0945633500814437,0,0,0
15197,532086.5274747156,2010-10-28 17:12:30,4412.210917429594,2,47,0.5499359965324402,4.090542316436768,45.58984814672927,44.9221672883784,182.1818299835667,163.5397048178639,6.47544875391759e-05,0.0945633500814437,0,0,0
15198,532116.5427316163,2010-10-28 17:13:00,4442.226174320229,2,47,0.5501165986061096,4.093456268310547,45.59443436493524,44.9221672883784,182.20059691318616,163.5397048178639,9.71794142969884e-05,0.0945633500814437,0,0,0
15199,532146.5578345432,2010-10-28 17:13:30,4472.241277292252,2,47,0.5501165986061096,4.096370220184326,45.59902070144111,44.9221672883784,182.21937756635108,163.5397048178639,6.47544875391759e-05,0.0945633500814437,0,0,0
15200,532176.5729916301,2010-10-28 17:14:00,4502.256434334032,2,47,0.550297200679779,4.0992841720581055,45.60360704599088,44.9221672883784,182.2381716416476,163.5397048178639,9.71794142969884e-05,0.0945633500814437,0,0,0
15201,532206.5880799055,2010-10-28 17:14:30,4532.271522684614,2,47,0.5497553944587708,4.102035999298096,45.60819333310195,44.9221672883784,182.25697894900225,163.5397048178639,3.23295607813634e-05,0.0945633500814437,0,0,0
15202,532236.6031813036,2010-10-28 17:15:00,4562.286623997501,2,47,0.5499359965324402,4.105112075805664,45.612779615534585,44.9221672883784,182.2757998017074,163.5397048178639,6.47544875391759e-05,0.0945633500814437,0,0,0
15203,532266.6183332176,2010-10-28 17:15:30,4592.301775941578,2,47,0.5501165986061096,4.108187675476074,45.61736584224032,44.9221672883784,182.29463422839737,163.5397048178639,6.47544875391759e-05,0.0945633500814437,0,0,0
15204,532296.6334770113,2010-10-28 17:16:00,4622.316919710278,2,47,0.5501165986061096,4.111425399780273,45.62195207156291,44.9221672883784,182.3134825488183,163.5397048178639,9.70840483205393e-05,0.0945633500814437,0,0,0
15205,532326.6486657421,2010-10-28 17:16:30,4652.332108441038,2,47,0.5499359965324402,4.114177703857422,45.62653841154174,44.9221672883784,182.33234534888908,163.5397048178639,3.24249267578125e-05,0.0945633500814437,0,0,0
15206,532356.66375703,2010-10-28 17:17:00,4682.347199748991,2,47,0.5499359965324402,4.117414951324463,45.63112468242572,44.9221672883784,182.3512220679381,163.5397048178639,3.23295607813634e-05,0.0945633500814437,0,0,0
15207,532386.6792794074,2010-10-28 17:17:30,4712.362722231562,2,47,0.5499359965324402,4.120652675628662,45.6357110380894,44.9221672883784,182.37011344648872,163.5397048178639,9.70840483205393e-05,0.0945633500814437,0,0,0
15208,532416.6940290838,2010-10-28 17:18:00,4742.377471777738,2,47,0.5499359965324402,4.123728752136231,45.64029737421959,44.9221672883784,182.38901912411612,163.5397048178639,9.71794142969884e-05,0.0945633500814437,0,0,0
15209,532446.7093000094,2010-10-28 17:18:30,4772.39274271839,2,47,0.5501165986061096,4.12696647644043,45.64488370542173,44.9221672883784,182.4079393113261,163.5397048178639,9.71794142969884e-05,0.0945633500814437,0,0,0
15210,532476.724328561,2010-10-28 17:19:00,4802.407771259909,2,47,0.5499359965324402,4.13004207611084,45.64947005696019,44.9221672883784,182.42687423292907,163.5397048178639,6.47544875391759e-05,0.0945633500814437,0,0,0
15211,532506.7396109552,2010-10-28 17:19:30,4832.423053659119,2,47,0.5501165986061096,4.133441925048828,45.65405643009343,44.9221672883784,182.4458240219704,163.5397048178639,9.71794142969884e-05,0.0945633500814437,0,0,0
15212,532536.7546085697,2010-10-28 17:20:00,4862.438051263533,2,47,0.5501165986061096,4.136679649353027,45.6586427513294,44.9221672883784,182.4647884508616,163.5397048178639,6.47544875391759e-05,0.0945633500814437,0,0,0
15213,532566.7697565288,2010-10-28 17:20:30,4892.453199277816,2,47,0.5501165986061096,4.139917373657227,45.66322917004101,44.9221672883784,182.48376842411292,163.5397048178639,6.47544875391759e-05,0.0945633500814437,0,0,0
15214,532596.7851276641,2010-10-28 17:21:00,4922.468570458296,2,47,0.5501165986061096,4.143155097961426,45.66781562171667,44.9221672883784,182.5027637040076,163.5397048178639,6.47544875391759e-05,0.0945633500814437,0,0,0
15215,532626.8000557903,2010-10-28 17:21:30,4952.483498489312,2,47,0.5501165986061096,4.146716594696045,45.67240194918152,44.9221672883784,182.5217738266984,163.5397048178639,9.71794142969884e-05,0.0945633500814437,0,0,0
15216,532656.8151839903,2010-10-28 17:22:00,4982.498626694223,2,47,0.5501165986061096,4.149954319000244,45.67698826600012,44.9221672883784,182.5407995800148,163.5397048178639,3.24249267578125e-05,0.0945633500814437,0,0,0
15217,532686.8304605099,2010-10-28 17:22:30,5012.513903208766,2,47,0.5499359965324402,4.153353691101074,45.68157455993296,44.9221672883784,182.5598408980576,163.5397048178639,6.47544875391759e-05,0.0945633500814437,0,0,0
15218,532716.8460343855,2010-10-28 17:23:00,5042.529477224775,2,47,0.5499359965324402,4.156915187835693,45.68616085742222,44.9221672883784,182.5788978127808,163.5397048178639,9.70840483205393e-05,0.0945633500814437,0,0,0
15219,532746.8606269956,2010-10-28 17:23:30,5072.544069689457,2,47,0.5501165986061096,4.160315036773682,45.69074704844777,44.9221672883784,182.59797005930847,163.5397048178639,9.71794142969884e-05,0.0945633500814437,0,0,0
15220,532776.8757693858,2010-10-28 17:24:00,5102.559212109797,2,47,0.5501165986061096,4.163876533508301,45.69533332185495,44.9221672883784,182.61705854533045,163.5397048178639,9.71794142969884e-05,0.0945633500814437,0,0,0
15221,532806.8909117159,2010-10-28 17:24:30,5132.574354439911,2,47,0.550297200679779,4.16743803024292,45.69991961537618,44.9221672883784,182.63616302687163,163.5397048178639,9.71794142969884e-05,0.0945633500814437,0,0,0
15222,532836.906198877,2010-10-28 17:25:00,5162.589641595978,2,47,0.5501165986061096,4.17083740234375,45.70450590791901,44.9221672883784,182.655283712848,163.5397048178639,6.47544875391759e-05,0.0945633500814437,0,0,0
15223,532866.9212039551,2010-10-28 17:25:30,5192.604646648955,2,47,0.5499359965324402,4.174398899078369,45.70909218510795,44.9221672883784,182.6744205831906,163.5397048178639,6.47544875391759e-05,0.0945633500814437,0,0,0
15224,532896.9363450671,2010-10-28 17:26:00,5222.619787761036,2,47,0.550297200679779,4.178122520446777,45.71367852115733,44.9221672883784,182.69357389707457,163.5397048178639,0.0001295089750783,0.0945633500814437,0,0,0
15225,532926.9515094071,2010-10-28 17:26:30,5252.634952101005,2,47,0.5501165986061096,4.1816840171813965,45.71826483065318,44.9221672883784,182.71274344680887,163.5397048178639,0.0001295089750783,0.0945633500814437,0,0,0
15226,532956.9678479636,2010-10-28 17:27:00,5282.65129080786,2,47,0.5501165986061096,4.185083389282227,45.72285138234512,44.9221672883784,182.7319305599621,163.5397048178639,9.70840483205393e-05,0.0945633500814437,0,0,0
15227,532986.981773476,2010-10-28 17:27:30,5312.665216169916,2,47,0.5501165986061096,4.188644886016846,45.72743754972305,44.9221672883784,182.75113264278528,163.5397048178639,9.70840483205393e-05,0.0945633500814437,0,0,0
15228,533016.997073459,2010-10-28 17:28:00,5342.680516167988,2,47,0.5501165986061096,4.192368507385254,45.73202389162709,44.9221672883784,182.7703522708788,163.5397048178639,9.71794142969884e-05,0.0945633500814437,0,0,0
15229,533047.0120589131,2010-10-28 17:28:30,5372.6955016070815,2,47,0.5501165986061096,4.196253299713135,45.736610125741706,44.9221672883784,182.7895882678652,163.5397048178639,0.0001618385285837,0.0945633500814437,0,0,0
15230,533077.0273496832,2010-10-28 17:29:00,5402.710792397205,2,47,0.5499359965324402,4.199814796447754,45.74119640189944,44.9221672883784,182.8088413127466,163.5397048178639,9.70840483205393e-05,0.0945633500814437,0,0,0
15231,533077.8240672386,2010-10-28 17:29:01,5403.507509962523,2,47,0.550297200679779,4.200138568878174,45.74131813512758,44.9221672883784,182.8093525774928,163.5397048178639,0.0001295089750783,0.0945633500814437,0,0,0
15232,533107.8369610513,2010-10-28 17:29:31,30.01514457069928,3,47,0.0,4.110454082489014,45.74131813512758,44.9221672883784,182.8093525774928,163.5397048178639,-0.0003885269106831,0.0945633500814437,0,0,0
15233,533137.8521136871,2010-10-28 17:30:01,60.03029723657424,3,47,0.0,4.0992841720581055,45.74131813512758,44.9221672883784,182.8093525774928,163.5397048178639,-0.0002265930233988,0.0945633500814437,0,0,0
15234,533167.8672970395,2010-10-28 17:30:31,90.04548055885438,3,47,0.0,4.092484951019287,45.74131813512758,44.9221672883784,182.8093525774928,163.5397048178639,-0.0001295089750783,0.0945633500814437,0,0,0
15235,533197.8355161876,2010-10-28 17:31:01,120.01369971197448,3,47,0.0,4.088113784790039,45.74131813512758,44.9221672883784,182.8093525774928,163.5397048178639,-9.71794142969884e-05,0.0945633500814437,0,0,0
15236,533197.8508140515,2010-10-28 17:31:01,2.917270736e-06,4,47,0.9987500309944152,4.199814796447754,45.74131813593692,44.9221672883784,182.8093525808918,163.5397048178639,0.0,0.0945633500814437,0,0,0
15237,533198.5851341832,2010-10-28 17:31:02,0.734323084071069,4,47,0.9483600854873656,4.199653148651123,45.74151495398442,44.9221672883784,182.81017916302665,163.5397048178639,-3.23295607813634e-05,0.0945633500814437,0,0,0
15238,533200.6319711056,2010-10-28 17:31:04,2.781159991440205,4,47,0.8981506824493408,4.199653148651123,45.7420385205457,44.9221672883784,182.81237800870773,163.5397048178639,-3.23295607813634e-05,0.0945633500814437,0,0,0
15239,533203.7883109658,2010-10-28 17:31:07,5.937499881628058,4,47,0.8477606773376465,4.199814796447754,45.74280259625788,44.9221672883784,182.81558695259,163.5397048178639,3.23295607813634e-05,0.0945633500814437,0,0,0
15240,533208.1474740665,2010-10-28 17:31:12,10.296662937243592,4,47,0.7973707318305969,4.199653148651123,45.74379744226399,44.9221672883784,182.81976507568768,163.5397048178639,0.0,0.0945633500814437,0,0,0
15241,533213.9131298147,2010-10-28 17:31:18,16.062318810728275,4,47,0.7473419308662415,4.199814796447754,45.74503297740478,44.9221672883784,182.82495407576684,163.5397048178639,0.0,0.0945633500814437,0,0,0
15242,533221.3972637743,2010-10-28 17:31:25,23.54645276535365,4,47,0.6971325874328613,4.199653148651123,45.7465322241777,44.9221672883784,182.8312505889014,163.5397048178639,-3.23295607813634e-05,0.0945633500814437,0,0,0
15243,533231.3189988409,2010-10-28 17:31:35,33.46818772170641,4,47,0.6471037864685059,4.199814796447754,45.74838148272023,44.9221672883784,182.8390170720829,163.5397048178639,3.23295607813634e-05,0.0945633500814437,0,0,0
15244,533245.2406203954,2010-10-28 17:31:49,47.389809271183566,4,47,0.5968944430351257,4.199814796447754,45.75078169389579,44.9221672883784,182.84909744195787,163.5397048178639,3.23295607813634e-05,0.0945633500814437,0,0,0
15245,533266.5060447361,2010-10-28 17:32:10,68.65523364693543,4,47,0.5468656420707703,4.199976921081543,45.75414911672616,44.9221672883784,182.86323991241545,163.5397048178639,6.47544875391759e-05,0.0945633500814437,0,0,0
15246,533303.020955509,2010-10-28 17:32:47,105.17014440991392,4,47,0.4968368709087372,4.199814796447754,45.75941874965367,44.9221672883784,182.88537124533644,163.5397048178639,0.0,0.0945633500814437,0,0,0
15247,533371.4105091096,2010-10-28 17:33:55,173.559698010426,4,47,0.4466274976730346,4.199814796447754,45.76834055727453,44.9221672883784,182.92284095594047,163.5397048178639,0.0,0.0945633500814437,0,0,0
15248,533476.8150399225,2010-10-28 17:35:40,278.9642287983127,4,47,0.3965987265110016,4.199814796447754,45.78065676606376,44.9221672883784,182.974566402664,163.5397048178639,0.0,0.0945633500814437,0,0,0
15249,533609.6099064649,2010-10-28 17:37:53,411.7590953457079,4,47,0.3465699553489685,4.199814796447754,45.7943448270549,44.9221672883784,183.03205328328085,163.5397048178639,0.0,0.0945633500814437,0,0,0
15250,533767.4978774094,2010-10-28 17:40:31,569.6470662801906,4,47,0.2965411841869354,4.199653148651123,45.80843304746351,44.9221672883784,183.09122071693423,163.5397048178639,-3.23295607813634e-05,0.0945633500814437,0,0,0
15251,533958.9948230251,2010-10-28 17:43:43,761.1440119008143,4,47,0.2465124130249023,4.199814796447754,45.82284883470837,44.9221672883784,183.1517639037719,163.5397048178639,3.23295607813634e-05,0.0945633500814437,0,0,0
15252,534192.428707882,2010-10-28 17:47:36,994.5778967977884,4,47,0.1964836567640304,4.199814796447754,45.837164797950045,44.9221672883784,183.2118878749432,163.5397048178639,3.23295607813634e-05,0.0945633500814437,0,0,0
15253,534500.3611476303,2010-10-28 17:52:44,1302.5103365059842,4,47,0.1464548856019973,4.199814796447754,45.851749927101054,44.9221672883784,183.2731423023093,163.5397048178639,0.0,0.0945633500814437,0,0,0
15254,534957.0104334429,2010-10-28 18:00:21,1759.1596223437643,4,47,0.0964261144399643,4.199814796447754,45.866941368065454,44.9221672883784,183.3369431183892,163.5397048178639,0.0,0.0945633500814437,0,0,0
15255,535763.1534506257,2010-10-28 18:13:47,2565.302639526589,4,47,0.0498289167881011,4.199814796447754,45.88270598193843,44.9221672883784,183.40315112996865,163.5397048178639,0.0,0.0945633500814437,0,0,0
15256,535793.1624351142,2010-10-28 18:14:17,30.01512668612542,5,47,0.0,4.191235065460205,45.88270598193843,44.9221672883784,183.40315112996865,163.5397048178639,-6.47544875391759e-05,0.0945633500814437,0,0,0
15257,535823.1619542415,2010-10-28 18:14:47,60.01464581341189,5,47,0.0,4.1901021003723145,45.88270598193843,44.9221672883784,183.40315112996865,163.5397048178639,0.0,0.0945633500814437,0,0,0
15258,535823.3597706358,2010-10-28 18:14:47,0.187505285866313,6,47,-1.9243103452026844e-05,4.1901021003723145,45.88270598193843,44.922167289380674,183.40315112996865,163.53970482206353,0.0,0.0963535830378532,0,0,0
15259,535828.1878024166,2010-10-28 18:14:52,5.015537056587187,6,47,0.0003419754502829,4.189939975738525,45.88270686787618,44.92216728954845,183.40315484219505,163.5397048227665,-6.47544875391759e-05,0.0963535830378532,0,0,0
15260,535858.1819845401,2010-10-28 18:15:22,30.014913945911346,7,47,-1.0993878841400146,4.002314567565918,45.88270686787618,44.931334712065045,183.40315484219505,163.5766041249313,-0.0009713172912597,0.0963535830378532,0,0,0
15261,535888.197122805,2010-10-28 18:15:52,60.03005220086986,7,47,-1.099568486213684,3.972527503967285,45.88270686787618,44.94050212739854,183.40315484219505,163.61314845570712,-0.0006475448608398,0.0963535830378532,0,0,0
15262,535918.212261436,2010-10-28 18:16:22,90.0451908367778,7,47,-1.0997490882873535,3.95180606842041,45.88270686787618,44.949669477255775,183.40315484219505,163.64946696556626,-0.0005504131549969,0.0963535830378532,0,0,0
15263,535948.2274180817,2010-10-28 18:16:52,120.06034750763442,7,47,-1.0993878841400146,3.935941219329834,45.88270686787618,44.95883691113811,183.40315484219505,163.68561962004955,-0.0003885269106831,0.0963535830378532,0,0,0
15264,535978.2425543367,2010-10-28 18:17:22,150.07548373253337,7,47,-1.0993878841400146,3.922666549682617,45.88270686787618,44.968004300728055,183.40315484219505,163.7216388264628,-0.0002590179501567,0.0963535830378532,0,0,0
15265,536008.2576956743,2010-10-28 18:17:52,180.09062508019989,7,47,-1.099568486213684,3.911010980606079,45.88270686787618,44.97717168645223,183.40315484219505,163.75754489523456,-0.0002913951757363,0.0963535830378532,0,0,0
15266,536038.2729656075,2010-10-28 18:18:22,210.10589502336595,7,47,-1.099568486213684,3.900812149047852,45.88270686787618,44.986339150929176,183.40315484219505,163.79335123175082,-0.0002266406954731,0.0963535830378532,0,0,0
15267,536068.2881116067,2010-10-28 18:18:52,240.12104101260064,7,47,-1.099568486213684,3.891098976135254,45.88270686787618,44.99550649927726,183.40315484219505,163.82906573237167,-0.0002913951757363,0.0963535830378532,0,0,0
15268,536098.3030527504,2010-10-28 18:19:22,270.13598215128474,7,47,-1.0993878841400146,3.881871461868286,45.88270686787618,45.00467352753676,183.40315484219505,163.86469273531463,-0.0002590179501567,0.0963535830378532,0,0,0
15269,536128.3182037171,2010-10-28 18:19:52,300.1511331179247,7,47,-1.099568486213684,3.8729677200317374,45.88270686787618,45.01384010958756,183.40315484219505,163.9002348340438,-0.0002266406954731,0.0963535830378532,0,0,0
15270,536158.3333682576,2010-10-28 18:20:22,330.1662976583948,7,47,-1.0993878841400146,3.863902091979981,45.88270686787618,45.02300680646248,183.40315484219505,163.9356969531948,-0.0002913951757363,0.0963535830378532,0,0,0
15271,536188.3485488431,2010-10-28 18:20:52,360.1814782438539,7,47,-1.0993878841400146,3.8558077812194815,45.88270686787618,45.03217333829527,183.40315484219505,163.97107951426813,-0.0002266406954731,0.0963535830378532,0,0,0
15272,536218.3636600355,2010-10-28 18:21:22,390.196589431352,7,47,-1.099568486213684,3.847389698028565,45.88270686787618,45.041339805685965,183.40315484219505,164.00638515791638,-0.0002266406954731,0.0963535830378532,0,0,0
15273,536248.3788180397,2010-10-28 18:21:52,420.2117474405442,7,47,-1.0993878841400146,3.839457273483277,45.88270686787618,45.05050642556725,183.40315484219505,164.04161678373077,-0.0001942634553415,0.0963535830378532,0,0,0
15274,536278.3939460391,2010-10-28 18:22:22,450.2268754800426,7,47,-1.0997490882873535,3.831363201141357,45.88270686787618,45.05967302396225,183.40315484219505,164.07677486950632,-0.0002266406954731,0.0963535830378532,0,0,0
15275,536308.4092407941,2010-10-28 18:22:52,480.24217023504735,7,47,-1.0993878841400146,3.823754549026489,45.88270686787618,45.06884028897085,183.40315484219505,164.11186341150258,-0.0001942634553415,0.0963535830378532,0,0,0
15276,536338.4254577275,2010-10-28 18:23:22,510.2583874039915,7,47,-1.099568486213684,3.816307783126831,45.88270686787618,45.07800784954957,183.40315484219505,164.14688282761827,-0.0001942634553415,0.0963535830378532,0,0,0
15277,536368.4393790946,2010-10-28 18:23:52,540.272308495404,7,47,-1.099568486213684,3.808699131011963,45.88270686787618,45.08717469089847,183.40315484219505,164.18182999367033,-0.0001942634553415,0.0963535830378532,0,0,0
15278,536398.4545282116,2010-10-28 18:24:22,570.2874576174465,7,47,-1.0993878841400146,3.8015761375427246,45.88270686787618,45.09634191686043,183.40315484219505,164.2167110105836,-0.0001295089750783,0.0963535830378532,0,0,0
15279,536428.4696819151,2010-10-28 18:24:52,600.3026113409575,7,47,-1.099568486213684,3.7941293716430655,45.88270686787618,45.10550914669729,183.40315484219505,164.2515264499399,-0.0001942634553415,0.0963535830378532,0,0,0
15280,536458.4848373779,2010-10-28 18:25:23,630.3177667737284,7,47,-1.099568486213684,3.787168264389038,45.88270686787618,45.11467642258088,183.40315484219505,164.28627656230603,-0.0001618862152099,0.0963535830378532,0,0,0
15281,536488.4999514828,2010-10-28 18:25:53,660.3328808885221,7,47,-1.099568486213684,3.7800452709198,45.88270686787618,45.12384367165177,183.40315484219505,164.3209613641352,-0.0001618862152099,0.0963535830378532,0,0,0
15282,536518.5150831011,2010-10-28 18:26:23,690.3480125069404,7,47,-1.099568486213684,3.773246049880981,45.88270686787618,45.13301165512014,183.40315484219505,164.3555850730175,-0.0001618862152099,0.0963535830378532,0,0,0
15283,536548.5302170203,2010-10-28 18:26:53,720.3631464160677,7,47,-1.099568486213684,3.766608715057373,45.88270686787618,45.14217960553045,183.40315484219505,164.39014710900506,-0.0001618862152099,0.0963535830378532,0,0,0
15284,536578.5453617363,2010-10-28 18:27:23,750.3782911371418,7,47,-1.0997490882873535,3.7599713802337646,45.88270686787618,45.151347518285725,183.40315484219505,164.42464821686443,-0.0001618862152099,0.0963535830378532,0,0,0
15285,536608.5605146579,2010-10-28 18:27:53,780.3934440586539,7,47,-1.099568486213684,3.753657817840576,45.88270686787618,45.16051554465022,183.40315484219505,164.4590906080839,-0.0001618862152099,0.0963535830378532,0,0,0
15286,536638.5757742302,2010-10-28 18:28:23,810.4087037663099,7,47,-1.099929690361023,3.747182607650757,45.88270686787618,45.169683577802125,183.40315484219505,164.49347505496215,-0.0002266406954731,0.0963535830378532,0,0,0
15287,536668.5908548615,2010-10-28 18:28:53,840.4237842673277,7,47,-1.0997490882873535,3.741192817687988,45.88270686787618,45.1788515181408,183.40315484219505,164.52780288581042,-0.0001618862152099,0.0963535830378532,0,0,0
15288,536698.6059453725,2010-10-28 18:29:23,870.4388747732811,7,47,-1.099568486213684,3.7353649139404297,45.88270686787618,45.18801887615631,183.40315484219505,164.56207347075244,-0.0001618862152099,0.0963535830378532,0,0,0
15289,536728.6211023892,2010-10-28 18:29:53,900.4540318250871,7,47,-1.0993878841400146,3.729051351547241,45.88270686787618,45.19718604146839,183.40315484219505,164.59628845098936,-0.0002266406954731,0.0963535830378532,0,0,0
15290,536758.6362313711,2010-10-28 18:30:23,930.4691607969093,7,47,-1.099568486213684,3.723547220230103,45.88270686787618,45.206353167148364,183.40315484219505,164.63044972060908,-0.0001618862152099,0.0963535830378532,0,0,0
15291,536788.6516279097,2010-10-28 18:30:53,960.4845574408528,7,47,-1.099568486213684,3.717881202697754,45.88270686787618,45.215520375870376,183.40315484219505,164.66455845333147,-0.0001618862152099,0.0963535830378532,0,0,0
15292,536818.6665718955,2010-10-28 18:31:23,990.499502233644,7,47,-1.0993878841400146,3.712215185165405,45.88270686787618,45.22468753003476,183.40315484219505,164.69861459010866,-0.0001618862152099,0.0963535830378532,0,0,0
15293,536848.6816603012,2010-10-28 18:31:53,1020.5145897020266,7,47,-1.099568486213684,3.7065491676330566,45.88270686787618,45.23385465389476,183.40315484219505,164.73261897482024,-0.0001618862152099,0.0963535830378532,0,0,0
15294,536878.6968257139,2010-10-28 18:32:23,1050.5297551246954,7,47,-1.099568486213684,3.701045036315918,45.88270686787618,45.2430218256306,183.40315484219505,164.76657279117038,-0.0001618862152099,0.0963535830378532,0,0,0
15295,536908.7119611818,2010-10-28 18:32:53,1080.5448905776705,7,47,-1.0993878841400146,3.695702791213989,45.88270686787618,45.25218901777285,183.40315484219505,164.80047667929716,-0.0001295089750783,0.0963535830378532,0,0,0
15296,536938.7270896775,2010-10-28 18:33:23,1110.5600190783182,7,47,-1.099568486213684,3.6901986598968506,45.88270686787618,45.26135620571091,183.40315484219505,164.83433125061728,-0.0001618862152099,0.0963535830378532,0,0,0
15297,536968.742289952,2010-10-28 18:33:53,1140.5752193829237,7,47,-1.099568486213684,3.685180187225342,45.88270686787618,45.27052338500947,183.40315484219505,164.86813758570167,-0.0001618862152099,0.0963535830378532,0,0,0
15298,536998.7573790996,2010-10-28 18:34:23,1170.5903085304913,7,47,-1.099568486213684,3.679999828338623,45.88270686787618,45.27969056557991,183.40315484219505,164.90189634549395,-0.0001295089750783,0.0963535830378532,0,0,0
15299,537028.7725419058,2010-10-28 18:34:53,1200.605471306564,7,47,-1.099568486213684,3.674819469451904,45.88270686787618,45.28885761983265,183.40315484219505,164.93560770554896,-0.0001295089750783,0.0963535830378532,0,0,0
15300,537058.7876817296,2010-10-28 18:35:23,1230.6206111304327,7,47,-1.0992072820663452,3.669963121414185,45.88270686787618,45.29802469134019,183.40315484219505,164.9692732088973,-0.0001295089750783,0.0963535830378532,0,0,0
15301,537088.8028206362,2010-10-28 18:35:53,1260.6357500370154,7,47,-1.099568486213684,3.664944648742676,45.88270686787618,45.30719177896032,183.40315484219505,165.00289312615405,-0.0001618862152099,0.0963535830378532,0,0,0
15302,537118.817947969,2010-10-28 18:36:23,1290.6508773948146,7,47,-1.099568486213684,3.660249948501587,45.88270686787618,45.31635887129828,183.40315484219505,165.03646885840712,-0.0001295089750783,0.0963535830378532,0,0,0
15303,537148.8331254517,2010-10-28 18:36:53,1320.6660548524785,7,47,-1.0997490882873535,3.655393362045288,45.88270686787618,45.32552608990315,183.40315484219505,165.07000114880634,-0.0001618862152099,0.0963535830378532,0,0,0
15304,537178.8482432958,2010-10-28 18:37:23,1350.681172736667,7,47,-1.099568486213684,3.650860548019409,45.88270686787618,45.334693313905774,183.40315484219505,165.10349006877513,-9.713172767078504e-05,0.0963535830378532,0,0,0
15305,537208.8670602341,2010-10-28 18:37:53,1380.6999897552362,7,47,-1.0993878841400146,3.64616584777832,45.88270686787618,45.34386164561708,183.40315484219505,165.13693980589773,-6.47544875391759e-05,0.0963535830378532,0,0,0
15306,537238.8785506525,2010-10-28 18:38:23,1410.7114800583763,7,47,-1.099568486213684,3.641471147537232,45.88270686787618,45.35302762536893,183.40315484219505,165.17033831377222,-0.0001295089750783,0.0963535830378532,0,0,0
15307,537268.8938213025,2010-10-28 18:38:53,1440.7267507083038,7,47,-1.099568486213684,3.636938333511353,45.88270686787618,45.36219481687851,183.40315484219505,165.20369939437117,-0.0001295089750783,0.0963535830378532,0,0,0
15308,537298.9089123247,2010-10-28 18:39:23,1470.7418417606189,7,47,-1.0993878841400146,3.6327292919158936,45.88270686787618,45.37136187946977,183.40315484219505,165.23701980989225,-9.713172767078504e-05,0.0963535830378532,0,0,0
15309,537328.923971713,2010-10-28 18:39:53,1500.7569011089176,7,47,-1.099568486213684,3.6280345916748047,45.88270686787618,45.38052898891962,183.40315484219505,165.27029983603526,-0.0001618862152099,0.0963535830378532,0,0,0
15310,537358.9391088452,2010-10-28 18:40:23,1530.7720382460902,7,47,-1.099568486213684,3.623663663864136,45.88270686787618,45.389696140299264,183.40315484219505,165.30354005674968,-0.0001618862152099,0.0963535830378532,0,0,0
15311,537388.9542700525,2010-10-28 18:40:53,1560.7871994783152,7,47,-1.099568486213684,3.619616508483887,45.88270686787618,45.39886330500857,183.40315484219505,165.33674106841772,-0.0001295089750783,0.0963535830378532,0,0,0
15312,537418.9694068788,2010-10-28 18:41:23,1590.802336269626,7,47,-1.099568486213684,3.615407466888428,45.88270686787618,45.4080304669117,183.40315484219505,165.36990343440118,-9.713172767078504e-05,0.0963535830378532,0,0,0
15313,537448.9845819656,2010-10-28 18:41:53,1620.8175113613927,7,47,-1.099568486213684,3.6111984252929688,45.88270686787618,45.41719765858205,183.40315484219505,165.40302792398157,-0.0001618862152099,0.0963535830378532,0,0,0
15314,537478.9998135932,2010-10-28 18:42:23,1650.8327429990902,7,47,-1.099568486213684,3.6073131561279297,45.88270686787618,45.4263648365438,183.40315484219505,165.43611554065592,-0.0001295089750783,0.0963535830378532,0,0,0
15315,537509.0149497429,2010-10-28 18:42:53,1680.8478791437892,7,47,-1.099568486213684,3.6035897731781006,45.88270686787618,45.43553191909471,183.40315484219505,165.46916657996687,-9.713172767078504e-05,0.0963535830378532,0,0,0
15316,537539.0302114857,2010-10-28 18:43:23,1710.8631409216046,7,47,-1.099568486213684,3.599704504013061,45.88270686787618,45.444699097223165,183.40315484219505,165.50218262218536,-9.713172767078504e-05,0.0963535830378532,0,0,0
15317,537569.0452202378,2010-10-28 18:43:53,1740.8781496387153,7,47,-1.099568486213684,3.5958192348480225,45.88270686787618,45.45386629635452,183.40315484219505,165.53516394089624,-9.713172767078504e-05,0.0963535830378532,0,0,0
15318,537599.0452800828,2010-10-28 18:44:23,1770.8782095738609,7,47,-1.0993878841400146,3.5922577381134038,45.88270686787618,45.46302886218184,183.40315484219505,165.5680945388029,-9.713172767078504e-05,0.0963535830378532,0,0,0
15319,537629.0598964822,2010-10-28 18:44:53,1800.89282590302,7,47,-1.0997490882873535,3.5885345935821533,45.88270686787618,45.47219588637298,183.40315484219505,165.60100761117926,-9.713172767078504e-05,0.0963535830378532,0,0,0
15320,537659.0749690534,2010-10-28 18:45:23,1830.907898449212,7,47,-1.099568486213684,3.585134983062744,45.88270686787618,45.48136305114714,183.40315484219505,165.6338889623759,-9.713172767078504e-05,0.0963535830378532,0,0,0
15321,537689.0901593881,2010-10-28 18:45:53,1860.9230888240693,7,47,-1.099568486213684,3.581573486328125,45.88270686787618,45.4905301959455,183.40315484219505,165.66673812508606,-9.713172767078504e-05,0.0963535830378532,0,0,0
15322,537719.1053707153,2010-10-28 18:46:23,1890.938300111046,7,47,-1.0993878841400146,3.578335762023926,45.88270686787618,45.499697368952674,183.40315484219505,165.69955597496218,-3.237724376958795e-05,0.0963535830378532,0,0,0
15323,537749.1204349106,2010-10-28 18:46:53,1920.9533643365005,7,47,-1.0997490882873535,3.574774265289306,45.88270686787618,45.50886456818045,183.40315484219505,165.7323427167899,-0.0001295089750783,0.0963535830378532,0,0,0
15324,537779.1358864313,2010-10-28 18:47:23,1950.968815862226,7,47,-1.0997490882873535,3.571374654769897,45.88270686787618,45.51803184789465,183.40315484219505,165.76509916882762,-0.0001618862152099,0.0963535830378532,0,0,0
15325,537809.150742498,2010-10-28 18:47:53,1980.983671923872,7,47,-1.0993878841400146,3.568298816680908,45.88270686787618,45.52719890478608,183.40315484219505,165.79782499040667,-6.47544875391759e-05,0.0963535830378532,0,0,0
15326,537839.1658026933,2010-10-28 18:48:23,2010.9987320942191,7,47,-1.0993878841400146,3.565061092376709,45.88270686787618,45.53636610778101,183.40315484219505,165.83052163407305,-9.713172767078504e-05,0.0963535830378532,0,0,0
15327,537869.1810326169,2010-10-28 18:48:53,2041.013962017644,7,47,-1.099568486213684,3.5618233680725098,45.88270686787618,45.54553324999296,183.40315484219505,165.86318895234925,-0.0001295089750783,0.0963535830378532,0,0,0
15328,537899.1962291069,2010-10-28 18:49:23,2071.0291585077425,7,47,-1.0992072820663452,3.5589094161987305,45.88270686787618,45.55470043677287,183.40315484219505,165.89582764936628,-9.713172767078504e-05,0.0963535830378532,0,0,0
15329,537929.2114963284,2010-10-28 18:49:53,2101.04442585945,7,47,-1.099568486213684,3.5555098056793213,45.88270686787618,45.56386761283447,183.40315484219505,165.92843741650887,-0.0001295089750783,0.0963535830378532,0,0,0
15330,537959.2263755176,2010-10-28 18:50:23,2131.0593049134,7,47,-1.099568486213684,3.552433967590332,45.88270686787618,45.57303471760567,183.40315484219505,165.96101830803454,-0.0001295089750783,0.0963535830378532,0,0,0
15331,537989.241512324,2010-10-28 18:50:53,2161.0744417197475,7,47,-1.0997490882873535,3.5495200157165527,45.88270686787618,45.582201908083526,183.40315484219505,165.99357136786912,-6.47544875391759e-05,0.0963535830378532,0,0,0
15332,538019.2569282509,2010-10-28 18:51:23,2191.089857656776,7,47,-1.099568486213684,3.5464441776275635,45.88270686787618,45.591369169867306,183.40315484219505,166.02609624169745,-9.713172767078504e-05,0.0963535830378532,0,0,0
15333,538049.2718015657,2010-10-28 18:51:53,2221.1047309664086,7,47,-1.0993878841400146,3.543368339538574,45.88270686787618,45.600536302647136,183.40315484219505,166.05859209930875,-3.237724376958795e-05,0.0963535830378532,0,0,0
15334,538079.2871123756,2010-10-28 18:52:23,2251.1200418065023,7,47,-1.099568486213684,3.539968729019165,45.88270686787618,45.6097034849056,183.40315484219505,166.09105902831362,-9.713172767078504e-05,0.0963535830378532,0,0,0
15335,538109.3022161245,2010-10-28 18:52:53,2281.135145530399,7,47,-1.0993878841400146,3.536892890930176,45.88270686787618,45.61887076765546,183.40315484219505,166.12349715434885,-6.47544875391759e-05,0.0963535830378532,0,0,0
15336,538139.3172592674,2010-10-28 18:53:23,2311.150188663284,7,47,-1.0993878841400146,3.533655166625977,45.88270686787618,45.62803798455206,183.40315484219505,166.1559059650842,-6.47544875391759e-05,0.0963535830378532,0,0,0
15337,538169.3323817983,2010-10-28 18:53:53,2341.1653111990654,7,47,-1.0992072820663452,3.5307412147521973,45.88270686787618,45.63720515021343,183.40315484219505,166.18828555433535,-3.237724376958795e-05,0.0963535830378532,0,0,0
15338,538199.3475255669,2010-10-28 18:54:23,2371.180454962753,7,47,-1.099568486213684,3.527017831802368,45.88270686787618,45.64637232002545,183.40315484219505,166.22063533239086,-9.713172767078504e-05,0.0963535830378532,0,0,0
15339,538229.3626782428,2010-10-28 18:54:53,2401.1956076937904,7,47,-1.099568486213684,3.523941993713379,45.88270686787618,45.6555395934443,183.40315484219505,166.25295500892784,-6.47544875391759e-05,0.0963535830378532,0,0,0
15340,538259.3779512487,2010-10-28 18:55:23,2431.210880654477,7,47,-1.0997490882873535,3.52021861076355,45.88270686787618,45.66470689060845,183.40315484219505,166.2852436431355,-0.0001295089750783,0.0963535830378532,0,0,0
15341,538289.3929822162,2010-10-28 18:55:53,2461.2259116120176,7,47,-1.099568486213684,3.5168190002441406,45.88270686787618,45.67387397034182,183.40315484219505,166.31749994180834,-0.0001295089750783,0.0963535830378532,0,0,0
15342,538319.4080725167,2010-10-28 18:56:23,2491.2410019174717,7,47,-1.0993878841400146,3.513257503509521,45.88270686787618,45.68304112236888,183.40315484219505,166.34972351554956,-0.0001295089750783,0.0963535830378532,0,0,0
15343,538349.4232126664,2010-10-28 18:56:53,2521.2561420721645,7,47,-1.099568486213684,3.509372472763061,45.88270686787618,45.69220831492046,183.40315484219505,166.3819129969915,-0.0001295089750783,0.0963535830378532,0,0,0
15344,538379.4383740088,2010-10-28 18:57:23,2551.2713034347144,7,47,-1.0993878841400146,3.5054872035980225,45.88270686787618,45.701375467006,183.40315484219505,166.4140665209445,-9.713172767078504e-05,0.0963535830378532,0,0,0
15345,538409.4535117525,2010-10-28 18:57:54,2581.286441143311,7,47,-1.0993878841400146,3.5012781620025635,45.88270686787618,45.7105426720296,183.40315484219505,166.44618244392572,-0.0001295089750783,0.0963535830378532,0,0,0
15346,538439.4687812746,2010-10-28 18:58:24,2611.301710680465,7,47,-1.0993878841400146,3.4969072341918945,45.88270686787618,45.71970987220331,183.40315484219505,166.4782591059015,-9.713172767078504e-05,0.0963535830378532,0,0,0
15347,538469.4839269982,2010-10-28 18:58:54,2641.316856404037,7,47,-1.099568486213684,3.4922125339508057,45.88270686787618,45.7288770738649,183.40315484219505,166.5102936265264,-9.713172767078504e-05,0.0963535830378532,0,0,0
15348,538499.4990896339,2010-10-28 18:59:24,2671.332019039761,7,47,-1.099568486213684,3.486870288848877,45.88270686787618,45.73804425456719,183.40315484219505,166.54228291985788,-0.0001618862152099,0.0963535830378532,0,0,0
15349,538529.5140849475,2010-10-28 18:59:54,2701.347014378528,7,47,-1.0993878841400146,3.4813661575317383,45.88270686787618,45.74721143039078,183.40315484219505,166.57422272224844,-0.0001618862152099,0.0963535830378532,0,0,0
15350,538559.5292290421,2010-10-28 19:00:24,2731.3621584780526,7,47,-1.0993878841400146,3.47521448135376,45.88270686787618,45.7563785099288,183.40315484219505,166.6061076413515,-0.0001295089750783,0.0963535830378532,0,0,0
15351,538589.5443819085,2010-10-28 19:00:54,2761.377311304328,7,47,-1.0997490882873535,3.468091487884521,45.88270686787618,45.7655455893953,183.40315484219505,166.63793273947073,-0.0001942634553415,0.0963535830378532,0,0,0
15352,538619.5595728799,2010-10-28 19:01:24,2791.392502310759,7,47,-1.099568486213684,3.460320949554444,45.88270686787618,45.77471271602447,183.40315484219505,166.6696908833211,-0.0002266406954731,0.0963535830378532,0,0,0
15353,538649.5746611954,2010-10-28 19:01:54,2821.407590616228,7,47,-1.0993878841400146,3.4514172077178955,45.88270686787618,45.7838798346341,183.40315484219505,166.70137298239408,-0.0002913951757363,0.0963535830378532,0,0,0
15354,538679.5898072649,2010-10-28 19:02:24,2851.4227366606,7,47,-1.099568486213684,3.441056489944458,45.88270686787618,45.79304699461906,183.40315484219505,166.73296741268436,-0.0002913951757363,0.0963535830378532,0,0,0
15355,538709.6049771737,2010-10-28 19:02:54,2881.437906599525,7,47,-1.0993878841400146,3.4290771484375,45.88270686787618,45.80221415257988,183.40315484219505,166.76445836818354,-0.0002913951757363,0.0963535830378532,0,0,0
15356,538739.6202924799,2010-10-28 19:03:24,2911.453221880688,7,47,-1.099568486213684,3.414183616638184,45.88270686787618,45.81138137649666,183.40315484219505,166.79582644352723,-0.0004532813909463,0.0963535830378532,0,0,0
15357,538769.6352512976,2010-10-28 19:03:54,2941.468180698433,7,47,-1.0997490882873535,3.396214246749878,45.88270686787618,45.82054847098336,183.40315484219505,166.82704557614267,-0.0005180359003134,0.0963535830378532,0,0,0
15358,538799.6505379925,2010-10-28 19:04:24,2971.4834674234244,7,47,-1.099568486213684,3.3737120628356934,45.88270686787618,45.829715623275234,183.40315484219505,166.8580812359024,-0.0006475448608398,0.0963535830378532,0,0,0
15359,538829.6655188702,2010-10-28 19:04:54,3001.498448296138,7,47,-1.099568486213684,3.344734668731689,45.88270686787618,45.838882736410525,183.40315484219505,166.88888226439462,-0.0008418083307333,0.0963535830378532,0,0,0
15360,538859.6808659958,2010-10-28 19:05:24,3031.513795411641,7,47,-1.099568486213684,3.3062057495117188,45.88270686787618,45.84804997052397,183.40315484219505,166.9193768851984,-0.0011655807029455,0.0963535830378532,0,0,0
15361,538889.6958021821,2010-10-28 19:05:54,3061.5287316080075,7,47,-1.099568486213684,3.2534310817718506,45.88270686787618,45.85721700281108,183.40315484219505,166.94945661646727,-0.0015864849556237,0.0963535830378532,0,0,0
15362,538919.7109689531,2010-10-28 19:06:24,3091.5438983539743,7,47,-1.099568486213684,3.1788017749786377,45.88270686787618,45.86638413730049,183.40315484219505,166.9789609374054,-0.0022987364791333,0.0963535830378532,0,0,0
15363,538949.7260902759,2010-10-28 19:06:54,3121.5590196717203,7,47,-1.0993878841400146,3.0648341178894043,45.88270686787618,45.875551285892335,183.40315484219505,167.00761864627523,-0.0036910057533532,0.0963535830378532,0,0,0
15364,538977.9756398706,2010-10-28 19:07:22,3149.8085692614677,7,47,-1.0993878841400146,2.86458158493042,45.88270686787618,45.88417918795295,183.40315484219505,167.03330717937675,-0.0077057359740138,0.0963535830378532,0,0,0
15365,538991.8191633507,2010-10-28 19:07:36,3163.6520927465376,7,47,-1.0997490882873535,2.699781894683838,45.88270686787618,45.88840724565221,183.40315484219505,167.0450862872308,-0.0103930477052927,0.0963535830378532,0,0,0
15366,539051.8326520204,2010-10-28 19:08:36,60.014680414648815,8,47,0.0,3.3638370037078857,45.88270686787618,45.88840724565221,183.40315484219505,167.0450862872308,0.0013922214275225,0.0963535830378532,0,0,0
15367,539052.0200034846,2010-10-28 19:08:36,0.187628282411549,9,47,-0.0014641173183918,3.3641607761383057,45.88270686787618,45.88840732196049,183.40315484219505,167.04508654394414,0.0,0.0939245000481605,0,0,0
15368,539056.8481324676,2010-10-28 19:08:41,5.015757285465313,9,47,0.0007031940040178,3.371769428253174,45.88270780338339,45.88840732920627,183.4031579934304,167.04508656832394,0.0011332035064697,0.0939245000481605,0,0,0
