Data_Point,Test_Time(s),Date_Time,Step_Time(s),Step_Index,Cycle_Index,Current(A),Voltage(V),Charge_Capacity(Ah),Discharge_Capacity(Ah),Charge_Energy(Wh),Discharge_Energy(Wh),dV/dt(V/s),Internal_Resistance(Ohm),Is_FC_Data,AC_Impedance(Ohm),ACI_Phase_Angle(Deg)
9203,320459.6630051146,2010-10-26 06:24:59,30.015039102840923,1,29,0.0,3.4067368507385254,27.4128781612667,27.420738448085977,109.50201927970492,99.9240183588875,0.0008094310760498,0.0931148082017898,0,0,0
9204,320489.678013561,2010-10-26 06:25:29,60.03004753925168,1,29,0.0,3.4313435554504395,27.4128781612667,27.420738448085977,109.50201927970492,99.9240183588875,0.0005827903514727,0.0931148082017898,0,0,0
9205,320519.6931781366,2010-10-26 06:25:59,90.04521216493414,1,29,0.0,3.449636459350586,27.4128781612667,27.420738448085977,109.50201927970492,99.9240183588875,0.0004209041653666,0.0931148082017898,0,0,0
9206,320549.6614764169,2010-10-26 06:26:29,120.01351043022612,1,29,0.0,3.4643681049346924,27.4128781612667,27.420738448085977,109.50201927970492,99.9240183588875,0.0003885269106831,0.0931148082017898,0,0,0
9207,320579.6714559108,2010-10-26 06:26:59,30.014948356673557,2,29,0.5501165986061096,3.620425939559937,27.41746353800805,27.420738448085977,109.51846309607056,99.9240183588875,0.0015541076427325,0.0931148082017898,0,0,0
9208,320609.6866173084,2010-10-26 06:27:29,60.03010975431074,2,29,0.5499359965324402,3.6660778522491455,27.422048921177925,27.420738448085977,109.53517515851136,99.9240183588875,0.0010684489971026,0.0931148082017898,0,0,0
9209,320639.7017493429,2010-10-26 06:27:59,90.0452418188408,2,29,0.5499359965324402,3.6987786293029785,27.426634208579703,27.420738448085977,109.5520630766544,99.9240183588875,0.0007770538213662,0.0931148082017898,0,0,0
9210,320669.71689216426,2010-10-26 06:28:29,120.06038467025508,2,29,0.5499359965324402,3.724032878875733,27.431219570219028,27.420738448085977,109.56908338789064,99.9240183588875,0.0005827903514727,0.0931148082017898,0,0,0
9211,320699.732192433,2010-10-26 06:28:59,150.07568488887688,2,29,0.5499359965324402,3.7449162006378174,27.4358049722161,27.420738448085977,109.58620900168252,99.9240183588875,0.0005180359003134,0.0931148082017898,0,0,0
9212,320729.7472038969,2010-10-26 06:29:29,180.09069633779572,2,29,0.5501165986061096,3.761266469955444,27.440390248413777,27.420738448085977,109.60341953851382,99.9240183588875,0.0003561496851034,0.0931148082017898,0,0,0
9213,320759.7623386983,2010-10-26 06:29:59,210.10583116922177,2,29,0.5499359965324402,3.7729222774505615,27.44497558050616,27.420738448085977,109.6206952099612,99.9240183588875,0.0002266406954731,0.0931148082017898,0,0,0
9214,320789.7777170216,2010-10-26 06:30:29,240.1212095727043,2,29,0.5501165986061096,3.7800452709198,27.44956089320392,27.420738448085977,109.6380126664644,99.9240183588875,0.0001618862152099,0.0931148082017898,0,0,0
9215,320819.7927451672,2010-10-26 06:30:59,270.1362376280113,2,29,0.5501165986061096,3.7847399711608887,27.454146222573304,27.420738448085977,109.65535630624578,99.9240183588875,0.0001295089750783,0.0931148082017898,0,0,0
9216,320849.80777924246,2010-10-26 06:31:29,300.15127172337213,2,29,0.5499359965324402,3.7887871265411377,27.45873150572563,27.420738448085977,109.6727197624566,99.9240183588875,9.713172767078504e-05,0.0931148082017898,0,0,0
9217,320879.82316446793,2010-10-26 06:31:59,330.1666569689071,2,29,0.5501165986061096,3.7926723957061768,27.463316889608524,27.420738448085977,109.6901017436166,99.9240183588875,0.0001295089750783,0.0931148082017898,0,0,0
9218,320909.838077692,2010-10-26 06:32:29,360.1815701579321,2,29,0.5499359965324402,3.796395778656006,27.467902177460218,27.420738448085977,109.7075009840682,99.9240183588875,6.47544875391759e-05,0.0931148082017898,0,0,0
9219,320939.8532049295,2010-10-26 06:33:00,390.1966974004442,2,29,0.5497553944587708,3.800119161605835,27.4724875008751,27.420738448085977,109.72491774241992,99.9240183588875,6.47544875391759e-05,0.0931148082017898,0,0,0
9220,320969.8683764775,2010-10-26 06:33:30,420.211868978454,2,29,0.5501165986061096,3.804004430770874,27.47707284695132,27.420738448085977,109.74235157104916,99.9240183588875,0.0001295089750783,0.0931148082017898,0,0,0
9221,320999.8834927677,2010-10-26 06:34:00,450.2269852335822,2,29,0.5501165986061096,3.807565927505493,27.481658235925742,27.420738448085977,109.75980223340255,99.9240183588875,0.0001618862152099,0.0931148082017898,0,0,0
9222,321029.89863738354,2010-10-26 06:34:30,480.2421298544064,2,29,0.5501165986061096,3.8109655380249023,27.486243644931346,27.420738448085977,109.77726931715569,99.9240183588875,6.47544875391759e-05,0.0931148082017898,0,0,0
9223,321059.9137890218,2010-10-26 06:35:00,510.2572815177827,2,29,0.5501165986061096,3.814688920974731,27.4908290790396,27.420738448085977,109.79475262597558,99.9240183588875,0.0001295089750783,0.0931148082017898,0,0,0
9224,321089.9289467603,2010-10-26 06:35:30,540.2724392262254,2,29,0.5501165986061096,3.8180885314941406,27.495414445544107,27.420738448085977,109.81225148916788,99.9240183588875,0.0001295089750783,0.0931148082017898,0,0,0
9225,321119.9441089449,2010-10-26 06:36:00,570.2876014408988,2,29,0.5499359965324402,3.82132625579834,27.499999809429124,27.420738448085977,109.8297657348996,99.9240183588875,9.713172767078504e-05,0.0931148082017898,0,0,0
9226,321149.95921428286,2010-10-26 06:36:30,600.3027067236806,2,29,0.5499359965324402,3.824563980102539,27.504585156111848,27.420738448085977,109.8472951348502,99.9240183588875,6.47544875391759e-05,0.0931148082017898,0,0,0
9227,321179.9743600816,2010-10-26 06:37:00,630.317852557528,2,29,0.5501165986061096,3.8278017044067374,27.509170518719955,27.420738448085977,109.86483967153931,99.9240183588875,6.47544875391759e-05,0.0931148082017898,0,0,0
9228,321209.9897926551,2010-10-26 06:37:30,660.3332852262563,2,29,0.5497553944587708,3.831201314926148,27.513755913640093,27.420738448085977,109.88239934063655,99.9240183588875,9.713172767078504e-05,0.0931148082017898,0,0,0
9229,321240.00478818937,2010-10-26 06:38:00,690.3482806752984,2,29,0.5499359965324402,3.834438800811768,27.51834123558547,27.420738448085977,109.89997379437392,99.9240183588875,3.237724376958795e-05,0.0931148082017898,0,0,0
9230,321270.0197972523,2010-10-26 06:38:30,720.3632897031833,2,29,0.5499359965324402,3.837676525115967,27.522926569984023,27.420738448085977,109.91756360051416,99.9240183588875,6.47544875391759e-05,0.0931148082017898,0,0,0
9231,321300.0353321659,2010-10-26 06:39:00,750.378824727012,2,29,0.5501165986061096,3.841238021850586,27.52751198987176,27.420738448085977,109.93516922260334,99.9240183588875,0.0001295089750783,0.0931148082017898,0,0,0
9232,321330.0501182531,2010-10-26 06:39:30,780.3936107190228,2,29,0.5499359965324402,3.844637632369995,27.532097297926303,27.420738448085977,109.95279008878728,99.9240183588875,9.713172767078504e-05,0.0931148082017898,0,0,0
9233,321360.0653723819,2010-10-26 06:40:00,810.4088648577995,2,29,0.5499359965324402,3.8481991291046143,27.536682604752063,27.420738448085977,109.97042676287477,99.9240183588875,9.713172767078504e-05,0.0931148082017898,0,0,0
9234,321390.0803758509,2010-10-26 06:40:30,840.4238682917426,2,29,0.5499359965324402,3.8514368534088135,27.541267993608457,27.420738448085977,109.98807960668609,99.9240183588875,9.713172767078504e-05,0.0931148082017898,0,0,0
9235,321420.09564519755,2010-10-26 06:41:00,870.4391377737592,2,29,0.5499359965324402,3.8549983501434326,27.545853345944032,27.420738448085977,110.00574797000208,99.9240183588875,9.713172767078504e-05,0.0931148082017898,0,0,0
9236,321450.110700972,2010-10-26 06:41:30,900.4541934629384,2,29,0.5499359965324402,3.858236074447632,27.55043871102105,27.420738448085977,110.02343200613588,99.9240183588875,6.47544875391759e-05,0.0931148082017898,0,0,0
9237,321480.12582491623,2010-10-26 06:42:00,930.469317382168,2,29,0.5499359965324402,3.861635684967041,27.55502400540648,27.420738448085977,110.0411310634626,99.9240183588875,9.713172767078504e-05,0.0931148082017898,0,0,0
9238,321510.1409832914,2010-10-26 06:42:30,960.4844757522596,2,29,0.5497553944587708,3.86487340927124,27.559609303381396,27.420738448085977,110.05884515444356,99.9240183588875,3.237724376958795e-05,0.0931148082017898,0,0,0
9239,321540.1561273558,2010-10-26 06:43:00,990.4996198517844,2,29,0.5499359965324402,3.8679492473602295,27.564194592796053,27.420738448085977,110.07657397759746,99.9240183588875,6.47544875391759e-05,0.0931148082017898,0,0,0
9240,321570.17126179126,2010-10-26 06:43:30,1020.5147542621612,2,29,0.5499359965324402,3.8710250854492183,27.56877994872826,27.420738448085977,110.09431758736368,99.9240183588875,3.237724376958795e-05,0.0931148082017898,0,0,0
9241,321600.18646428135,2010-10-26 06:44:00,1050.529956747201,2,29,0.5499359965324402,3.874262809753418,27.57336529076614,27.420738448085977,110.1120752162838,99.9240183588875,9.713172767078504e-05,0.0931148082017898,0,0,0
9242,321630.201540657,2010-10-26 06:44:30,1080.5450331479994,2,29,0.5499359965324402,3.8770148754119873,27.57795063542446,27.420738448085977,110.12984645618018,99.9240183588875,3.237724376958795e-05,0.0931148082017898,0,0,0
9243,321660.21669045073,2010-10-26 06:45:00,1110.5601829216664,2,29,0.5501165986061096,3.880090713500977,27.58253607265769,27.420738448085977,110.14763127245668,99.9240183588875,0.0001295089750783,0.0931148082017898,0,0,0
9244,321690.2318431517,2010-10-26 06:45:30,1140.5753356326536,2,29,0.5499359965324402,3.882519006729126,27.587121396669435,27.420738448085977,110.16542824039072,99.9240183588875,6.47544875391759e-05,0.0931148082017898,0,0,0
9245,321720.24697804335,2010-10-26 06:46:00,1170.5904704891425,2,29,0.5497553944587708,3.8849472999572754,27.59170673780206,27.420738448085977,110.18323730615084,99.9240183588875,6.47544875391759e-05,0.0931148082017898,0,0,0
9246,321750.2622686329,2010-10-26 06:46:30,1200.6057611890403,2,29,0.5499359965324402,3.8876993656158447,27.59629210689745,27.420738448085977,110.20105790584375,99.9240183588875,9.713172767078504e-05,0.0931148082017898,0,0,0
9247,321780.2772734102,2010-10-26 06:47:00,1230.6207658560568,2,29,0.5501165986061096,3.889965772628784,27.60087740924688,27.420738448085977,110.21888904496257,99.9240183588875,6.47544875391759e-05,0.0931148082017898,0,0,0
9248,321810.2924225523,2010-10-26 06:47:30,1260.6359150181993,2,29,0.5499359965324402,3.8920702934265137,27.60546283595268,27.420738448085977,110.23673079688258,99.9240183588875,9.713172767078504e-05,0.0931148082017898,0,0,0
9249,321840.3077570965,2010-10-26 06:48:00,1290.6512495673835,2,29,0.5497553944587708,3.894012928009033,27.610048265062453,27.420738448085977,110.25458204785504,99.9240183588875,3.237724376958795e-05,0.0931148082017898,0,0,0
9250,321870.32270543807,2010-10-26 06:48:30,1320.6661979140315,2,29,0.5499359965324402,3.8959555625915527,27.61463358216192,27.420738448085977,110.2724414184563,99.9240183588875,6.47544875391759e-05,0.0931148082017898,0,0,0
9251,321900.3378499637,2010-10-26 06:49:00,1350.6813424346062,2,29,0.5499359965324402,3.897574424743652,27.61921888427524,27.420738448085977,110.29030900973592,99.9240183588875,3.237724376958795e-05,0.0931148082017898,0,0,0
9252,321930.353010028,2010-10-26 06:49:30,1380.696502473858,2,29,0.5499359965324402,3.899193286895752,27.62380419720343,27.420738448085977,110.30818444295052,99.9240183588875,3.237724376958795e-05,0.0931148082017898,0,0,0
9253,321960.36831767514,2010-10-26 06:50:00,1410.7118101260064,2,29,0.5499359965324402,3.9006502628326416,27.628389603144296,27.420738448085977,110.32606751044564,99.9240183588875,3.237724376958795e-05,0.0931148082017898,0,0,0
9254,321990.3858889088,2010-10-26 06:50:30,1440.7293814649588,2,29,0.5499359965324402,3.902269124984741,27.63297520488689,27.420738448085977,110.3439582667322,99.9240183588875,3.237724376958795e-05,0.0931148082017898,0,0,0
9255,322020.3987745446,2010-10-26 06:51:00,1470.7422670305225,2,29,0.5501165986061096,3.903726100921631,27.637560203719097,27.420738448085977,110.36185327167657,99.9240183588875,6.47544875391759e-05,0.0931148082017898,0,0,0
9256,322050.4135610128,2010-10-26 06:51:30,1500.7570534586198,2,29,0.5499359965324402,3.905021190643311,27.64214540589205,27.420738448085977,110.37975544431734,99.9240183588875,3.237724376958795e-05,0.0931148082017898,0,0,0
9257,322080.4286922703,2010-10-26 06:52:00,1530.7721847612513,2,29,0.5499359965324402,3.9063162803649902,27.646730658930853,27.420738448085977,110.39766386108089,99.9240183588875,6.47544875391759e-05,0.0931148082017898,0,0,0
9258,322110.44388148224,2010-10-26 06:52:30,1560.7873739230852,2,29,0.5499359965324402,3.90761137008667,27.651315859780077,27.420738448085977,110.41557824474744,99.9240183588875,0.0,0.0931148082017898,0,0,0
9259,322140.45899989776,2010-10-26 06:53:00,1590.802492373685,2,29,0.5499359965324402,3.9089064598083496,27.655901180253373,27.420738448085977,110.4334991549739,99.9240183588875,0.0,0.0931148082017898,0,0,0
9260,322170.47435825126,2010-10-26 06:53:30,1620.8178507021346,2,29,0.5501165986061096,3.9103634357452393,27.66048645704243,27.420738448085977,110.4514259613926,99.9240183588875,3.237724376958795e-05,0.0931148082017898,0,0,0
9261,322200.4894098552,2010-10-26 06:54:00,1650.8329023161573,2,29,0.5501165986061096,3.911658525466919,27.665071725335824,27.420738448085977,110.4693586380948,99.9240183588875,3.237724376958795e-05,0.0931148082017898,0,0,0
9262,322230.50447944907,2010-10-26 06:54:30,1680.8479718899407,2,29,0.5499359965324402,3.912953615188599,27.669656951234675,27.420738448085977,110.487297199322,99.9240183588875,6.47544875391759e-05,0.0931148082017898,0,0,0
9263,322260.5196246564,2010-10-26 06:55:00,1710.8631171523646,2,29,0.5499359965324402,3.914086580276489,27.674242240156293,27.420738448085977,110.5052419882578,99.9240183588875,0.0,0.0931148082017898,0,0,0
9264,322290.5347915427,2010-10-26 06:55:30,1740.8782839835435,2,29,0.5501165986061096,3.915543556213379,27.678828338070037,27.420738448085977,110.5231960940732,99.9240183588875,3.237724376958795e-05,0.0931148082017898,0,0,0
9265,322320.54993299564,2010-10-26 06:56:00,1770.8934254665476,2,29,0.5497553944587708,3.9168386459350586,27.68341462529441,27.420738448085977,110.54115688224974,99.9240183588875,3.237724376958795e-05,0.0931148082017898,0,0,0
9266,322350.56519904913,2010-10-26 06:56:30,1800.9086915049816,2,29,0.5499359965324402,3.9181337356567374,27.687999999199636,27.420738448085977,110.55912029519594,99.9240183588875,3.237724376958795e-05,0.0931148082017898,0,0,0
9267,322380.5802392246,2010-10-26 06:57:00,1830.9237317055583,2,29,0.5501165986061096,3.919590711593628,27.692585204523088,27.420738448085977,110.57708919248216,99.9240183588875,6.47544875391759e-05,0.0931148082017898,0,0,0
9268,322410.59553245583,2010-10-26 06:57:30,1860.9390249167152,2,29,0.5499359965324402,3.920885801315308,27.69717040017709,27.420738448085977,110.59506424248416,99.9240183588875,6.47544875391759e-05,0.0931148082017898,0,0,0
9269,322440.61051032104,2010-10-26 06:58:00,1890.9540028019835,2,29,0.5499359965324402,3.922342777252197,27.701755611662563,27.420738448085977,110.61304557896244,99.9240183588875,0.0,0.0931148082017898,0,0,0
9270,322470.6257862391,2010-10-26 06:58:30,1920.969278689966,2,29,0.5499359965324402,3.923637866973877,27.70634089317758,27.420738448085977,110.63103350012142,99.9240183588875,3.237724376958795e-05,0.0931148082017898,0,0,0
9271,322500.64081819414,2010-10-26 06:59:00,1950.984310644992,2,29,0.5499359965324402,3.925094842910767,27.71092609571723,27.420738448085977,110.64902747597442,99.9240183588875,6.47544875391759e-05,0.0931148082017898,0,0,0
9272,322530.6559623237,2010-10-26 06:59:30,1980.9994547695792,2,29,0.5497553944587708,3.926228046417236,27.71551136736599,27.420738448085977,110.66702799101996,99.9240183588875,3.237724376958795e-05,0.0931148082017898,0,0,0
9273,322560.67115174624,2010-10-26 07:00:00,2011.014644237176,2,29,0.5499359965324402,3.927846908569336,27.720096576515463,27.420738448085977,110.68503471146256,99.9240183588875,3.237724376958795e-05,0.0931148082017898,0,0,0
9274,322590.68637272733,2010-10-26 07:00:30,2041.0298652183133,2,29,0.5501165986061096,3.9293038845062256,27.72468182039422,27.420738448085977,110.70304805262528,99.9240183588875,6.47544875391759e-05,0.0931148082017898,0,0,0
9275,322620.70139090304,2010-10-26 07:01:00,2071.04488337896,2,29,0.5499359965324402,3.930598974227905,27.72926703511762,27.420738448085977,110.72106785069064,99.9240183588875,3.237724376958795e-05,0.0931148082017898,0,0,0
9276,322650.7167490761,2010-10-26 07:01:30,2101.060241536985,2,29,0.5497553944587708,3.932055950164795,27.733852318156384,27.420738448085977,110.73909447874432,99.9240183588875,3.237724376958795e-05,0.0931148082017898,0,0,0
9277,322680.7317826752,2010-10-26 07:02:00,2131.0752751561586,2,29,0.5497553944587708,3.9336748123168954,27.73843760239413,27.420738448085977,110.75712783773191,99.9240183588875,3.237724376958795e-05,0.0931148082017898,0,0,0
9278,322710.74692561186,2010-10-26 07:02:30,2161.090418052685,2,29,0.5501165986061096,3.935131788253784,27.74302291082219,27.420738448085977,110.77516800717753,99.9240183588875,3.237724376958795e-05,0.0931148082017898,0,0,0
9279,322740.7619564491,2010-10-26 07:03:00,2191.105449025263,2,29,0.5499359965324402,3.936426877975464,27.747608219273957,27.420738448085977,110.79321497802628,99.9240183588875,3.237724376958795e-05,0.0931148082017898,0,0,0
9280,322770.7771114307,2010-10-26 07:03:30,2221.120603881597,2,29,0.5501165986061096,3.938045740127564,27.75219346964283,27.420738448085977,110.8112685359138,99.9240183588875,3.237724376958795e-05,0.0931148082017898,0,0,0
9281,322800.79240152414,2010-10-26 07:04:00,2251.1358940100718,2,29,0.5499359965324402,3.939502716064453,27.75677873289756,27.420738448085977,110.82932905130464,99.9240183588875,6.47544875391759e-05,0.0931148082017898,0,0,0
9282,322830.807377269,2010-10-26 07:04:30,2281.15086974498,2,29,0.5501165986061096,3.9411215782165527,27.761363897164102,27.420738448085977,110.8473961308502,99.9240183588875,3.237724376958795e-05,0.0931148082017898,0,0,0
9283,322860.8226477435,2010-10-26 07:05:01,2311.1661401893957,2,29,0.5499359965324402,3.942740440368652,27.765949174142847,27.420738448085977,110.86547056815742,99.9240183588875,6.47544875391759e-05,0.0931148082017898,0,0,0
9284,322890.8376750019,2010-10-26 07:05:31,2341.1811674527285,2,29,0.5497553944587708,3.944197416305542,27.7705343604391,27.420738448085977,110.88355167156328,99.9240183588875,9.713172767078504e-05,0.0931148082017898,0,0,0
9285,322920.8528062494,2010-10-26 07:06:01,2371.196298700222,2,29,0.5497553944587708,3.945654392242432,27.77511963165025,27.420738448085977,110.9016401072726,99.9240183588875,3.237724376958795e-05,0.0931148082017898,0,0,0
9286,322950.8679491108,2010-10-26 07:06:31,2401.211441561661,2,29,0.5499359965324402,3.9472732543945312,27.779704922853977,27.420738448085977,110.91973570952064,99.9240183588875,6.47544875391759e-05,0.0931148082017898,0,0,0
9287,322980.8832259311,2010-10-26 07:07:01,2431.226718391992,2,29,0.5499359965324402,3.948730230331421,27.78429020924303,27.420738448085977,110.93783836854644,99.9240183588875,0.0,0.0931148082017898,0,0,0
9288,323010.8982634049,2010-10-26 07:07:31,2461.241755855748,2,29,0.5497553944587708,3.950187206268311,27.78887541436668,27.420738448085977,110.95594782543029,99.9240183588875,0.0,0.0931148082017898,0,0,0
9289,323040.9135090425,2010-10-26 07:08:01,2491.257001533437,2,29,0.5499359965324402,3.95180606842041,27.793460650296502,27.420738448085977,110.9740645325662,99.9240183588875,0.0,0.0931148082017898,0,0,0
9290,323070.9285281204,2010-10-26 07:08:31,2521.272020561245,2,29,0.5499359965324402,3.9534249305725098,27.79804587680121,27.420738448085977,110.99218821711972,99.9240183588875,3.237724376958795e-05,0.0931148082017898,0,0,0
9291,323100.94367322244,2010-10-26 07:09:01,2551.2871657033684,2,29,0.5501165986061096,3.9552056789398193,27.80263119205648,27.420738448085977,111.01031951305562,99.9240183588875,6.47544875391759e-05,0.0931148082017898,0,0,0
9292,323130.95904326,2010-10-26 07:09:31,2581.3025358512755,2,29,0.5499359965324402,3.956662654876709,27.807216590839182,27.420738448085977,111.02845846924814,99.9240183588875,3.237724376958795e-05,0.0931148082017898,0,0,0
9293,323160.97396702046,2010-10-26 07:10:01,2611.317459491348,2,29,0.5501165986061096,3.9582815170288086,27.811801816394528,27.420738448085977,111.04660388938136,99.9240183588875,6.47544875391759e-05,0.0931148082017898,0,0,0
9294,323190.9891058067,2010-10-26 07:10:31,2641.332598252568,2,29,0.5499359965324402,3.959900379180908,27.8163870843728,27.420738448085977,111.06475689673194,99.9240183588875,6.47544875391759e-05,0.0931148082017898,0,0,0
9295,323221.0043935543,2010-10-26 07:11:01,2671.34788604522,2,29,0.5497553944587708,3.961357355117798,27.82097234849815,27.420738448085977,111.08291739107696,99.9240183588875,3.237724376958795e-05,0.0931148082017898,0,0,0
9296,323251.0194023064,2010-10-26 07:11:31,2701.362894747293,2,29,0.5497553944587708,3.9629762172698975,27.82555767985425,27.420738448085977,111.10108575908338,99.9240183588875,3.237724376958795e-05,0.0931148082017898,0,0,0
9297,323281.0345996988,2010-10-26 07:12:01,2731.378092139641,2,29,0.5501165986061096,3.964918851852417,27.83014291920252,27.420738448085977,111.11926148349174,99.9240183588875,3.237724376958795e-05,0.0931148082017898,0,0,0
9298,323311.0498927545,2010-10-26 07:12:31,2761.3933852455352,2,29,0.5497553944587708,3.966375827789306,27.83472827045509,27.420738448085977,111.13744543113168,99.9240183588875,0.0,0.0931148082017898,0,0,0
9299,323341.0648217229,2010-10-26 07:13:01,2791.4083141687747,2,29,0.5501165986061096,3.968318462371826,27.839313537097837,27.420738448085977,111.15563679778536,99.9240183588875,9.713172767078504e-05,0.0931148082017898,0,0,0
9300,323371.07998323085,2010-10-26 07:13:31,2821.423475701749,2,29,0.5497553944587708,3.969937324523926,27.84389872694308,27.420738448085977,111.17383572077829,99.9240183588875,3.237724376958795e-05,0.0931148082017898,0,0,0
9301,323401.0951074759,2010-10-26 07:14:01,2851.4385999467904,2,29,0.5497553944587708,3.9715561866760254,27.84848406031429,27.420738448085977,111.1920431027278,99.9240183588875,3.237724376958795e-05,0.0931148082017898,0,0,0
9302,323431.1102938708,2010-10-26 07:14:31,2881.4537863216788,2,29,0.5499359965324402,3.973336935043335,27.853069412533365,27.420738448085977,111.21025851642815,99.9240183588875,0.0,0.0931148082017898,0,0,0
9303,323461.1254174191,2010-10-26 07:15:01,2911.468909869984,2,29,0.5499359965324402,3.975117683410645,27.857654684436685,27.420738448085977,111.2284816657683,99.9240183588875,3.237724376958795e-05,0.0931148082017898,0,0,0
9304,323491.14058784925,2010-10-26 07:15:31,2941.4840803001325,2,29,0.5501165986061096,3.977060317993164,27.862240062909983,27.420738448085977,111.2467133298026,99.9240183588875,9.713172767078504e-05,0.0931148082017898,0,0,0
9305,323521.1556816534,2010-10-26 07:16:01,2971.499174104306,2,29,0.5501165986061096,3.9785172939300537,27.8668253879355,27.420738448085977,111.26495238065148,99.9240183588875,9.713172767078504e-05,0.0931148082017898,0,0,0
9306,323551.1709558272,2010-10-26 07:16:31,3001.514448278016,2,29,0.5499359965324402,3.980459928512573,27.871410635082864,27.420738448085977,111.28319975942529,99.9240183588875,3.237724376958795e-05,0.0931148082017898,0,0,0
9307,323581.18601765163,2010-10-26 07:17:01,3031.5295101375737,2,29,0.5499359965324402,3.982240676879883,27.87599584357137,27.420738448085977,111.30145504040304,99.9240183588875,6.47544875391759e-05,0.0931148082017898,0,0,0
9308,323611.2012617955,2010-10-26 07:17:31,3061.5447543516148,2,29,0.5499359965324402,3.984021425247192,27.88058116862506,27.420738448085977,111.31971900363185,99.9240183588875,3.237724376958795e-05,0.0931148082017898,0,0,0
9309,323641.216374988,2010-10-26 07:18:01,3091.5598675491224,2,29,0.5501165986061096,3.985964059829712,27.88516635242281,27.420738448085977,111.33799076985429,99.9240183588875,3.237724376958795e-05,0.0931148082017898,0,0,0
9310,323671.23154025024,2010-10-26 07:18:31,3121.575032796354,2,29,0.5501165986061096,3.9877448081970215,27.889751578322272,27.420738448085977,111.3562712189134,99.9240183588875,6.47544875391759e-05,0.0931148082017898,0,0,0
9311,323701.24655662145,2010-10-26 07:19:01,3151.5900490723034,2,29,0.5499359965324402,3.989687442779541,27.89433673597028,27.420738448085977,111.3745597727077,99.9240183588875,6.47544875391759e-05,0.0931148082017898,0,0,0
9312,323731.26171736245,2010-10-26 07:19:31,3181.605209833354,2,29,0.5499359965324402,3.9914681911468506,27.89892198940596,27.420738448085977,111.3928573351501,99.9240183588875,3.237724376958795e-05,0.0931148082017898,0,0,0
9313,323761.2770078167,2010-10-26 07:20:01,3211.62050028764,2,29,0.5501165986061096,3.99341082572937,27.90350714476636,27.420738448085977,111.41116319536752,99.9240183588875,6.47544875391759e-05,0.0931148082017898,0,0,0
9314,323791.2919870604,2010-10-26 07:20:31,3241.6354795062307,2,29,0.5499359965324402,3.995353221893311,27.90809233055756,27.420738448085977,111.42947796276296,99.9240183588875,6.47544875391759e-05,0.0931148082017898,0,0,0
9315,323821.29301610583,2010-10-26 07:21:01,3271.6365085516986,2,29,0.5499359965324402,3.99713397026062,27.912675353276946,27.420738448085977,111.44779295828984,99.9240183588875,3.237724376958795e-05,0.0931148082017898,0,0,0
9316,323851.307594716,2010-10-26 07:21:31,3301.6510872921745,2,29,0.5499359965324402,3.9992384910583496,27.917260555394225,27.420738448085977,111.46612556681916,99.9240183588875,6.47544875391759e-05,0.0931148082017898,0,0,0
9317,323881.3218159254,2010-10-26 07:22:01,3331.665308376261,2,29,0.5497553944587708,4.001181125640869,27.92184558002252,27.420738448085977,111.48446658983148,99.9240183588875,6.47544875391759e-05,0.0931148082017898,0,0,0
9318,323911.33694370923,2010-10-26 07:22:31,3361.6804361901973,2,29,0.5497553944587708,4.003123760223389,27.926430780781164,27.420738448085977,111.5028175503254,99.9240183588875,3.23295607813634e-05,0.0931148082017898,0,0,0
9319,323941.354689493,2010-10-26 07:23:01,3391.69818197392,2,29,0.5499359965324402,4.005390167236328,27.931016331506115,27.420738448085977,111.5211791446423,99.9240183588875,9.70840483205393e-05,0.0931148082017898,0,0,0
9320,323971.36754173547,2010-10-26 07:23:31,3421.7110343116688,2,29,0.5499359965324402,4.007332801818848,27.935601133206905,27.420738448085977,111.53954721535062,99.9240183588875,6.47544875391759e-05,0.0931148082017898,0,0,0
9321,324001.3824135113,2010-10-26 07:24:01,3451.725905982217,2,29,0.5499359965324402,4.009275436401367,27.940186261696763,27.420738448085977,111.55792609558888,99.9240183588875,3.23295607813634e-05,0.0931148082017898,0,0,0
9322,324031.3975387037,2010-10-26 07:24:31,3481.7410311545696,2,29,0.5497553944587708,4.011541843414307,27.944771384967115,27.420738448085977,111.57631462312108,99.9240183588875,6.47544875391759e-05,0.0931148082017898,0,0,0
9323,324061.4126831641,2010-10-26 07:25:01,3511.7561756149944,2,29,0.5499359965324402,4.013646602630615,27.94935656979204,27.420738448085977,111.59471321338764,99.9240183588875,3.24249267578125e-05,0.0931148082017898,0,0,0
9324,324091.4278098252,2010-10-26 07:25:31,3541.7713022860826,2,29,0.5499359965324402,4.015913009643555,27.95394172711911,27.420738448085977,111.61312147097424,99.9240183588875,6.47544875391759e-05,0.0931148082017898,0,0,0
9325,324121.44315723644,2010-10-26 07:26:01,3571.78664979256,2,29,0.5501165986061096,4.018179416656494,27.95852698656092,27.420738448085977,111.63154015329393,99.9240183588875,6.47544875391759e-05,0.0931148082017898,0,0,0
9326,324151.4581002999,2010-10-26 07:26:31,3601.801592750779,2,29,0.5499359965324402,4.0202836990356445,27.96311212673247,27.420738448085977,111.64996833247363,99.9240183588875,3.23295607813634e-05,0.0931148082017898,0,0,0
9327,324181.4732412466,2010-10-26 07:27:01,3631.816733707471,2,29,0.5499359965324402,4.022550106048584,27.96769733126016,27.420738448085977,111.66840701382829,99.9240183588875,6.47544875391759e-05,0.0931148082017898,0,0,0
9328,324211.4884120326,2010-10-26 07:27:31,3661.831904508545,2,29,0.5499359965324402,4.024654865264893,27.97228253578419,27.420738448085977,111.6868560594698,99.9240183588875,0.0,0.0931148082017898,0,0,0
9329,324241.50367406104,2010-10-26 07:28:01,3691.8471665119214,2,29,0.5499359965324402,4.026921272277832,27.97686770642795,27.420738448085977,111.70531538399548,99.9240183588875,6.47544875391759e-05,0.0931148082017898,0,0,0
9330,324271.5188570726,2010-10-26 07:28:31,3721.862349553503,2,29,0.5499359965324402,4.029349327087402,27.98145287423748,27.420738448085977,111.72378527291356,99.9240183588875,6.47544875391759e-05,0.0931148082017898,0,0,0
9331,324301.5338167876,2010-10-26 07:29:01,3751.8773092384095,2,29,0.5501165986061096,4.031777858734131,27.98603806912329,27.420738448085977,111.74226579674512,99.9240183588875,6.47544875391759e-05,0.0931148082017898,0,0,0
9332,324331.5490861743,2010-10-26 07:29:31,3781.8925786502514,2,29,0.5499359965324402,4.034205913543701,27.99062326020237,27.420738448085977,111.76075706095264,99.9240183588875,6.47544875391759e-05,0.0931148082017898,0,0,0
9333,324361.5641149314,2010-10-26 07:30:01,3811.907607382245,2,29,0.5501165986061096,4.036472320556641,27.995208475848496,27.420738448085977,111.7792592555942,99.9240183588875,9.71794142969884e-05,0.0931148082017898,0,0,0
9334,324391.5792462541,2010-10-26 07:30:31,3841.9227387049264,2,29,0.5501165986061096,4.03873872756958,27.999793663998197,27.420738448085977,111.79777224532016,99.9240183588875,3.24249267578125e-05,0.0931148082017898,0,0,0
9335,324421.594546182,2010-10-26 07:31:01,3871.938038632823,2,29,0.5499359965324402,4.04116678237915,28.00437892705561,27.420738448085977,111.8162964667518,99.9240183588875,6.47544875391759e-05,0.0931148082017898,0,0,0
9336,324451.6095437914,2010-10-26 07:31:31,3901.953036272325,2,29,0.5499359965324402,4.043595314025879,28.00896414959924,27.420738448085977,111.83483166408156,99.9240183588875,9.71794142969884e-05,0.0931148082017898,0,0,0
9337,324481.6246940112,2010-10-26 07:32:01,3931.968186462029,2,29,0.5501165986061096,4.046185493469238,28.013549358447246,27.420738448085977,111.85337797943728,99.9240183588875,9.71794142969884e-05,0.0931148082017898,0,0,0
9338,324511.63982578,2010-10-26 07:32:31,3961.9833182308207,2,29,0.5499359965324402,4.048451900482178,28.01813457040264,27.420738448085977,111.87193559735668,99.9240183588875,6.47544875391759e-05,0.0931148082017898,0,0,0
9339,324541.6549694534,2010-10-26 07:33:01,3991.998461904284,2,29,0.5497553944587708,4.050879955291748,28.02271979065974,27.420738448085977,111.89050456639322,99.9240183588875,3.23295607813634e-05,0.0931148082017898,0,0,0
9340,324571.6702558927,2010-10-26 07:33:31,4022.013748383664,2,29,0.5499359965324402,4.053470134735107,28.027304976376332,27.420738448085977,111.90908477861372,99.9240183588875,9.70840483205393e-05,0.0931148082017898,0,0,0
9341,324601.6852640434,2010-10-26 07:34:01,4052.0287564942623,2,29,0.5499359965324402,4.056060314178467,28.03189021342142,27.420738448085977,111.92767676556804,99.9240183588875,6.47544875391759e-05,0.0931148082017898,0,0,0
9342,324631.70050309954,2010-10-26 07:34:31,4082.0439956757614,2,29,0.5499359965324402,4.058650493621826,28.03647549923697,27.420738448085977,111.94628053576815,99.9240183588875,9.70840483205393e-05,0.0931148082017898,0,0,0
9343,324661.7156734395,2010-10-26 07:35:01,4112.059165920448,2,29,0.5501165986061096,4.060916900634766,28.041060791942964,27.420738448085977,111.96489592771174,99.9240183588875,6.47544875391759e-05,0.0931148082017898,0,0,0
9344,324691.73068393604,2010-10-26 07:35:31,4142.074176386918,2,29,0.5499359965324402,4.063669204711914,28.04564598438333,27.420738448085977,111.98352241236346,99.9240183588875,9.71794142969884e-05,0.0931148082017898,0,0,0
9345,324721.74583806057,2010-10-26 07:36:01,4172.089330511429,2,29,0.5499359965324402,4.066097259521484,28.0502311750966,27.420738448085977,112.00216087589048,99.9240183588875,6.47544875391759e-05,0.0931148082017898,0,0,0
9346,324751.760990561,2010-10-26 07:36:31,4202.104483036954,2,29,0.5501165986061096,4.068849563598633,28.054816426410117,27.420738448085977,112.0208116651077,99.9240183588875,9.71794142969884e-05,0.0931148082017898,0,0,0
9347,324781.7761099239,2010-10-26 07:37:01,4232.119602369753,2,29,0.5499359965324402,4.071439743041992,28.059401713397524,27.420738448085977,112.03947470709689,99.9240183588875,6.47544875391759e-05,0.0931148082017898,0,0,0
9348,324811.791257858,2010-10-26 07:37:32,4262.134750308847,2,29,0.5499359965324402,4.074191570281982,28.063986954034927,27.420738448085977,112.0581497597148,99.9240183588875,9.70840483205393e-05,0.0931148082017898,0,0,0
9349,324841.8064381076,2010-10-26 07:38:02,4292.149930578518,2,29,0.5497553944587708,4.076943874359131,28.068572156422608,27.420738448085977,112.07683702066228,99.9240183588875,6.47544875391759e-05,0.0931148082017898,0,0,0
9350,324871.8216765322,2010-10-26 07:38:32,4322.165169018168,2,29,0.5499359965324402,4.079695701599121,28.073157341125537,27.420738448085977,112.09553672313642,99.9240183588875,9.70840483205393e-05,0.0931148082017898,0,0,0
9351,324901.8366822619,2010-10-26 07:39:02,4352.180174712746,2,29,0.5499359965324402,4.0824480056762695,28.07774252915684,27.420738448085977,112.11424900459198,99.9240183588875,9.71794142969884e-05,0.0931148082017898,0,0,0
9352,324931.8518259704,2010-10-26 07:39:32,4382.195318416283,2,29,0.5497553944587708,4.08519983291626,28.082327739110216,27.420738448085977,112.13297410563692,99.9240183588875,9.70840483205393e-05,0.0931148082017898,0,0,0
9353,324961.86699024524,2010-10-26 07:40:02,4412.21048268608,2,29,0.5499359965324402,4.087952136993408,28.086912940855107,27.420738448085977,112.15171196218948,99.9240183588875,6.47544875391759e-05,0.0931148082017898,0,0,0
9354,324991.8821207308,2010-10-26 07:40:32,4442.225613211775,2,29,0.5499359965324402,4.090866088867188,28.091498143564117,27.420738448085977,112.17046275868664,99.9240183588875,6.47544875391759e-05,0.0931148082017898,0,0,0
9355,325021.89724179293,2010-10-26 07:41:02,4472.240734233783,2,29,0.5501165986061096,4.093780040740967,28.09608332371661,27.420738448085977,112.18922649922617,99.9240183588875,9.71794142969884e-05,0.0931148082017898,0,0,0
9356,325051.91241556645,2010-10-26 07:41:32,4502.255908042352,2,29,0.5499359965324402,4.096693992614746,28.10066848322477,27.420738448085977,112.2080033402672,99.9240183588875,9.71794142969884e-05,0.0931148082017898,0,0,0
9357,325081.92778816546,2010-10-26 07:42:02,4532.27128064638,2,29,0.5497553944587708,4.099445819854736,28.10525369628564,27.420738448085977,112.22679369153202,99.9240183588875,9.70840483205393e-05,0.0931148082017898,0,0,0
9358,325111.94284000504,2010-10-26 07:42:32,4562.286332465915,2,29,0.5497553944587708,4.102035999298096,28.10983893479436,27.420738448085977,112.24559747722984,99.9240183588875,0.0,0.0931148082017898,0,0,0
9359,325141.95771849755,2010-10-26 07:43:02,4592.301210948442,2,29,0.5499359965324402,4.105435848236084,28.114424121616285,27.420738448085977,112.26441457234664,99.9240183588875,6.47544875391759e-05,0.0931148082017898,0,0,0
9360,325171.9729249475,2010-10-26 07:43:32,4622.31641739335,2,29,0.5497553944587708,4.108349800109863,28.119009265176796,27.420738448085977,112.28324512274612,99.9240183588875,6.47544875391759e-05,0.0931148082017898,0,0,0
9361,325201.9880840143,2010-10-26 07:44:02,4652.331576510303,2,29,0.5499359965324402,4.111425399780273,28.123594421571,27.420738448085977,112.30208945035596,99.9240183588875,9.70840483205393e-05,0.0931148082017898,0,0,0
9362,325232.00333638873,2010-10-26 07:44:32,4682.34682883957,2,29,0.5495747923851013,4.114339351654053,28.128179648076287,27.420738448085977,112.3209479267519,99.9240183588875,6.47544875391759e-05,0.0931148082017898,0,0,0
9363,325262.0183028756,2010-10-26 07:45:02,4712.361795321416,2,29,0.5499359965324402,4.117577075958252,28.132764771357877,27.420738448085977,112.33981994990816,99.9240183588875,9.71794142969884e-05,0.0931148082017898,0,0,0
9364,325292.03348286456,2010-10-26 07:45:32,4742.376975335452,2,29,0.5501165986061096,4.120491027832031,28.13734997424566,27.420738448085977,112.35870637625963,99.9240183588875,9.71794142969884e-05,0.0931148082017898,0,0,0
9365,325322.0486474201,2010-10-26 07:46:02,4772.392139865897,2,29,0.5499359965324402,4.123728752136231,28.141935222484197,27.420738448085977,112.37760730736665,99.9240183588875,9.71794142969884e-05,0.0931148082017898,0,0,0
9366,325352.0637695097,2010-10-26 07:46:32,4802.407261985641,2,29,0.5497553944587708,4.126804351806641,28.146520437900715,27.420738448085977,112.39652242289718,99.9240183588875,6.47544875391759e-05,0.0931148082017898,0,0,0
9367,325382.0789254337,2010-10-26 07:47:02,4832.422417879561,2,29,0.5497553944587708,4.129880428314209,28.151105674097582,27.420738448085977,112.41545217059522,99.9240183588875,6.47544875391759e-05,0.0931148082017898,0,0,0
9368,325412.09419942694,2010-10-26 07:47:32,4862.437691968059,2,29,0.5501165986061096,4.133279800415039,28.15569099327177,27.420738448085977,112.43439687187,99.9240183588875,9.70840483205393e-05,0.0931148082017898,0,0,0
9369,325442.1092251264,2010-10-26 07:48:02,4892.45271761737,2,29,0.5499359965324402,4.136517524719238,28.160276353870945,27.420738448085977,112.4533564477433,99.9240183588875,9.70840483205393e-05,0.0931148082017898,0,0,0
9370,325472.1244951598,2010-10-26 07:48:32,4922.467987620686,2,29,0.5497553944587708,4.139593601226807,28.1648617351536,27.420738448085977,112.47233103727736,99.9240183588875,9.71794142969884e-05,0.0931148082017898,0,0,0
9371,325502.1394859823,2010-10-26 07:49:02,4952.482978438185,2,29,0.5499359965324402,4.142992973327637,28.169447081214976,27.420738448085977,112.4913205794209,99.9240183588875,6.47544875391759e-05,0.0931148082017898,0,0,0
9372,325532.154758547,2010-10-26 07:49:32,4982.498251007897,2,29,0.5499359965324402,4.146392822265625,28.17403245380807,27.420738448085977,112.51032548970647,99.9240183588875,6.47544875391759e-05,0.0931148082017898,0,0,0
9373,325562.1697886173,2010-10-26 07:50:02,5012.513281093263,2,29,0.5499359965324402,4.149792194366455,28.178617754926904,27.420738448085977,112.5293455342044,99.9240183588875,0.0001295089750783,0.0931148082017898,0,0,0
9374,325592.18489715824,2010-10-26 07:50:32,5042.52838960409,2,29,0.5499359965324402,4.153029918670654,28.183202987140653,27.420738448085977,112.54838068247412,99.9240183588875,9.70840483205393e-05,0.0931148082017898,0,0,0
9375,325622.2001675876,2010-10-26 07:51:02,5072.543660043493,2,29,0.5499359965324402,4.156429767608643,28.187788212203017,27.420738448085977,112.56743121362884,99.9240183588875,3.24249267578125e-05,0.0931148082017898,0,0,0
9376,325652.2152613868,2010-10-26 07:51:32,5102.558753862704,2,29,0.5501165986061096,4.159991264343262,28.19237349061297,27.420738448085977,112.58649755519647,99.9240183588875,9.71794142969884e-05,0.0931148082017898,0,0,0
9377,325682.23039736605,2010-10-26 07:52:02,5132.573889806903,2,29,0.5501165986061096,4.163228988647461,28.196958813643587,27.420738448085977,112.60557977791866,99.9240183588875,6.47544875391759e-05,0.0931148082017898,0,0,0
9378,325712.2455474906,2010-10-26 07:52:32,5162.58903996152,2,29,0.5499359965324402,4.16679048538208,28.201544078432917,27.420738448085977,112.62467746502163,99.9240183588875,0.0001295089750783,0.0931148082017898,0,0,0
9379,325742.26065504906,2010-10-26 07:53:02,5192.604147545035,2,29,0.5501165986061096,4.170351982116699,28.206129424166733,27.420738448085977,112.64379136845324,99.9240183588875,0.0001619339018361,0.0931148082017898,0,0,0
9380,325772.275798492,2010-10-26 07:53:32,5222.619290937799,2,29,0.5499359965324402,4.173751354217529,28.2107146994876,27.420738448085977,112.66292093473773,99.9240183588875,9.70840483205393e-05,0.0931148082017898,0,0,0
9381,325802.2909536841,2010-10-26 07:54:02,5252.634446134983,2,29,0.5501165986061096,4.177312850952148,28.215300046945195,27.420738448085977,112.68206683022888,99.9240183588875,9.70840483205393e-05,0.0931148082017898,0,0,0
9382,325832.30609754805,2010-10-26 07:54:32,5282.64958999892,2,29,0.5501165986061096,4.180874347686768,28.219885426558548,27.420738448085977,112.70122906776416,99.9240183588875,0.0001295089750783,0.0931148082017898,0,0,0
9383,325862.3239011359,2010-10-26 07:55:02,5312.667393616784,2,29,0.5501165986061096,4.184435844421387,28.2244711957953,27.420738448085977,112.72040931253808,99.9240183588875,0.0001295089750783,0.0931148082017898,0,0,0
9384,325892.33663096826,2010-10-26 07:55:32,5342.6801234542245,2,29,0.5499359965324402,4.187997341156006,28.22905623792752,27.420738448085977,112.73960291114486,99.9240183588875,9.70840483205393e-05,0.0931148082017898,0,0,0
9385,325922.3515542374,2010-10-26 07:56:02,5372.6950466882845,2,29,0.5501165986061096,4.191558837890625,28.23364156820784,27.420738448085977,112.75881427843407,99.9240183588875,6.47544875391759e-05,0.0931148082017898,0,0,0
9386,325952.36666575575,2010-10-26 07:56:32,5402.710158206607,2,29,0.5497553944587708,4.195120334625244,28.238226959534025,27.420738448085977,112.77804251722512,99.9240183588875,6.47544875391759e-05,0.0931148082017898,0,0,0
9387,325982.381808116,2010-10-26 07:57:02,5432.725300596872,2,29,0.5499359965324402,4.198843479156494,28.2428122760442,27.420738448085977,112.79728712109736,99.9240183588875,9.70840483205393e-05,0.0931148082017898,0,0,0
9388,325991.2566870951,2010-10-26 07:57:11,5441.600179571007,2,29,0.5501165986061096,4.200138568878174,28.24416806249156,27.420738448085977,112.80298062759164,99.9240183588875,0.0001618385285837,0.0931148082017898,0,0,0
9389,326021.2760013165,2010-10-26 07:57:41,30.01523541210401,3,29,0.0,4.110777854919434,28.24416806249156,27.420738448085977,112.80298062759164,99.9240183588875,-0.0003885269106831,0.0931148082017898,0,0,0
9390,326051.29101620906,2010-10-26 07:58:11,60.03025026450538,3,29,0.0,4.099607944488525,28.24416806249156,27.420738448085977,112.80298062759164,99.9240183588875,-0.0002265930233988,0.0931148082017898,0,0,0
9391,326081.3063106032,2010-10-26 07:58:41,90.04554468367316,3,29,0.0,4.092970371246338,28.24416806249156,27.420738448085977,112.80298062759164,99.9240183588875,-0.0001619339018361,0.0931148082017898,0,0,0
9392,326111.2745581621,2010-10-26 07:59:11,120.01379222755176,3,29,0.0,4.088437557220459,28.24416806249156,27.420738448085977,112.80298062759164,99.9240183588875,-9.71794142969884e-05,0.0931148082017898,0,0,0
9393,326111.2804645305,2010-10-26 07:59:11,2.776920941e-06,4,29,0.9991112947463988,4.199653148651123,28.24416806326224,27.420738448085977,112.80298063082824,99.9240183588875,0.0,0.0931148082017898,0,0,0
9394,326112.07756496506,2010-10-26 07:59:12,0.797103246552947,4,29,0.9490824937820436,4.199814796447754,28.24438207910727,27.420738448085977,112.80387943911995,99.9240183588875,3.23295607813634e-05,0.0931148082017898,0,0,0
9395,326114.15542507684,2010-10-26 07:59:14,2.874963348267991,4,29,0.8986925482749939,4.199653148651123,28.244914113693707,27.420738448085977,112.80611383677233,99.9240183588875,0.0,0.0931148082017898,0,0,0
9396,326117.3273791173,2010-10-26 07:59:17,6.046917388722663,4,29,0.8486637473106384,4.199653148651123,28.24568266931106,27.420738448085977,112.80934156930876,99.9240183588875,-6.47544875391759e-05,0.0931148082017898,0,0,0
9397,326121.6711459808,2010-10-26 07:59:22,10.390684387627624,4,29,0.7986350059509277,4.199653148651123,28.24667512743143,27.420738448085977,112.8135096462001,99.9240183588875,0.0,0.0931148082017898,0,0,0
9398,326127.37398934626,2010-10-26 07:59:27,16.09352764775286,4,29,0.7484256029129028,4.199653148651123,28.247899139536404,27.420738448085977,112.81865019151198,99.9240183588875,-3.23295607813634e-05,0.0931148082017898,0,0,0
9399,326134.76461798686,2010-10-26 07:59:35,23.484156283352355,4,29,0.6983968019485474,4.199653148651123,28.249382860368147,27.420738448085977,112.82488147521012,99.9240183588875,-3.23295607813634e-05,0.0931148082017898,0,0,0
9400,326144.7174386233,2010-10-26 07:59:45,33.436976894722235,4,29,0.6483680605888367,4.199814796447754,28.251242017490178,27.420738448085977,112.83268948119522,99.9240183588875,0.0,0.0931148082017898,0,0,0
9401,326158.4828322547,2010-10-26 07:59:58,47.20237055121997,4,29,0.5981586575508118,4.199653148651123,28.25362026623465,27.420738448085977,112.8426775781395,99.9240183588875,-3.23295607813634e-05,0.0931148082017898,0,0,0
9402,326179.46700767154,2010-10-26 08:00:19,68.186545968028,4,29,0.5481299161911011,4.199814796447754,28.256951205590745,27.420738448085977,112.85666673062066,99.9240183588875,0.0,0.0931148082017898,0,0,0
9403,326215.7008110835,2010-10-26 08:00:56,104.42034935493076,4,29,0.498101145029068,4.199814796447754,28.26219281162032,27.420738448085977,112.87868024019978,99.9240183588875,3.23295607813634e-05,0.0931148082017898,0,0,0
9404,326283.4027115107,2010-10-26 08:02:03,172.12224978214937,4,29,0.4480723738670349,4.199814796447754,28.2710451823781,27.420738448085977,112.915858109447,99.9240183588875,0.0,0.0931148082017898,0,0,0
9405,326387.8854124149,2010-10-26 08:03:48,276.6049506763009,4,29,0.3980436027050018,4.199653148651123,28.28329144128426,27.420738448085977,112.96728957646587,99.9240183588875,-3.23295607813634e-05,0.0931148082017898,0,0,0
9406,326518.60210960987,2010-10-26 08:05:59,407.32164799654527,4,29,0.3480148315429687,4.199653148651123,28.296818372379857,27.420738448085977,113.02409963894412,99.9240183588875,-3.23295607813634e-05,0.0931148082017898,0,0,0
9407,326675.5370388211,2010-10-26 08:08:36,564.2565770824979,4,29,0.2979860603809356,4.199653148651123,28.31087842469407,27.420738448085977,113.08314861908492,99.9240183588875,-3.23295607813634e-05,0.0931148082017898,0,0,0
9408,326863.284167469,2010-10-26 08:11:43,752.0037057554983,4,29,0.2479572892189026,4.199653148651123,28.32508964068172,27.420738448085977,113.14283244670963,99.9240183588875,0.0,0.0931148082017898,0,0,0
9409,327095.98343030177,2010-10-26 08:15:36,984.7029685581756,4,29,0.1977479159832,4.199814796447754,28.339465473437382,27.420738448085977,113.20320761997282,99.9240183588875,3.23295607813634e-05,0.0931148082017898,0,0,0
9410,327402.90050662204,2010-10-26 08:20:43,1291.6200448834015,4,29,0.147719144821167,4.199653148651123,28.354120365729283,27.420738448085977,113.26475474216858,99.9240183588875,0.0,0.0931148082017898,0,0,0
9411,327851.6588360785,2010-10-26 08:28:12,1740.3783743699682,4,29,0.0976903736591339,4.199653148651123,28.36921164924856,27.420738448085977,113.32813461210262,99.9240183588875,-3.23295607813634e-05,0.0931148082017898,0,0,0
9412,328657.5208982951,2010-10-26 08:41:38,2546.2404365865696,4,29,0.0498289167881011,4.199653148651123,28.385093030860183,27.420738448085977,113.39483271084248,99.9240183588875,0.0,0.0931148082017898,0,0,0
9413,328687.535967107,2010-10-26 08:42:08,30.015100957000524,5,29,0.0,4.191558837890625,28.385093030860183,27.420738448085977,113.39483271084248,99.9240183588875,0.0,0.0931148082017898,0,0,0
9414,328717.53547096124,2010-10-26 08:42:38,60.01460479117184,5,29,0.0,4.1901021003723145,28.385093030860183,27.420738448085977,113.39483271084248,99.9240183588875,-3.23295607813634e-05,0.0931148082017898,0,0,0
9415,328717.70830289053,2010-10-26 08:42:38,0.187514072765971,6,29,-1.9243103452026844e-05,4.190263748168945,28.385093030860183,27.420738449088297,113.39483271084248,99.92401836308748,0.0,0.0971632748842239,0,0,0
9416,328722.53631356865,2010-10-26 08:42:43,5.015524750917671,6,29,0.0005225847125984,4.1901021003723145,28.38509361273927,27.42073844925537,113.3948351490546,99.92401836378758,0.0,0.0971632748842239,0,0,0
9417,328752.55254701915,2010-10-26 08:43:13,30.01521583832012,7,29,-1.099568486213684,4.003933429718018,28.38509361273927,27.429906694267427,113.3948351490546,99.96093663408816,-0.001003646873869,0.0971632748842239,0,0,0
9418,328782.5676818656,2010-10-26 08:43:43,60.03035066974613,7,29,-1.099568486213684,3.9747939109802246,28.38509361273927,27.43907483717192,113.3948351490546,99.9975024646108,-0.0006151676061563,0.0971632748842239,0,0,0
9419,328812.5828274839,2010-10-26 08:44:13,90.04549630309387,7,29,-1.099568486213684,3.95423436164856,28.38509361273927,27.44824293211116,113.3948351490546,100.03384528384024,-0.0005180359003134,0.0971632748842239,0,0,0
9420,328842.59785747906,2010-10-26 08:44:43,120.06052628821062,7,29,-1.0997490882873535,3.9386932849884033,28.38509361273927,27.45741101691735,113.3948351490546,100.07002426079026,-0.0003561496851034,0.0971632748842239,0,0,0
9421,328872.6131271816,2010-10-26 08:45:13,150.075796000802,7,29,-1.099568486213684,3.925580501556397,28.38509361273927,27.46657913667542,113.3948351490546,100.10607234540652,-0.0002913951757363,0.0971632748842239,0,0,0
9422,328902.6281443497,2010-10-26 08:45:43,180.09081315895,7,29,-1.099568486213684,3.914086580276489,28.38509361273927,27.475747194497444,113.3948351490546,100.1420090908016,-0.0003237724304199,0.0971632748842239,0,0,0
9423,328932.6432885646,2010-10-26 08:46:13,210.1059573687498,7,29,-1.0997490882873535,3.903726100921631,28.38509361273927,27.484915273015968,113.3948351490546,100.17784701717908,-0.0002913951757363,0.0971632748842239,0,0,0
9424,328962.65844780684,2010-10-26 08:46:43,240.1211166110151,7,29,-1.0997490882873535,3.894174814224243,28.38509361273927,27.494083356711613,113.3948351490546,100.21359366370592,-0.0002590179501567,0.0971632748842239,0,0,0
9425,328992.6736528482,2010-10-26 08:47:13,270.1363216774885,7,29,-1.099568486213684,3.885109186172485,28.38509361273927,27.503251398134136,113.3948351490546,100.24925407430015,-0.0002590179501567,0.0971632748842239,0,0,0
9426,329022.6913302666,2010-10-26 08:47:43,300.1539991910608,7,29,-1.0997490882873535,3.8762054443359375,28.38509361273927,27.512420192898336,113.3948351490546,100.28483460459763,-0.0002266406954731,0.0971632748842239,0,0,0
9427,329052.70408764767,2010-10-26 08:48:13,330.1667564919491,7,29,-1.099568486213684,3.8674635887146,28.38509361273927,27.521587605976432,113.3948351490546,100.32032965203112,-0.0002590179501567,0.0971632748842239,0,0,0
9428,329082.71908168314,2010-10-26 08:48:43,360.1817505324809,7,29,-1.099568486213684,3.859207391738892,28.38509361273927,27.530755239186,113.3948351490546,100.35574769064397,-0.0001942634553415,0.0971632748842239,0,0,0
9429,329112.73411744775,2010-10-26 08:49:13,390.1967862719393,7,29,-1.099568486213684,3.850951194763184,28.38509361273927,27.539922429543346,113.3948351490546,100.39108761130304,-0.0002266406954731,0.0971632748842239,0,0,0
9430,329142.74929556705,2010-10-26 08:49:43,420.2119643712021,7,29,-1.0993878841400146,3.8428568840026855,28.38509361273927,27.54908979945685,113.3948351490546,100.4263530290871,-0.0001942634553415,0.0971632748842239,0,0,0
9431,329172.7644071505,2010-10-26 08:50:13,450.2270759546871,7,29,-1.099568486213684,3.834762573242188,28.38509361273927,27.5582570545858,113.3948351490546,100.46154459824854,-0.0002266406954731,0.0971632748842239,0,0,0
9432,329202.779915949,2010-10-26 08:50:43,480.2425847581666,7,29,-1.0997490882873535,3.826992273330689,28.38509361273927,27.567424399406537,113.3948351490546,100.49666438326652,-0.0002266406954731,0.0971632748842239,0,0,0
9433,329232.79469683324,2010-10-26 08:51:13,510.2573656324223,7,29,-1.0993878841400146,3.8195455074310303,28.38509361273927,27.576591596301228,113.3948351490546,100.5317135047668,-0.0001942634553415,0.0971632748842239,0,0,0
9434,329262.8098534139,2010-10-26 08:51:43,540.2725222230791,7,29,-1.0997490882873535,3.811936855316162,28.38509361273927,27.58575917100536,113.3948351490546,100.56669471216884,-0.0001942634553415,0.0971632748842239,0,0,0
9435,329292.82501039054,2010-10-26 08:52:13,570.2876792297726,7,29,-1.0997490882873535,3.804490089416504,28.38509361273927,27.594927061748265,113.3948351490546,100.60160845376603,-0.0002266406954731,0.0971632748842239,0,0,0
9436,329322.84019610874,2010-10-26 08:52:43,600.3028649480243,7,29,-1.099568486213684,3.7973670959472656,28.38509361273927,27.604095061708303,113.3948351490546,100.63645585399571,-0.0002266406954731,0.0971632748842239,0,0,0
9437,329352.85527885536,2010-10-26 08:53:13,630.317947684614,7,29,-1.099568486213684,3.7902441024780273,28.38509361273927,27.613262996615862,113.3948351490546,100.6712377472157,-0.0001942634553415,0.0971632748842239,0,0,0
9438,329382.87049540546,2010-10-26 08:53:43,660.3331642397205,7,29,-1.099568486213684,3.783444881439209,28.38509361273927,27.62243101568733,113.3948351490546,100.70595581303846,-0.0001618862152099,0.0971632748842239,0,0,0
9439,329412.88556284393,2010-10-26 08:54:13,690.3482316481077,7,29,-1.099568486213684,3.776645660400391,28.38509361273927,27.63159895698329,113.3948351490546,100.740611131419,-0.0001942634553415,0.0971632748842239,0,0,0
9440,329442.9007201865,2010-10-26 08:54:43,720.3633890006632,7,29,-1.099568486213684,3.770170211791992,28.38509361273927,27.64076695728116,113.3948351490546,100.77520486516858,-0.0001618862152099,0.0971632748842239,0,0,0
9441,329472.9159763002,2010-10-26 08:55:13,750.3786451093495,7,29,-1.099568486213684,3.763532876968384,28.38509361273927,27.6499348968391,113.3948351490546,100.80973807393592,-0.0001618862152099,0.0971632748842239,0,0,0
9442,329502.93115773774,2010-10-26 08:55:43,780.3938265469324,7,29,-1.0997490882873535,3.757057428359986,28.38509361273927,27.65910286334927,113.3948351490546,100.84421220434582,-0.0001618862152099,0.0971632748842239,0,0,0
9443,329532.94616217416,2010-10-26 08:56:13,810.408831013449,7,29,-1.0997490882873535,3.750744104385376,28.38509361273927,27.668270840392392,113.3948351490546,100.87862823582743,-0.0001942634553415,0.0971632748842239,0,0,0
9444,329562.96130565216,2010-10-26 08:56:43,840.4239744513249,7,29,-1.099568486213684,3.744430541992188,28.38509361273927,27.677438850292685,113.3948351490546,100.9129866003443,-0.0001618862152099,0.0971632748842239,0,0,0
9445,329592.97665797564,2010-10-26 08:57:13,870.4393269301952,7,29,-1.1001102924346924,3.738278865814209,28.38509361273927,27.686606881140303,113.3948351490546,100.94728818784893,-0.0001942634553415,0.0971632748842239,0,0,0
9446,329622.9915730042,2010-10-26 08:57:43,900.4542418334927,7,29,-1.099568486213684,3.7324509620666495,28.38509361273927,27.695774837807317,113.3948351490546,100.9815337429796,-0.0001295089750783,0.0971632748842239,0,0,0
9447,329653.0067278004,2010-10-26 08:58:13,930.4693966096272,7,29,-1.099568486213684,3.726623058319092,28.38509361273927,27.70494286277528,113.3948351490546,101.01572530548026,-0.0001618862152099,0.0971632748842239,0,0,0
9448,329683.0218812031,2010-10-26 08:58:43,960.484550007326,7,29,-1.099568486213684,3.7206332683563232,28.38509361273927,27.71411085821845,113.3948351490546,101.0498633607236,-0.0001295089750783,0.0971632748842239,0,0,0
9449,329713.0370594026,2010-10-26 08:59:13,990.499728241926,7,29,-1.0993878841400146,3.715129137039185,28.38509361273927,27.72327879934686,113.3948351490546,101.0839484428164,-0.0001295089750783,0.0971632748842239,0,0,0
9450,329743.0522831958,2010-10-26 08:59:43,1020.5149520049972,7,29,-1.099568486213684,3.709301233291626,28.38509361273927,27.73244687307388,113.3948351490546,101.11798213828769,-0.0001295089750783,0.0971632748842239,0,0,0
9451,329773.06729404826,2010-10-26 09:00:13,1050.529962882492,7,29,-1.099568486213684,3.703958988189697,28.38509361273927,27.7416147995728,113.3948351490546,101.15196428992482,-0.0001618862152099,0.0971632748842239,0,0,0
9452,329803.0824520123,2010-10-26 09:00:43,1080.5451208666211,7,29,-1.099568486213684,3.698616743087769,28.38509361273927,27.75078282905065,113.3948351490546,101.1858970726528,-0.0001295089750783,0.0971632748842239,0,0,0
9453,329833.0975940818,2010-10-26 09:01:13,1110.5602629110244,7,29,-1.099568486213684,3.69327449798584,28.38509361273927,27.759950838700703,113.3948351490546,101.21978136448274,-0.0001295089750783,0.0971632748842239,0,0,0
9454,329863.112726021,2010-10-26 09:01:43,1140.575394855255,7,29,-1.099568486213684,3.687932252883911,28.38509361273927,27.769118846364407,113.3948351490546,101.25361741191908,-0.0001942634553415,0.0971632748842239,0,0,0
9455,329893.12786656164,2010-10-26 09:02:14,1170.5905353658347,7,29,-1.099568486213684,3.682751893997192,28.38509361273927,27.778286794508453,113.3948351490546,101.2874051231514,-0.0001295089750783,0.0971632748842239,0,0,0
9456,329923.143043899,2010-10-26 09:02:44,1200.6057126981864,7,29,-1.0997490882873535,3.677733421325684,28.38509361273927,27.787454841666968,113.3948351490546,101.32114641350508,-0.0001295089750783,0.0971632748842239,0,0,0
9457,329953.15816521674,2010-10-26 09:03:14,1230.620834056032,7,29,-1.099568486213684,3.672714948654175,28.38509361273927,27.79662288709947,113.3948351490546,101.35484092749785,-0.0001295089750783,0.0971632748842239,0,0,0
9458,329983.1732994216,2010-10-26 09:03:44,1260.6359682308214,7,29,-1.0997490882873535,3.667696714401245,28.38509361273927,27.80579096405909,113.3948351490546,101.38848978717904,-0.0001295089750783,0.0971632748842239,0,0,0
9459,330013.18844421284,2010-10-26 09:04:14,1290.6511130220704,7,29,-1.099568486213684,3.663002014160156,28.38509361273927,27.814959013812818,113.3948351490546,101.42209363514404,-0.0001295089750783,0.0971632748842239,0,0,0
9460,330043.20368423144,2010-10-26 09:04:44,1320.6663530406552,7,29,-1.099568486213684,3.657983541488648,28.38509361273927,27.824127075728235,113.3948351490546,101.45565295175436,-0.0001618862152099,0.0971632748842239,0,0,0
9461,330073.2187359658,2010-10-26 09:05:14,1350.6814047749776,7,29,-1.099568486213684,3.653288841247559,28.38509361273927,27.83329508301678,113.3948351490546,101.48916856090212,-0.0001618862152099,0.0971632748842239,0,0,0
9462,330103.2338998747,2010-10-26 09:05:44,1380.6965687089362,7,29,-1.099568486213684,3.6485941410064697,28.38509361273927,27.842463134512524,113.3948351490546,101.52264119467318,-0.0001295089750783,0.0971632748842239,0,0,0
9463,330133.2490615881,2010-10-26 09:06:14,1410.7117303972975,7,29,-1.099568486213684,3.644061326980591,28.38509361273927,27.85163116122203,113.3948351490546,101.55607106701356,-9.713172767078504e-05,0.0971632748842239,0,0,0
9464,330163.26452950964,2010-10-26 09:06:44,1440.727198409112,7,29,-1.099568486213684,3.639528512954712,28.38509361273927,27.860799191431603,113.3948351490546,101.58945971309596,-0.0001295089750783,0.0971632748842239,0,0,0
9465,330193.279322058,2010-10-26 09:07:14,1470.7419908672382,7,29,-1.099568486213684,3.635319471359253,28.38509361273927,27.86996697796009,113.3948351490546,101.62280616224334,-9.713172767078504e-05,0.0971632748842239,0,0,0
9466,330223.29446168646,2010-10-26 09:07:44,1500.7571305256947,7,29,-1.099568486213684,3.630786657333374,28.38509361273927,27.879134989187524,113.3948351490546,101.65611286154108,-9.713172767078504e-05,0.0971632748842239,0,0,0
9467,330253.3096001469,2010-10-26 09:08:14,1530.7722689811528,7,29,-1.099568486213684,3.626577615737915,28.38509361273927,27.88830294902397,113.3948351490546,101.68937960517428,-9.713172767078504e-05,0.0971632748842239,0,0,0
9468,330283.3247709279,2010-10-26 09:08:44,1560.787439737114,7,29,-1.099568486213684,3.622368574142456,28.38509361273927,27.897470912224048,113.3948351490546,101.72260741331162,-6.47544875391759e-05,0.0971632748842239,0,0,0
9469,330313.3400193274,2010-10-26 09:09:14,1590.8026881365863,7,29,-1.0993878841400146,3.618159532546997,28.38509361273927,27.90663892937488,113.3948351490546,101.75579706820172,-9.713172767078504e-05,0.0971632748842239,0,0,0
9470,330343.3550555481,2010-10-26 09:09:44,1620.817724357244,7,29,-1.099568486213684,3.614274263381958,28.38509361273927,27.91580689514003,113.3948351490546,101.78894939243882,-6.47544875391759e-05,0.0971632748842239,0,0,0
9471,330373.37019403354,2010-10-26 09:10:14,1650.8328628377649,7,29,-1.0997490882873535,3.610065221786499,28.38509361273927,27.92497494385529,113.3948351490546,101.8220656789208,-0.0001295089750783,0.0971632748842239,0,0,0
9472,330403.3853431055,2010-10-26 09:10:44,1680.8480119146952,7,29,-1.099568486213684,3.60634183883667,28.38509361273927,27.934142985247213,113.3948351490546,101.85514637287004,-6.47544875391759e-05,0.0971632748842239,0,0,0
9473,330433.40047971136,2010-10-26 09:11:14,1710.8631485205435,7,29,-1.099568486213684,3.602780342102051,28.38509361273927,27.943310959363355,113.3948351490546,101.88819184598908,-6.47544875391759e-05,0.0971632748842239,0,0,0
9474,330463.41568526404,2010-10-26 09:11:44,1740.8783541083162,7,29,-1.099568486213684,3.598895072937012,28.38509361273927,27.952478938740267,113.3948351490546,101.92120338679013,-9.713172767078504e-05,0.0971632748842239,0,0,0
9475,330493.4307762261,2010-10-26 09:12:14,1770.893445025294,7,29,-1.099568486213684,3.5953335762023926,28.38509361273927,27.96164701047237,113.3948351490546,101.95418174728049,-0.0001295089750783,0.0971632748842239,0,0,0
9476,330523.4459325512,2010-10-26 09:12:44,1800.908601385376,7,29,-1.099568486213684,3.5917723178863525,28.38509361273927,27.97081516042315,113.3948351490546,101.98712768489908,-3.237724376958795e-05,0.0971632748842239,0,0,0
9477,330553.4610554578,2010-10-26 09:13:14,1830.9237242970944,7,29,-1.099568486213684,3.588372707366944,28.38509361273927,27.979983350807533,113.3948351490546,102.02004120607415,-6.47544875391759e-05,0.0971632748842239,0,0,0
9478,330583.4764346984,2010-10-26 09:13:44,1860.9391036329005,7,29,-1.099568486213684,3.584811210632324,28.38509361273927,27.98915159969848,113.3948351490546,102.05292329388756,-0.0001295089750783,0.0971632748842239,0,0,0
9479,330613.4913415366,2010-10-26 09:14:14,1890.95401033576,7,29,-1.0997490882873535,3.581411600112915,28.38509361273927,27.99831965501133,113.3948351490546,102.08577310928702,-9.713172767078504e-05,0.0971632748842239,0,0,0
9480,330643.5065039718,2010-10-26 09:14:44,1920.969172791033,7,29,-1.099568486213684,3.578011989593506,28.38509361273927,28.00748777052601,113.3948351490546,102.1185925309248,-6.47544875391759e-05,0.0971632748842239,0,0,0
9481,330673.52174914826,2010-10-26 09:15:14,1950.984417997548,7,29,-1.0993878841400146,3.5749361515045166,28.38509361273927,28.016655867673748,113.3948351490546,102.15138175509132,-6.47544875391759e-05,0.0971632748842239,0,0,0
9482,330703.53691670625,2010-10-26 09:15:44,1980.9995856006508,7,29,-1.099929690361023,3.5716984272003174,28.38509361273927,28.025823937154357,113.3948351490546,102.18414150282231,-6.47544875391759e-05,0.0971632748842239,0,0,0
9483,330733.5519450573,2010-10-26 09:16:14,2011.0146138965576,7,29,-1.0997490882873535,3.568298816680908,28.38509361273927,28.03499196727685,113.3948351490546,102.21687181859076,-9.713172767078504e-05,0.0971632748842239,0,0,0
9484,330763.56714818894,2010-10-26 09:16:44,2041.0298170031465,7,29,-1.099568486213684,3.565384864807129,28.38509361273927,28.04416007080219,113.3948351490546,102.24957309680045,-3.237724376958795e-05,0.0971632748842239,0,0,0
9485,330793.58240627754,2010-10-26 09:17:14,2071.045075086755,7,29,-1.099568486213684,3.5621471405029297,28.38509361273927,28.053328099579783,113.3948351490546,102.28224465656513,-6.47544875391759e-05,0.0971632748842239,0,0,0
9486,330823.5973784335,2010-10-26 09:17:44,2101.060047237731,7,29,-1.0997490882873535,3.5589094161987305,28.38509361273927,28.062496053090825,113.3948351490546,102.31488759797594,-6.47544875391759e-05,0.0971632748842239,0,0,0
9487,330853.61252084887,2010-10-26 09:18:14,2131.075189658071,7,29,-1.099568486213684,3.555833578109741,28.38509361273927,28.071664057041204,113.3948351490546,102.34750171980892,-6.47544875391759e-05,0.0971632748842239,0,0,0
9488,330883.6276831087,2010-10-26 09:18:44,2161.0903519128447,7,29,-1.0997490882873535,3.552757740020752,28.38509361273927,28.08083220763984,113.3948351490546,102.38008748177695,-6.47544875391759e-05,0.0971632748842239,0,0,0
9489,330913.6428174539,2010-10-26 09:19:14,2191.105486283121,7,29,-1.099568486213684,3.5496819019317627,28.38509361273927,28.090000237578543,113.3948351490546,102.41264477555968,-6.47544875391759e-05,0.0971632748842239,0,0,0
9490,330943.6605651223,2010-10-26 09:19:44,2221.123234046778,7,29,-1.0997490882873535,3.5464441776275635,28.38509361273927,28.099169080052583,113.3948351490546,102.44517649317169,-9.713172767078504e-05,0.0971632748842239,0,0,0
9491,330973.6733538565,2010-10-26 09:20:14,2251.136022705821,7,29,-1.099568486213684,3.543368339538574,28.38509361273927,28.10833643844983,113.3948351490546,102.47767459002432,-9.713172767078504e-05,0.0971632748842239,0,0,0
9492,331003.6882753112,2010-10-26 09:20:44,2281.150944140396,7,29,-1.0993878841400146,3.540292501449585,28.38509361273927,28.117504424814825,113.3948351490546,102.51014631220212,-9.713172767078504e-05,0.0971632748842239,0,0,0
9493,331033.70339918026,2010-10-26 09:21:14,2311.166067984438,7,29,-1.099568486213684,3.537216663360596,28.38509361273927,28.126672504997156,113.3948351490546,102.54258967925855,-6.47544875391759e-05,0.0971632748842239,0,0,0
9494,331063.71854021214,2010-10-26 09:21:44,2341.1812090463927,7,29,-1.099929690361023,3.533655166625977,28.38509361273927,28.13584060965809,113.3948351490546,102.57500326292696,-9.713172767078504e-05,0.0971632748842239,0,0,0
9495,331093.7337685416,2010-10-26 09:22:14,2371.1964374660693,7,29,-1.0997490882873535,3.5305793285369877,28.38509361273927,28.14500872470934,113.3948351490546,102.60738656828754,-6.47544875391759e-05,0.0971632748842239,0,0,0
9496,331123.74887606496,2010-10-26 09:22:44,2401.2115448992104,7,29,-1.0997490882873535,3.527179718017578,28.38509361273927,28.15417680981828,113.3948351490546,102.63973992468064,-9.713172767078504e-05,0.0971632748842239,0,0,0
9497,331153.76399602933,2010-10-26 09:23:14,2431.226664833508,7,29,-1.099568486213684,3.523780107498169,28.38509361273927,28.16334490056526,113.3948351490546,102.67206234738084,-9.713172767078504e-05,0.0971632748842239,0,0,0
9498,331183.7791426201,2010-10-26 09:23:44,2461.241811429254,7,29,-1.099568486213684,3.52021861076355,28.38509361273927,28.17251295271112,113.3948351490546,102.7043520139796,-9.713172767078504e-05,0.0971632748842239,0,0,0
9499,331213.7942653664,2010-10-26 09:24:14,2491.2569341705484,7,29,-1.099568486213684,3.5163333415985107,28.38509361273927,28.18168102916673,113.3948351490546,102.7366077136222,-9.713172767078504e-05,0.0971632748842239,0,0,0
9500,331243.809427957,2010-10-26 09:24:44,2521.2720967611585,7,29,-1.099568486213684,3.5126099586486816,28.38509361273927,28.19084915885762,113.3948351490546,102.76882917905974,-0.0001295089750783,0.0971632748842239,0,0,0
9501,331273.82455871825,2010-10-26 09:25:14,2551.287227567553,7,29,-1.0997490882873535,3.508563041687012,28.38509361273927,28.200017301549178,113.3948351490546,102.8010143074772,-0.0001295089750783,0.0971632748842239,0,0,0
9502,331303.8396987176,2010-10-26 09:25:44,2581.3023675217464,7,29,-1.099568486213684,3.5043540000915527,28.38509361273927,28.20918544159139,113.3948351490546,102.83316205915156,-9.713172767078504e-05,0.0971632748842239,0,0,0
9503,331333.854847183,2010-10-26 09:26:14,2611.3175159871525,7,29,-1.0997490882873535,3.499821186065674,28.38509361273927,28.21835354855808,113.3948351490546,102.8652695371516,-0.0001295089750783,0.0971632748842239,0,0,0
9504,331363.8700069265,2010-10-26 09:26:44,2641.3326757306672,7,29,-1.0993878841400146,3.495288372039795,28.38509361273927,28.22752171440764,113.3948351490546,102.89733506795574,-9.713172767078504e-05,0.0971632748842239,0,0,0
9505,331393.88515441946,2010-10-26 09:27:14,2671.3478232286625,7,29,-1.099568486213684,3.489946126937866,28.38509361273927,28.236689849994875,113.3948351490546,102.92935580062552,-0.0001618862152099,0.0971632748842239,0,0,0
9506,331423.9004219416,2010-10-26 09:27:44,2701.3630907507945,7,29,-1.0997490882873535,3.484603881835937,28.38509361273927,28.24585806507852,113.3948351490546,102.96132871174092,-0.0001295089750783,0.0971632748842239,0,0,0
9507,331453.9154280372,2010-10-26 09:28:14,2731.378096871433,7,29,-1.099568486213684,3.478614091873169,28.38509361273927,28.255026069947057,113.3948351490546,102.9932488246871,-0.0001618862152099,0.0971632748842239,0,0,0
9508,331483.9306190837,2010-10-26 09:28:44,2761.3932878979144,7,29,-1.099568486213684,3.4721386432647705,28.38509361273927,28.264194191256504,113.3948351490546,103.02511254686114,-0.0001942634553415,0.0971632748842239,0,0,0
9509,331513.94583515765,2010-10-26 09:29:14,2791.408503971822,7,29,-1.099568486213684,3.4648537635803223,28.38509361273927,28.27336226400424,113.3948351490546,103.05691264396428,-0.0001618862152099,0.0971632748842239,0,0,0
9510,331543.96085169923,2010-10-26 09:29:44,2821.4235205034083,7,29,-1.0997490882873535,3.4562737941741943,28.38509361273927,28.28253029890761,113.3948351490546,103.08863928710292,-0.0002266406954731,0.0971632748842239,0,0,0
9511,331573.97613337165,2010-10-26 09:30:14,2851.438802190845,7,29,-1.099568486213684,3.4463987350463867,28.38509361273927,28.29169846877813,113.3948351490546,103.1202824416984,-0.0002913951757363,0.0971632748842239,0,0,0
9512,331603.99117489555,2010-10-26 09:30:44,2881.4538436996827,7,29,-1.0997490882873535,3.4349048137664795,28.38509361273927,28.30086654010799,113.3948351490546,103.15182909041096,-0.0003885269106831,0.0971632748842239,0,0,0
9513,331634.00630115555,2010-10-26 09:31:14,2911.4689699597457,7,29,-1.099568486213684,3.421630382537842,28.38509361273927,28.3100346515766,113.3948351490546,103.1832626559864,-0.0003561496851034,0.0971632748842239,0,0,0
9514,331664.02156722907,2010-10-26 09:31:44,2941.484236028255,7,29,-1.099568486213684,3.4054417610168457,28.38509361273927,28.31920281833961,113.3948351490546,103.2145614814546,-0.0004856586456298,0.0971632748842239,0,0,0
9515,331694.03658792604,2010-10-26 09:32:14,2971.499256730235,7,29,-1.099568486213684,3.3855297565460205,28.38509361273927,28.328370869601653,113.3948351490546,103.24569424032268,-0.0005827903514727,0.0971632748842239,0,0,0
9516,331724.05174727354,2010-10-26 09:32:44,3001.5144161028256,7,29,-1.099568486213684,3.3599517345428467,28.38509361273927,28.337539000503508,113.3948351490546,103.27661942317891,-0.0007122993702068,0.0971632748842239,0,0,0
9517,331754.06689364376,2010-10-26 09:33:14,3031.5295624780224,7,29,-1.099568486213684,3.326765298843384,28.38509361273927,28.346707185763147,113.3948351490546,103.30727909281762,-0.0010360718006268,0.0971632748842239,0,0,0
9518,331784.0823994899,2010-10-26 09:33:44,3061.545068349193,7,29,-1.0997490882873535,3.281760931015014,28.38509361273927,28.35587532545533,113.3948351490546,103.33758399507894,-0.0013598442310467,0.0971632748842239,0,0,0
9519,331814.0974827127,2010-10-26 09:34:15,3091.5601515569574,7,29,-1.099568486213684,3.218949317932129,28.38509361273927,28.365043401438715,113.3948351490546,103.36740030388916,-0.0019426345825195,0.0971632748842239,0,0,0
9520,331844.11232735583,2010-10-26 09:34:45,3121.5749961750826,7,29,-1.099568486213684,3.1263506412506104,28.38509361273927,28.37421139820308,113.3948351490546,103.39651621627928,-0.0029463290702551,0.0971632748842239,0,0,0
9521,331874.1274515809,2010-10-26 09:35:15,3151.5901203900494,7,29,-1.0997490882873535,2.972073554992676,28.38509361273927,28.383379496776,113.3948351490546,103.42454879829953,-0.0055041313171386,0.0971632748842239,0,0,0
9522,331894.752131795,2010-10-26 09:35:35,3172.214800594173,7,29,-1.0997490882873535,2.771659135818481,28.38509361273927,28.38967930424108,113.3948351490546,103.44269880152724,-0.0095512391999363,0.0971632748842239,0,0,0
9523,331900.3146501523,2010-10-26 09:35:41,3177.777318986551,7,29,-1.099568486213684,2.699781894683838,28.38509361273927,28.39137836765013,113.3948351490546,103.4473478979919,-0.0104254242032766,0.0971632748842239,0,0,0
9524,331960.3187434816,2010-10-26 09:36:41,60.0147938724205,8,29,0.0,3.367074728012085,28.38509361273927,28.39137836765013,113.3948351490546,103.4473478979919,0.0012950897216796,0.0971632748842239,0,0,0
9525,331960.4964847613,2010-10-26 09:36:41,0.187513160492304,9,29,-1.9243103452026844e-05,3.367560386657715,28.38509361273927,28.391378368652447,113.3948351490546,103.44734790136724,0.0,0.0915781408548355,0,0,0
9526,331965.3245153441,2010-10-26 09:36:46,5.015543728214936,9,29,0.0005225847125984,3.375816583633423,28.385094233081745,28.391378368736145,113.39483724098264,103.4473479016491,0.0011979580158367,0.0915781408548355,0,0,0
