Data_Point,Test_Time(s),Date_Time,Step_Time(s),Step_Index,Cycle_Index,Current(A),Voltage(V),Charge_Capacity(Ah),Discharge_Capacity(Ah),Charge_Energy(Wh),Discharge_Energy(Wh),dV/dt(V/s),Internal_Resistance(Ohm),Is_FC_Data,AC_Impedance(Ohm),ACI_Phase_Angle(Deg)
8578,300084.99193788884,2010-10-26 00:45:22,30.01515170347636,1,27,0.0,3.3695030212402344,25.573053216690308,25.58794873294969,102.18071392255264,93.2800022939051,0.0008094310760498,0.0922218039631843,0,0,0
8579,300115.00807516865,2010-10-26 00:45:52,60.031289168774485,1,27,0.0,3.3945953845977783,25.573053216690308,25.58794873294969,102.18071392255264,93.2800022939051,0.0006475448608398,0.0922218039631843,0,0,0
8580,300145.0093139819,2010-10-26 00:46:22,90.03252789182268,1,27,0.0,3.413212299346924,25.573053216690308,25.58794873294969,102.18071392255264,93.2800022939051,0.0004209041653666,0.0922218039631843,0,0,0
8581,300174.99063883856,2010-10-26 00:46:52,120.01385265315092,1,27,0.0,3.42859148979187,25.573053216690308,25.58794873294969,102.18071392255264,93.2800022939051,0.0003885269106831,0.0922218039631843,0,0,0
8582,300205.01010596403,2010-10-26 00:47:22,30.015337837379317,2,27,0.5499359965324402,3.585620641708374,25.577638977401108,25.58794873294969,102.19698858541672,93.2800022939051,0.0016512393485754,0.0922218039631843,0,0,0
8583,300235.02514625987,2010-10-26 00:47:52,60.030378118156015,2,27,0.5501165986061096,3.635481357574463,25.58222467338783,25.58794873294969,102.21355291355664,93.2800022939051,0.0011332035064697,0.0922218039631843,0,0,0
8584,300265.04035358195,2010-10-26 00:48:22,90.04558544526358,2,27,0.5499359965324402,3.671743869781494,25.586810365052557,25.58794873294969,102.23031106531596,93.2800022939051,0.0008741855854168,0.0922218039631843,0,0,0
8585,300295.0555355408,2010-10-26 00:48:52,120.06076742920818,2,27,0.5499359965324402,3.699911832809448,25.59139597726124,25.58794873294969,102.24721506929303,93.2800022939051,0.0006799221155233,0.0922218039631843,0,0,0
8586,300325.07071985555,2010-10-26 00:49:22,150.07595171388692,2,27,0.5501165986061096,3.7230615615844727,25.59598159343547,25.58794873294969,102.26423627698276,93.2800022939051,0.0005504131549969,0.0922218039631843,0,0,0
8587,300355.08590933826,2010-10-26 00:49:52,180.09114119652057,2,27,0.5499359965324402,3.742002248764038,25.600567268475903,25.58794873294969,102.28135406334394,93.2800022939051,0.0004532813909463,0.0922218039631843,0,0,0
8588,300385.10117093555,2010-10-26 00:50:22,210.10640278887385,2,27,0.5501165986061096,3.757381200790405,25.60515293931192,25.58794873294969,102.29855054775336,93.2800022939051,0.0003561496851034,0.0922218039631843,0,0,0
8589,300415.11631030333,2010-10-26 00:50:52,240.1215421666307,2,27,0.5499359965324402,3.767094373703003,25.60973859043155,25.58794873294969,102.31580472959628,93.2800022939051,0.0001942634553415,0.0922218039631843,0,0,0
8590,300445.13160971494,2010-10-26 00:51:22,270.1368415782412,2,27,0.5499359965324402,3.773084163665772,25.614324280301577,25.58794873294969,102.33309424462573,93.2800022939051,0.0001618862152099,0.0922218039631843,0,0,0
8591,300475.1466712837,2010-10-26 00:51:52,300.1519032673741,2,27,0.550297200679779,3.7772932052612314,25.6189099564888,25.58794873294969,102.35040612562447,93.2800022939051,9.713172767078504e-05,0.0922218039631843,0,0,0
8592,300505.1618808464,2010-10-26 00:52:22,330.1671127398285,2,27,0.5501165986061096,3.7808547019958496,25.62349561366747,25.58794873294969,102.36773601582075,93.2800022939051,6.47544875391759e-05,0.0922218039631843,0,0,0
8593,300535.1771788195,2010-10-26 00:52:52,360.1824106928036,2,27,0.5501165986061096,3.7847399711608887,25.628081266425003,25.58794873294969,102.38508276177568,93.2800022939051,9.713172767078504e-05,0.0922218039631843,0,0,0
8594,300565.1922457567,2010-10-26 00:53:22,390.1974776199913,2,27,0.5499359965324402,3.788301467895508,25.632666899601443,25.58794873294969,102.40244605827262,93.2800022939051,9.713172767078504e-05,0.0922218039631843,0,0,0
8595,300595.2075914336,2010-10-26 00:53:52,420.2128233069342,2,27,0.5501165986061096,3.791701078414917,25.63725264896341,25.58794873294969,102.41982597582188,93.2800022939051,9.713172767078504e-05,0.0922218039631843,0,0,0
8596,300625.2226771275,2010-10-26 00:54:22,450.2279090109195,2,27,0.5501165986061096,3.795100688934326,25.641838318225304,25.58794873294969,102.43722141000916,93.2800022939051,9.713172767078504e-05,0.0922218039631843,0,0,0
8597,300655.23786114657,2010-10-26 00:54:52,480.24309303494863,2,27,0.5499359965324402,3.798500299453736,25.64642402735169,25.58794873294969,102.45463243332688,93.2800022939051,9.713172767078504e-05,0.0922218039631843,0,0,0
8598,300685.25315349054,2010-10-26 00:55:22,510.258385383957,2,27,0.5501165986061096,3.8015761375427246,25.651009687714605,25.58794873294969,102.47205840164244,93.2800022939051,6.47544875391759e-05,0.0922218039631843,0,0,0
8599,300715.2682142373,2010-10-26 00:55:52,540.2734460906413,2,27,0.5497553944587708,3.804813861846924,25.655595349211943,25.58794873294969,102.48949923281413,93.2800022939051,6.47544875391759e-05,0.0922218039631843,0,0,0
8600,300745.2834114041,2010-10-26 00:56:22,570.2886432624387,2,27,0.5499359965324402,3.808051586151123,25.660181058659923,25.58794873294969,102.50695489845825,93.2800022939051,6.47544875391759e-05,0.0922218039631843,0,0,0
8601,300775.2985886462,2010-10-26 00:56:52,600.3038205045652,2,27,0.5499359965324402,3.811289310455322,25.664766835356097,25.58794873294969,102.52442527932592,93.2800022939051,9.713172767078504e-05,0.0922218039631843,0,0,0
8602,300805.3137790512,2010-10-26 00:57:22,630.319010904485,2,27,0.5499359965324402,3.8145270347595215,25.66935257556635,25.58794873294969,102.54190995811656,93.2800022939051,0.0001295089750783,0.0922218039631843,0,0,0
8603,300835.3291170039,2010-10-26 00:57:53,660.3343488671767,2,27,0.5501165986061096,3.8177647590637207,25.673938276491008,25.58794873294969,102.55940898278224,93.2800022939051,0.0001295089750783,0.0922218039631843,0,0,0
8604,300865.3443262908,2010-10-26 00:58:23,690.3495581591814,2,27,0.5499359965324402,3.82051682472229,25.678523935637827,25.58794873294969,102.5769222331885,93.2800022939051,3.237724376958795e-05,0.0922218039631843,0,0,0
8605,300895.3593937995,2010-10-26 00:58:53,720.3646256628058,2,27,0.5499359965324402,3.823916435241699,25.683109587113368,25.58794873294969,102.59444999806138,93.2800022939051,9.713172767078504e-05,0.0922218039631843,0,0,0
8606,300925.37467551697,2010-10-26 00:59:23,750.379907390342,2,27,0.5501165986061096,3.827316045761109,25.68769530025269,25.58794873294969,102.61199290231976,93.2800022939051,0.0001618862152099,0.0922218039631843,0,0,0
8607,300955.3897332463,2010-10-26 00:59:53,780.3949651095808,2,27,0.5501165986061096,3.830553770065308,25.692280953443053,25.58794873294969,102.62955079316048,93.2800022939051,9.713172767078504e-05,0.0922218039631843,0,0,0
8608,300985.4049489743,2010-10-26 01:00:23,810.4101808276012,2,27,0.5499359965324402,3.8339531421661377,25.69686660171265,25.58794873294969,102.64712419212584,93.2800022939051,9.713172767078504e-05,0.0922218039631843,0,0,0
8609,301015.4201856997,2010-10-26 01:00:53,840.4254175880656,2,27,0.5499359965324402,3.837352752685547,25.70145227736256,25.58794873294969,102.6647134697738,93.2800022939051,9.713172767078504e-05,0.0922218039631843,0,0,0
8610,301045.4353332377,2010-10-26 01:01:23,870.4405650910732,2,27,0.5499359965324402,3.840914249420166,25.706037957633928,25.58794873294969,102.6823186009436,93.2800022939051,9.713172767078504e-05,0.0922218039631843,0,0,0
8611,301075.45050585334,2010-10-26 01:01:53,900.4557377417564,2,27,0.5501165986061096,3.844313859939575,25.710623617222566,25.58794873294969,102.69993941762188,93.2800022939051,9.713172767078504e-05,0.0922218039631843,0,0,0
8612,301105.46601772954,2010-10-26 01:02:23,930.4712496178936,2,27,0.5499359965324402,3.8475515842437744,25.71520931379695,25.58794873294969,102.7175759353446,93.2800022939051,6.47544875391759e-05,0.0922218039631843,0,0,0
8613,301135.4808634804,2010-10-26 01:02:53,960.48609534378,2,27,0.5501165986061096,3.8511130809783936,25.719794915837927,25.58794873294969,102.73522744627758,93.2800022939051,0.0001295089750783,0.0922218039631843,0,0,0
8614,301165.4964529099,2010-10-26 01:03:23,990.5016848784664,2,27,0.5501165986061096,3.854188919067383,25.72438067456145,25.58794873294969,102.75289461456488,93.2800022939051,9.713172767078504e-05,0.0922218039631843,0,0,0
8615,301195.5112660947,2010-10-26 01:03:53,1020.5164981735248,2,27,0.5499359965324402,3.857264757156372,25.72896620492061,25.58794873294969,102.77057570244364,93.2800022939051,3.237724376958795e-05,0.0922218039631843,0,0,0
8616,301225.5264641136,2010-10-26 01:04:23,1050.531695976896,2,27,0.5499359965324402,3.8605024814605713,25.733551814917824,25.58794873294969,102.788271587134,93.2800022939051,3.237724376958795e-05,0.0922218039631843,0,0,0
8617,301255.5416761123,2010-10-26 01:04:53,1080.5469079756467,2,27,0.5499359965324402,3.863416433334351,25.73813751567113,25.58794873294969,102.80598192628187,93.2800022939051,3.237724376958795e-05,0.0922218039631843,0,0,0
8618,301285.5568306128,2010-10-26 01:05:23,1110.5620624961443,2,27,0.5501165986061096,3.86649227142334,25.742723241116938,25.58794873294969,102.82370601987188,93.2800022939051,6.47544875391759e-05,0.0922218039631843,0,0,0
8619,301315.5720206117,2010-10-26 01:05:53,1140.5772524950646,2,27,0.5499359965324402,3.869244337081909,25.747308901698883,25.58794873294969,102.84144306104224,93.2800022939051,6.47544875391759e-05,0.0922218039631843,0,0,0
8620,301345.587242861,2010-10-26 01:06:23,1170.592474714288,2,27,0.5501165986061096,3.872158288955689,25.751894615731203,25.58794873294969,102.8591929849642,93.2800022939051,6.47544875391759e-05,0.0922218039631843,0,0,0
8621,301375.6024004291,2010-10-26 01:06:53,1200.6076322924057,2,27,0.5501165986061096,3.874586582183838,25.75648038367759,25.58794873294969,102.87695517430905,93.2800022939051,9.713172767078504e-05,0.0922218039631843,0,0,0
8622,301405.617588022,2010-10-26 01:07:23,1230.6228199154043,2,27,0.5501165986061096,3.8770148754119873,25.76106616137801,25.58794873294969,102.89472883815436,93.2800022939051,6.47544875391759e-05,0.0922218039631843,0,0,0
8623,301435.63290518284,2010-10-26 01:07:53,1260.6381370562017,2,27,0.5501165986061096,3.879281282424927,25.765652048144997,25.58794873294969,102.91251381760205,93.2800022939051,6.47544875391759e-05,0.0922218039631843,0,0,0
8624,301465.648006987,2010-10-26 01:08:23,1290.6532388452758,2,27,0.5497553944587708,3.881385803222656,25.770237820153117,25.58794873294969,102.93030853179609,93.2800022939051,3.237724376958795e-05,0.0922218039631843,0,0,0
8625,301495.6631526303,2010-10-26 01:08:53,1320.6683844936613,2,27,0.5499359965324402,3.8834903240203857,25.77482361178984,25.58794873294969,102.94811294748732,93.2800022939051,3.237724376958795e-05,0.0922218039631843,0,0,0
8626,301525.67833500024,2010-10-26 01:09:23,1350.6835668936426,2,27,0.5499359965324402,3.885432958602905,25.779409428158488,25.58794873294969,102.9659263827664,93.2800022939051,6.47544875391759e-05,0.0922218039631843,0,0,0
8627,301555.6935251596,2010-10-26 01:09:53,1380.6987570228878,2,27,0.5501165986061096,3.887213706970215,25.78399515229698,25.58794873294969,102.98374777849388,93.2800022939051,6.47544875391759e-05,0.0922218039631843,0,0,0
8628,301585.70885702706,2010-10-26 01:10:23,1410.7140889004131,2,27,0.5501165986061096,3.8888325691223145,25.788580924811416,25.58794873294969,103.00157714936688,93.2800022939051,6.47544875391759e-05,0.0922218039631843,0,0,0
8629,301615.723914616,2010-10-26 01:10:53,1440.7291464793022,2,27,0.5499359965324402,3.890289545059204,25.79316675402384,25.58794873294969,103.01941412456488,93.2800022939051,3.237724376958795e-05,0.0922218039631843,0,0,0
8630,301645.7393495704,2010-10-26 01:11:23,1470.7445815690644,2,27,0.5501165986061096,3.891908407211304,25.7977525966417,25.58794873294969,103.03725810472388,93.2800022939051,6.47544875391759e-05,0.0922218039631843,0,0,0
8631,301675.7543296712,2010-10-26 01:11:53,1500.7595615595794,2,27,0.5499359965324402,3.893203496932984,25.80233838159905,25.58794873294969,103.05510844972169,93.2800022939051,0.0,0.0922218039631843,0,0,0
8632,301705.7695899804,2010-10-26 01:12:23,1530.7748219689845,2,27,0.5501165986061096,3.894660472869873,25.806924270441893,25.58794873294969,103.07296566967932,93.2800022939051,6.47544875391759e-05,0.0922218039631843,0,0,0
8633,301735.7847831622,2010-10-26 01:12:53,1560.7900150656253,2,27,0.5499359965324402,3.895793676376343,25.811510129879597,25.58794873294969,103.09082847976958,93.2800022939051,0.0,0.0922218039631843,0,0,0
8634,301765.799863187,2010-10-26 01:13:23,1590.8050950553688,2,27,0.5499359965324402,3.897250652313232,25.81609597255928,25.58794873294969,103.10869747322646,93.2800022939051,3.237724376958795e-05,0.0922218039631843,0,0,0
8635,301795.8150934212,2010-10-26 01:13:53,1620.820325284555,2,27,0.5501165986061096,3.898707628250122,25.820681798531243,25.58794873294969,103.12657235635932,93.2800022939051,6.47544875391759e-05,0.0922218039631843,0,0,0
8636,301825.8302950341,2010-10-26 01:14:23,1650.8355269224835,2,27,0.5499359965324402,3.899840831756592,25.82526761679074,25.58794873294969,103.14445325288506,93.2800022939051,6.47544875391759e-05,0.0922218039631843,0,0,0
8637,301855.8454834992,2010-10-26 01:14:53,1680.8507153725438,2,27,0.5499359965324402,3.9009740352630615,25.82985347005297,25.58794873294969,103.16234021080336,93.2800022939051,0.0,0.0922218039631843,0,0,0
8638,301885.86163780646,2010-10-26 01:15:23,1710.8668697550047,2,27,0.5501165986061096,3.902431011199951,25.834439461786467,25.58794873294969,103.18023374068434,93.2800022939051,3.237724376958795e-05,0.0922218039631843,0,0,0
8639,301915.8628281038,2010-10-26 01:15:53,1740.8680600523614,2,27,0.5501165986061096,3.903564214706421,25.83902317683575,25.58794873294969,103.19812427351448,93.2800022939051,0.0,0.0922218039631843,0,0,0
8640,301945.875657314,2010-10-26 01:16:23,1770.880889207332,2,27,0.550297200679779,3.905021190643311,25.84360866501467,25.58794873294969,103.21602773404902,93.2800022939051,3.237724376958795e-05,0.0922218039631843,0,0,0
8641,301975.8906515951,2010-10-26 01:16:53,1800.8958834583884,2,27,0.5501165986061096,3.9063162803649902,25.848194461220764,25.58794873294969,103.23393823079697,93.2800022939051,6.47544875391759e-05,0.0922218039631843,0,0,0
8642,302005.9058443809,2010-10-26 01:17:23,1830.9110762342293,2,27,0.5501165986061096,3.90761137008667,25.8527802847522,25.58794873294969,103.2518549644511,93.2800022939051,3.237724376958795e-05,0.0922218039631843,0,0,0
8643,302035.9210413121,2010-10-26 01:17:53,1860.9262731955023,2,27,0.5499359965324402,3.9089064598083496,25.857366079133907,25.58794873294969,103.26977757549712,93.2800022939051,3.237724376958795e-05,0.0922218039631843,0,0,0
8644,302065.93629073416,2010-10-26 01:18:23,1890.941522622536,2,27,0.5501165986061096,3.9103634357452393,25.86195189903125,25.58794873294969,103.28770642352494,93.2800022939051,6.47544875391759e-05,0.0922218039631843,0,0,0
8645,302095.951624346,2010-10-26 01:18:53,1920.956856334634,2,27,0.5499359965324402,3.911658525466919,25.866537774837976,25.58794873294969,103.305641544053,93.2800022939051,3.237724376958795e-05,0.0922218039631843,0,0,0
8646,302125.9665902413,2010-10-26 01:19:23,1950.9718220996945,2,27,0.5499359965324402,3.912953615188599,25.871123570686606,25.58794873294969,103.32358255440654,93.2800022939051,3.237724376958795e-05,0.0922218039631843,0,0,0
8647,302155.98177441576,2010-10-26 01:19:53,1980.987006309186,2,27,0.5501165986061096,3.914410352706909,25.87570941730929,25.58794873294969,103.341529978571,93.2800022939051,9.713172767078504e-05,0.0922218039631843,0,0,0
8648,302185.9970872408,2010-10-26 01:20:23,2011.0023191091643,2,27,0.5497553944587708,3.915543556213379,25.880295326225905,25.58794873294969,103.35948391787592,93.2800022939051,0.0,0.0922218039631843,0,0,0
8649,302216.0121723784,2010-10-26 01:20:53,2041.017404236713,2,27,0.550297200679779,3.9171624183654794,25.88488115165281,25.58794873294969,103.3774436578309,93.2800022939051,6.47544875391759e-05,0.0922218039631843,0,0,0
8650,302246.02750282735,2010-10-26 01:21:23,2071.032734725778,2,27,0.5501165986061096,3.918457508087158,25.889466957519776,25.58794873294969,103.39540976007424,93.2800022939051,6.47544875391759e-05,0.0922218039631843,0,0,0
8651,302276.04254885245,2010-10-26 01:21:53,2101.047780715784,2,27,0.5501165986061096,3.919914484024048,25.89405279404289,25.58794873294969,103.4133823796968,93.2800022939051,6.47544875391759e-05,0.0922218039631843,0,0,0
8652,302306.05774570344,2010-10-26 01:22:23,2131.062977556757,2,27,0.5499359965324402,3.9210476875305176,25.898638679480005,25.58794873294969,103.43136158235592,93.2800022939051,0.0,0.0922218039631843,0,0,0
8653,302336.07294281013,2010-10-26 01:22:53,2161.0781746734165,2,27,0.5501165986061096,3.922828435897827,25.903224458073016,25.58794873294969,103.44934681911198,93.2800022939051,6.47544875391759e-05,0.0922218039631843,0,0,0
8654,302366.08812010736,2010-10-26 01:23:23,2191.0933519656683,2,27,0.5499359965324402,3.923961639404297,25.90781026918872,25.58794873294969,103.46733871238074,93.2800022939051,3.237724376958795e-05,0.0922218039631843,0,0,0
8655,302396.1035051724,2010-10-26 01:23:53,2221.1087370508035,2,27,0.5499359965324402,3.9254186153411865,25.91239612257881,25.58794873294969,103.48533739075604,93.2800022939051,0.0,0.0922218039631843,0,0,0
8656,302426.11885505985,2010-10-26 01:24:23,2251.124086953253,2,27,0.5501165986061096,3.926875591278076,25.91698195106289,25.58794873294969,103.50334243924956,93.2800022939051,0.0,0.0922218039631843,0,0,0
8657,302456.13372712635,2010-10-26 01:24:53,2281.138958989713,2,27,0.5499359965324402,3.928332567214966,25.92156769848182,25.58794873294969,103.52135389318802,93.2800022939051,3.237724376958795e-05,0.0922218039631843,0,0,0
8658,302486.14887490514,2010-10-26 01:25:23,2311.154106763395,2,27,0.5499359965324402,3.929789543151856,25.92615339523929,25.58794873294969,103.53937181987988,93.2800022939051,0.0,0.0922218039631843,0,0,0
8659,302516.1640229895,2010-10-26 01:25:53,2341.1692548628894,2,27,0.5497553944587708,3.931408405303955,25.930739258264843,25.58794873294969,103.55739723931497,93.2800022939051,3.237724376958795e-05,0.0922218039631843,0,0,0
8660,302546.1793326116,2010-10-26 01:26:23,2371.184564515022,2,27,0.5501165986061096,3.9328653812408447,25.93532514805078,25.58794873294969,103.57542963303376,93.2800022939051,3.237724376958795e-05,0.0922218039631843,0,0,0
8661,302576.19451492635,2010-10-26 01:26:53,2401.199746794704,2,27,0.5501165986061096,3.9343223571777344,25.93991105870332,25.58794873294969,103.59346899075928,93.2800022939051,3.237724376958795e-05,0.0922218039631843,0,0,0
8662,302606.1990436692,2010-10-26 01:27:23,2431.2042755675684,2,27,0.5501165986061096,3.936103105545044,25.944495340278262,25.58794873294969,103.6115088894962,93.2800022939051,9.713172767078504e-05,0.0922218039631843,0,0,0
8663,302636.2093029542,2010-10-26 01:27:53,2461.214534857645,2,27,0.5499359965324402,3.937398195266724,25.949080431721512,25.58794873294969,103.62955881000678,93.2800022939051,3.237724376958795e-05,0.0922218039631843,0,0,0
8664,302666.2245706117,2010-10-26 01:28:23,2491.229802475015,2,27,0.5501165986061096,3.9390170574188232,25.95366633025118,25.58794873294969,103.64761905767728,93.2800022939051,6.47544875391759e-05,0.0922218039631843,0,0,0
8665,302696.23963823065,2010-10-26 01:28:53,2521.2448701791386,2,27,0.5499359965324402,3.940474033355713,25.95825277414148,25.58794873294969,103.66568856355966,93.2800022939051,3.237724376958795e-05,0.0922218039631843,0,0,0
8666,302726.2548463196,2010-10-26 01:29:23,2551.260078172908,2,27,0.5499359965324402,3.942092895507813,25.96283942332253,25.58794873294969,103.68376603349448,93.2800022939051,6.47544875391759e-05,0.0922218039631843,0,0,0
8667,302756.2700215066,2010-10-26 01:29:53,2581.2752533599123,2,27,0.5501165986061096,3.943549871444702,25.96742604083789,25.58794873294969,103.70185056845813,93.2800022939051,3.237724376958795e-05,0.0922218039631843,0,0,0
8668,302786.2852194203,2010-10-26 01:30:23,2611.290451283584,2,27,0.5499359965324402,3.9451687335968018,25.97201265212925,25.58794873294969,103.71994231867204,93.2800022939051,0.0,0.0922218039631843,0,0,0
8669,302816.30043333373,2010-10-26 01:30:54,2641.305665222169,2,27,0.5499359965324402,3.946787595748901,25.97659870667783,25.58794873294969,103.73803918920548,93.2800022939051,0.0,0.0922218039631843,0,0,0
8670,302846.3156224505,2010-10-26 01:31:24,2671.320854303803,2,27,0.5499359965324402,3.948244571685791,25.98118449305069,25.58794873294969,103.75614232616788,93.2800022939051,0.0,0.0922218039631843,0,0,0
8671,302876.33079770766,2010-10-26 01:31:54,2701.3360295609828,2,27,0.5499359965324402,3.9500253200531006,25.98577028732212,25.58794873294969,103.77425294123924,93.2800022939051,3.237724376958795e-05,0.0922218039631843,0,0,0
8672,302906.3459908494,2010-10-26 01:32:24,2731.3512227277984,2,27,0.5499359965324402,3.9516441822052,25.990356061586912,25.58794873294969,103.79237101193924,93.2800022939051,0.0,0.0922218039631843,0,0,0
8673,302936.3611830539,2010-10-26 01:32:54,2761.366414912165,2,27,0.5501165986061096,3.9534249305725098,25.994941866682264,25.58794873294969,103.81049667173932,93.2800022939051,6.47544875391759e-05,0.0922218039631843,0,0,0
8674,302966.37646307715,2010-10-26 01:33:24,2791.381694970542,2,27,0.5499359965324402,3.9548819065094,25.999527693126957,25.58794873294969,103.82863012875944,93.2800022939051,0.0,0.0922218039631843,0,0,0
8675,302996.3916052669,2010-10-26 01:33:54,2821.396837155294,2,27,0.5499359965324402,3.956824541091919,26.004113495183063,25.58794873294969,103.84677120910672,93.2800022939051,3.237724376958795e-05,0.0922218039631843,0,0,0
8676,303026.4068100477,2010-10-26 01:34:24,2851.412041966131,2,27,0.5501165986061096,3.9584434032440186,26.008699385449116,25.58794873294969,103.86492028142447,93.2800022939051,3.237724376958795e-05,0.0922218039631843,0,0,0
8677,303056.4219549241,2010-10-26 01:34:54,2881.427186787455,2,27,0.5501165986061096,3.960224151611328,26.0132852133108,25.58794873294969,103.88307696104349,93.2800022939051,6.47544875391759e-05,0.0922218039631843,0,0,0
8678,303086.43738791364,2010-10-26 01:35:24,2911.44261983212,2,27,0.5501165986061096,3.9620048999786377,26.01787110321089,25.58794873294969,103.9012417883467,93.2800022939051,6.47544875391759e-05,0.0922218039631843,0,0,0
8679,303116.4524660187,2010-10-26 01:35:54,2941.457697882029,2,27,0.5499359965324402,3.9634618759155273,26.022456882671356,25.58794873294969,103.91941401873298,93.2800022939051,3.237724376958795e-05,0.0922218039631843,0,0,0
8680,303146.46753256494,2010-10-26 01:36:24,2971.4727644382924,2,27,0.5497553944587708,3.965404510498047,26.027042691614284,25.58794873294969,103.93759438720788,93.2800022939051,6.47544875391759e-05,0.0922218039631843,0,0,0
8681,303176.482801651,2010-10-26 01:36:54,3001.488033654647,2,27,0.5499359965324402,3.967185258865357,26.0316284757568,25.58794873294969,103.95578271039776,93.2800022939051,3.237724376958795e-05,0.0922218039631843,0,0,0
8682,303206.49794485327,2010-10-26 01:37:24,3031.503176756686,2,27,0.5499359965324402,3.968966007232666,26.0362142912598,25.58794873294969,103.97397914517728,93.2800022939051,6.47544875391759e-05,0.0922218039631843,0,0,0
8683,303236.51313072187,2010-10-26 01:37:54,3061.518362590225,2,27,0.5499359965324402,3.9705848693847656,26.0408000797993,25.58794873294969,103.99218368859428,93.2800022939051,3.237724376958795e-05,0.0922218039631843,0,0,0
8684,303266.52830746776,2010-10-26 01:38:24,3091.533539321077,2,27,0.5499359965324402,3.972365617752075,26.04538589925843,25.58794873294969,104.01039665606284,93.2800022939051,3.237724376958795e-05,0.0922218039631843,0,0,0
8685,303296.5434997925,2010-10-26 01:38:54,3121.5487316508065,2,27,0.5499359965324402,3.9743082523345943,26.04997168530277,25.58794873294969,104.02861776299495,93.2800022939051,3.237724376958795e-05,0.0922218039631843,0,0,0
8686,303326.5587055657,2010-10-26 01:39:24,3151.563937429054,2,27,0.5499359965324402,3.976250886917114,26.05455755258547,25.58794873294969,104.04684765137746,93.2800022939051,6.47544875391759e-05,0.0922218039631843,0,0,0
8687,303356.5738834745,2010-10-26 01:39:54,3181.5791153829546,2,27,0.5499359965324402,3.977869749069214,26.05914342258108,25.58794873294969,104.06508597003756,93.2800022939051,3.237724376958795e-05,0.0922218039631843,0,0,0
8688,303386.5890727065,2010-10-26 01:40:24,3211.594304569851,2,27,0.5501165986061096,3.979974269866944,26.063729236109165,25.58794873294969,104.08333240280066,93.2800022939051,6.47544875391759e-05,0.0922218039631843,0,0,0
8689,303416.6043938022,2010-10-26 01:40:54,3241.609625665505,2,27,0.5499359965324402,3.981593132019043,26.068314941404967,25.58794873294969,104.10158738106894,93.2800022939051,0.0,0.0922218039631843,0,0,0
8690,303446.6194913557,2010-10-26 01:41:24,3271.6247232240357,2,27,0.5495747923851013,3.9835357666015625,26.07290065060405,25.58794873294969,104.11985109279672,93.2800022939051,3.237724376958795e-05,0.0922218039631843,0,0,0
8691,303476.63467061287,2010-10-26 01:41:54,3301.639902481184,2,27,0.550297200679779,3.985640287399292,26.077486361232484,25.58794873294969,104.13812355609112,93.2800022939051,3.237724376958795e-05,0.0922218039631843,0,0,0
8692,303506.6498536895,2010-10-26 01:42:24,3331.6550855628643,2,27,0.5501165986061096,3.9874210357666016,26.0820721251202,25.58794873294969,104.15640511736784,93.2800022939051,3.237724376958795e-05,0.0922218039631843,0,0,0
8693,303536.66505010944,2010-10-26 01:42:54,3361.6702819727625,2,27,0.550297200679779,3.989849328994751,26.086657860178715,25.58794873294969,104.17469545619828,93.2800022939051,0.0001295089750783,0.0922218039631843,0,0,0
8694,303566.6803437467,2010-10-26 01:43:24,3391.6855756200066,2,27,0.5499359965324402,3.9914681911468506,26.0912436579173,25.58794873294969,104.19299515670248,93.2800022939051,3.237724376958795e-05,0.0922218039631843,0,0,0
8695,303596.69543766114,2010-10-26 01:43:54,3421.7006695244304,2,27,0.5499359965324402,3.99357271194458,26.095829348661372,25.58794873294969,104.211303578729,93.2800022939051,6.47544875391759e-05,0.0922218039631843,0,0,0
8696,303626.710757238,2010-10-26 01:44:24,3451.715989106311,2,27,0.5501165986061096,3.995515108108521,26.100415108243528,25.58794873294969,104.22962155067692,93.2800022939051,3.237724376958795e-05,0.0922218039631843,0,0,0
8697,303656.7258568215,2010-10-26 01:44:54,3481.731088714951,2,27,0.5501165986061096,3.99778151512146,26.105000833147585,25.58794873294969,104.24794880303097,93.2800022939051,6.47544875391759e-05,0.0922218039631843,0,0,0
8698,303686.7410406952,2010-10-26 01:45:24,3511.7462725635432,2,27,0.5501165986061096,3.99972414970398,26.109586594269164,25.58794873294969,104.2662856015076,93.2800022939051,6.47544875391759e-05,0.0922218039631843,0,0,0
8699,303716.75625506486,2010-10-26 01:45:54,3541.761487158765,2,27,0.5501165986061096,4.001828670501709,26.11417226070543,25.58794873294969,104.2846316022079,93.2800022939051,9.70840483205393e-05,0.0922218039631843,0,0,0
8700,303746.771616476,2010-10-26 01:46:24,3571.776848469648,2,27,0.5499359965324402,4.0037713050842285,26.11875799325797,25.58794873294969,104.30298749376458,93.2800022939051,6.47544875391759e-05,0.0922218039631843,0,0,0
8701,303776.78662335355,2010-10-26 01:46:54,3601.791855226873,2,27,0.5501165986061096,4.006199836730957,26.123343630620667,25.58794873294969,104.32135268547393,93.2800022939051,9.71794142969884e-05,0.0922218039631843,0,0,0
8702,303806.8018250015,2010-10-26 01:47:24,3631.807056874826,2,27,0.5501165986061096,4.008304119110107,26.12792941824313,25.58794873294969,104.33972841823308,93.2800022939051,6.47544875391759e-05,0.0922218039631843,0,0,0
8703,303836.8170020431,2010-10-26 01:47:54,3661.822233921466,2,27,0.5499359965324402,4.010246753692627,26.13251512191995,25.58794873294969,104.35811372503272,93.2800022939051,3.23295607813634e-05,0.0922218039631843,0,0,0
8704,303866.8348261771,2010-10-26 01:48:24,3691.840058135662,2,27,0.5501165986061096,4.012675285339356,26.137101204692023,25.58794873294969,104.37651073139943,93.2800022939051,6.47544875391759e-05,0.0922218039631843,0,0,0
8705,303896.8476501391,2010-10-26 01:48:54,3721.85288205759,2,27,0.5501165986061096,4.014779567718506,26.14168655431332,25.58794873294969,104.394915010847,93.2800022939051,6.47544875391759e-05,0.0922218039631843,0,0,0
8706,303926.8625947164,2010-10-26 01:49:24,3751.8678265797066,2,27,0.5499359965324402,4.016884326934815,26.146272196298625,25.58794873294969,104.41333078358572,93.2800022939051,3.24249267578125e-05,0.0922218039631843,0,0,0
8707,303956.87777569285,2010-10-26 01:49:54,3781.883007606265,2,27,0.5499359965324402,4.019312381744385,26.150857936192555,25.58794873294969,104.43175737641958,93.2800022939051,6.47544875391759e-05,0.0922218039631843,0,0,0
8708,303986.89296857896,2010-10-26 01:50:24,3811.8982004472687,2,27,0.5499359965324402,4.021578788757324,26.155443598449992,25.58794873294969,104.45019416289702,93.2800022939051,0.0,0.0922218039631843,0,0,0
8709,304016.9081700815,2010-10-26 01:50:54,3841.913401974922,2,27,0.5499359965324402,4.023845195770264,26.160029292343005,25.58794873294969,104.46864175129868,93.2800022939051,3.23295607813634e-05,0.0922218039631843,0,0,0
8710,304046.9235727756,2010-10-26 01:51:24,3871.9288046839815,2,27,0.5497553944587708,4.026435375213623,26.16461502156609,25.58794873294969,104.48710012865811,93.2800022939051,9.70840483205393e-05,0.0922218039631843,0,0,0
8711,304076.9385711118,2010-10-26 01:51:54,3901.9438029751072,2,27,0.550297200679779,4.028863906860352,26.169200698162488,25.58794873294969,104.50556907712044,93.2800022939051,0.0001295089750783,0.0922218039631843,0,0,0
8712,304106.95373372745,2010-10-26 01:52:24,3931.9589655807554,2,27,0.5501165986061096,4.031130313873291,26.173786422165225,25.58794873294969,104.52404900846928,93.2800022939051,6.47544875391759e-05,0.0922218039631843,0,0,0
8713,304136.9689226938,2010-10-26 01:52:54,3961.974154562139,2,27,0.5499359965324402,4.033558368682861,26.178372128483264,25.58794873294969,104.54253980247934,93.2800022939051,6.47544875391759e-05,0.0922218039631843,0,0,0
8714,304166.98412990064,2010-10-26 01:53:24,3991.989361763935,2,27,0.5499359965324402,4.035824775695801,26.182957856304583,25.58794873294969,104.56104174351006,93.2800022939051,3.24249267578125e-05,0.0922218039631843,0,0,0
8715,304196.9993109272,2010-10-26 01:53:54,4022.004542815556,2,27,0.5499359965324402,4.038252830505371,26.187543553140245,25.58794873294969,104.57955471000602,93.2800022939051,6.47544875391759e-05,0.0922218039631843,0,0,0
8716,304227.0144992519,2010-10-26 01:54:24,4052.019731115241,2,27,0.5501165986061096,4.04100513458252,26.192129280476557,25.58794873294969,104.59807901078749,93.2800022939051,9.71794142969884e-05,0.0922218039631843,0,0,0
8717,304257.0296962483,2010-10-26 01:54:54,4082.034928111601,2,27,0.5499359965324402,4.04310941696167,26.19671496758366,25.58794873294969,104.61661443767836,93.2800022939051,6.47544875391759e-05,0.0922218039631843,0,0,0
8718,304287.04495913885,2010-10-26 01:55:24,4112.05019100219,2,27,0.5501165986061096,4.045699596405029,26.201300645207063,25.58794873294969,104.6351612671812,93.2800022939051,3.23295607813634e-05,0.0922218039631843,0,0,0
8719,304317.0600929678,2010-10-26 01:55:54,4142.065324841143,2,27,0.5499359965324402,4.048289775848389,26.205886312688506,25.58794873294969,104.65371959401804,93.2800022939051,6.47544875391759e-05,0.0922218039631843,0,0,0
8720,304347.075405462,2010-10-26 01:56:24,4172.080637345384,2,27,0.5501165986061096,4.050879955291748,26.21047208646097,25.58794873294969,104.67229006609904,93.2800022939051,6.47544875391759e-05,0.0922218039631843,0,0,0
8721,304377.0904729757,2010-10-26 01:56:54,4202.095704838984,2,27,0.5501165986061096,4.053470134735107,26.21505781147552,25.58794873294969,104.69087198881994,93.2800022939051,6.47544875391759e-05,0.0922218039631843,0,0,0
8722,304407.105683205,2010-10-26 01:57:24,4232.110915063311,2,27,0.5499359965324402,4.055898666381836,26.219643594812624,25.58794873294969,104.70946595775776,93.2800022939051,6.47544875391759e-05,0.0922218039631843,0,0,0
8723,304437.12086286815,2010-10-26 01:57:54,4262.126094736497,2,27,0.5501165986061096,4.058488845825195,26.224229365471064,25.58794873294969,104.72807182410092,93.2800022939051,3.24249267578125e-05,0.0922218039631843,0,0,0
8724,304467.13605854625,2010-10-26 01:58:24,4292.141290444647,2,27,0.5501165986061096,4.061079025268555,26.228815121039865,25.58794873294969,104.74668955073814,93.2800022939051,6.47544875391759e-05,0.0922218039631843,0,0,0
8725,304497.1512924446,2010-10-26 01:58:54,4322.156524342978,2,27,0.5499359965324402,4.063830852508545,26.233400885165285,25.58794873294969,104.7653192624562,93.2800022939051,9.70840483205393e-05,0.0922218039631843,0,0,0
8726,304527.1664816816,2010-10-26 01:59:24,4352.171713655187,2,27,0.5501165986061096,4.066583156585693,26.237986640087776,25.58794873294969,104.78396129564194,93.2800022939051,0.0001295089750783,0.0922218039631843,0,0,0
8727,304557.1816439865,2010-10-26 01:59:54,4382.1868758798855,2,27,0.5501165986061096,4.069173336029053,26.24257229366464,25.58794873294969,104.80261534513116,93.2800022939051,6.47544875391759e-05,0.0922218039631843,0,0,0
8728,304587.1969629819,2010-10-26 02:00:24,4412.202194840217,2,27,0.5501165986061096,4.071925163269043,26.247158032081018,25.58794873294969,104.82128223211092,93.2800022939051,3.23295607813634e-05,0.0922218039631843,0,0,0
8729,304617.2121058283,2010-10-26 02:00:54,4442.217337826969,2,27,0.5501165986061096,4.074839115142822,26.25174373420047,25.58794873294969,104.83996161290246,93.2800022939051,9.70840483205393e-05,0.0922218039631843,0,0,0
8730,304647.22723869985,2010-10-26 02:01:24,4472.23247059826,2,27,0.5499359965324402,4.077753067016602,26.256329466972275,25.58794873294969,104.8586539237916,93.2800022939051,9.70840483205393e-05,0.0922218039631843,0,0,0
8731,304677.24241814244,2010-10-26 02:01:54,4502.247650015809,2,27,0.5501165986061096,4.08050537109375,26.26091515434625,25.58794873294969,104.8773589966257,93.2800022939051,0.0001295089750783,0.0922218039631843,0,0,0
8732,304707.25763166,2010-10-26 02:02:24,4532.26286352332,2,27,0.5499359965324402,4.08325719833374,26.26550091095809,25.58794873294969,104.89607728118396,93.2800022939051,6.47544875391759e-05,0.0922218039631843,0,0,0
8733,304737.2728071979,2010-10-26 02:02:55,4562.278039081249,2,27,0.5501165986061096,4.086333274841309,26.27008659780332,25.58794873294969,104.9148084452354,93.2800022939051,0.0001295089750783,0.0922218039631843,0,0,0
8734,304767.28801226936,2010-10-26 02:03:25,4592.293244132685,2,27,0.5501165986061096,4.089085102081299,26.274672237867016,25.58794873294969,104.93355260702202,93.2800022939051,9.70840483205393e-05,0.0922218039631843,0,0,0
8735,304797.30320081965,2010-10-26 02:03:55,4622.308432728107,2,27,0.5499359965324402,4.091999053955078,26.27925794613554,25.58794873294969,104.95231040901248,93.2800022939051,9.70840483205393e-05,0.0922218039631843,0,0,0
8736,304827.3183931093,2010-10-26 02:04:25,4652.323625002699,2,27,0.5501165986061096,4.094913005828857,26.283843666891507,25.58794873294969,104.97108172379332,93.2800022939051,9.70840483205393e-05,0.0922218039631843,0,0,0
8737,304857.33358516335,2010-10-26 02:04:55,4682.338817036691,2,27,0.5501165986061096,4.097989082336426,26.28842938860131,25.58794873294969,104.98986668572512,93.2800022939051,9.71794142969884e-05,0.0922218039631843,0,0,0
8738,304887.3487937987,2010-10-26 02:05:25,4712.354025657022,2,27,0.5501165986061096,4.100903034210205,26.293015081786155,25.58794873294969,105.00866522459415,93.2800022939051,6.47544875391759e-05,0.0922218039631843,0,0,0
8739,304917.3639902387,2010-10-26 02:05:55,4742.369222102008,2,27,0.5499359965324402,4.103816986083984,26.297600888361547,25.58794873294969,105.02747798562557,93.2800022939051,3.24249267578125e-05,0.0922218039631843,0,0,0
8740,304947.3791596563,2010-10-26 02:06:25,4772.384391524646,2,27,0.5501165986061096,4.107054710388184,26.302186583850144,25.58794873294969,105.04630429051907,93.2800022939051,9.71794142969884e-05,0.0922218039631843,0,0,0
8741,304977.39459162334,2010-10-26 02:06:55,4802.3998236019,2,27,0.5499359965324402,4.109968662261963,26.306772245442342,25.58794873294969,105.06514450571508,93.2800022939051,6.47544875391759e-05,0.0922218039631843,0,0,0
8742,305007.40977119125,2010-10-26 02:07:25,4832.415003044511,2,27,0.5499359965324402,4.113044261932373,26.311357978202924,25.58794873294969,105.08399925689076,93.2800022939051,6.47544875391759e-05,0.0922218039631843,0,0,0
8743,305037.42473420943,2010-10-26 02:07:55,4862.429966062726,2,27,0.5501165986061096,4.116281986236572,26.315943640133504,25.58794873294969,105.10286793183744,93.2800022939051,6.47544875391759e-05,0.0922218039631843,0,0,0
8744,305067.4399254214,2010-10-26 02:08:25,4892.445157279682,2,27,0.550297200679779,4.119357585906982,26.320529357505208,25.58794873294969,105.12175127925302,93.2800022939051,9.70840483205393e-05,0.0922218039631843,0,0,0
8745,305097.4551204528,2010-10-26 02:08:55,4922.460352331195,2,27,0.5499359965324402,4.122595310211182,26.325115128968186,25.58794873294969,105.1406494410128,93.2800022939051,6.47544875391759e-05,0.0922218039631843,0,0,0
8746,305127.4703376145,2010-10-26 02:09:25,4952.475569477775,2,27,0.5501165986061096,4.125833034515381,26.32970085008749,25.58794873294969,105.15956197026529,93.2800022939051,9.70840483205393e-05,0.0922218039631843,0,0,0
8747,305157.4855100947,2010-10-26 02:09:55,4982.490741968059,2,27,0.5499359965324402,4.12907075881958,26.33428660893477,25.58794873294969,105.17848951471356,93.2800022939051,6.47544875391759e-05,0.0922218039631843,0,0,0
8748,305187.5006989508,2010-10-26 02:10:25,5012.505930839169,2,27,0.5499359965324402,4.132470607757568,26.338872357651503,25.58794873294969,105.19743187449129,93.2800022939051,0.0001295089750783,0.0922218039631843,0,0,0
8749,305217.5158946088,2010-10-26 02:10:55,5042.521126477142,2,27,0.5499359965324402,4.1355462074279785,26.343458089380643,25.58794873294969,105.21638913026668,93.2800022939051,6.47544875391759e-05,0.0922218039631843,0,0,0
8750,305247.5311019911,2010-10-26 02:11:25,5072.5363338644,2,27,0.5501165986061096,4.138946056365967,26.348043897266272,25.58794873294969,105.23536185253394,93.2800022939051,9.71794142969884e-05,0.0922218039631843,0,0,0
8751,305277.5462861605,2010-10-26 02:11:55,5102.551518053841,2,27,0.5501165986061096,4.142183780670166,26.352629580706207,25.58794873294969,105.25434927491646,93.2800022939051,9.71794142969884e-05,0.0922218039631843,0,0,0
8752,305307.5614767408,2010-10-26 02:12:25,5132.566708634212,2,27,0.5499359965324402,4.145583152770996,26.35721535437999,25.58794873294969,105.27335247893105,93.2800022939051,3.23295607813634e-05,0.0922218039631843,0,0,0
8753,305337.5767373658,2010-10-26 02:12:55,5162.581969254141,2,27,0.5497553944587708,4.148820877075195,26.36180101745836,25.58794873294969,105.29237077618652,93.2800022939051,6.47544875391759e-05,0.0922218039631843,0,0,0
8754,305367.5918783625,2010-10-26 02:13:25,5192.597110270983,2,27,0.5499359965324402,4.152544498443604,26.36638676744668,25.58794873294969,105.3114049686118,93.2800022939051,9.71794142969884e-05,0.0922218039631843,0,0,0
8755,305397.60706442664,2010-10-26 02:13:55,5222.612296305022,2,27,0.5499359965324402,4.155782222747803,26.370972448490928,25.58794873294969,105.33045456492194,93.2800022939051,9.71794142969884e-05,0.0922218039631843,0,0,0
8756,305427.62225455086,2010-10-26 02:14:25,5252.627486434267,2,27,0.5501165986061096,4.159343719482422,26.37555813998653,25.58794873294969,105.34951989621132,93.2800022939051,0.0001295089750783,0.0922218039631843,0,0,0
8757,305457.6374541538,2010-10-26 02:14:55,5282.642686067198,2,27,0.5499359965324402,4.162743091583252,26.38014384279815,25.58794873294969,105.36860103651014,93.2800022939051,9.70840483205393e-05,0.0922218039631843,0,0,0
8758,305487.6526583731,2010-10-26 02:15:25,5312.65789028656,2,27,0.5499359965324402,4.166304588317871,26.38472953898238,25.58794873294969,105.38769810473406,93.2800022939051,9.70840483205393e-05,0.0922218039631843,0,0,0
8759,305517.6679611531,2010-10-26 02:15:55,5342.673193011428,2,27,0.5499359965324402,4.169704437255859,26.389315286463308,25.58794873294969,105.4068115499268,93.2800022939051,6.47544875391759e-05,0.0922218039631843,0,0,0
8760,305547.6831819939,2010-10-26 02:16:25,5372.688413857229,2,27,0.5499359965324402,4.173265933990479,26.393900917494378,25.58794873294969,105.42594073613508,93.2800022939051,9.71794142969884e-05,0.0922218039631843,0,0,0
8761,305577.6982350365,2010-10-26 02:16:55,5402.703466899812,2,27,0.5499359965324402,4.176827430725098,26.39848660860628,25.58794873294969,105.44508642790872,93.2800022939051,9.71794142969884e-05,0.0922218039631843,0,0,0
8762,305607.7134433561,2010-10-26 02:17:25,5432.718675229418,2,27,0.5501165986061096,4.180550575256348,26.403072352973982,25.58794873294969,105.46424875495757,93.2800022939051,9.70840483205393e-05,0.0922218039631843,0,0,0
8763,305637.7286500115,2010-10-26 02:17:55,5462.733881884851,2,27,0.5499359965324402,4.184112071990967,26.407658120707133,25.58794873294969,105.48342779501324,93.2800022939051,9.70840483205393e-05,0.0922218039631843,0,0,0
8764,305667.7439744304,2010-10-26 02:18:25,5492.749206303788,2,27,0.5499359965324402,4.187673568725586,26.41224386388156,25.58794873294969,105.50262339563464,93.2800022939051,9.70840483205393e-05,0.0922218039631843,0,0,0
8765,305697.7590168014,2010-10-26 02:18:55,5522.764248719887,2,27,0.5501165986061096,4.191558837890625,26.416829514179568,25.58794873294969,105.5218354633052,93.2800022939051,9.70840483205393e-05,0.0922218039631843,0,0,0
8766,305727.7742217977,2010-10-26 02:19:25,5552.779453711172,2,27,0.5499359965324402,4.195120334625244,26.421415254892377,25.58794873294969,105.5410648396984,93.2800022939051,9.70840483205393e-05,0.0922218039631843,0,0,0
8767,305757.7894184783,2010-10-26 02:19:55,5582.79465038172,2,27,0.5501165986061096,4.199005603790283,26.426000943202048,25.58794873294969,105.56031090058164,93.2800022939051,0.0001295089750783,0.0922218039631843,0,0,0
8768,305766.1800961488,2010-10-26 02:20:03,5591.185328042197,2,27,0.5501165986061096,4.200138568878174,26.42728287056073,25.58794873294969,105.56569420212226,93.2800022939051,0.0001618385285837,0.0922218039631843,0,0,0
8769,305796.2017457913,2010-10-26 02:20:34,30.01534478469416,3,27,0.0,4.115634441375732,26.42728287056073,25.58794873294969,105.56569420212226,93.2800022939051,-0.0004208564641885,0.0922218039631843,0,0,0
8770,305826.21681073355,2010-10-26 02:21:04,60.03040973695981,3,27,0.0,4.105273723602295,26.42728287056073,25.58794873294969,105.56569420212226,93.2800022939051,-0.0002266883820993,0.0922218039631843,0,0,0
8771,305856.2321041252,2010-10-26 02:21:34,90.0457031185416,3,27,0.0,4.099122047424316,26.42728287056073,25.58794873294969,105.56569420212226,93.2800022939051,-9.71794142969884e-05,0.0922218039631843,0,0,0
8772,305886.200300291,2010-10-26 02:22:04,120.01389928437028,3,27,0.0,4.095075130462647,26.42728287056073,25.58794873294969,105.56569420212226,93.2800022939051,-6.47544875391759e-05,0.0922218039631843,0,0,0
8773,305916.21630861855,2010-10-26 02:22:34,30.015192023967423,5,27,0.0,4.092484951019287,26.42728287056085,25.58794873294969,105.56569420212274,93.2800022939051,-6.47544875391759e-05,0.0922218039631843,0,0,0
8774,305946.2158610489,2010-10-26 02:23:04,60.014744449242734,5,27,0.0,4.090218544006348,26.42728287056085,25.58794873294969,105.56569420212274,93.2800022939051,-9.70840483205393e-05,0.0922218039631843,0,0,0
8775,305946.3967647265,2010-10-26 02:23:04,0.1874433665443099,6,27,-1.9243103452026844e-05,4.090218544006348,26.42728287056085,25.58794873395164,105.56569420212274,93.28000229800324,0.0,0.0955438911914825,0,0,0
8776,305951.2249245665,2010-10-26 02:23:09,5.01560310119066,6,27,0.0001613661734154,4.089894771575928,26.42728349904386,25.587948734118857,105.56569677279738,93.2800022986872,-0.0001295089750783,0.0955438911914825,0,0,0
8777,305981.2493079051,2010-10-26 02:23:39,30.01537550626176,7,27,-1.0997490882873535,3.9207239151000977,26.42728349904386,25.59711810719787,105.56569677279738,93.31613632028234,-0.0008418083307333,0.0955438911914825,0,0,0
8778,306011.26434597035,2010-10-26 02:24:09,60.030413656729074,7,27,-1.099929690361023,3.8959555625915527,26.42728349904386,25.60628735440308,105.56569677279738,93.351963999205,-0.0005504131549969,0.0955438911914825,0,0,0
8779,306041.2797520729,2010-10-26 02:24:39,90.04581975924613,7,27,-1.0997490882873535,3.878957509994507,26.42728349904386,25.61545666613288,105.56569677279738,93.38760485150912,-0.0003885269106831,0.0955438911914825,0,0,0
8780,306071.2947413516,2010-10-26 02:25:09,120.06080898277244,7,27,-1.0997490882873535,3.86600661277771,26.42728349904386,25.624625797192195,105.56569677279738,93.42310865885028,-0.0002590179501567,0.0955438911914825,0,0,0
8781,306101.3099125285,2010-10-26 02:25:39,150.0759801297079,7,27,-1.0997490882873535,3.854836463928223,26.42728349904386,25.63379500997479,105.56569677279738,93.45850319928932,-0.0002590179501567,0.0955438911914825,0,0,0
8782,306131.32509207143,2010-10-26 02:26:09,180.09115965251857,7,27,-1.099568486213684,3.844961404800415,26.42728349904386,25.64296395328818,105.56569677279738,93.49380159816536,-0.0002590179501567,0.0955438911914825,0,0,0
8783,306161.340321649,2010-10-26 02:26:39,210.1063892350936,7,27,-1.0997490882873535,3.835895776748657,26.42728349904386,25.652132397941827,105.56569677279738,93.52901167750484,-0.0002266406954731,0.0955438911914825,0,0,0
8784,306191.3556343687,2010-10-26 02:27:09,240.1217019699096,7,27,-1.0997490882873535,3.8271541595458975,26.42728349904386,25.661301120970386,105.56569677279738,93.56414170539576,-0.0002590179501567,0.0955438911914825,0,0,0
8785,306221.3707032007,2010-10-26 02:27:39,270.13677079181963,7,27,-1.0997490882873535,3.8192217350006095,26.42728349904386,25.67047033203069,105.56569677279738,93.599197020469,-0.0001618862152099,0.0955438911914825,0,0,0
8786,306251.38591102907,2010-10-26 02:28:09,300.1519786251889,7,27,-1.0997490882873535,3.811289310455322,26.42728349904386,25.679639625951246,105.56569677279738,93.63417927500832,-0.0001295089750783,0.0955438911914825,0,0,0
8787,306281.40116503247,2010-10-26 02:28:39,330.16723262361575,7,27,-1.099568486213684,3.803842544555664,26.42728349904386,25.688808904561142,105.56569677279738,93.66909018774592,-0.0001618862152099,0.0955438911914825,0,0,0
8788,306311.4163773821,2010-10-26 02:29:09,360.18244505344086,7,27,-1.0997490882873535,3.796233892440796,26.42728349904386,25.69797813841988,105.56569677279738,93.7039324757952,-0.0001942634553415,0.0955438911914825,0,0,0
8789,306341.4316079872,2010-10-26 02:29:39,390.19767558838953,7,27,-1.0997490882873535,3.7891108989715576,26.42728349904386,25.70714746177457,105.56569677279738,93.73870852895122,-0.0002266406954731,0.0955438911914825,0,0,0
8790,306371.4468167779,2010-10-26 02:30:09,420.2128843941824,7,27,-1.0997490882873535,3.7819879055023193,26.42728349904386,25.716316839869307,105.56569677279738,93.77341943630044,-0.0001618862152099,0.0955438911914825,0,0,0
8791,306401.46202389954,2010-10-26 02:30:39,450.22809149071526,7,27,-1.0997490882873535,3.775026798248291,26.42728349904386,25.72548613747925,105.56569677279738,93.80806594909023,-0.0001618862152099,0.0955438911914825,0,0,0
8792,306431.4770725913,2010-10-26 02:31:09,480.2431402125297,7,27,-1.0997490882873535,3.7683894634246826,26.42728349904386,25.73465536462928,105.56569677279738,93.84264980311625,-0.0001618862152099,0.0955438911914825,0,0,0
8793,306461.4922680989,2010-10-26 02:31:39,510.2583357201795,7,27,-1.099568486213684,3.761914014816284,26.42728349904386,25.74382463548745,105.56569677279738,93.87717283902766,-0.0001295089750783,0.0955438911914825,0,0,0
8794,306491.5076308284,2010-10-26 02:32:09,540.27369845461,7,27,-1.0997490882873535,3.755276679992676,26.42728349904386,25.7529940503166,105.56569677279738,93.91163653580216,-0.0001942634553415,0.0955438911914825,0,0,0
8795,306521.5226985124,2010-10-26 02:32:39,570.2887661336716,7,27,-1.0997490882873535,3.749125242233277,26.42728349904386,25.76216339158907,105.56569677279738,93.94604136759672,-0.0001295089750783,0.0955438911914825,0,0,0
8796,306551.5378529527,2010-10-26 02:33:09,600.303920573969,7,27,-1.0997490882873535,3.742973566055298,26.42728349904386,25.77133283716162,105.56569677279738,93.98038944502927,-0.0001295089750783,0.0955438911914825,0,0,0
8797,306581.55317576765,2010-10-26 02:33:39,630.3192433588328,7,27,-1.099568486213684,3.7368218898773193,26.42728349904386,25.78050232811336,105.56569677279738,94.01468158654406,-0.0001618862152099,0.0955438911914825,0,0,0
8798,306611.5682462136,2010-10-26 02:34:09,660.3343138047903,7,27,-1.099929690361023,3.7309939861297607,26.42728349904386,25.7896716221024,105.56569677279738,94.04891788428814,-9.713172767078504e-05,0.0955438911914825,0,0,0
8799,306641.58345725,2010-10-26 02:34:39,690.3495248361301,7,27,-1.0997490882873535,3.725004196166992,26.42728349904386,25.798840889114043,105.56569677279738,94.08310026530012,-0.0001618862152099,0.0955438911914825,0,0,0
8800,306671.598642482,2010-10-26 02:35:09,720.3647100731823,7,27,-1.0997490882873535,3.719338178634644,26.42728349904386,25.808010199669752,105.56569677279738,94.11723021345054,-0.0001618862152099,0.0955438911914825,0,0,0
8801,306701.61388118233,2010-10-26 02:35:39,750.3799487734816,7,27,-1.0997490882873535,3.713995933532715,26.42728349904386,25.81717953339563,105.56569677279738,94.1513087331954,-9.713172767078504e-05,0.0955438911914825,0,0,0
8802,306731.629028941,2010-10-26 02:36:10,780.3950965271137,7,27,-1.0997490882873535,3.708168029785156,26.42728349904386,25.826348837716413,105.56569677279738,94.1853362298621,-0.0001618862152099,0.0955438911914825,0,0,0
8803,306761.6442362881,2010-10-26 02:36:40,810.4103038792837,7,27,-1.0997490882873535,3.7029876708984375,26.42728349904386,25.835518150875533,105.56569677279738,94.21931366522784,-9.713172767078504e-05,0.0955438911914825,0,0,0
8804,306791.65941897884,2010-10-26 02:37:10,840.4254866050773,7,27,-1.0997490882873535,3.697483539581299,26.42728349904386,25.84468749651713,105.56569677279738,94.25324196526068,-0.0001295089750783,0.0955438911914825,0,0,0
8805,306821.67475275614,2010-10-26 02:37:40,870.4408204074,7,27,-1.099568486213684,3.69246506690979,26.42728349904386,25.853856860557944,105.56569677279738,94.28712200630024,-6.47544875391759e-05,0.0955438911914825,0,0,0
8806,306851.68993350695,2010-10-26 02:38:10,900.4560010880965,7,27,-1.099929690361023,3.687122821807861,26.42728349904386,25.86302621719105,105.56569677279738,94.320954655718,-0.0001618862152099,0.0955438911914825,0,0,0
8807,306881.7052893993,2010-10-26 02:38:40,930.4713571158117,7,27,-1.099568486213684,3.6822662353515625,26.42728349904386,25.872195552298077,105.56569677279738,94.3547412358704,-9.713172767078504e-05,0.0955438911914825,0,0,0
8808,306911.72022051807,2010-10-26 02:39:10,960.4862881342732,7,27,-1.099568486213684,3.6772477626800537,26.42728349904386,25.881364773933463,105.56569677279738,94.38848190995236,-0.0001295089750783,0.0955438911914825,0,0,0
8809,306941.7355246314,2010-10-26 02:39:40,990.501592227552,7,27,-1.099929690361023,3.672391414642334,26.42728349904386,25.890534140225643,105.56569677279738,94.42217828434389,-0.0001618385285837,0.0955438911914825,0,0,0
8810,306971.7506327112,2010-10-26 02:40:10,1020.5167002972794,7,27,-1.0997490882873535,3.667696714401245,26.42728349904386,25.899703451300446,105.56569677279738,94.45583039445506,-0.0001295089750783,0.0955438911914825,0,0,0
8811,307001.7660265932,2010-10-26 02:40:40,1050.5320942044018,7,27,-1.0997490882873535,3.663163900375366,26.42728349904386,25.908872874202828,105.56569677279738,94.48943980087888,-0.0001295089750783,0.0955438911914825,0,0,0
8812,307031.7809997567,2010-10-26 02:41:10,1080.5470673679015,7,27,-1.099929690361023,3.6586310863494873,26.42728349904386,25.918042141507417,105.56569677279738,94.52300656565812,-9.713172767078504e-05,0.0955438911914825,0,0,0
8813,307061.796195114,2010-10-26 02:41:40,1110.5622626951017,7,27,-1.0997490882873535,3.6539363861083984,26.42728349904386,25.927211505916155,105.56569677279738,94.556532379156,-0.0001295089750783,0.0955438911914825,0,0,0
8814,307091.81138734345,2010-10-26 02:42:10,1140.5774549245814,7,27,-1.099568486213684,3.64972734451294,26.42728349904386,25.936380907786344,105.56569677279738,94.5900176312377,-0.0001295089750783,0.0955438911914825,0,0,0
8815,307121.8266087156,2010-10-26 02:42:40,1170.592676301706,7,27,-1.0997490882873535,3.6453564167022714,26.42728349904386,25.945550240505483,105.56569677279738,94.62346273764211,-9.713172767078504e-05,0.0955438911914825,0,0,0
8816,307151.8417806595,2010-10-26 02:43:10,1200.6078482456276,7,27,-1.099568486213684,3.641147375106812,26.42728349904386,25.95471951107115,105.56569677279738,94.656868570018,-0.0001295089750783,0.0955438911914825,0,0,0
8817,307181.85697904933,2010-10-26 02:43:40,1230.6230466354605,7,27,-1.099929690361023,3.636938333511353,26.42728349904386,25.96388884751378,105.56569677279738,94.69023602149366,-0.0001295089750783,0.0955438911914825,0,0,0
8818,307211.8721651485,2010-10-26 02:44:10,1260.6382327296492,7,27,-1.0997490882873535,3.632891178131104,26.42728349904386,25.97305823617879,105.56569677279738,94.7235655963669,-9.713172767078504e-05,0.0955438911914825,0,0,0
8819,307241.8873819091,2010-10-26 02:44:40,1290.653449490268,7,27,-1.0997490882873535,3.628682136535645,26.42728349904386,25.982227578394458,105.56569677279738,94.75685774434172,-0.0001295089750783,0.0955438911914825,0,0,0
8820,307271.902577482,2010-10-26 02:45:10,1320.6686450580678,7,27,-1.0997490882873535,3.6247968673706055,26.42728349904386,25.991396982735413,105.56569677279738,94.79011342109176,-0.0001295089750783,0.0955438911914825,0,0,0
8821,307301.917834533,2010-10-26 02:45:40,1350.68390224444,7,27,-1.0997490882873535,3.621073484420776,26.42728349904386,26.000566420563715,105.56569677279738,94.82333374134345,-9.713172767078504e-05,0.0955438911914825,0,0,0
8822,307331.93296199606,2010-10-26 02:46:10,1380.699029587202,7,27,-1.0997490882873535,3.617188215255737,26.42728349904386,26.009735741360657,105.56569677279738,94.85651867802598,-0.0001295089750783,0.0955438911914825,0,0,0
8823,307361.9481642054,2010-10-26 02:46:40,1410.7142317965545,7,27,-1.0997490882873535,3.613788604736328,26.42728349904386,26.0189050888438,105.56569677279738,94.8896695370876,-3.237724376958795e-05,0.0955438911914825,0,0,0
8824,307391.9633389864,2010-10-26 02:47:10,1440.7294066026095,7,27,-1.0997490882873535,3.609903335571289,26.42728349904386,26.028074427620464,105.56569677279738,94.92278716557264,-0.0001295089750783,0.0955438911914825,0,0,0
8825,307421.97859432315,2010-10-26 02:47:40,1470.7446620396215,7,27,-1.0997490882873535,3.60650372505188,26.42728349904386,26.037243784984412,105.56569677279738,94.95587233496867,-9.713172767078504e-05,0.0955438911914825,0,0,0
8826,307451.99372896407,2010-10-26 02:48:10,1500.7597965402233,7,27,-1.099929690361023,3.603104114532471,26.42728349904386,26.04641314871738,105.56569677279738,94.98892565999812,-6.47544875391759e-05,0.0955438911914825,0,0,0
8827,307482.0089392887,2010-10-26 02:48:40,1530.7750069099138,7,27,-1.099929690361023,3.599542617797852,26.42728349904386,26.05558250635639,105.56569677279738,95.02194823934153,-0.0001295089750783,0.0955438911914825,0,0,0
8828,307512.0241234932,2010-10-26 02:49:10,1560.7901911093802,7,27,-1.0997490882873535,3.5964667797088623,26.42728349904386,26.064751924276724,105.56569677279738,95.05494078226307,-9.713172767078504e-05,0.0955438911914825,0,0,0
8829,307542.03946116514,2010-10-26 02:49:40,1590.8055288465098,7,27,-1.0997490882873535,3.593390941619873,26.42728349904386,26.073921365961887,105.56569677279738,95.0879036272916,-9.713172767078504e-05,0.0955438911914825,0,0,0
8830,307572.0545169044,2010-10-26 02:50:10,1620.820584525664,7,27,-1.0997490882873535,3.590153455734253,26.42728349904386,26.08309077120038,105.56569677279738,95.12083708080932,-3.237724376958795e-05,0.0955438911914825,0,0,0
8831,307602.0697198857,2010-10-26 02:50:40,1650.8357874668404,7,27,-1.0997490882873535,3.587077617645264,26.42728349904386,26.09226015659035,105.56569677279738,95.1537419518082,-6.47544875391759e-05,0.0955438911914825,0,0,0
8832,307632.0850006408,2010-10-26 02:51:10,1680.8510682269657,7,27,-1.099568486213684,3.5840017795562744,26.42728349904386,26.101429575700863,105.56569677279738,95.1866182767402,-9.713172767078504e-05,0.0955438911914825,0,0,0
8833,307662.10027445864,2010-10-26 02:51:40,1710.866342069851,7,27,-1.0997490882873535,3.580925941467285,26.42728349904386,26.11059897857522,105.56569677279738,95.21946645153052,-6.47544875391759e-05,0.0955438911914825,0,0,0
8834,307692.115311752,2010-10-26 02:52:10,1740.881379343132,7,27,-1.099929690361023,3.577688217163086,26.42728349904386,26.119768374423742,105.56569677279738,95.25228643783542,-9.713172767078504e-05,0.0955438911914825,0,0,0
8835,307722.1305088336,2010-10-26 02:52:40,1770.8965764247046,7,27,-1.0997490882873535,3.574774265289306,26.42728349904386,26.12893778402681,105.56569677279738,95.2850784274682,-9.713172767078504e-05,0.0955438911914825,0,0,0
8836,307752.14572718315,2010-10-26 02:53:10,1800.9117948043586,7,27,-1.099929690361023,3.5715365409851074,26.42728349904386,26.1381072363688,105.56569677279738,95.31784258059726,-9.713172767078504e-05,0.0955438911914825,0,0,0
8837,307782.1618277966,2010-10-26 02:53:40,1830.927895513048,7,27,-1.0997490882873535,3.568460702896118,26.42728349904386,26.14727695872619,105.56569677279738,95.3505794865592,-9.713172767078504e-05,0.0955438911914825,0,0,0
8838,307812.1763571189,2010-10-26 02:54:10,1860.9424247401216,7,27,-1.099568486213684,3.565546751022339,26.42728349904386,26.156446189752085,105.56569677279738,95.38328627711864,-6.47544875391759e-05,0.0955438911914825,0,0,0
8839,307842.1913089643,2010-10-26 02:54:40,1890.957376575465,7,27,-1.099929690361023,3.56230902671814,26.42728349904386,26.165615550040936,105.56569677279738,95.4159650015663,-9.713172767078504e-05,0.0955438911914825,0,0,0
8840,307872.2064820861,2010-10-26 02:55:10,1920.972549667248,7,27,-1.0997490882873535,3.5592331886291504,26.42728349904386,26.17478497157835,105.56569677279738,95.44861548623877,-6.47544875391759e-05,0.0955438911914825,0,0,0
8841,307902.22179543244,2010-10-26 02:55:40,1950.9878630236128,7,27,-1.099929690361023,3.555833578109741,26.42728349904386,26.18395446115948,105.56569677279738,95.48123678525197,-9.713172767078504e-05,0.0955438911914825,0,0,0
8842,307932.2368695425,2010-10-26 02:56:10,1981.0029371337023,7,27,-1.099568486213684,3.552757740020752,26.42728349904386,26.1931238535806,105.56569677279738,95.51382777166674,-6.47544875391759e-05,0.0955438911914825,0,0,0
8843,307962.2523019205,2010-10-26 02:56:40,2011.018369541781,7,27,-1.099568486213684,3.5493581295013428,26.42728349904386,26.20229330500995,105.56569677279738,95.54638872799178,-6.47544875391759e-05,0.0955438911914825,0,0,0
8844,307992.2672778009,2010-10-26 02:57:10,2041.033345422052,7,27,-1.0997490882873535,3.5459585189819336,26.42728349904386,26.21146262690259,105.56569677279738,95.57891794306144,-9.713172767078504e-05,0.0955438911914825,0,0,0
8845,308022.28245834616,2010-10-26 02:57:40,2071.048525937336,7,27,-1.0997490882873535,3.5423970222473145,26.42728349904386,26.22063200287822,105.56569677279738,95.61141526823316,-6.47544875391759e-05,0.0955438911914825,0,0,0
8846,308052.29766573844,2010-10-26 02:58:10,2101.063733354669,7,27,-1.0997490882873535,3.5388355255126958,26.42728349904386,26.229801388856885,105.56569677279738,95.64388033390432,-6.47544875391759e-05,0.0955438911914825,0,0,0
8847,308082.3128697624,2010-10-26 02:58:40,2131.0789373534813,7,27,-1.0997490882873535,3.535112142562866,26.42728349904386,26.23897079854924,105.56569677279738,95.67631209739903,-0.0001295089750783,0.0955438911914825,0,0,0
8848,308112.31318286347,2010-10-26 02:59:10,2161.079250569882,7,27,-1.099929690361023,3.531226873397827,26.42728349904386,26.24813573088391,105.56569677279738,95.70869397185074,-0.0001618862152099,0.0955438911914825,0,0,0
8849,308142.3277449224,2010-10-26 02:59:40,2191.0938125185075,7,27,-1.099568486213684,3.527503490447998,26.42728349904386,26.257304992750456,105.56569677279738,95.74105612001102,-9.713172767078504e-05,0.0955438911914825,0,0,0
8850,308172.3428729468,2010-10-26 03:00:10,2221.108940663268,7,27,-1.0997490882873535,3.523456335067749,26.42728349904386,26.266474383913533,105.56569677279738,95.7733824211172,-9.713172767078504e-05,0.0955438911914825,0,0,0
8851,308202.35801330704,2010-10-26 03:00:40,2251.124080898161,7,27,-1.099568486213684,3.5194091796875,26.42728349904386,26.275643775416626,105.56569677279738,95.80567098766636,-9.713172767078504e-05,0.0955438911914825,0,0,0
8852,308232.37322636845,2010-10-26 03:01:10,2281.1392939595607,7,27,-1.0997490882873535,3.514876365661621,26.42728349904386,26.284813255204423,105.56569677279738,95.83792090801428,-9.713172767078504e-05,0.0955438911914825,0,0,0
8853,308262.3885329278,2010-10-26 03:01:40,2311.154600529011,7,27,-1.099929690361023,3.5101819038391118,26.42728349904386,26.293982703921557,105.56569677279738,95.87012948647217,-0.0001942634553415,0.0955438911914825,0,0,0
8854,308292.4037924851,2010-10-26 03:02:10,2341.169860101329,7,27,-1.0997490882873535,3.5053253173828125,26.42728349904386,26.303152221601035,105.56569677279738,95.90229459482724,-0.0001618862152099,0.0955438911914825,0,0,0
8855,308322.41883013933,2010-10-26 03:02:40,2371.184897830748,7,27,-1.099568486213684,3.5001449584960938,26.42728349904386,26.312321655877824,105.56569677279738,95.93441216539289,-9.713172767078504e-05,0.0955438911914825,0,0,0
8856,308352.4340172511,2010-10-26 03:03:10,2401.200084852247,7,27,-1.099929690361023,3.4939932823181152,26.42728349904386,26.321491073989232,105.56569677279738,95.96647786379408,-0.0001618862152099,0.0955438911914825,0,0,0
8857,308382.4491884632,2010-10-26 03:03:40,2431.215256049308,7,27,-1.099929690361023,3.487194061279297,26.42728349904386,26.330660507340557,105.56569677279738,95.99848568656684,-0.0001942634553415,0.0955438911914825,0,0,0
8858,308412.4643896299,2010-10-26 03:04:10,2461.2304572511493,7,27,-1.0997490882873535,3.4797472953796387,26.42728349904386,26.339829959575383,105.56569677279738,96.03042859905486,-0.0001942634553415,0.0955438911914825,0,0,0
8859,308442.4796047665,2010-10-26 03:04:40,2491.245672357645,7,27,-1.099929690361023,3.470843553543091,26.42728349904386,26.348999395729997,105.56569677279738,96.06229656853776,-0.0002913951757363,0.0955438911914825,0,0,0
8860,308472.4948207452,2010-10-26 03:05:10,2521.2608884566152,7,27,-1.0997490882873535,3.460806608200073,26.42728349904386,26.358168791950703,105.56569677279738,96.09407785438562,-0.0002266406954731,0.0955438911914825,0,0,0
8861,308502.5101145628,2010-10-26 03:05:40,2551.276182194084,7,27,-1.0997490882873535,3.448503255844116,26.42728349904386,26.367338249323566,105.56569677279738,96.12575703680928,-0.0003561496851034,0.0955438911914825,0,0,0
8862,308532.5253213136,2010-10-26 03:06:10,2581.2913889347296,7,27,-1.0997490882873535,3.4336097240448,26.42728349904386,26.376507666541183,105.56569677279738,96.15731210246668,-0.0004532813909463,0.0955438911914825,0,0,0
8863,308562.5403731381,2010-10-26 03:06:40,2611.306440729202,7,27,-1.0997490882873535,3.4149930477142334,26.42728349904386,26.385677055406862,105.56569677279738,96.18871388927936,-0.0005504131549969,0.0955438911914825,0,0,0
8864,308592.55559444,2010-10-26 03:07:10,2641.321662031139,7,27,-1.099929690361023,3.3905482292175293,26.42728349904386,26.3948464772906,105.56569677279738,96.2199204334455,-0.0007446765666827,0.0955438911914825,0,0,0
8865,308622.5709932594,2010-10-26 03:07:40,2671.337060885592,7,27,-1.0997490882873535,3.357847213745117,26.42728349904386,26.404015975034145,105.56569677279738,96.25086845659398,-0.0010036944877356,0.0955438911914825,0,0,0
8866,308652.58596913464,2010-10-26 03:08:10,2701.3520367558376,7,27,-1.099568486213684,3.3118717670440674,26.42728349904386,26.41318539672916,105.56569677279738,96.28145879468458,-0.0013598442310467,0.0955438911914825,0,0,0
8867,308682.60115981026,2010-10-26 03:08:41,2731.3672274314445,7,27,-1.0997490882873535,3.2456605434417725,26.42728349904386,26.422354780141987,105.56569677279738,96.31154106987992,-0.0020397664047777,0.0955438911914825,0,0,0
8868,308712.61637207464,2010-10-26 03:09:11,2761.382439690845,7,27,-1.099929690361023,3.147881507873535,26.42728349904386,26.43152426213807,105.56569677279738,96.34088601117124,-0.0031082152854651,0.0955438911914825,0,0,0
8869,308742.63157319126,2010-10-26 03:09:41,2791.397640807474,7,27,-1.0997490882873535,2.9850244522094727,26.42728349904386,26.4406937189958,105.56569677279738,96.36908610060648,-0.0058279037475585,0.0955438911914825,0,0,0
8870,308760.83442576573,2010-10-26 03:09:59,2809.6004933669296,7,27,-1.0997490882873535,2.7849338054656982,26.42728349904386,26.446254575586995,105.56569677279738,96.38518657693294,-0.011008215136826,0.0955438911914825,0,0,0
8871,308766.45934218826,2010-10-26 03:10:04,2815.225409779373,7,27,-1.099568486213684,2.699620008468628,26.42728349904386,26.447972947393,105.56569677279738,96.38990005330344,-0.0122709274291992,0.0955438911914825,0,0,0
8872,308826.4609563193,2010-10-26 03:11:04,60.0147483740245,8,27,0.0,3.3147857189178467,26.42728349904386,26.447972947393,105.56569677279738,96.38990005330344,0.0011979580158367,0.0955438911914825,0,0,0
8873,308826.65173314017,2010-10-26 03:11:05,0.18743024383849,9,27,-1.9243103452026844e-05,3.3154332637786865,26.42728349904386,26.44797294839487,105.56569677279738,96.3899000566251,0.0,0.0915781408548355,0,0,0
8874,308831.479904569,2010-10-26 03:11:10,5.015601587417872,9,27,0.0005225847125984,3.3233656883239746,26.427283975331463,26.447972948726427,105.56569835409412,96.38990005772524,0.0011332035064697,0.0915781408548355,0,0,0
