Data_Point,Test_Time(s),Date_Time,Step_Time(s),Step_Index,Cycle_Index,Current(A),Voltage(V),Charge_Capacity(Ah),Discharge_Capacity(Ah),Charge_Energy(Wh),Discharge_Energy(Wh),dV/dt(V/s),Internal_Resistance(Ohm),Is_FC_Data,AC_Impedance(Ohm),ACI_Phase_Angle(Deg)
7924,277004.8348822246,2010-10-25 18:20:39,30.01514244038989,1,25,0.0,3.4140217304229736,23.62071402028265,23.625954393803852,94.37050863107088,86.12897736441441,0.0008094310760498,0.0940094217658042,0,0,0
7925,277034.8502646732,2010-10-25 18:21:09,60.03052492404146,1,25,0.0,3.438466310501098,23.62071402028265,23.625954393803852,94.37050863107088,86.12897736441441,0.0005827903514727,0.0940094217658042,0,0,0
7926,277064.86517155654,2010-10-25 18:21:39,90.04543176725069,1,25,0.0,3.457083225250244,23.62071402028265,23.625954393803852,94.37050863107088,86.12897736441441,0.0004856586456298,0.0940094217658042,0,0,0
7927,277094.8334177771,2010-10-25 18:22:09,120.0136779928437,1,25,0.0,3.4716529846191406,23.62071402028265,23.625954393803852,94.37050863107088,86.12897736441441,0.0003561496851034,0.0940094217658042,0,0,0
7928,277124.8472670969,2010-10-25 18:22:39,30.015377872158304,2,25,0.550297200679779,3.627225160598755,23.62529941837763,23.625954393803852,94.38698591058888,86.12897736441441,0.0015541076427325,0.0940094217658042,0,0,0
7929,277154.86222695734,2010-10-25 18:23:09,60.03033786282736,2,25,0.5497553944587708,3.671581983566284,23.62988482114864,23.625954393803852,94.4037261899696,86.12897736441441,0.0010036944877356,0.0940094217658042,0,0,0
7930,277184.8773554329,2010-10-25 18:23:39,90.04546618803788,2,25,0.5499359965324402,3.7033114433288574,23.63447013560595,23.625954393803852,94.42063809846256,86.12897736441441,0.0007770538213662,0.0940094217658042,0,0,0
7931,277214.892475698,2010-10-25 18:24:09,120.06058646318516,2,25,0.5499359965324402,3.728403806686402,23.639055460187453,23.625954393803852,94.43767881495634,86.12897736441441,0.0006475448608398,0.0940094217658042,0,0,0
7932,277244.90759773256,2010-10-25 18:24:39,150.0757084927049,2,25,0.5501165986061096,3.7483158111572266,23.64364081996542,23.625954393803852,94.4548219217745,86.12897736441441,0.0004532813909463,0.0940094217658042,0,0,0
7933,277274.92276163644,2010-10-25 18:25:10,180.0908724166384,2,25,0.5499359965324402,3.764180421829224,23.648226121205017,23.625954393803852,94.4720474327925,86.12897736441441,0.0003561496851034,0.0940094217658042,0,0,0
7934,277304.93789084884,2010-10-25 18:25:40,210.10600160901012,2,25,0.5501165986061096,3.775026798248291,23.652811475052697,23.625954393803852,94.48933442764384,86.12897736441441,0.0002590179501567,0.0940094217658042,0,0,0
7935,277334.95302414644,2010-10-25 18:26:10,240.1211349066134,2,25,0.5499359965324402,3.7815022468566895,23.6573967948502,23.625954393803852,94.50666004186672,86.12897736441441,0.0001295089750783,0.0940094217658042,0,0,0
7936,277364.96816343896,2010-10-25 18:26:40,270.1362741941454,2,25,0.5499359965324402,3.7861969470977774,23.66198214701731,23.625954393803852,94.5240107056406,86.12897736441441,0.0001295089750783,0.0940094217658042,0,0,0
7937,277394.98344145727,2010-10-25 18:27:10,300.1515522324871,2,25,0.5499359965324402,3.7900822162628174,23.66656749994353,23.625954393803852,94.54138104017832,86.12897736441441,6.47544875391759e-05,0.0940094217658042,0,0,0
7938,277424.9984866102,2010-10-25 18:27:40,330.16659737036923,2,25,0.5499359965324402,3.7941293716430655,23.671152850536853,23.625954393803852,94.55876966419927,86.12897736441441,9.713172767078504e-05,0.0940094217658042,0,0,0
7939,277455.0137208193,2010-10-25 18:28:10,360.18183159451246,2,25,0.5499359965324402,3.797852754592896,23.67573828266188,23.625954393803852,94.57617641996852,86.12897736441441,6.47544875391759e-05,0.0940094217658042,0,0,0
7940,277485.0287329148,2010-10-25 18:28:40,390.196843669993,2,25,0.5499359965324402,3.801738023757935,23.6803236459448,23.625954393803852,94.59360043627868,86.12897736441441,6.47544875391759e-05,0.0940094217658042,0,0,0
7941,277515.0438799767,2010-10-25 18:29:10,420.211990761976,2,25,0.5497553944587708,3.805461406707764,23.68490905359544,23.625954393803852,94.61104174000464,86.12897736441441,6.47544875391759e-05,0.0940094217658042,0,0,0
7942,277545.0592399894,2010-10-25 18:29:40,450.2273508347728,2,25,0.5499359965324402,3.809022903442383,23.68949443961852,23.625954393803852,94.62849973628684,86.12897736441441,6.47544875391759e-05,0.0940094217658042,0,0,0
7943,277575.0743366908,2010-10-25 18:30:10,480.2424474960672,2,25,0.5499359965324402,3.812746286392212,23.694079806974607,23.625954393803852,94.64597398019656,86.12897736441441,0.0001295089750783,0.0940094217658042,0,0,0
7944,277605.0893068217,2010-10-25 18:30:40,510.2574175869089,2,25,0.5501165986061096,3.816145896911621,23.69866513631944,23.625954393803852,94.66346451214145,86.12897736441441,6.47544875391759e-05,0.0940094217658042,0,0,0
7945,277635.1044669913,2010-10-25 18:31:10,540.2725777464605,2,25,0.5501165986061096,3.8195455074310303,23.703250465971408,23.625954393803852,94.68097080681956,86.12897736441441,9.713172767078504e-05,0.0940094217658042,0,0,0
7946,277665.1196156622,2010-10-25 18:31:40,570.2877264223912,2,25,0.5499359965324402,3.82294511795044,23.70783577781913,23.625954393803852,94.6984925555292,86.12897736441441,9.713172767078504e-05,0.0940094217658042,0,0,0
7947,277695.13473216793,2010-10-25 18:32:10,600.3028429231315,2,25,0.5499359965324402,3.826182842254639,23.71242109814869,23.625954393803852,94.71602963595846,86.12897736441441,6.47544875391759e-05,0.0940094217658042,0,0,0
7948,277725.1498771196,2010-10-25 18:32:40,630.3179878747802,2,25,0.5497553944587708,3.829420566558838,23.71700646548932,23.625954393803852,94.73358215114278,86.12897736441441,6.47544875391759e-05,0.0940094217658042,0,0,0
7949,277755.1650343569,2010-10-25 18:33:10,660.3331451320985,2,25,0.5499359965324402,3.832820177078247,23.721591803953583,23.625954393803852,94.7511497360094,86.12897736441441,6.47544875391759e-05,0.0940094217658042,0,0,0
7950,277785.18018324336,2010-10-25 18:33:40,690.3482940035165,2,25,0.5501165986061096,3.836219549179077,23.726177055013345,23.625954393803852,94.76873212378588,86.12897736441441,0.0001295089750783,0.0940094217658042,0,0,0
7951,277815.1952751929,2010-10-25 18:34:10,720.3633859530677,2,25,0.5499359965324402,3.8396191596984863,23.730762287685582,23.625954393803852,94.78632987279846,86.12897736441441,9.713172767078504e-05,0.0940094217658042,0,0,0
7952,277845.21043334744,2010-10-25 18:34:40,750.3785441527344,2,25,0.5499359965324402,3.8428568840026855,23.735347593022,23.625954393803852,94.80394353956596,86.12897736441441,3.237724376958795e-05,0.0940094217658042,0,0,0
7953,277875.2255693668,2010-10-25 18:35:10,780.3936801620963,2,25,0.5499359965324402,3.8464183807373047,23.739932855274876,23.625954393803852,94.82157267898444,86.12897736441441,9.713172767078504e-05,0.0940094217658042,0,0,0
7954,277905.2407017071,2010-10-25 18:35:40,810.4088124922885,2,25,0.5499359965324402,3.849979877471924,23.744518092110127,23.625954393803852,94.83921762183768,86.12897736441441,0.0001295089750783,0.0940094217658042,0,0,0
7955,277935.2558416763,2010-10-25 18:36:10,840.4239524314445,2,25,0.5499359965324402,3.853379487991333,23.74910333108989,23.625954393803852,94.85687842877584,86.12897736441441,9.713172767078504e-05,0.0940094217658042,0,0,0
7956,277965.2711552081,2010-10-25 18:36:40,870.4392659832968,2,25,0.5499359965324402,3.856779098510742,23.753688708415005,23.625954393803852,94.87455539135976,86.12897736441441,9.713172767078504e-05,0.0940094217658042,0,0,0
7957,277995.2861561358,2010-10-25 18:37:10,900.4542668859312,2,25,0.5497553944587708,3.860016822814941,23.758274000973632,23.625954393803852,94.89224758454417,86.12897736441441,6.47544875391759e-05,0.0940094217658042,0,0,0
7958,278025.3013545206,2010-10-25 18:37:40,930.4694653058392,2,25,0.5497553944587708,3.863416433334351,23.762859351006703,23.625954393803852,94.9099552398989,86.12897736441441,9.713172767078504e-05,0.0940094217658042,0,0,0
7959,278055.31646840484,2010-10-25 18:38:10,960.4845792802832,2,25,0.5499359965324402,3.86665415763855,23.7674447076419,23.625954393803852,94.92767780256575,86.12897736441441,9.713172767078504e-05,0.0940094217658042,0,0,0
7960,278085.33170424803,2010-10-25 18:38:40,990.4998150131868,2,25,0.5501165986061096,3.870053768157959,23.772030080360256,23.625954393803852,94.94541509244456,86.12897736441441,0.0001618862152099,0.0940094217658042,0,0,0
7961,278115.34671693,2010-10-25 18:39:10,1020.5148276851538,2,25,0.5501165986061096,3.8729677200317374,23.776615365577143,23.625954393803852,94.96316635546818,86.12897736441441,9.713172767078504e-05,0.0940094217658042,0,0,0
7962,278145.3618975255,2010-10-25 18:39:40,1050.5300082906629,2,25,0.5497553944587708,3.8758816719055176,23.781200774903997,23.625954393803852,94.98093197151128,86.12897736441441,6.47544875391759e-05,0.0940094217658042,0,0,0
7963,278175.3771861502,2010-10-25 18:40:10,1080.5452969404514,2,25,0.5499359965324402,3.878795623779297,23.78578612982797,23.625954393803852,94.99871084735612,86.12897736441441,9.713172767078504e-05,0.0940094217658042,0,0,0
7964,278205.3923713672,2010-10-25 18:40:40,1110.5604821524414,2,25,0.5497553944587708,3.881385803222656,23.7903714704267,23.625954393803852,95.0165026345989,86.12897736441441,6.47544875391759e-05,0.0940094217658042,0,0,0
7965,278235.4073012278,2010-10-25 18:41:10,1140.575411982942,2,25,0.5499359965324402,3.883975982666016,23.79495679703429,23.625954393803852,95.0343068646402,86.12897736441441,0.0,0.0940094217658042,0,0,0
7966,278265.4224684449,2010-10-25 18:41:40,1170.5905792101084,2,25,0.5501165986061096,3.886728048324585,23.79954219094085,23.625954393803852,95.05212311969473,86.12897736441441,6.47544875391759e-05,0.0940094217658042,0,0,0
7967,278295.4376989398,2010-10-25 18:42:10,1200.605809714982,2,25,0.5501165986061096,3.8891563415527344,23.804127545918316,23.625954393803852,95.06995043652049,86.12897736441441,9.713172767078504e-05,0.0940094217658042,0,0,0
7968,278325.4553349449,2010-10-25 18:42:40,1230.6234458353897,2,25,0.5499359965324402,3.891260862350464,23.80871331252781,23.625954393803852,95.08778998455338,86.12897736441441,6.47544875391759e-05,0.0940094217658042,0,0,0
7969,278355.4682129065,2010-10-25 18:43:10,1260.6363237017645,2,25,0.5499359965324402,3.893365383148194,23.81329837979047,23.625954393803852,95.10563672926398,86.12897736441441,3.237724376958795e-05,0.0940094217658042,0,0,0
7970,278385.4830219861,2010-10-25 18:43:40,1290.651132746229,2,25,0.5501165986061096,3.895146131515503,23.81788373884989,23.625954393803852,95.12349374543396,86.12897736441441,3.237724376958795e-05,0.0940094217658042,0,0,0
7971,278415.4981411083,2010-10-25 18:44:10,1320.666251868503,2,25,0.550297200679779,3.897250652313232,23.822469115074217,23.625954393803852,95.14135926316725,86.12897736441441,3.237724376958795e-05,0.0940094217658042,0,0,0
7972,278445.51328755874,2010-10-25 18:44:40,1350.681398338937,2,25,0.5499359965324402,3.898869514465332,23.82705444377895,23.625954393803852,95.15923271093368,86.12897736441441,6.47544875391759e-05,0.0940094217658042,0,0,0
7973,278475.5284499639,2010-10-25 18:45:10,1380.696560729048,2,25,0.5499359965324402,3.9003264904022217,23.83163984785743,23.625954393803852,95.17711409608944,86.12897736441441,3.237724376958795e-05,0.0940094217658042,0,0,0
7974,278505.5437741472,2010-10-25 18:45:40,1410.7118849073847,2,25,0.5499359965324402,3.9021072387695312,23.83622521641838,23.625954393803852,95.19500252585954,86.12897736441441,6.47544875391759e-05,0.0940094217658042,0,0,0
7975,278535.55876211263,2010-10-25 18:46:10,1440.7268728677627,2,25,0.5497553944587708,3.903240442276001,23.84081058434494,23.625954393803852,95.2128977297316,86.12897736441441,0.0,0.0940094217658042,0,0,0
7976,278565.5738493855,2010-10-25 18:46:40,1470.7419601556958,2,25,0.5499359965324402,3.9048593044281006,23.845395913047263,23.625954393803852,95.23079930835536,86.12897736441441,6.47544875391759e-05,0.0940094217658042,0,0,0
7977,278595.58899586595,2010-10-25 18:47:10,1500.7571066311425,2,25,0.5499359965324402,3.90615439414978,23.84998123551784,23.625954393803852,95.24870702275156,86.12897736441441,6.47544875391759e-05,0.0940094217658042,0,0,0
7978,278625.6041491133,2010-10-25 18:47:40,1530.772259868441,2,25,0.5499359965324402,3.90761137008667,23.854566614436564,23.625954393803852,95.26662114014998,86.12897736441441,6.47544875391759e-05,0.0940094217658042,0,0,0
7979,278655.6192830024,2010-10-25 18:48:10,1560.7873937976185,2,25,0.5501165986061096,3.9089064598083496,23.859151975782467,23.625954393803852,95.28454117911215,86.12897736441441,6.47544875391759e-05,0.0940094217658042,0,0,0
7980,278685.63443755795,2010-10-25 18:48:40,1590.8025483131034,2,25,0.5499359965324402,3.9100396633148193,23.86373741769227,23.625954393803852,95.302467605581,86.12897736441441,0.0,0.0940094217658042,0,0,0
7981,278715.6495664195,2010-10-25 18:49:10,1620.8176772047257,2,25,0.5499359965324402,3.911334753036499,23.868322766930184,23.625954393803852,95.32039952683078,86.12897736441441,3.237724376958795e-05,0.0940094217658042,0,0,0
7982,278745.664848147,2010-10-25 18:49:40,1650.832958922237,2,25,0.5499359965324402,3.9126298427581783,23.87290818286036,23.625954393803852,95.33833772836772,86.12897736441441,6.47544875391759e-05,0.0940094217658042,0,0,0
7983,278775.67985117994,2010-10-25 18:50:10,1680.8479619752306,2,25,0.5499359965324402,3.9139246940612793,23.8774935224562,23.625954393803852,95.35628167037028,86.12897736441441,3.237724376958795e-05,0.0940094217658042,0,0,0
7984,278805.6951155192,2010-10-25 18:50:40,1710.86322627433,2,25,0.5501165986061096,3.915543556213379,23.882078968802325,23.625954393803852,95.3742320923795,86.12897736441441,9.713172767078504e-05,0.0940094217658042,0,0,0
7985,278835.71013812587,2010-10-25 18:51:10,1740.8782489111322,2,25,0.5501165986061096,3.9166767597198486,23.88666432930452,23.625954393803852,95.39218804254192,86.12897736441441,3.237724376958795e-05,0.0940094217658042,0,0,0
7986,278865.7252900048,2010-10-25 18:51:40,1770.8934007750083,2,25,0.5497553944587708,3.917971849441528,23.8912496313948,23.625954393803852,95.41014995029666,86.12897736441441,3.237724376958795e-05,0.0940094217658042,0,0,0
7987,278895.74066364137,2010-10-25 18:52:10,1800.9087745519605,2,25,0.5499359965324402,3.919266939163208,23.895834995655648,23.625954393803852,95.4281181863461,86.12897736441441,3.237724376958795e-05,0.0940094217658042,0,0,0
7988,278925.7555633919,2010-10-25 18:52:40,1830.92367415713,2,25,0.5497553944587708,3.9207239151000977,23.90042031324616,23.625954393803852,95.44609243494688,86.12897736441441,3.237724376958795e-05,0.0940094217658042,0,0,0
7989,278955.7707174513,2010-10-25 18:53:10,1860.9388282465527,2,25,0.5499359965324402,3.922019004821777,23.90500567594989,23.625954393803852,95.46407296322064,86.12897736441441,3.237724376958795e-05,0.0940094217658042,0,0,0
7990,278985.7858681523,2010-10-25 18:53:40,1890.9539789174555,2,25,0.5499359965324402,3.923314094543457,23.909591053821096,23.625954393803852,95.48205985935208,86.12897736441441,0.0,0.0940094217658042,0,0,0
7991,279015.8009855753,2010-10-25 18:54:10,1920.9690963304697,2,25,0.5499359965324402,3.9246091842651367,23.91417645472916,23.625954393803852,95.50005313037772,86.12897736441441,0.0,0.0940094217658042,0,0,0
7992,279045.8163711216,2010-10-25 18:54:40,1950.984481891792,2,25,0.5497553944587708,3.9260661602020255,23.91876187036513,23.625954393803852,95.51805279722504,86.12897736441441,3.237724376958795e-05,0.0940094217658042,0,0,0
7993,279075.83126666164,2010-10-25 18:55:10,1980.999377426817,2,25,0.5499359965324402,3.927361249923706,23.92334720507892,23.625954393803852,95.53605843849836,86.12897736441441,0.0,0.0940094217658042,0,0,0
7994,279105.84643891134,2010-10-25 18:55:40,2011.014549671489,2,25,0.5499359965324402,3.9289801120758057,23.927932628666152,23.625954393803852,95.55407089856212,86.12897736441441,3.237724376958795e-05,0.0940094217658042,0,0,0
7995,279135.8616937218,2010-10-25 18:56:10,2041.029804496977,2,25,0.5499359965324402,3.930275201797485,23.932518088189816,23.625954393803852,95.57209000024145,86.12897736441441,6.47544875391759e-05,0.0940094217658042,0,0,0
7996,279165.87671792245,2010-10-25 18:56:40,2071.0448286776277,2,25,0.5499359965324402,3.931732177734375,23.93710352209037,23.625954393803852,95.59011549113276,86.12897736441441,3.237724376958795e-05,0.0940094217658042,0,0,0
7997,279195.89184182166,2010-10-25 18:57:11,2101.0599525768066,2,25,0.5499359965324402,3.933027267456055,23.94168894104975,23.625954393803852,95.60814747690831,86.12897736441441,0.0,0.0940094217658042,0,0,0
7998,279225.9070302416,2010-10-25 18:57:41,2131.075141001804,2,25,0.5499359965324402,3.9346461296081534,23.946274327430427,23.625954393803852,95.62618591947071,86.12897736441441,9.713172767078504e-05,0.0940094217658042,0,0,0
7999,279255.9222436138,2010-10-25 18:58:11,2161.090354384003,2,25,0.5499359965324402,3.936103105545044,23.95085972712969,23.625954393803852,95.64423108586556,86.12897736441441,3.237724376958795e-05,0.0940094217658042,0,0,0
8000,279285.93726548366,2010-10-25 18:58:41,2191.1053762488814,2,25,0.5501165986061096,3.9375600814819336,23.955445166647085,23.625954393803852,95.6622830066312,86.12897736441441,3.237724376958795e-05,0.0940094217658042,0,0,0
8001,279315.9525490208,2010-10-25 18:59:11,2221.1206597909404,2,25,0.5495747923851013,3.9390170574188232,23.96003064082948,23.625954393803852,95.6803419681078,86.12897736441441,6.47544875391759e-05,0.0940094217658042,0,0,0
8002,279345.9675676977,2010-10-25 18:59:41,2251.135678457849,2,25,0.5499359965324402,3.940474033355713,23.964616039081687,23.625954393803852,95.69840745942756,86.12897736441441,6.47544875391759e-05,0.0940094217658042,0,0,0
8003,279375.98269635375,2010-10-25 19:00:11,2281.150807108871,2,25,0.5499359965324402,3.9419310092926025,23.969201476224804,23.625954393803852,95.71647995242458,86.12897736441441,0.0,0.0940094217658042,0,0,0
8004,279405.9978320724,2010-10-25 19:00:41,2311.165942827509,2,25,0.5501165986061096,3.943549871444702,23.973786920732383,23.625954393803852,95.73455944960288,86.12897736441441,3.237724376958795e-05,0.0940094217658042,0,0,0
8005,279436.0129805328,2010-10-25 19:01:11,2341.1810912929145,2,25,0.5501165986061096,3.9451687335968018,23.978372302127685,23.625954393803852,95.75264561153682,86.12897736441441,6.47544875391759e-05,0.0940094217658042,0,0,0
8006,279466.0283171872,2010-10-25 19:01:41,2371.196427942333,2,25,0.5499359965324402,3.9466257095336914,23.98295770227515,23.625954393803852,95.77073890998358,86.12897736441441,3.237724376958795e-05,0.0940094217658042,0,0,0
8007,279496.04340028967,2010-10-25 19:02:11,2401.2115110648847,2,25,0.5501165986061096,3.948244571685791,23.987543152427783,23.625954393803852,95.78883937970122,86.12897736441441,9.713172767078504e-05,0.0940094217658042,0,0,0
8008,279526.0584226608,2010-10-25 19:02:41,2431.226533420988,2,25,0.5499359965324402,3.9497015476226807,23.992128531330337,23.625954393803852,95.8069467585812,86.12897736441441,3.237724376958795e-05,0.0940094217658042,0,0,0
8009,279556.07366832346,2010-10-25 19:03:11,2461.2417790936643,2,25,0.5501165986061096,3.95132040977478,23.996713909662823,23.625954393803852,95.82506135153967,86.12897736441441,3.237724376958795e-05,0.0940094217658042,0,0,0
8010,279586.0887027447,2010-10-25 19:03:41,2491.2568134998,2,25,0.5499359965324402,3.95293927192688,24.00129932033473,23.625954393803852,95.84318330288431,86.12897736441441,3.237724376958795e-05,0.0940094217658042,0,0,0
8011,279616.10386418743,2010-10-25 19:04:11,2521.271974952574,2,25,0.5499359965324402,3.9543962478637695,24.005884752757886,23.625954393803852,95.86131272271844,86.12897736441441,3.237724376958795e-05,0.0940094217658042,0,0,0
8012,279646.11896733486,2010-10-25 19:04:41,2551.2870781000343,2,25,0.5499359965324402,3.956015110015869,24.010470149431924,23.625954393803852,95.87944934744212,86.12897736441441,3.237724376958795e-05,0.0940094217658042,0,0,0
8013,279676.1341123366,2010-10-25 19:05:11,2581.302223096795,2,25,0.5499359965324402,3.9576339721679688,24.01505549805101,23.625954393803852,95.8975931233022,86.12897736441441,3.237724376958795e-05,0.0940094217658042,0,0,0
8014,279706.149389578,2010-10-25 19:05:41,2611.317500353188,2,25,0.5499359965324402,3.9594147205352783,24.019640919240764,23.625954393803852,95.91574464908308,86.12897736441441,3.237724376958795e-05,0.0940094217658042,0,0,0
8015,279736.1644139992,2010-10-25 19:06:11,2641.332524794488,2,25,0.5499359965324402,3.961033582687378,24.02422627611368,23.625954393803852,95.93390336627068,86.12897736441441,3.237724376958795e-05,0.0940094217658042,0,0,0
8016,279766.1795550161,2010-10-25 19:06:41,2671.3476657762426,2,25,0.5499359965324402,3.9626524448394775,24.0288117462531,23.625954393803852,95.95207013023344,86.12897736441441,6.47544875391759e-05,0.0940094217658042,0,0,0
8017,279796.1946862335,2010-10-25 19:07:11,2701.362796988649,2,25,0.5499359965324402,3.964271306991577,24.033397185909067,23.625954393803852,95.97024439977986,86.12897736441441,3.237724376958795e-05,0.0940094217658042,0,0,0
8018,279826.2098418066,2010-10-25 19:07:41,2731.377952566782,2,25,0.5497553944587708,3.966052055358887,24.03798261812085,23.625954393803852,95.9884263117703,86.12897736441441,3.237724376958795e-05,0.0940094217658042,0,0,0
8019,279856.2249870189,2010-10-25 19:08:11,2761.393097784093,2,25,0.5499359965324402,3.9676709175109854,24.04256807541556,23.625954393803852,96.00661606349377,86.12897736441441,3.237724376958795e-05,0.0940094217658042,0,0,0
8020,279886.24023752863,2010-10-25 19:08:41,2791.408348298837,2,25,0.5501165986061096,3.969289779663086,24.047153500983583,23.625954393803852,96.0248133892804,86.12897736441441,0.0,0.0940094217658042,0,0,0
8021,279916.2552494337,2010-10-25 19:09:11,2821.423360203893,2,25,0.5501165986061096,3.971070528030396,24.051738850717623,23.625954393803852,96.04301824500152,86.12897736441441,6.47544875391759e-05,0.0940094217658042,0,0,0
8022,279946.2705735769,2010-10-25 19:09:41,2851.438684477467,2,25,0.5499359965324402,3.972851276397705,24.056324355043824,23.625954393803852,96.06123159830912,86.12897736441441,6.47544875391759e-05,0.0940094217658042,0,0,0
8023,279976.2856911604,2010-10-25 19:10:11,2881.453801915543,2,25,0.5501165986061096,3.9744701385498047,24.060909793863768,23.625954393803852,96.07945257598568,86.12897736441441,3.237724376958795e-05,0.0940094217658042,0,0,0
8024,280006.30080265866,2010-10-25 19:10:41,2911.468913423841,2,25,0.5501165986061096,3.976250886917114,24.065495231686928,23.625954393803852,96.09768156312651,86.12897736441441,6.47544875391759e-05,0.0940094217658042,0,0,0
8025,280036.3158196513,2010-10-25 19:11:11,2941.4839304165766,2,25,0.5499359965324402,3.977869749069214,24.07008072926177,23.625954393803852,96.11591879002974,86.12897736441441,0.0,0.0940094217658042,0,0,0
8026,280066.3309679865,2010-10-25 19:11:41,2971.4990787566703,2,25,0.5499359965324402,3.979812383651733,24.07466605782884,23.625954393803852,96.1341632328142,86.12897736441441,6.47544875391759e-05,0.0940094217658042,0,0,0
8027,280096.3462181554,2010-10-25 19:12:11,3001.5143289205403,2,25,0.5499359965324402,3.981593132019043,24.07925144291836,23.625954393803852,96.152416436985,86.12897736441441,3.237724376958795e-05,0.0940094217658042,0,0,0
8028,280126.361368721,2010-10-25 19:12:41,3031.5294795262807,2,25,0.5499359965324402,3.9835357666015625,24.083836862024626,23.625954393803852,96.17067802167516,86.12897736441441,9.713172767078504e-05,0.0940094217658042,0,0,0
8029,280156.3764397334,2010-10-25 19:13:11,3061.5445505186003,2,25,0.5499359965324402,3.985316514968872,24.088422178985947,23.625954393803852,96.1889474477097,86.12897736441441,6.47544875391759e-05,0.0940094217658042,0,0,0
8030,280186.3915443395,2010-10-25 19:13:41,3091.5596550996333,2,25,0.5499359965324402,3.9870972633361816,24.09300759771436,23.625954393803852,96.2072256267574,86.12897736441441,6.47544875391759e-05,0.0940094217658042,0,0,0
8031,280216.4067211405,2010-10-25 19:14:11,3121.57483202096,2,25,0.5499359965324402,3.988878011703491,24.09759298868767,23.625954393803852,96.22551202775354,86.12897736441441,3.237724376958795e-05,0.0940094217658042,0,0,0
8032,280246.4244064635,2010-10-25 19:14:41,3151.5925172487587,2,25,0.5499359965324402,3.9908206462860103,24.102178717952008,23.625954393803852,96.24380824785528,86.12897736441441,3.237724376958795e-05,0.0940094217658042,0,0,0
8033,280276.4371767868,2010-10-25 19:15:11,3181.605287582128,2,25,0.5499359965324402,3.99260139465332,24.10676376760745,23.625954393803852,96.2621104248046,86.12897736441441,3.237724376958795e-05,0.0940094217658042,0,0,0
8034,280306.4521113592,2010-10-25 19:15:41,3211.620222119359,2,25,0.5499359965324402,3.994381904602051,24.11134913625614,23.625954393803852,96.28042257126113,86.12897736441441,3.237724376958795e-05,0.0940094217658042,0,0,0
8035,280336.46725788974,2010-10-25 19:16:11,3241.6353686549555,2,25,0.5501165986061096,3.99648642539978,24.115934450258543,23.625954393803852,96.29874329110018,86.12897736441441,3.237724376958795e-05,0.0940094217658042,0,0,0
8036,280366.4823980946,2010-10-25 19:16:41,3271.6505088898484,2,25,0.5499359965324402,3.9984290599823,24.12051990337549,23.625954393803852,96.31707349912963,86.12897736441441,6.47544875391759e-05,0.0940094217658042,0,0,0
8037,280396.49752050004,2010-10-25 19:17:11,3301.665631295305,2,25,0.550297200679779,4.000533580780029,24.125105268333385,23.625954393803852,96.33541222003456,86.12897736441441,6.47544875391759e-05,0.0940094217658042,0,0,0
8038,280426.5126793563,2010-10-25 19:17:41,3331.680790116521,2,25,0.5499359965324402,4.002476215362549,24.129690563989143,23.625954393803852,96.35375980475236,86.12897736441441,3.23295607813634e-05,0.0940094217658042,0,0,0
8039,280456.52786863846,2010-10-25 19:18:11,3361.69597960918,2,25,0.5501165986061096,4.004418849945068,24.13427592116278,23.625954393803852,96.37211683543664,86.12897736441441,3.23295607813634e-05,0.0940094217658042,0,0,0
8040,280486.5429496558,2010-10-25 19:18:41,3391.71106041596,2,25,0.5499359965324402,4.006361484527588,24.138861197517272,23.625954393803852,96.39048281405528,86.12897736441441,3.23295607813634e-05,0.0940094217658042,0,0,0
8041,280516.558087209,2010-10-25 19:19:11,3421.7261979691693,2,25,0.5499359965324402,4.008627891540527,24.143446440301517,23.625954393803852,96.4088580729528,86.12897736441441,9.70840483205393e-05,0.0940094217658042,0,0,0
8042,280546.573240722,2010-10-25 19:19:41,3451.741351482156,2,25,0.5501165986061096,4.010570526123047,24.14803169780997,23.625954393803852,96.42724281051927,86.12897736441441,6.47544875391759e-05,0.0940094217658042,0,0,0
8043,280576.5883943001,2010-10-25 19:20:11,3481.756505100404,2,25,0.5499359965324402,4.012675285339356,24.15261700069833,23.625954393803852,96.44563742934416,86.12897736441441,3.24249267578125e-05,0.0940094217658042,0,0,0
8044,280606.60364174726,2010-10-25 19:20:41,3511.771752547503,2,25,0.5499359965324402,4.014779567718506,24.15720239399121,23.625954393803852,96.46404218105914,86.12897736441441,3.23295607813634e-05,0.0940094217658042,0,0,0
8045,280636.61865626374,2010-10-25 19:21:11,3541.786767059055,2,25,0.5499359965324402,4.017208099365234,24.161787712437057,23.625954393803852,96.4824564956886,86.12897736441441,0.0001295089750783,0.0940094217658042,0,0,0
8046,280666.633810679,2010-10-25 19:21:41,3571.8019214392025,2,25,0.5501165986061096,4.019150733947754,24.166373142238303,23.625954393803852,96.50088129934404,86.12897736441441,3.24249267578125e-05,0.0940094217658042,0,0,0
8047,280696.64893817215,2010-10-25 19:22:11,3601.8170489373515,2,25,0.5499359965324402,4.021417140960693,24.17095846121011,23.625954393803852,96.51931556713336,86.12897736441441,6.47544875391759e-05,0.0940094217658042,0,0,0
8048,280726.6642240651,2010-10-25 19:22:41,3631.832334850319,2,25,0.5499359965324402,4.023683547973633,24.175543829245623,23.625954393803852,96.53776039381653,86.12897736441441,6.47544875391759e-05,0.0940094217658042,0,0,0
8049,280756.67922878225,2010-10-25 19:23:11,3661.84733954741,2,25,0.5501165986061096,4.025949954986572,24.180129237574263,23.625954393803852,96.55621573368076,86.12897736441441,6.47544875391759e-05,0.0940094217658042,0,0,0
8050,280786.6943840295,2010-10-25 19:23:41,3691.8624947947183,2,25,0.5499359965324402,4.028216361999512,24.18471450763063,23.625954393803852,96.57468091765904,86.12897736441441,6.47544875391759e-05,0.0940094217658042,0,0,0
8051,280816.7096374916,2010-10-25 19:24:11,3721.8777483771087,2,25,0.5501165986061096,4.030644416809082,24.189300107412937,23.625954393803852,96.5931579000069,86.12897736441441,9.70840483205393e-05,0.0940094217658042,0,0,0
8052,280846.7246038783,2010-10-25 19:24:41,3751.8927146384062,2,25,0.5501165986061096,4.0329108238220215,24.19388639335673,23.625954393803852,96.61164820948308,86.12897736441441,9.70840483205393e-05,0.0940094217658042,0,0,0
8053,280876.7400495143,2010-10-25 19:25:11,3781.9081602744536,2,25,0.5501165986061096,4.035177230834961,24.19847265846449,23.625954393803852,96.63014906387096,86.12897736441441,9.71794142969884e-05,0.0940094217658042,0,0,0
8054,280906.7550214548,2010-10-25 19:25:41,3811.923132209892,2,25,0.5501165986061096,4.0374436378479,24.203058953521705,23.625954393803852,96.64866074262844,86.12897736441441,9.71794142969884e-05,0.0940094217658042,0,0,0
8055,280936.77005662775,2010-10-25 19:26:11,3841.938167413015,2,25,0.5501165986061096,4.039871692657471,24.207645326740188,23.625954393803852,96.66718359855052,86.12897736441441,3.23295607813634e-05,0.0940094217658042,0,0,0
8056,280966.7853222853,2010-10-25 19:26:41,3871.953433155711,2,25,0.550297200679779,4.042300224304199,24.2122317269414,23.625954393803852,96.68571731422084,86.12897736441441,6.47544875391759e-05,0.0940094217658042,0,0,0
8057,280996.8004919686,2010-10-25 19:27:11,3901.9686027337366,2,25,0.5501165986061096,4.044566631317139,24.216818081816317,23.625954393803852,96.70426191960244,86.12897736441441,6.47544875391759e-05,0.0940094217658042,0,0,0
8058,281026.81563920085,2010-10-25 19:27:41,3931.983750081357,2,25,0.5501165986061096,4.047156810760498,24.22140364981596,23.625954393803852,96.72281438527902,86.12897736441441,9.71794142969884e-05,0.0940094217658042,0,0,0
8059,281056.83060075046,2010-10-25 19:28:11,3961.998711515624,2,25,0.5499359965324402,4.049584865570068,24.225989199824788,23.625954393803852,96.74137799939986,86.12897736441441,9.70840483205393e-05,0.0940094217658042,0,0,0
8060,281086.8457414565,2010-10-25 19:28:41,3992.013852221691,2,25,0.5501165986061096,4.052013397216797,24.23057470028849,23.625954393803852,96.75995269328556,86.12897736441441,6.47544875391759e-05,0.0940094217658042,0,0,0
8061,281116.8609043228,2010-10-25 19:29:12,4022.0290151280888,2,25,0.5499359965324402,4.054603576660156,24.235160217607515,23.625954393803852,96.77853889293016,86.12897736441441,9.71794142969884e-05,0.0940094217658042,0,0,0
8062,281146.8760577656,2010-10-25 19:29:42,4052.0441685257874,2,25,0.5499359965324402,4.057031631469727,24.239745762851427,23.625954393803852,96.7971366955606,86.12897736441441,6.47544875391759e-05,0.0940094217658042,0,0,0
8063,281176.89117345936,2010-10-25 19:30:12,4082.059284244579,2,25,0.5501165986061096,4.059621810913086,24.24433132847264,23.625954393803852,96.8157462110327,86.12897736441441,9.70840483205393e-05,0.0940094217658042,0,0,0
8064,281206.90634059627,2010-10-25 19:30:42,4112.074451391545,2,25,0.5501165986061096,4.062050342559815,24.24891702357935,23.625954393803852,96.83436765213598,86.12897736441441,9.71794142969884e-05,0.0940094217658042,0,0,0
8065,281236.9215140339,2010-10-25 19:31:12,4142.0896249144025,2,25,0.5501165986061096,4.064640522003174,24.2535025638966,23.625954393803852,96.85300015614295,86.12897736441441,6.47544875391759e-05,0.0940094217658042,0,0,0
8066,281266.93661415885,2010-10-25 19:31:42,4172.104724924042,2,25,0.5499359965324402,4.067068576812744,24.25808814650216,23.625954393803852,96.87164473062884,86.12897736441441,3.23295607813634e-05,0.0940094217658042,0,0,0
8067,281296.9517405643,2010-10-25 19:32:12,4202.119851324454,2,25,0.5501165986061096,4.069982528686523,24.262673781330555,23.625954393803852,96.89030163565592,86.12897736441441,6.47544875391759e-05,0.0940094217658042,0,0,0
8068,281326.9668856212,2010-10-25 19:32:42,4232.134996381365,2,25,0.5499359965324402,4.072572708129883,24.267259341963825,23.625954393803852,96.90897037360595,86.12897736441441,9.70840483205393e-05,0.0940094217658042,0,0,0
8069,281356.98202840745,2010-10-25 19:33:12,4262.150139172631,2,25,0.5499359965324402,4.075162887573242,24.271844889565106,23.625954393803852,96.92765125945176,86.12897736441441,6.47544875391759e-05,0.0940094217658042,0,0,0
8070,281386.9973906607,2010-10-25 19:33:42,4292.165501420849,2,25,0.5499359965324402,4.077915191650391,24.27643051987817,23.625954393803852,96.94634482393742,86.12897736441441,6.47544875391759e-05,0.0940094217658042,0,0,0
8071,281417.01233218535,2010-10-25 19:34:12,4322.180442945495,2,25,0.5499359965324402,4.080667018890381,24.28101609929472,23.625954393803852,96.96505072422218,86.12897736441441,9.70840483205393e-05,0.0940094217658042,0,0,0
8072,281447.02746216964,2010-10-25 19:34:42,4352.195572929841,2,25,0.5501165986061096,4.083419322967529,24.285601699167312,23.625954393803852,96.98376925466216,86.12897736441441,6.47544875391759e-05,0.0940094217658042,0,0,0
8073,281477.0425987304,2010-10-25 19:35:12,4382.210709490577,2,25,0.5499359965324402,4.08617115020752,24.290187221978584,23.625954393803852,97.00250023095076,86.12897736441441,6.47544875391759e-05,0.0940094217658042,0,0,0
8074,281507.0577703686,2010-10-25 19:35:42,4412.2258811788615,2,25,0.5497553944587708,4.088923454284668,24.29477282708374,23.625954393803852,97.02124439642786,86.12897736441441,3.24249267578125e-05,0.0940094217658042,0,0,0
8075,281537.0728867691,2010-10-25 19:36:12,4442.240997534239,2,25,0.5501165986061096,4.091999053955078,24.29935841085753,23.625954393803852,97.04000145850917,86.12897736441441,0.0001295089750783,0.0940094217658042,0,0,0
8076,281567.0880243173,2010-10-25 19:36:42,4472.256135077423,2,25,0.5499359965324402,4.094751358032227,24.30394398577769,23.625954393803852,97.05877153487778,86.12897736441441,6.47544875391759e-05,0.0940094217658042,0,0,0
8077,281597.10316742933,2010-10-25 19:37:12,4502.27127821455,2,25,0.5501165986061096,4.097665309906006,24.308529635084103,23.625954393803852,97.07755520558229,86.12897736441441,6.47544875391759e-05,0.0940094217658042,0,0,0
8078,281627.1184690815,2010-10-25 19:37:42,4532.286579876769,2,25,0.5499359965324402,4.100417137145996,24.313115239991347,23.625954393803852,97.0963520260284,86.12897736441441,3.23295607813634e-05,0.0940094217658042,0,0,0
8079,281657.133449448,2010-10-25 19:38:12,4562.301560203122,2,25,0.5499359965324402,4.1034932136535645,24.317700889036217,23.625954393803852,97.11516253031596,86.12897736441441,6.47544875391759e-05,0.0940094217658042,0,0,0
8080,281687.14859734697,2010-10-25 19:38:42,4592.316708107129,2,25,0.5499359965324402,4.106407165527344,24.322286453386923,23.625954393803852,97.13398640862388,86.12897736441441,9.71794142969884e-05,0.0940094217658042,0,0,0
8081,281717.1637394766,2010-10-25 19:39:12,4622.331850236744,2,25,0.5499359965324402,4.109482765197754,24.32687206343497,23.625954393803852,97.15282420846304,86.12897736441441,3.23295607813634e-05,0.0940094217658042,0,0,0
8082,281747.17890412227,2010-10-25 19:39:42,4652.347014877464,2,25,0.5501165986061096,4.112558841705322,24.331457643791907,23.625954393803852,97.17167571744248,86.12897736441441,6.47544875391759e-05,0.0940094217658042,0,0,0
8083,281777.1940453948,2010-10-25 19:40:12,4682.362156169993,2,25,0.5497553944587708,4.115472316741943,24.336043159511284,23.625954393803852,97.19054076739916,86.12897736441441,3.23295607813634e-05,0.0940094217658042,0,0,0
8084,281807.2091714694,2010-10-25 19:40:42,4712.377282234569,2,25,0.5499359965324402,4.118710041046143,24.34062871379255,23.625954393803852,97.2094199951996,86.12897736441441,0.0001295089750783,0.0940094217658042,0,0,0
8085,281837.2243318394,2010-10-25 19:41:12,4742.392442604645,2,25,0.5501165986061096,4.121947765350342,24.345214263689204,23.625954393803852,97.22831337624636,86.12897736441441,9.70840483205393e-05,0.0940094217658042,0,0,0
8086,281867.2394821244,2010-10-25 19:41:42,4772.407592909636,2,25,0.5501165986061096,4.124861717224121,24.349799879814764,23.625954393803852,97.24722131143317,86.12897736441441,9.70840483205393e-05,0.0940094217658042,0,0,0
8087,281897.25460383814,2010-10-25 19:42:12,4802.422714643419,2,25,0.5499359965324402,4.1279377937316895,24.35438551167186,23.625954393803852,97.26614376264902,86.12897736441441,3.24249267578125e-05,0.0940094217658042,0,0,0
8088,281927.2698713502,2010-10-25 19:42:42,4832.437982115426,2,25,0.5499359965324402,4.13133716583252,24.35897115332859,23.625954393803852,97.285080838295,86.12897736441441,9.70840483205393e-05,0.0940094217658042,0,0,0
8089,281957.2848878468,2010-10-25 19:43:12,4862.452998606913,2,25,0.5499359965324402,4.134413242340088,24.363556759122226,23.625954393803852,97.3040323976542,86.12897736441441,9.71794142969884e-05,0.0940094217658042,0,0,0
8090,281987.3000385327,2010-10-25 19:43:42,4892.468149297865,2,25,0.5497553944587708,4.137650966644287,24.36814234232465,23.625954393803852,97.32299858811656,86.12897736441441,9.71794142969884e-05,0.0940094217658042,0,0,0
8091,282017.3151451087,2010-10-25 19:44:12,4922.483255868858,2,25,0.5499359965324402,4.140888690948486,24.37272794117871,23.625954393803852,97.34197979334984,86.12897736441441,9.71794142969884e-05,0.0940094217658042,0,0,0
8092,282047.3303115138,2010-10-25 19:44:42,4952.498422278987,2,25,0.5497553944587708,4.1441264152526855,24.37731356515508,23.625954393803852,97.36097612399644,86.12897736441441,9.71794142969884e-05,0.0940094217658042,0,0,0
8093,282077.3454341398,2010-10-25 19:45:12,4982.513544899982,2,25,0.5499359965324402,4.147687911987305,24.38189900406655,23.625954393803852,97.3799872842413,86.12897736441441,9.71794142969884e-05,0.0940094217658042,0,0,0
8094,282107.3605951766,2010-10-25 19:45:42,5012.528705936719,2,25,0.5501165986061096,4.151087284088135,24.38648444582593,23.625954393803852,97.39901376899856,86.12897736441441,0.0001295089750783,0.0940094217658042,0,0,0
8095,282137.375739652,2010-10-25 19:46:12,5042.543850412181,2,25,0.5499359965324402,4.154325008392334,24.39107001132801,23.625954393803852,97.41805621868936,86.12897736441441,9.70840483205393e-05,0.0940094217658042,0,0,0
8096,282167.39345623297,2010-10-25 19:46:42,5072.561567018184,2,25,0.5499359965324402,4.157724857330322,24.39565587493509,23.625954393803852,97.43711537505104,86.12897736441441,9.71794142969884e-05,0.0940094217658042,0,0,0
8097,282197.406367267,2010-10-25 19:47:12,5102.574478032173,2,25,0.5501165986061096,4.161286354064941,24.400241085869823,23.625954393803852,97.45618733335289,86.12897736441441,6.47544875391759e-05,0.0940094217658042,0,0,0
8098,282227.421176923,2010-10-25 19:47:42,5132.5892876831485,2,25,0.5499359965324402,4.164524078369141,24.40482668269076,23.625954393803852,97.47527657239652,86.12897736441441,6.47544875391759e-05,0.0940094217658042,0,0,0
8099,282257.43631838594,2010-10-25 19:48:12,5162.604429151115,2,25,0.5499359965324402,4.168247222900391,24.409412308510568,23.625954393803852,97.49438175004464,86.12897736441441,9.70840483205393e-05,0.0940094217658042,0,0,0
8100,282287.4514769866,2010-10-25 19:48:42,5192.619587771831,2,25,0.5501165986061096,4.171647071838379,24.413997854792843,23.625954393803852,97.51350256404724,86.12897736441441,0.0001619339018361,0.0940094217658042,0,0,0
8101,282317.46671052906,2010-10-25 19:49:12,5222.63482130425,2,25,0.5501165986061096,4.175046443939209,24.41858350537711,23.625954393803852,97.532639830584,86.12897736441441,9.70840483205393e-05,0.0940094217658042,0,0,0
8102,282347.4819388134,2010-10-25 19:49:42,5252.65004956854,2,25,0.5501165986061096,4.178770065307617,24.423169114528587,23.625954393803852,97.55179309702112,86.12897736441441,0.0001295089750783,0.0940094217658042,0,0,0
8103,282377.49700642726,2010-10-25 19:50:12,5282.6651172024895,2,25,0.5497553944587708,4.182007789611816,24.42775472919563,23.625954393803852,97.57096273750892,86.12897736441441,6.47544875391759e-05,0.0940094217658042,0,0,0
8104,282407.5120169489,2010-10-25 19:50:42,5312.680127709059,2,25,0.5501165986061096,4.185730934143066,24.43234033591114,23.625954393803852,97.590148699598,86.12897736441441,0.0001295089750783,0.0940094217658042,0,0,0
8105,282437.5271747125,2010-10-25 19:51:12,5342.695285562864,2,25,0.5501165986061096,4.189454555511475,24.43692594112791,23.625954393803852,97.6093512423723,86.12897736441441,0.0001295089750783,0.0940094217658042,0,0,0
8106,282467.54235198966,2010-10-25 19:51:42,5372.710462779928,2,25,0.5499359965324402,4.192853927612305,24.44151150403462,23.625954393803852,97.6285702088609,86.12897736441441,3.23295607813634e-05,0.0940094217658042,0,0,0
8107,282497.5575897677,2010-10-25 19:52:12,5402.725700572966,2,25,0.5501165986061096,4.196577072143555,24.446097073372748,23.625954393803852,97.64780598866088,86.12897736441441,9.70840483205393e-05,0.0940094217658042,0,0,0
8108,282523.38779310713,2010-10-25 19:52:38,5428.555903987631,2,25,0.5501165986061096,4.200138568878174,24.45004329708217,23.625954393803852,97.66437342099424,86.12897736441441,0.0001618385285837,0.0940094217658042,0,0,0
8109,282553.40802047,2010-10-25 19:53:08,30.015160189626453,3,25,0.0,4.110616207122803,24.45004329708217,23.625954393803852,97.66437342099424,86.12897736441441,-0.0003561019839253,0.0940094217658042,0,0,0
8110,282583.4232666139,2010-10-25 19:53:38,60.030406338489776,3,25,0.0,4.0992841720581055,24.45004329708217,23.625954393803852,97.66437342099424,86.12897736441441,-0.0002265930233988,0.0940094217658042,0,0,0
8111,282613.4384411593,2010-10-25 19:54:08,90.04558089392022,3,25,0.0,4.092484951019287,24.45004329708217,23.625954393803852,97.66437342099424,86.12897736441441,-0.0001295089750783,0.0940094217658042,0,0,0
8112,282643.4065669347,2010-10-25 19:54:38,120.01370665427682,3,25,0.0,4.087790012359619,24.45004329708217,23.625954393803852,97.66437342099424,86.12897736441441,-0.0001295089750783,0.0940094217658042,0,0,0
8113,282643.4161865157,2010-10-25 19:54:38,2.711758537e-06,4,25,1.0041683912277222,4.199814796447754,24.45004329783858,23.625954393803852,97.664373424171,86.12897736441441,0.0,0.0940094217658042,0,0,0
8114,282644.07240838755,2010-10-25 19:54:39,0.656224558515068,4,25,0.9534171223640442,4.199653148651123,24.450220066489184,23.625954393803852,97.66511580928058,86.12897736441441,-3.23295607813634e-05,0.0940094217658042,0,0,0
8115,282646.0568607133,2010-10-25 19:54:41,2.640676929424103,4,25,0.9033883810043336,4.199653148651123,24.45073081343329,23.625954393803852,97.66726081281884,86.12897736441441,-3.23295607813634e-05,0.0940094217658042,0,0,0
8116,282649.1350749153,2010-10-25 19:54:44,5.718891121333169,4,25,0.853359580039978,4.199653148651123,24.45148085028401,23.625954393803852,97.6704107847454,86.12897736441441,0.0,0.0940094217658042,0,0,0
8117,282653.38475096057,2010-10-25 19:54:48,9.968567161618186,4,25,0.8033308386802673,4.199814796447754,24.452457542501783,23.625954393803852,97.67451264955552,86.12897736441441,3.23295607813634e-05,0.0940094217658042,0,0,0
8118,282659.0253060344,2010-10-25 19:54:54,15.609122205342546,4,25,0.7531214356422424,4.199491024017334,24.45367540345157,23.625954393803852,97.67962738331782,86.12897736441441,-6.47544875391759e-05,0.0940094217658042,0,0,0
8119,282666.2907987177,2010-10-25 19:55:01,22.87461491370801,4,25,0.7030926942825317,4.199653148651123,24.45514285872623,23.625954393803852,97.68579036309713,86.12897736441441,-3.23295607813634e-05,0.0940094217658042,0,0,0
8120,282675.94689471,2010-10-25 19:55:11,32.530710911039826,4,25,0.6528832912445068,4.199814796447754,24.45695846697877,23.625954393803852,97.6934155069973,86.12897736441441,0.0,0.0940094217658042,0,0,0
8121,282689.3841872576,2010-10-25 19:55:24,45.96800345360746,4,25,0.6028545498847961,4.199814796447754,24.45929672110929,23.625954393803852,97.70323567897768,86.12897736441441,3.23295607813634e-05,0.0940094217658042,0,0,0
8122,282709.5088568464,2010-10-25 19:55:44,66.09267301235387,4,25,0.5528257489204407,4.199814796447754,24.46251639998973,23.625954393803852,97.71675761562136,86.12897736441441,0.0,0.0940094217658042,0,0,0
8123,282743.7270616915,2010-10-25 19:56:19,100.31087788758136,4,25,0.50279700756073,4.199814796447754,24.46751198702735,23.625954393803852,97.73773795024414,86.12897736441441,6.47544875391759e-05,0.0940094217658042,0,0,0
8124,282807.9447727468,2010-10-25 19:57:23,164.5285889127518,4,25,0.4527682065963745,4.199653148651123,24.475994005006346,23.625954393803852,97.77336053928076,86.12897736441441,-3.23295607813634e-05,0.0940094217658042,0,0,0
8125,282909.8650149354,2010-10-25 19:59:05,266.44883113143527,4,25,0.4027394354343414,4.199814796447754,24.48807476733768,23.625954393803852,97.82409703853716,86.12897736441441,0.0,0.0940094217658042,0,0,0
8126,283039.75355976983,2010-10-25 20:01:15,396.3373759708813,4,25,0.3525300621986389,4.199653148651123,24.50168735863899,23.625954393803852,97.88126693745454,86.12897736441441,0.0,0.0940094217658042,0,0,0
8127,283198.3135319331,2010-10-25 20:03:53,554.8973480991085,4,25,0.3023206889629364,4.199653148651123,24.51609888601417,23.625954393803852,97.94179187972956,86.12897736441441,-3.23295607813634e-05,0.0940094217658042,0,0,0
8128,283391.20128780586,2010-10-25 20:07:06,747.7851039818471,4,25,0.2522919178009033,4.199653148651123,24.53093696897903,23.625954393803852,98.0041081042922,86.12897736441441,0.0,0.0940094217658042,0,0,0
8129,283624.2288059268,2010-10-25 20:10:59,980.8126221027792,4,25,0.2022631466388702,4.199814796447754,24.545608171019783,23.625954393803852,98.06572340732424,86.12897736441441,0.0,0.0940094217658042,0,0,0
8130,283926.9271804691,2010-10-25 20:16:02,1283.5109966451002,4,25,0.1522343754768371,4.199653148651123,24.560436226927298,23.625954393803852,98.12799741870948,86.12897736441441,-3.23295607813634e-05,0.0940094217658042,0,0,0
8131,284357.93601609056,2010-10-25 20:23:13,1714.5198322665722,4,25,0.102205604314804,4.199814796447754,24.57548786363117,23.625954393803852,98.19121028066428,86.12897736441441,3.23295607813634e-05,0.0940094217658042,0,0,0
8132,285145.95532129664,2010-10-25 20:36:21,2502.539137582899,4,25,0.0521768368780612,4.199653148651123,24.5917650618459,23.625954393803852,98.25957013634633,86.12897736441441,0.0,0.0940094217658042,0,0,0
8133,285206.3761767946,2010-10-25 20:37:21,2562.95999299562,4,25,0.0498289167881011,4.199653148651123,24.592630719889403,23.625954393803852,98.26320566495028,86.12897736441441,0.0,0.0940094217658042,0,0,0
8134,285236.3940905079,2010-10-25 20:37:51,30.015175633116385,5,25,0.0,4.191558837890625,24.592630719889403,23.625954393803852,98.26320566495028,86.12897736441441,-3.24249267578125e-05,0.0940094217658042,0,0,0
8135,285266.3936205874,2010-10-25 20:38:21,60.01470568763688,5,25,0.0,4.190263748168945,24.592630719889403,23.625954393803852,98.26320566495028,86.12897736441441,0.0,0.0940094217658042,0,0,0
8136,285266.5847343413,2010-10-25 20:38:22,0.187434684906999,6,25,-1.9243103452026844e-05,4.190263748168945,24.592630719889403,23.625954394805756,98.26320566495028,86.12897736861262,0.0,0.0948198437690734,0,0,0
8137,285271.4127473754,2010-10-25 20:38:27,5.015447683842808,6,25,0.0007031940040178,4.190263748168945,24.59263142226459,23.62595439488935,98.26320860817766,86.12897736896292,-3.24249267578125e-05,0.0948198437690734,0,0,0
8138,285301.43180505506,2010-10-25 20:38:57,30.015293276319444,7,25,-1.0997490882873535,4.0084662437438965,24.59263142226459,23.635123178639866,98.26320860817766,86.16593516556621,-0.0009713172912597,0.0948198437690734,0,0,0
8139,285331.44686729554,2010-10-25 20:39:27,60.03035553687652,7,25,-1.099568486213684,3.9802980422973633,24.59263142226459,23.64429178346634,98.26320860817766,86.20254947031154,-0.0006151676061563,0.0948198437690734,0,0,0
8140,285361.46201824216,2010-10-25 20:39:57,90.04550645339152,7,25,-1.0997490882873535,3.960709810256958,24.59263142226459,23.65346029147561,98.26320860817766,86.23894835676207,-0.0004532813909463,0.0948198437690734,0,0,0
8141,285391.47718484275,2010-10-25 20:40:27,120.06067308407108,7,25,-1.0997490882873535,3.9454925060272217,24.59263142226459,23.66262887218292,98.26320860817766,86.2751900725493,-0.0003885269106831,0.0948198437690734,0,0,0
8142,285421.49239015486,2010-10-25 20:40:57,150.07587839615655,7,25,-1.0997490882873535,3.9328653812408447,24.59263142226459,23.67179744039087,98.26320860817766,86.31130536770848,-0.0003237724304199,0.0948198437690734,0,0,0
8143,285451.5076634965,2010-10-25 20:41:27,180.09115171774266,7,25,-1.099568486213684,3.921695232391357,24.59263142226459,23.6809660914876,98.26320860817766,86.34731292734618,-0.0002913951757363,0.0948198437690734,0,0,0
8144,285481.5228251548,2010-10-25 20:41:57,210.10631337602948,7,25,-1.099929690361023,3.911658525466919,24.59263142226459,23.6901346956483,98.26320860817766,86.38322336253762,-0.0002266406954731,0.0948198437690734,0,0,0
8145,285511.5378843577,2010-10-25 20:42:27,240.12137257395355,7,25,-1.099568486213684,3.9021072387695312,24.59263142226459,23.69930327652968,98.26320860817766,86.41904408068008,-0.0002590179501567,0.0948198437690734,0,0,0
8146,285541.5530434797,2010-10-25 20:42:57,270.13653169090657,7,25,-1.099568486213684,3.893203496932984,24.59263142226459,23.708471892327573,98.26320860817766,86.45478048825994,-0.0002590179501567,0.0948198437690734,0,0,0
8147,285571.5682161855,2010-10-25 20:43:27,300.1517043967272,7,25,-1.099568486213684,3.884623527526856,24.59263142226459,23.71764053114161,98.26320860817766,86.49043695781957,-0.0002266406954731,0.0948198437690734,0,0,0
8148,285601.58339048026,2010-10-25 20:43:57,330.1668787265955,7,25,-1.099929690361023,3.876043558120728,24.59263142226459,23.726809176120227,98.26320860817766,86.52601493180984,-0.0002913951757363,0.0948198437690734,0,0,0
8149,285631.5987021374,2010-10-25 20:44:27,360.18219036868817,7,25,-1.099568486213684,3.8679492473602295,24.59263142226459,23.735977758807543,98.26320860817766,86.56151578032787,-0.0001942634553415,0.0948198437690734,0,0,0
8150,285661.61371827807,2010-10-25 20:44:57,390.1972064942626,7,25,-1.099568486213684,3.859854936599731,24.59263142226459,23.74514638738364,98.26320860817766,86.59694173638532,-0.0002266406954731,0.0948198437690734,0,0,0
8151,285691.6289051592,2010-10-25 20:45:27,420.21239340047504,7,25,-1.099568486213684,3.8519225120544434,24.59263142226459,23.754315061575408,98.26320860817766,86.6322941055284,-0.0001942634553415,0.0948198437690734,0,0,0
8152,285721.64405252686,2010-10-25 20:45:57,450.2275407430828,7,25,-1.0997490882873535,3.8439900875091553,24.59263142226459,23.76348371183354,98.26320860817766,86.66757471069172,-0.0002266406954731,0.0948198437690734,0,0,0
8153,285751.6593538181,2010-10-25 20:46:27,480.242842034378,7,25,-1.0997490882873535,3.836381435394287,24.59263142226459,23.772652382579587,98.26320860817766,86.70278483114173,-0.0001618862152099,0.0948198437690734,0,0,0
8154,285781.6743962192,2010-10-25 20:46:57,510.2578844605016,7,25,-1.099568486213684,3.828934907913208,24.59263142226459,23.781820979770767,98.26320860817766,86.73792531422177,-0.0001942634553415,0.0948198437690734,0,0,0
8155,285811.68959846866,2010-10-25 20:47:27,540.2730867049415,7,25,-1.099568486213684,3.82165002822876,24.59263142226459,23.790989650258545,98.26320860817766,86.77299778306352,-0.0001618862152099,0.0948198437690734,0,0,0
8156,285841.70475591643,2010-10-25 20:47:57,570.288244137697,7,25,-1.0997490882873535,3.8142032623291016,24.59263142226459,23.80015835672307,98.26320860817766,86.80800324038157,-0.0001942634553415,0.0948198437690734,0,0,0
8157,285871.7199209732,2010-10-25 20:48:27,600.3034091944538,7,25,-1.0997490882873535,3.8070802688598633,24.59263142226459,23.80932703480577,98.26320860817766,86.84294272058418,-0.0002266406954731,0.0948198437690734,0,0,0
8158,285901.7350655539,2010-10-25 20:48:57,630.3185537952281,7,25,-1.0997490882873535,3.800281047821045,24.59263142226459,23.81849573670945,98.26320860817766,86.87781723211002,-0.0001942634553415,0.0948198437690734,0,0,0
8159,285931.75029016414,2010-10-25 20:49:27,660.3337783853605,7,25,-1.0997490882873535,3.7933199405670166,24.59263142226459,23.827664484561684,98.26320860817766,86.91262841348788,-0.0001618862152099,0.0948198437690734,0,0,0
8160,285961.7655724029,2010-10-25 20:49:57,690.3490606291836,7,25,-1.0997490882873535,3.7865207195281982,24.59263142226459,23.836833257378817,98.26320860817766,86.94737757865855,-0.0001942634553415,0.0948198437690734,0,0,0
8161,285991.7832375707,2010-10-25 20:50:27,720.3667257819488,7,25,-1.099568486213684,3.7802071571350098,24.59263142226459,23.84600276346906,98.26320860817766,86.9820686701088,-0.0001295089750783,0.0948198437690734,0,0,0
8162,286021.7960188263,2010-10-25 20:50:57,750.3795070475647,7,25,-1.0997490882873535,3.773569822311402,24.59263142226459,23.85517077293174,98.26320860817766,87.0166947650075,-0.0001618862152099,0.0948198437690734,0,0,0
8163,286051.81100582925,2010-10-25 20:51:27,780.3944940706069,7,25,-1.099568486213684,3.767256259918213,24.59263142226459,23.864339462117275,98.26320860817766,87.05126422847265,-0.0001618862152099,0.0948198437690734,0,0,0
8164,286081.8261604651,2010-10-25 20:51:57,810.4096488016287,7,25,-1.0997490882873535,3.7611045837402335,24.59263142226459,23.873508256727742,98.26320860817766,87.08577648968235,-0.0001295089750783,0.0948198437690734,0,0,0
8165,286111.8413095571,2010-10-25 20:52:27,840.424797778309,7,25,-1.0997490882873535,3.754952907562256,24.59263142226459,23.88267704803101,98.26320860817766,87.12023238271229,-0.0001618862152099,0.0948198437690734,0,0,0
8166,286141.85648639314,2010-10-25 20:52:57,870.4399746094113,7,25,-1.0997490882873535,3.7489633560180655,24.59263142226459,23.891845859030347,98.26320860817766,87.15463329443803,-0.0001618862152099,0.0948198437690734,0,0,0
8167,286171.8716709636,2010-10-25 20:53:27,900.4551592048645,7,25,-1.0997490882873535,3.743135452270508,24.59263142226459,23.901014675786087,98.26320860817766,87.18897995231723,-9.713172767078504e-05,0.0948198437690734,0,0,0
8168,286201.88683062687,2010-10-25 20:53:57,930.4703188431166,7,25,-1.099929690361023,3.737469434738159,24.59263142226459,23.91018350045067,98.26320860817766,87.22327315611174,-0.0001618862152099,0.0948198437690734,0,0,0
8169,286231.9019961498,2010-10-25 20:54:27,960.4854843660352,7,25,-1.099568486213684,3.7316415309906006,24.59263142226459,23.91935236642893,98.26320860817766,87.25751418439788,-0.0001618862152099,0.0948198437690734,0,0,0
8170,286261.9171854921,2010-10-25 20:54:57,990.5006737033068,7,25,-1.0997490882873535,3.726299285888672,24.59263142226459,23.928521188041213,98.26320860817766,87.29170422861155,-0.0001295089750783,0.0948198437690734,0,0,0
8171,286291.9323641026,2010-10-25 20:55:27,1020.5158523439186,7,25,-1.0997490882873535,3.7206332683563232,24.59263142226459,23.937689938103265,98.26320860817766,87.32584385831821,-0.0001295089750783,0.0948198437690734,0,0,0
8172,286321.94752078346,2010-10-25 20:55:57,1050.5310090248004,7,25,-1.0997490882873535,3.715129137039185,24.59263142226459,23.94685877029805,98.26320860817766,87.35993355665123,-0.0001618862152099,0.0948198437690734,0,0,0
8173,286351.9627388524,2010-10-25 20:56:27,1080.5462271788922,7,25,-1.0997490882873535,3.710110664367676,24.59263142226459,23.95602764923475,98.26320860817766,87.39397427794036,-0.0001295089750783,0.0948198437690734,0,0,0
8174,286381.9778571927,2010-10-25 20:56:57,1110.5613454390173,7,25,-1.0997490882873535,3.704768419265747,24.59263142226459,23.965196490238508,98.26320860817766,87.42796667480057,-0.0001618862152099,0.0948198437690734,0,0,0
8175,286411.99318021315,2010-10-25 20:57:27,1140.5766685496933,7,25,-1.0997490882873535,3.699588060379028,24.59263142226459,23.97436537816329,98.26320860817766,87.46191169703634,-0.0001295089750783,0.0948198437690734,0,0,0
8176,286442.0082080529,2010-10-25 20:57:57,1170.591696269163,7,25,-1.099568486213684,3.6947314739227295,24.59263142226459,23.98353417272549,98.26320860817766,87.49580945413007,-0.0001295089750783,0.0948198437690734,0,0,0
8177,286472.02354449686,2010-10-25 20:58:27,1200.607032708057,7,25,-1.099568486213684,3.6897130012512207,24.59263142226459,23.99270310345175,98.26320860817766,87.52966157834008,-9.713172767078504e-05,0.0948198437690734,0,0,0
8178,286502.038573314,2010-10-25 20:58:57,1230.6220615302757,7,25,-1.099568486213684,3.684694528579712,24.59263142226459,24.00187187956737,98.26320860817766,87.56346750005562,-9.713172767078504e-05,0.0948198437690734,0,0,0
8179,286532.0538424903,2010-10-25 20:59:27,1260.6373307416177,7,25,-1.0997490882873535,3.679676055908203,24.59263142226459,24.011040729444957,98.26320860817766,87.59722875198453,-0.0001618862152099,0.0948198437690734,0,0,0
8180,286562.0689053524,2010-10-25 20:59:57,1290.6523935685864,7,25,-1.099568486213684,3.674981355667114,24.59263142226459,24.02020898434841,98.26320860817766,87.63094373615994,-0.0001295089750783,0.0948198437690734,0,0,0
8181,286592.0842423376,2010-10-25 21:00:27,1320.6677305588544,7,25,-1.099568486213684,3.670286893844605,24.59263142226459,24.029377170842228,98.26320860817766,87.66461524976593,-0.0001618862152099,0.0948198437690734,0,0,0
8182,286622.0993087435,2010-10-25 21:00:57,1350.682796954718,7,25,-1.0997490882873535,3.665592193603516,24.59263142226459,24.038545281730933,98.26320860817766,87.69824380225167,-0.0001618862152099,0.0948198437690734,0,0,0
8183,286652.11458775424,2010-10-25 21:01:27,1380.6980759805206,7,25,-1.099568486213684,3.6610593795776367,24.59263142226459,24.047713536702325,98.26320860817766,87.73183080357906,-0.0001295089750783,0.0948198437690734,0,0,0
8184,286682.12963890214,2010-10-25 21:01:57,1410.713127143419,7,25,-1.0997490882873535,3.656526565551758,24.59263142226459,24.05688231424984,98.26320860817766,87.76537817668363,-0.0001295089750783,0.0948198437690734,0,0,0
8185,286712.1450302579,2010-10-25 21:02:27,1440.7285184791326,7,25,-1.0997490882873535,3.651993751525879,24.59263142226459,24.06605127031961,98.26320860817766,87.79888526504367,-0.0001618862152099,0.0948198437690734,0,0,0
8186,286742.1599666197,2010-10-25 21:02:57,1470.743454830886,7,25,-1.099568486213684,3.64794659614563,24.59263142226459,24.07522009511364,98.26320860817766,87.8323512303904,-6.47544875391759e-05,0.0948198437690734,0,0,0
8187,286772.1751499119,2010-10-25 21:03:27,1500.7586381230913,7,25,-1.099929690361023,3.643090009689331,24.59263142226459,24.08438892887996,98.26320860817766,87.86577661164029,-0.0001618862152099,0.0948198437690734,0,0,0
8188,286802.19032076804,2010-10-25 21:03:57,1530.7738089793022,7,25,-1.099568486213684,3.639366626739502,24.59263142226459,24.09355777698903,98.26320860817766,87.89916281385936,-6.47544875391759e-05,0.0948198437690734,0,0,0
8189,286832.205484276,2010-10-25 21:04:27,1560.7889724972238,7,25,-1.0997490882873535,3.634995698928833,24.59263142226459,24.10272664971646,98.26320860817766,87.93251054064643,-0.0001295089750783,0.0948198437690734,0,0,0
8190,286862.22066364344,2010-10-25 21:04:58,1590.804151864647,7,25,-1.0997490882873535,3.630786657333374,24.59263142226459,24.11189557729953,98.26320860817766,87.96582047339336,-0.0001295089750783,0.0948198437690734,0,0,0
8191,286892.2358713164,2010-10-25 21:05:28,1620.8193595576668,7,25,-1.0997490882873535,3.626739501953125,24.59263142226459,24.12106448016043,98.26320860817766,87.99909333612337,-0.0001618862152099,0.0948198437690734,0,0,0
8192,286922.2510232053,2010-10-25 21:05:58,1650.834511441593,7,25,-1.0997490882873535,3.622854232788086,24.59263142226459,24.13023332397768,98.26320860817766,88.03232974618082,-0.0001618862152099,0.0948198437690734,0,0,0
8193,286952.26618472324,2010-10-25 21:06:28,1680.84967293948,7,25,-1.0997490882873535,3.618968963623047,24.59263142226459,24.13940222754077,98.26320860817766,88.06553064706715,-0.0001295089750783,0.0948198437690734,0,0,0
8194,286982.2813746671,2010-10-25 21:06:58,1710.8648628832627,7,25,-1.099929690361023,3.6152455806732178,24.59263142226459,24.148571226862003,98.26320860817766,88.0986965497968,-0.0001295089750783,0.0948198437690734,0,0,0
8195,287012.29655687656,2010-10-25 21:07:28,1740.8800450927697,7,25,-1.0997490882873535,3.611684083938599,24.59263142226459,24.15774015266626,98.26320860817766,88.13182809450845,-9.713172767078504e-05,0.0948198437690734,0,0,0
8196,287042.3117175624,2010-10-25 21:07:58,1770.8952057736203,7,25,-1.0997490882873535,3.60812258720398,24.59263142226459,24.166909097143527,98.26320860817766,88.16492635755569,-6.47544875391759e-05,0.0948198437690734,0,0,0
8197,287072.3268891003,2010-10-25 21:08:28,1800.9103773716802,7,25,-1.099568486213684,3.60456109046936,24.59263142226459,24.176078083630625,98.26320860817766,88.1979921566058,-6.47544875391759e-05,0.0948198437690734,0,0,0
8198,287102.3420943071,2010-10-25 21:08:58,1830.925582523366,7,25,-1.0997490882873535,3.601161479949951,24.59263142226459,24.18524705290872,98.26320860817766,88.23102656041038,-6.47544875391759e-05,0.0948198437690734,0,0,0
8199,287132.3574647608,2010-10-25 21:09:28,1860.9409529720224,7,25,-1.0997490882873535,3.597761869430542,24.59263142226459,24.194416178248083,98.26320860817766,88.26403065115596,-9.713172767078504e-05,0.0948198437690734,0,0,0
8200,287162.3725709007,2010-10-25 21:09:58,1890.9560591319903,7,25,-1.099568486213684,3.5945241451263428,24.59263142226459,24.20358517839568,98.26320860817766,88.29700410266005,-9.713172767078504e-05,0.0948198437690734,0,0,0
8201,287192.38759703626,2010-10-25 21:10:28,1920.971085277538,7,25,-1.099568486213684,3.5914485454559326,24.59263142226459,24.21275415467994,98.26320860817766,88.329948187778,-6.47544875391759e-05,0.0948198437690734,0,0,0
8202,287222.402772514,2010-10-25 21:10:58,1950.9862607302043,7,25,-1.099568486213684,3.5885345935821533,24.59263142226459,24.221923195334945,98.26320860817766,88.36286349931102,-3.237724376958795e-05,0.0948198437690734,0,0,0
8203,287252.41796016204,2010-10-25 21:11:28,1981.001448378266,7,25,-1.0997490882873535,3.585134983062744,24.59263142226459,24.2310922274692,98.26320860817766,88.39575020595015,-9.713172767078504e-05,0.0948198437690734,0,0,0
8204,287282.4331488176,2010-10-25 21:11:58,2011.0166370338384,7,25,-1.0997490882873535,3.582221031188965,24.59263142226459,24.240261196836187,98.26320860817766,88.42860850401551,-3.237724376958795e-05,0.0948198437690734,0,0,0
8205,287312.44832739304,2010-10-25 21:12:28,2041.0318156443752,7,25,-1.0997490882873535,3.5789833068847656,24.59263142226459,24.249430195205637,98.26320860817766,88.4614391140836,-9.713172767078504e-05,0.0948198437690734,0,0,0
8206,287342.46351404866,2010-10-25 21:12:58,2071.0470022949503,7,25,-1.099929690361023,3.5760693550109863,24.59263142226459,24.258599150437917,98.26320860817766,88.49424205348176,-6.47544875391759e-05,0.0948198437690734,0,0,0
8207,287372.47874774144,2010-10-25 21:13:28,2101.0622359576946,7,25,-1.099568486213684,3.573155403137207,24.59263142226459,24.26776815158784,98.26320860817766,88.5270179290648,-9.713172767078504e-05,0.0948198437690734,0,0,0
8208,287402.4939522516,2010-10-25 21:13:58,2131.0774404828185,7,25,-1.099929690361023,3.5700795650482178,24.59263142226459,24.276937154045857,98.26320860817766,88.55976641666393,-6.47544875391759e-05,0.0948198437690734,0,0,0
8209,287432.50912627066,2010-10-25 21:14:28,2161.092614521963,7,25,-1.099568486213684,3.5671656131744385,24.59263142226459,24.28610612282606,98.26320860817766,88.59248737666447,-6.47544875391759e-05,0.0948198437690734,0,0,0
8210,287462.52418815024,2010-10-25 21:14:58,2191.107676371495,7,25,-1.099568486213684,3.564413547515869,24.59263142226459,24.2952750504325,98.26320860817766,88.62518083460198,-3.237724376958795e-05,0.0948198437690734,0,0,0
8211,287492.5394008157,2010-10-25 21:15:28,2221.1228890268826,7,25,-1.0997490882873535,3.56133770942688,24.59263142226459,24.30444397243028,98.26320860817766,88.65784742116087,-9.713172767078504e-05,0.0948198437690734,0,0,0
8212,287522.55456460424,2010-10-25 21:15:58,2251.1380528154787,7,25,-1.099568486213684,3.55826187133789,24.59263142226459,24.31361293463339,98.26320860817766,88.69048690721408,-6.47544875391759e-05,0.0948198437690734,0,0,0
8213,287552.5697305933,2010-10-25 21:16:28,2281.153218829621,7,25,-1.0997490882873535,3.5551860332489014,24.59263142226459,24.322781881258468,98.26320860817766,88.72309858344171,-9.713172767078504e-05,0.0948198437690734,0,0,0
8214,287582.5848913644,2010-10-25 21:16:58,2311.168379630772,7,25,-1.1001102924346924,3.552110195159912,24.59263142226459,24.33195085360841,98.26320860817766,88.75568238386543,-9.713172767078504e-05,0.0948198437690734,0,0,0
8215,287612.60007800994,2010-10-25 21:17:28,2341.18356622621,7,25,-1.099568486213684,3.549034357070923,24.59263142226459,24.34111987132749,98.26320860817766,88.78823816127698,-9.713172767078504e-05,0.0948198437690734,0,0,0
8216,287642.6152391369,2010-10-25 21:17:58,2371.198727378235,7,25,-1.0997490882873535,3.5459585189819336,24.59263142226459,24.350288879213927,98.26320860817766,88.82076537601361,-6.47544875391759e-05,0.0948198437690734,0,0,0
8217,287672.6305429094,2010-10-25 21:18:28,2401.214031125652,7,25,-1.099568486213684,3.5427207946777344,24.59263142226459,24.35945795372668,98.26320860817766,88.85326400981957,-9.713172767078504e-05,0.0948198437690734,0,0,0
8218,287702.6456082727,2010-10-25 21:18:58,2431.229096544079,7,25,-1.0997490882873535,3.539806842803955,24.59263142226459,24.36862698936929,98.26320860817766,88.88573336296237,-3.237724376958795e-05,0.0948198437690734,0,0,0
8219,287732.6607919859,2010-10-25 21:19:28,2461.2442802021965,7,25,-1.0997490882873535,3.536245346069336,24.59263142226459,24.37779607180045,98.26320860817766,88.91817297420954,-9.713172767078504e-05,0.0948198437690734,0,0,0
8220,287762.67601651093,2010-10-25 21:19:58,2491.2595047522286,7,25,-1.0997490882873535,3.532683849334717,24.59263142226459,24.38696516850916,98.26320860817766,88.95058169874437,-9.713172767078504e-05,0.0948198437690734,0,0,0
8221,287792.6912680232,2010-10-25 21:20:28,2521.274756249422,7,25,-1.0997490882873535,3.529284238815308,24.59263142226459,24.39613424339893,98.26320860817766,88.98295850176426,-6.47544875391759e-05,0.0948198437690734,0,0,0
8222,287822.7064610897,2010-10-25 21:20:58,2551.289949336038,7,25,-1.0997490882873535,3.5255608558654785,24.59263142226459,24.405303250931087,98.26320860817766,89.01530244760755,-0.0001295089750783,0.0948198437690734,0,0,0
8223,287852.7215220972,2010-10-25 21:21:28,2581.305010363521,7,25,-1.099568486213684,3.5218374729156494,24.59263142226459,24.41447228864773,98.26320860817766,89.04761216811877,-0.0001295089750783,0.0948198437690734,0,0,0
8224,287882.7366833544,2010-10-25 21:21:58,2611.320171620809,7,25,-1.0997490882873535,3.5179522037506104,24.59263142226459,24.42364127316312,98.26320860817766,89.07988627931422,-9.713172767078504e-05,0.0948198437690734,0,0,0
8225,287912.7544866966,2010-10-25 21:22:28,2641.337975033159,7,25,-1.0997490882873535,3.513743162155152,24.59263142226459,24.432811129676946,98.26320860817766,89.1121261450976,-0.0001295089750783,0.0948198437690734,0,0,0
8226,287942.7672883932,2010-10-25 21:22:58,2671.350776714658,7,25,-1.0997490882873535,3.509372472763061,24.59263142226459,24.44197938950968,98.26320860817766,89.14432122688812,-0.0001295089750783,0.0948198437690734,0,0,0
8227,287972.7822505292,2010-10-25 21:23:28,2701.3657387955363,7,25,-1.0997490882873535,3.5046777725219727,24.59263142226459,24.45114836221073,98.26320860817766,89.17647715395444,-0.0001295089750783,0.0948198437690734,0,0,0
8228,288002.7975276904,2010-10-25 21:23:58,2731.381015921605,7,25,-1.099568486213684,3.499821186065674,24.59263142226459,24.460317415812884,98.26320860817766,89.20858867644844,-6.47544875391759e-05,0.0948198437690734,0,0,0
8229,288032.81257367536,2010-10-25 21:24:28,2761.396061916623,7,25,-1.099568486213684,3.494155168533325,24.59263142226459,24.4694863871221,98.26320860817766,89.24065121328216,-0.0001295089750783,0.0948198437690734,0,0,0
8230,288062.82775445125,2010-10-25 21:24:58,2791.4112426925567,7,25,-1.0997490882873535,3.4878416061401367,24.59263142226459,24.4786553859008,98.26320860817766,89.27265977537414,-0.0001618862152099,0.0948198437690734,0,0,0
8231,288092.843163436,2010-10-25 21:25:28,2821.42665170232,7,25,-1.0997490882873535,3.4805567264556885,24.59263142226459,24.48782453971661,98.26320860817766,89.30460859307226,-0.0002590179501567,0.0948198437690734,0,0,0
8232,288122.8582761222,2010-10-25 21:25:58,2851.441764413616,7,25,-1.099929690361023,3.4727861881256104,24.59263142226459,24.496993498112538,98.26320860817766,89.3364881634108,-0.0002266406954731,0.0948198437690734,0,0,0
8233,288152.8733184481,2010-10-25 21:26:28,2881.4568066993893,7,25,-1.099929690361023,3.4638824462890625,24.59263142226459,24.506162490744504,98.26320860817766,89.36829054477438,-0.0002266406954731,0.0948198437690734,0,0,0
8234,288182.88859793503,2010-10-25 21:26:58,2911.472086166292,7,25,-1.0997490882873535,3.453359842300415,24.59263142226459,24.5153315597409,98.26320860817766,89.40000334284545,-0.0002590179501567,0.0948198437690734,0,0,0
8235,288212.90366583463,2010-10-25 21:27:28,2941.487154050865,7,25,-1.0997490882873535,3.440732717514038,24.59263142226459,24.524500595438376,98.26320860817766,89.43161064594685,-0.0003237724304199,0.0948198437690734,0,0,0
8236,288242.91895475506,2010-10-25 21:27:58,2971.502443006416,7,25,-1.099929690361023,3.425515651702881,24.59263142226459,24.53366969214031,98.26320860817766,89.46309154396398,-0.0004532813909463,0.0948198437690734,0,0,0
8237,288272.9340138027,2010-10-25 21:28:28,3001.51750204394,7,25,-1.0997490882873535,3.406413078308105,24.59263142226459,24.542838721402592,98.26320860817766,89.49441663817292,-0.0005504131549969,0.0948198437690734,0,0,0
8238,288302.94919782167,2010-10-25 21:28:58,3031.5326860880195,7,25,-1.0997490882873535,3.3821301460266118,24.59263142226459,24.552007763327467,98.26320860817766,89.52554491646016,-0.0007446765666827,0.0948198437690734,0,0,0
8239,288332.9643929183,2010-10-25 21:29:28,3061.547881184645,7,25,-1.0997490882873535,3.3492674827575684,24.59263142226459,24.561176890955466,98.26320860817766,89.556413873937,-0.001003646873869,0.0948198437690734,0,0,0
8240,288362.9795665915,2010-10-25 21:29:58,3091.563054827802,7,25,-1.099929690361023,3.30361557006836,24.59263142226459,24.57034592635633,98.26320860817766,89.58692674753561,-0.0014245987404137,0.0948198437690734,0,0,0
8241,288392.994905276,2010-10-25 21:30:28,3121.5783936376047,7,25,-1.099929690361023,3.238699436187744,24.59263142226459,24.579514938951867,98.26320860817766,89.61693886604938,-0.0020397664047777,0.0948198437690734,0,0,0
8242,288423.0099053616,2010-10-25 21:30:58,3151.5933936029023,7,25,-1.099929690361023,3.1423773765563965,24.59263142226459,24.58868386518944,98.26320860817766,89.64622501562657,-0.0030434608925133,0.0948198437690734,0,0,0
8243,288453.0251139318,2010-10-25 21:31:28,3181.608602178121,7,25,-1.099929690361023,2.980329751968384,24.59263142226459,24.59785286631916,98.26320860817766,89.67437837847577,-0.0058279037475585,0.0948198437690734,0,0,0
8244,288471.50917950564,2010-10-25 21:31:47,3200.092667736898,7,25,-1.099929690361023,2.7802391052246094,24.59263142226459,24.603499374071497,98.26320860817766,89.69069714725381,-0.0106844427064061,0.0948198437690734,0,0,0
8245,288477.00909790955,2010-10-25 21:31:52,3205.592586155881,7,25,-1.099929690361023,2.699620008468628,24.59263142226459,24.60517949957247,98.26320860817766,89.69530149070685,-0.0118176462128758,0.0948198437690734,0,0,0
8246,288537.01314928907,2010-10-25 21:32:52,60.014750033159565,8,25,0.0,3.333564519882202,24.59263142226459,24.60517949957247,98.26320860817766,89.69530149070685,0.0012950897216796,0.0948198437690734,0,0,0
8247,288537.20645374095,2010-10-25 21:32:53,0.187508032712298,9,25,-1.9243103452026844e-05,3.333726406097412,24.59263142226459,24.60517950057476,98.26320860817766,89.69530149404838,-6.47544875391759e-05,0.0923051163554191,0,0,0
8248,288542.0346146335,2010-10-25 21:32:58,5.015668940281934,9,25,0.0003419754502829,3.34214448928833,24.592631995830736,24.60517950082591,98.26321052312971,89.69530149488632,0.0011655807029455,0.0923051163554191,0,0,0
