Data_Point,Test_Time(s),Date_Time,Step_Time(s),Step_Index,Cycle_Index,Current(A),Voltage(V),Charge_Capacity(Ah),Discharge_Capacity(Ah),Charge_Energy(Wh),Discharge_Energy(Wh),dV/dt(V/s),Internal_Resistance(Ohm),Is_FC_Data,AC_Impedance(Ohm),ACI_Phase_Angle(Deg)
6625,230952.7494899009,2010-10-25 05:33:02,30.015310649619053,1,21,0.0,3.4026896953582764,19.726233914847622,19.73537657393973,78.78368378108549,72.00309694407385,0.0008094310760498,0.0923885703086853,0,0,0
6626,230982.76462378493,2010-10-25 05:33:32,60.0304444985965,1,21,0.0,3.4272964000701904,19.726233914847622,19.73537657393973,78.78368378108549,72.00309694407385,0.0005827903514727,0.0923885703086853,0,0,0
6627,231012.77988130212,2010-10-25 05:34:02,90.04570211604306,1,21,0.0,3.446074962615967,19.726233914847622,19.73537657393973,78.78368378108549,72.00309694407385,0.0004209041653666,0.0923885703086853,0,0,0
6628,231042.7480644104,2010-10-25 05:34:32,120.0138852493908,1,21,0.0,3.460968494415283,19.726233914847622,19.73537657393973,78.78368378108549,72.00309694407385,0.0003561496851034,0.0923885703086853,0,0,0
6629,231072.75996685785,2010-10-25 05:35:02,30.01535223827077,2,21,0.5497553944587708,3.6162168979644775,19.73081934659709,19.73537657393973,78.80010862799948,72.00309694407385,0.0015217304462566,0.0923885703086853,0,0,0
6630,231102.77491419693,2010-10-25 05:35:32,60.03029954733335,2,21,0.5501165986061096,3.662354469299317,19.73540464327801,19.73537657393973,78.81680282767049,72.00309694407385,0.0010360718006268,0.0923885703086853,0,0,0
6631,231132.7901110981,2010-10-25 05:36:02,90.04549644344365,2,21,0.5499359965324402,3.69521713256836,19.73998996837403,19.73537657393973,78.83367447479054,72.00309694407385,0.0007770538213662,0.0923885703086853,0,0,0
6632,231162.80522205,2010-10-25 05:36:32,120.06060739535457,2,21,0.5497553944587708,3.720795154571533,19.744575253897,19.73537657393973,78.85067885634624,72.00309694407385,0.0006151676061563,0.0923885703086853,0,0,0
6633,231192.82036958807,2010-10-25 05:37:02,150.075754938462,2,21,0.5499359965324402,3.741516590118408,19.749160612803717,19.73537657393973,78.86778927269091,72.00309694407385,0.0004856586456298,0.0923885703086853,0,0,0
6634,231222.8355195172,2010-10-25 05:37:33,180.09090486751597,2,21,0.5501165986061096,3.758352518081665,19.75374595416776,19.73537657393973,78.88498556257005,72.00309694407385,0.0004532813909463,0.0923885703086853,0,0,0
6635,231252.85067979203,2010-10-25 05:38:03,210.1060651423548,2,21,0.5499359965324402,3.770170211791992,19.7583312854948,19.73537657393973,78.90224800392487,72.00309694407385,0.0002266406954731,0.0923885703086853,0,0,0
6636,231282.8658309842,2010-10-25 05:38:33,240.1212163495944,2,21,0.5499359965324402,3.77745509147644,19.76291658071878,19.73537657393973,78.91955341189097,72.00309694407385,0.0001618862152099,0.0923885703086853,0,0,0
6637,231312.8809637204,2010-10-25 05:39:03,270.1363491008359,2,21,0.5499359965324402,3.7819879055023193,19.767501953108287,19.73537657393973,78.93688574620859,72.00309694407385,6.47544875391759e-05,0.0923885703086853,0,0,0
6638,231342.89618640585,2010-10-25 05:39:33,300.1515718714334,2,21,0.5499359965324402,3.7861969470977774,19.77208735558674,19.73537657393973,78.9542380101326,72.00309694407385,9.713172767078504e-05,0.0923885703086853,0,0,0
6639,231372.9112909468,2010-10-25 05:40:03,330.1666762970789,2,21,0.5499359965324402,3.7902441024780273,19.77667267017743,19.73537657393973,78.97160785794962,72.00309694407385,0.0001295089750783,0.0923885703086853,0,0,0
6640,231402.92654314567,2010-10-25 05:40:33,360.1819284960209,2,21,0.5499359965324402,3.7938055992126474,19.781258040887888,19.73537657393973,78.98899524753367,72.00309694407385,9.713172767078504e-05,0.0923885703086853,0,0,0
6641,231432.9415613464,2010-10-25 05:41:03,390.1969466917549,2,21,0.5501165986061096,3.797528982162476,19.78584336775475,19.73537657393973,79.00639947305098,72.00309694407385,0.0001295089750783,0.0923885703086853,0,0,0
6642,231462.95672012755,2010-10-25 05:41:33,420.2121054678583,2,21,0.5499359965324402,3.801090478897095,19.79042870699726,19.73537657393973,79.02382044376238,72.00309694407385,9.713172767078504e-05,0.0923885703086853,0,0,0
6643,231492.97208388956,2010-10-25 05:42:03,450.2274693551621,2,21,0.5501165986061096,3.804651975631714,19.79501410667867,19.73537657393973,79.04125784047042,72.00309694407385,9.713172767078504e-05,0.0923885703086853,0,0,0
6644,231522.9870275094,2010-10-25 05:42:33,480.2424128547302,2,21,0.5501165986061096,3.808051586151123,19.79959936011715,19.73537657393973,79.05871061226868,72.00309694407385,6.47544875391759e-05,0.0923885703086853,0,0,0
6645,231553.002207749,2010-10-25 05:43:03,510.25759309934,2,21,0.5499359965324402,3.811451196670532,19.804184693423643,19.73537657393973,79.07617945103668,72.00309694407385,6.47544875391759e-05,0.0923885703086853,0,0,0
6646,231583.0173350216,2010-10-25 05:43:33,540.2727203719269,2,21,0.5501165986061096,3.814850807189941,19.80876997071797,19.73537657393973,79.09366348695744,72.00309694407385,9.713172767078504e-05,0.0923885703086853,0,0,0
6647,231613.0324947701,2010-10-25 05:44:03,570.287880120454,2,21,0.5499359965324402,3.8180885314941406,19.813355230625863,19.73537657393973,79.11116270673367,72.00309694407385,9.713172767078504e-05,0.0923885703086853,0,0,0
6648,231643.0476339975,2010-10-25 05:44:33,600.3030193478362,2,21,0.5499359965324402,3.82132625579834,19.817940477221047,19.73537657393973,79.12867685786901,72.00309694407385,6.47544875391759e-05,0.0923885703086853,0,0,0
6649,231673.06278372105,2010-10-25 05:45:03,630.3181692768901,2,21,0.5495747923851013,3.824402093887329,19.82252580180548,19.73537657393973,79.14620605867503,72.00309694407385,6.47544875391759e-05,0.0923885703086853,0,0,0
6650,231703.07792027172,2010-10-25 05:45:33,660.3333056220889,2,21,0.5497553944587708,3.827639818191528,19.827111136403023,19.73537657393973,79.1637501067076,72.00309694407385,6.47544875391759e-05,0.0923885703086853,0,0,0
6651,231733.09320134768,2010-10-25 05:46:03,690.3485867080261,2,21,0.5499359965324402,3.8310394287109375,19.831696506815504,19.73537657393973,79.18130909423127,72.00309694407385,9.713172767078504e-05,0.0923885703086853,0,0,0
6652,231763.1082435783,2010-10-25 05:46:33,720.3636289186124,2,21,0.5499359965324402,3.834115028381348,19.836281798847565,19.73537657393973,79.19888273798517,72.00309694407385,6.47544875391759e-05,0.0923885703086853,0,0,0
6653,231793.12351405772,2010-10-25 05:47:03,750.3788994081403,2,21,0.5499359965324402,3.837676525115967,19.840867123742925,19.73537657393973,79.21647168610602,72.00309694407385,9.713172767078504e-05,0.0923885703086853,0,0,0
6654,231823.13851075995,2010-10-25 05:47:33,780.3938961153183,2,21,0.5499359965324402,3.840914249420166,19.84545237573355,19.73537657393973,79.23407571706112,72.00309694407385,9.713172767078504e-05,0.0923885703086853,0,0,0
6655,231853.1538226076,2010-10-25 05:48:03,810.4092080932478,2,21,0.5499359965324402,3.844475746154785,19.850037673641445,19.73537657393973,79.25169551411456,72.00309694407385,9.713172767078504e-05,0.0923885703086853,0,0,0
6656,231883.168812202,2010-10-25 05:48:33,840.4241975473489,2,21,0.5501165986061096,3.847713470458984,19.854622926661133,19.73537657393973,79.26933083459606,72.00309694407385,3.237724376958795e-05,0.0923885703086853,0,0,0
6657,231913.1840840349,2010-10-25 05:49:03,870.4394694904994,2,21,0.5501165986061096,3.8511130809783936,19.859208248103016,19.73537657393973,79.28698200187301,72.00309694407385,6.47544875391759e-05,0.0923885703086853,0,0,0
6658,231943.1991835984,2010-10-25 05:49:33,900.454569064052,2,21,0.5499359965324402,3.8546745777130127,19.86379356274493,19.73537657393973,79.30464863276929,72.00309694407385,9.713172767078504e-05,0.0923885703086853,0,0,0
6659,231973.21429041,2010-10-25 05:50:03,930.4696757603566,2,21,0.5501165986061096,3.857912302017212,19.86837888135502,19.73537657393973,79.32233060847955,72.00309694407385,0.0001295089750783,0.0923885703086853,0,0,0
6660,232003.22941179297,2010-10-25 05:50:33,960.4847971382524,2,21,0.5499359965324402,3.861150026321411,19.872964179059625,19.73537657393973,79.34002746552645,72.00309694407385,9.713172767078504e-05,0.0923885703086853,0,0,0
6661,232033.24479679283,2010-10-25 05:51:03,990.5001822434374,2,21,0.5499359965324402,3.8642258644104,19.877549610479782,19.73537657393973,79.35773951889496,72.00309694407385,9.713172767078504e-05,0.0923885703086853,0,0,0
6662,232063.25972465845,2010-10-25 05:51:33,1020.5151100539036,2,21,0.5501165986061096,3.8674635887146,19.88213492751635,19.73537657393973,79.3754654935971,72.00309694407385,9.713172767078504e-05,0.0923885703086853,0,0,0
6663,232093.27486959004,2010-10-25 05:52:03,1050.530254970465,2,21,0.5501165986061096,3.870377540588379,19.88672021546016,19.73537657393973,79.39320537970278,72.00309694407385,6.47544875391759e-05,0.0923885703086853,0,0,0
6664,232123.2900129528,2010-10-25 05:52:33,1080.545398298066,2,21,0.5501165986061096,3.873453378677368,19.8913055378728,19.73537657393973,79.41095903788546,72.00309694407385,9.713172767078504e-05,0.0923885703086853,0,0,0
6665,232153.30527135715,2010-10-25 05:53:03,1110.5606567175114,2,21,0.5499359965324402,3.876043558120728,19.89589089551224,19.73537657393973,79.42872599085034,72.00309694407385,3.237724376958795e-05,0.0923885703086853,0,0,0
6666,232183.3203500036,2010-10-25 05:53:33,1140.575735383957,2,21,0.5499359965324402,3.878795623779297,19.900476205814886,19.73537657393973,79.44650539710497,72.00309694407385,6.47544875391759e-05,0.0923885703086853,0,0,0
6667,232213.3354719829,2010-10-25 05:54:03,1170.5908573282643,2,21,0.5499359965324402,3.881385803222656,19.90506159653496,19.73537657393973,79.46429713531047,72.00309694407385,6.47544875391759e-05,0.0923885703086853,0,0,0
6668,232243.35061066892,2010-10-25 05:54:33,1200.6059960142973,2,21,0.5499359965324402,3.8838140964508057,19.90964696688114,19.73537657393973,79.48210028268059,72.00309694407385,3.237724376958795e-05,0.0923885703086853,0,0,0
6669,232273.3683662772,2010-10-25 05:55:03,1230.623751742805,2,21,0.5501165986061096,3.886080503463745,19.91423270203504,19.73537657393973,79.49991560543775,72.00309694407385,6.47544875391759e-05,0.0923885703086853,0,0,0
6670,232303.38113792884,2010-10-25 05:55:33,1260.6365232791727,2,21,0.5501165986061096,3.888346910476685,19.918817726638977,19.73537657393973,79.51773837110669,72.00309694407385,9.713172767078504e-05,0.0923885703086853,0,0,0
6671,232333.39607660132,2010-10-25 05:56:03,1290.6514619817856,2,21,0.5501165986061096,3.890289545059204,19.92340310913197,19.73537657393973,79.53557206966839,72.00309694407385,6.47544875391759e-05,0.0923885703086853,0,0,0
6672,232363.41121836007,2010-10-25 05:56:33,1320.6666037104014,2,21,0.5499359965324402,3.892232179641724,19.927988395310944,19.73537657393973,79.5534143303449,72.00309694407385,6.47544875391759e-05,0.0923885703086853,0,0,0
6673,232393.4263660786,2010-10-25 05:57:03,1350.6817514540085,2,21,0.5499359965324402,3.8938510417938232,19.93257383541366,19.73537657393973,79.57126552552798,72.00309694407385,0.0,0.0923885703086853,0,0,0
6674,232423.4414869903,2010-10-25 05:57:33,1380.6968723707548,2,21,0.5501165986061096,3.895631790161133,19.93715928182243,19.73537657393973,79.58912425382889,72.00309694407385,6.47544875391759e-05,0.0923885703086853,0,0,0
6675,232453.456864652,2010-10-25 05:58:03,1410.712250027376,2,21,0.5501165986061096,3.896926879882813,19.94174497265073,19.73537657393973,79.60699117421976,72.00309694407385,3.237724376958795e-05,0.0923885703086853,0,0,0
6676,232483.47174483372,2010-10-25 05:58:33,1440.7271302041245,2,21,0.5499359965324402,3.898383855819702,19.94633122412348,19.73537657393973,79.62486718758083,72.00309694407385,3.237724376958795e-05,0.0923885703086853,0,0,0
6677,232513.48692636652,2010-10-25 05:59:03,1470.7423118422066,2,21,0.5501165986061096,3.9000027179718018,19.950917400494596,19.73537657393973,79.64274944720893,72.00309694407385,6.47544875391759e-05,0.0923885703086853,0,0,0
6678,232543.50212475137,2010-10-25 05:59:33,1500.7575100967024,2,21,0.5501165986061096,3.901135921478272,19.95550383622271,19.73537657393973,79.66063891800731,72.00309694407385,3.237724376958795e-05,0.0923885703086853,0,0,0
6679,232573.51722188885,2010-10-25 06:00:03,1530.7726072341836,2,21,0.5501165986061096,3.902431011199951,19.960090211382106,19.73537657393973,79.67853433413313,72.00309694407385,3.237724376958795e-05,0.0923885703086853,0,0,0
6680,232603.5323775021,2010-10-25 06:00:33,1560.787762842392,2,21,0.5501165986061096,3.903887987136841,19.964676519076036,19.73537657393973,79.69643546050328,72.00309694407385,3.237724376958795e-05,0.0923885703086853,0,0,0
6681,232633.54750582727,2010-10-25 06:01:03,1590.802891177627,2,21,0.5499359965324402,3.905021190643311,19.9692627767074,19.73537657393973,79.71434237739486,72.00309694407385,3.237724376958795e-05,0.0923885703086853,0,0,0
6682,232663.562653626,2010-10-25 06:01:33,1620.8180390064467,2,21,0.5499359965324402,3.9063162803649902,19.973848388434767,19.73537657393973,79.73225254758138,72.00309694407385,3.237724376958795e-05,0.0923885703086853,0,0,0
6683,232693.5778328832,2010-10-25 06:02:03,1650.8332182635954,2,21,0.5499359965324402,3.90744948387146,19.97843397988585,19.73537657393973,79.7501685579248,72.00309694407385,0.0,0.0923885703086853,0,0,0
6684,232723.59295549407,2010-10-25 06:02:33,1680.8483409347143,2,21,0.5499359965324402,3.9089064598083496,19.9830195526882,19.73537657393973,79.76809037175379,72.00309694407385,0.0,0.0923885703086853,0,0,0
6685,232753.60823833445,2010-10-25 06:03:03,1710.863623714874,2,21,0.5499359965324402,3.910201549530029,19.9876051742255,19.73537657393973,79.78601838527467,72.00309694407385,3.237724376958795e-05,0.0923885703086853,0,0,0
6686,232783.62328882568,2010-10-25 06:03:33,1740.8786741659983,2,21,0.5499359965324402,3.911496639251709,19.9921907691636,19.73537657393973,79.80395211439038,72.00309694407385,0.0,0.0923885703086853,0,0,0
6687,232813.63843739635,2010-10-25 06:04:03,1770.8938227366668,2,21,0.5499359965324402,3.9127917289733887,19.99677641555961,19.73537657393973,79.82189209563167,72.00309694407385,0.0,0.0923885703086853,0,0,0
6688,232843.65355596723,2010-10-25 06:04:33,1800.9089413175916,2,21,0.5499359965324402,3.914086580276489,20.001361990385053,19.73537657393973,79.83983776832179,72.00309694407385,3.237724376958795e-05,0.0923885703086853,0,0,0
6689,232873.6687018312,2010-10-25 06:05:03,1830.924087171489,2,21,0.5499359965324402,3.915543556213379,20.00594761094607,19.73537657393973,79.8577897198228,72.00309694407385,0.0,0.0923885703086853,0,0,0
6690,232903.6838734844,2010-10-25 06:05:33,1860.9392588196736,2,21,0.5497553944587708,3.9166767597198486,20.01053323088028,19.73537657393973,79.87574756634586,72.00309694407385,0.0,0.0923885703086853,0,0,0
6691,232933.6990202355,2010-10-25 06:06:03,1890.954405610907,2,21,0.5501165986061096,3.918295621871948,20.01511885431833,19.73537657393973,79.89371168485255,72.00309694407385,3.237724376958795e-05,0.0923885703086853,0,0,0
6692,232963.71414564343,2010-10-25 06:06:33,1920.9695309987967,2,21,0.5501165986061096,3.919590711593628,20.019704539255287,19.73537657393973,79.91168216352015,72.00309694407385,6.47544875391759e-05,0.0923885703086853,0,0,0
6693,232993.72942396248,2010-10-25 06:07:03,1950.984809408063,2,21,0.5499359965324402,3.920885801315308,20.024290124144425,19.73537657393973,79.9296584230764,72.00309694407385,6.47544875391759e-05,0.0923885703086853,0,0,0
6694,233023.74445862425,2010-10-25 06:07:33,1980.9998440598104,2,21,0.5499359965324402,3.9221808910369873,20.02887571703588,19.73537657393973,79.94764093764421,72.00309694407385,6.47544875391759e-05,0.0923885703086853,0,0,0
6695,233053.75961224752,2010-10-25 06:08:03,2011.0149975978595,2,21,0.5497553944587708,3.923475980758667,20.033461242434843,19.73537657393973,79.96562951342598,72.00309694407385,3.237724376958795e-05,0.0923885703086853,0,0,0
6696,233083.77486359436,2010-10-25 06:08:33,2041.0302489446776,2,21,0.5501165986061096,3.925094842910767,20.038046844971795,19.73537657393973,79.98362479828108,72.00309694407385,6.47544875391759e-05,0.0923885703086853,0,0,0
6697,233113.7898868176,2010-10-25 06:09:03,2071.045272162929,2,21,0.5497553944587708,3.9263899326324463,20.04263247279284,19.73537657393973,80.00162653971014,72.00309694407385,6.47544875391759e-05,0.0923885703086853,0,0,0
6698,233143.8051599888,2010-10-25 06:09:34,2101.060545339153,2,21,0.5501165986061096,3.927846908569336,20.047218071018804,19.73537657393973,80.01963462548662,72.00309694407385,3.237724376958795e-05,0.0923885703086853,0,0,0
6699,233173.82021133212,2010-10-25 06:10:04,2131.075596672476,2,21,0.5499359965324402,3.9293038845062256,20.051803623614568,19.73537657393973,80.03764898503313,72.00309694407385,6.47544875391759e-05,0.0923885703086853,0,0,0
6700,233203.8354055967,2010-10-25 06:10:34,2161.090790987153,2,21,0.5501165986061096,3.930922746658325,20.056389248731225,19.73537657393973,80.05567023928498,72.00309694407385,9.713172767078504e-05,0.0923885703086853,0,0,0
6701,233233.8504791304,2010-10-25 06:11:04,2191.105864480706,2,21,0.5501165986061096,3.932055950164795,20.060974835946745,19.73537657393973,80.07369789834479,72.00309694407385,3.237724376958795e-05,0.0923885703086853,0,0,0
6702,233263.8656123578,2010-10-25 06:11:34,2221.1209977031217,2,21,0.5501165986061096,3.933512926101685,20.06556047842207,19.73537657393973,80.09173249851067,72.00309694407385,0.0,0.0923885703086853,0,0,0
6703,233293.8807754396,2010-10-25 06:12:04,2251.1361607849567,2,21,0.5501165986061096,3.935131788253784,20.07014610098869,19.73537657393973,80.10977370849008,72.00309694407385,6.47544875391759e-05,0.0923885703086853,0,0,0
6704,233323.89591192012,2010-10-25 06:12:34,2281.15129726048,2,21,0.5499359965324402,3.936264991760254,20.074731738996093,19.73537657393973,80.12782172969303,72.00309694407385,0.0,0.0923885703086853,0,0,0
6705,233353.91106059108,2010-10-25 06:13:04,2311.1664459364106,2,21,0.5499359965324402,3.938045740127564,20.079317357870178,19.73537657393973,80.1458764487651,72.00309694407385,6.47544875391759e-05,0.0923885703086853,0,0,0
6706,233383.9262121141,2010-10-25 06:13:34,2341.1815974644496,2,21,0.5499359965324402,3.939502716064453,20.0839029776244,19.73537657393973,80.16393812139613,72.00309694407385,6.47544875391759e-05,0.0923885703086853,0,0,0
6707,233413.9415625028,2010-10-25 06:14:04,2371.196947943336,2,21,0.5499359965324402,3.940959692001343,20.088488652656395,19.73537657393973,80.18200700310688,72.00309694407385,3.237724376958795e-05,0.0923885703086853,0,0,0
6708,233443.95665737963,2010-10-25 06:14:34,2401.2120427399827,2,21,0.5499359965324402,3.9425785541534415,20.093074241379423,19.73537657393973,80.20008244756309,72.00309694407385,3.237724376958795e-05,0.0923885703086853,0,0,0
6709,233473.97167328463,2010-10-25 06:15:04,2431.227058665057,2,21,0.5501165986061096,3.944197416305542,20.09765986659647,19.73537657393973,80.21816511855123,72.00309694407385,3.237724376958795e-05,0.0923885703086853,0,0,0
6710,233503.98680406096,2010-10-25 06:15:34,2461.242189536614,2,21,0.5499359965324402,3.945654392242432,20.10224553915817,19.73537657393973,80.23625510596536,72.00309694407385,3.237724376958795e-05,0.0923885703086853,0,0,0
6711,233534.00196587463,2010-10-25 06:16:04,2491.257351219964,2,21,0.5499359965324402,3.947111368179321,20.106831229264618,19.73537657393973,80.25435227440757,72.00309694407385,0.0,0.0923885703086853,0,0,0
6712,233564.01713118705,2010-10-25 06:16:34,2521.27251655742,2,21,0.5499359965324402,3.948568344116211,20.111416846833684,19.73537657393973,80.2724563382844,72.00309694407385,0.0,0.0923885703086853,0,0,0
6713,233594.03225287568,2010-10-25 06:17:04,2551.287638221028,2,21,0.5497553944587708,3.950349092483521,20.11600244624861,19.73537657393973,80.29056756222755,72.00309694407385,3.237724376958795e-05,0.0923885703086853,0,0,0
6714,233624.0473966845,2010-10-25 06:17:34,2581.3027820348407,2,21,0.5497553944587708,3.95180606842041,20.120588105392603,19.73537657393973,80.3086863679133,72.00309694407385,0.0,0.0923885703086853,0,0,0
6715,233654.0625705532,2010-10-25 06:18:04,2611.317955893535,2,21,0.5499359965324402,3.95358681678772,20.125173764436365,19.73537657393973,80.32681253848376,72.00309694407385,6.47544875391759e-05,0.0923885703086853,0,0,0
6716,233684.0776930489,2010-10-25 06:18:34,2641.333078394229,2,21,0.5499359965324402,3.955367565155029,20.12975935937749,19.73537657393973,80.34494585800249,72.00309694407385,9.713172767078504e-05,0.0923885703086853,0,0,0
6717,233714.09284052684,2010-10-25 06:19:04,2671.3482258972363,2,21,0.5501165986061096,3.956824541091919,20.13434504726048,19.73537657393973,80.36308707112092,72.00309694407385,6.47544875391759e-05,0.0923885703086853,0,0,0
6718,233744.10813874548,2010-10-25 06:19:34,2701.3635241158736,2,21,0.5497553944587708,3.9584434032440186,20.13893073286648,19.73537657393973,80.38123569933578,72.00309694407385,3.237724376958795e-05,0.0923885703086853,0,0,0
6719,233774.12317725684,2010-10-25 06:20:04,2731.3785626021777,2,21,0.5501165986061096,3.960386037826538,20.143516397836077,19.73537657393973,80.39939197283329,72.00309694407385,9.713172767078504e-05,0.0923885703086853,0,0,0
6720,233804.1382825597,2010-10-25 06:20:34,2761.3936679400967,2,21,0.5499359965324402,3.9616811275482178,20.14810196164164,19.73537657393973,80.41755550070458,72.00309694407385,0.0,0.0923885703086853,0,0,0
6721,233834.15343039352,2010-10-25 06:21:04,2791.408815763904,2,21,0.5497553944587708,3.9634618759155273,20.15268759019614,19.73537657393973,80.43572696499481,72.00309694407385,3.237724376958795e-05,0.0923885703086853,0,0,0
6722,233864.16860098907,2010-10-25 06:21:34,2821.42398632939,2,21,0.5499359965324402,3.965080738067627,20.15727324591305,19.73537657393973,80.45390636679124,72.00309694407385,0.0,0.0923885703086853,0,0,0
6723,233894.18374465752,2010-10-25 06:22:04,2851.4391300028533,2,21,0.5501165986061096,3.9670233726501465,20.161858847763067,19.73537657393973,80.4720934455377,72.00309694407385,6.47544875391759e-05,0.0923885703086853,0,0,0
6724,233924.1988781907,2010-10-25 06:22:34,2881.4542635310318,2,21,0.550297200679779,3.968804121017456,20.16644458771816,19.73537657393973,80.49028887852582,72.00309694407385,6.47544875391759e-05,0.0923885703086853,0,0,0
6725,233954.21445355008,2010-10-25 06:23:04,2911.469839115951,2,21,0.5499359965324402,3.9702610969543457,20.1710303282318,19.73537657393973,80.50849226962623,72.00309694407385,3.237724376958795e-05,0.0923885703086853,0,0,0
6726,233984.2291745,2010-10-25 06:23:34,2941.48455985032,2,21,0.5501165986061096,3.9720418453216553,20.17561595005284,19.73537657393973,80.52670326156057,72.00309694407385,3.237724376958795e-05,0.0923885703086853,0,0,0
6727,234014.2443333713,2010-10-25 06:24:04,2971.4997187216604,2,21,0.5499359965324402,3.973984479904175,20.18020161695691,19.73537657393973,80.54492244832365,72.00309694407385,3.237724376958795e-05,0.0923885703086853,0,0,0
6728,234044.25950015732,2010-10-25 06:24:34,3001.514886339801,2,21,0.5499359965324402,3.975765228271485,20.18478728976069,19.73537657393973,80.56314980009452,72.00309694407385,3.237724376958795e-05,0.0923885703086853,0,0,0
6729,234074.274804792,2010-10-25 06:25:04,3031.530190162405,2,21,0.5501165986061096,3.977545976638794,20.18937300248678,19.73537657393973,80.58138553163883,72.00309694407385,3.237724376958795e-05,0.0923885703086853,0,0,0
6730,234104.2898963355,2010-10-25 06:25:34,3061.5452816858938,2,21,0.5501165986061096,3.979326725006104,20.19395862910006,19.73537657393973,80.59962869527223,72.00309694407385,3.237724376958795e-05,0.0923885703086853,0,0,0
6731,234134.3049210575,2010-10-25 06:26:04,3091.5603064078937,2,21,0.5499359965324402,3.981269359588623,20.198544216615232,19.73537657393973,80.61788059159439,72.00309694407385,6.47544875391759e-05,0.0923885703086853,0,0,0
6732,234164.32006362325,2010-10-25 06:26:34,3121.5754489936458,2,21,0.5499359965324402,3.982888221740722,20.20312977323283,19.73537657393973,80.63614079341697,72.00309694407385,0.0,0.0923885703086853,0,0,0
6733,234194.33787152177,2010-10-25 06:27:04,3151.59325699744,2,21,0.5501165986061096,3.984830856323242,20.207715780902667,19.73537657393973,80.65441121107142,72.00309694407385,0.0,0.0923885703086853,0,0,0
6734,234224.35071240092,2010-10-25 06:27:34,3181.6060977914185,2,21,0.5501165986061096,3.9870972633361816,20.21230099416165,19.73537657393973,80.6726870295841,72.00309694407385,9.713172767078504e-05,0.0923885703086853,0,0,0
6735,234254.3655267236,2010-10-25 06:28:04,3211.620912073938,2,21,0.5499359965324402,3.988392353057861,20.216886545670192,19.73537657393973,80.69097281909232,72.00309694407385,0.0,0.0923885703086853,0,0,0
6736,234284.38067361503,2010-10-25 06:28:34,3241.6360589654214,2,21,0.5497553944587708,3.990658760070801,20.22147201653755,19.73537657393973,80.70926702762412,72.00309694407385,6.47544875391759e-05,0.0923885703086853,0,0,0
6737,234314.3958003764,2010-10-25 06:29:04,3271.651185726734,2,21,0.5499359965324402,3.99260139465332,20.22605757237146,19.73537657393973,80.7275704387721,72.00309694407385,3.237724376958795e-05,0.0923885703086853,0,0,0
6738,234344.410953333,2010-10-25 06:29:34,3301.666338703384,2,21,0.5501165986061096,3.994381904602051,20.23064314035892,19.73537657393973,80.74588276156751,72.00309694407385,3.237724376958795e-05,0.0923885703086853,0,0,0
6739,234374.4262992054,2010-10-25 06:30:04,3331.681684545714,2,21,0.5499359965324402,3.99648642539978,20.23522876808088,19.73537657393973,80.76420438445827,72.00309694407385,6.47544875391759e-05,0.0923885703086853,0,0,0
6740,234404.4412614517,2010-10-25 06:30:34,3361.696646797018,2,21,0.5501165986061096,3.9984290599823,20.23981434491444,19.73537657393973,80.78253496409302,72.00309694407385,0.0,0.0923885703086853,0,0,0
6741,234434.45641123035,2010-10-25 06:31:04,3391.7117966308338,2,21,0.5497553944587708,4.000371932983398,20.24439986703407,19.73537657393973,80.80087427171271,72.00309694407385,6.47544875391759e-05,0.0923885703086853,0,0,0
6742,234464.4715145884,2010-10-25 06:31:34,3421.726899938694,2,21,0.5499359965324402,4.002476215362549,20.24898535766273,19.73537657393973,80.81922274550197,72.00309694407385,6.47544875391759e-05,0.0923885703086853,0,0,0
6743,234494.4866942916,2010-10-25 06:32:04,3451.7420796419538,2,21,0.5499359965324402,4.004418849945068,20.25357089814139,19.73537657393973,80.8375807366891,72.00309694407385,6.47544875391759e-05,0.0923885703086853,0,0,0
6744,234524.50180838132,2010-10-25 06:32:34,3481.757193726673,2,21,0.5499359965324402,4.006361484527588,20.258156385200863,19.73537657393973,80.85594800089228,72.00309694407385,3.23295607813634e-05,0.0923885703086853,0,0,0
6745,234554.51696216,2010-10-25 06:33:04,3511.772347500309,2,21,0.5499359965324402,4.008627891540527,20.26274190442751,19.73537657393973,80.87432501192743,72.00309694407385,3.23295607813634e-05,0.0923885703086853,0,0,0
6746,234584.53210896623,2010-10-25 06:33:34,3541.7874943166044,2,21,0.5501165986061096,4.010732650756836,20.267327505529348,19.73537657393973,80.89271200369542,72.00309694407385,0.0,0.0923885703086853,0,0,0
6747,234614.5472708952,2010-10-25 06:34:04,3571.802656235541,2,21,0.5501165986061096,4.013160705566406,20.27191309399144,19.73537657393973,80.91110880733353,72.00309694407385,9.70840483205393e-05,0.0923885703086853,0,0,0
6748,234644.56241368648,2010-10-25 06:34:34,3601.8177990618924,2,21,0.5499359965324402,4.015103340148926,20.276498719323293,19.73537657393973,80.92951574628934,72.00309694407385,3.23295607813634e-05,0.0923885703086853,0,0,0
6749,234674.57767118863,2010-10-25 06:35:04,3631.833056533977,2,21,0.5499359965324402,4.017531871795654,20.28108433354968,19.73537657393973,80.94793267563004,72.00309694407385,9.71794142969884e-05,0.0923885703086853,0,0,0
6750,234704.5927101712,2010-10-25 06:35:34,3661.8480956017306,2,21,0.5499359965324402,4.019474506378174,20.28566994001837,19.73537657393973,80.96635973412542,72.00309694407385,6.47544875391759e-05,0.0923885703086853,0,0,0
6751,234734.60789268644,2010-10-25 06:36:04,3691.863278081912,2,21,0.5501165986061096,4.021902561187744,20.290255465171445,19.73537657393973,80.98479674543276,72.00309694407385,6.47544875391759e-05,0.0923885703086853,0,0,0
6752,234764.6230069015,2010-10-25 06:36:34,3721.878392246831,2,21,0.5499359965324402,4.024168968200684,20.29484100153298,19.73537657393973,81.00324426015393,72.00309694407385,9.70840483205393e-05,0.0923885703086853,0,0,0
6753,234794.6382579977,2010-10-25 06:37:04,3751.8936433480367,2,21,0.5499359965324402,4.026435375213623,20.29942657567121,19.73537657393973,81.02170236671063,72.00309694407385,6.47544875391759e-05,0.0923885703086853,0,0,0
6754,234824.65329593263,2010-10-25 06:37:34,3781.9086813030167,2,21,0.5501165986061096,4.028863906860352,20.30401211763209,19.73537657393973,81.04017097557107,72.00309694407385,6.47544875391759e-05,0.0923885703086853,0,0,0
6755,234854.66856665272,2010-10-25 06:38:04,3811.9239520431697,2,21,0.5501165986061096,4.031291961669922,20.30859766919963,19.73537657393973,81.05865027801356,72.00309694407385,9.70840483205393e-05,0.0923885703086853,0,0,0
6756,234884.6835676456,2010-10-25 06:38:34,3841.938952990916,2,21,0.5501165986061096,4.033396720886231,20.31318317538616,19.73537657393973,81.07714015111924,72.00309694407385,9.71794142969884e-05,0.0923885703086853,0,0,0
6757,234914.6989830864,2010-10-25 06:39:04,3871.954368536969,2,21,0.5499359965324402,4.035824775695801,20.31776879883977,19.73537657393973,81.09564131359947,72.00309694407385,6.47544875391759e-05,0.0923885703086853,0,0,0
6758,234944.71386853623,2010-10-25 06:39:34,3901.9692539317225,2,21,0.5497553944587708,4.03809118270874,20.32235439176068,19.73537657393973,81.11415335658904,72.00309694407385,6.47544875391759e-05,0.0923885703086853,0,0,0
6759,234974.72902726225,2010-10-25 06:40:04,3931.984412607576,2,21,0.5501165986061096,4.040519237518311,20.326940029069508,19.73537657393973,81.1326765455546,72.00309694407385,6.47544875391759e-05,0.0923885703086853,0,0,0
6760,235004.744287396,2010-10-25 06:40:34,3961.9996727813937,2,21,0.5501165986061096,4.04310941696167,20.331525620513467,19.73537657393973,81.15121063304363,72.00309694407385,6.47544875391759e-05,0.0923885703086853,0,0,0
6761,235034.75930677968,2010-10-25 06:41:04,3992.014692124989,2,21,0.5501165986061096,4.045537948608398,20.336111181083584,19.73537657393973,81.1697558092553,72.00309694407385,6.47544875391759e-05,0.0923885703086853,0,0,0
6762,235064.774453611,2010-10-25 06:41:35,4022.0298389513086,2,21,0.5497553944587708,4.047804355621338,20.340696690814887,19.73537657393973,81.18831211783692,72.00309694407385,0.0,0.0923885703086853,0,0,0
6763,235094.78962826665,2010-10-25 06:42:05,4052.0450136370646,2,21,0.5501165986061096,4.050556182861328,20.34528232287881,19.73537657393973,81.20688034618601,72.00309694407385,9.70840483205393e-05,0.0923885703086853,0,0,0
6764,235124.80477864185,2010-10-25 06:42:35,4082.060164037293,2,21,0.5501165986061096,4.052984714508057,20.34986798809816,19.73537657393973,81.22546012753915,72.00309694407385,6.47544875391759e-05,0.0923885703086853,0,0,0
6765,235154.81989540323,2010-10-25 06:43:05,4112.075280753571,2,21,0.5497553944587708,4.055251121520996,20.35445360899592,19.73537657393973,81.24405135994883,72.00309694407385,0.0,0.0923885703086853,0,0,0
6766,235184.83504362305,2010-10-25 06:43:35,4142.090428968352,2,21,0.5499359965324402,4.058002948760986,20.359039238049704,19.73537657393973,81.26265435247144,72.00309694407385,6.47544875391759e-05,0.0923885703086853,0,0,0
6767,235214.8502024392,2010-10-25 06:44:05,4172.105587784556,2,21,0.5499359965324402,4.060593128204346,20.363624901357102,19.73537657393973,81.28126937152815,72.00309694407385,6.47544875391759e-05,0.0923885703086853,0,0,0
6768,235244.8653358421,2010-10-25 06:44:35,4202.120721187421,2,21,0.5501165986061096,4.063345432281494,20.36821053161865,19.73537657393973,81.2998957330056,72.00309694407385,9.71794142969884e-05,0.0923885703086853,0,0,0
6769,235274.8804836208,2010-10-25 06:45:05,4232.135868996191,2,21,0.5501165986061096,4.0659356117248535,20.37279616473155,19.73537657393973,81.3185342842524,72.00309694407385,9.71794142969884e-05,0.0923885703086853,0,0,0
6770,235304.89563081303,2010-10-25 06:45:35,4262.15101618341,2,21,0.5497553944587708,4.068525791168213,20.37738173108769,19.73537657393973,81.33718474545164,72.00309694407385,6.47544875391759e-05,0.0923885703086853,0,0,0
6771,235334.91102092067,2010-10-25 06:46:05,4292.1664063010885,2,21,0.5501165986061096,4.071277618408203,20.38196738478807,19.73537657393973,81.35584782532166,72.00309694407385,6.47544875391759e-05,0.0923885703086853,0,0,0
6772,235364.926060214,2010-10-25 06:46:35,4322.181445664579,2,21,0.5501165986061096,4.074029922485352,20.38655293881039,19.73537657393973,81.37452281298599,72.00309694407385,9.71794142969884e-05,0.0923885703086853,0,0,0
6773,235394.94109319657,2010-10-25 06:47:05,4352.196478541904,2,21,0.5497553944587708,4.076457977294922,20.391138513046336,19.73537657393973,81.39321043932709,72.00309694407385,3.23295607813634e-05,0.0923885703086853,0,0,0
6774,235424.95622359696,2010-10-25 06:47:35,4382.211608967349,2,21,0.5501165986061096,4.079371929168701,20.39572413362708,19.73537657393973,81.41191088890713,72.00309694407385,3.23295607813634e-05,0.0923885703086853,0,0,0
6775,235454.9713802979,2010-10-25 06:48:05,4412.226765648231,2,21,0.5499359965324402,4.0822858810424805,20.40030975529284,19.73537657393973,81.43062405927114,72.00309694407385,6.47544875391759e-05,0.0923885703086853,0,0,0
6776,235484.98651233732,2010-10-25 06:48:35,4442.241897712761,2,21,0.5499359965324402,4.085038185119629,20.40489521608369,19.73537657393973,81.44934945581763,72.00309694407385,6.47544875391759e-05,0.0923885703086853,0,0,0
6777,235515.00167643672,2010-10-25 06:49:05,4472.25706178707,2,21,0.5499359965324402,4.087952136993408,20.40948083082817,19.73537657393973,81.46808851375762,72.00309694407385,9.71794142969884e-05,0.0923885703086853,0,0,0
6778,235545.0168278044,2010-10-25 06:49:35,4502.272213154709,2,21,0.5499359965324402,4.090866088867188,20.41406639228225,19.73537657393973,81.48684049633839,72.00309694407385,6.47544875391759e-05,0.0923885703086853,0,0,0
6779,235575.03197255053,2010-10-25 06:50:05,4532.287357986057,2,21,0.550297200679779,4.093780040740967,20.41865204017232,19.73537657393973,81.50560609096254,72.00309694407385,9.71794142969884e-05,0.0923885703086853,0,0,0
6780,235605.04709214892,2010-10-25 06:50:35,4562.302477494294,2,21,0.5501165986061096,4.096693992614746,20.423237594879065,19.73537657393973,81.52438466213529,72.00309694407385,6.47544875391759e-05,0.0923885703086853,0,0,0
6781,235635.0622376971,2010-10-25 06:51:05,4592.3176230374165,2,21,0.5501165986061096,4.099607944488525,20.427823139447288,19.73537657393973,81.54317661898885,72.00309694407385,9.71794142969884e-05,0.0923885703086853,0,0,0
6782,235665.0773802528,2010-10-25 06:51:35,4622.332765598107,2,21,0.5499359965324402,4.102521896362305,20.43240874604663,19.73537657393973,81.56198242644332,72.00309694407385,9.71794142969884e-05,0.0923885703086853,0,0,0
6783,235695.092668256,2010-10-25 06:52:05,4652.348053646396,2,21,0.5499359965324402,4.105597496032715,20.43699432349231,19.73537657393973,81.5808018794859,72.00309694407385,9.70840483205393e-05,0.0923885703086853,0,0,0
6784,235725.10768896292,2010-10-25 06:52:35,4682.363074303264,2,21,0.5499359965324402,4.108511447906494,20.44157987087113,19.73537657393973,81.59963509116362,72.00309694407385,6.47544875391759e-05,0.0923885703086853,0,0,0
6785,235755.12299194845,2010-10-25 06:53:05,4712.378377298806,2,21,0.5499359965324402,4.111587524414063,20.446165433218106,19.73537657393973,81.61848237176093,72.00309694407385,3.24249267578125e-05,0.0923885703086853,0,0,0
6786,235785.1379771219,2010-10-25 06:53:35,4742.393362467225,2,21,0.5497553944587708,4.114663124084473,20.45075098918444,19.73537657393973,81.63734367522433,72.00309694407385,3.23295607813634e-05,0.0923885703086853,0,0,0
6787,235815.1531360133,2010-10-25 06:54:05,4772.408521353605,2,21,0.5499359965324402,4.117738723754883,20.455336583755624,19.73537657393973,81.65621938485918,72.00309694407385,6.47544875391759e-05,0.0923885703086853,0,0,0
6788,235845.1682673861,2010-10-25 06:54:35,4802.423652731423,2,21,0.5501165986061096,4.120976448059082,20.459922147226067,19.73537657393973,81.67510935890118,72.00309694407385,9.70840483205393e-05,0.0923885703086853,0,0,0
6789,235875.1835769029,2010-10-25 06:55:05,4832.4389622732815,2,21,0.5501165986061096,4.124214172363281,20.46450779281344,19.73537657393973,81.69401413706291,72.00309694407385,6.47544875391759e-05,0.0923885703086853,0,0,0
6790,235905.1985709083,2010-10-25 06:55:35,4862.453956308801,2,21,0.5501165986061096,4.12729024887085,20.46909332179369,19.73537657393973,81.71293302339554,72.00309694407385,3.24249267578125e-05,0.0923885703086853,0,0,0
6791,235935.21372343885,2010-10-25 06:56:05,4892.469108809263,2,21,0.5499359965324402,4.130527973175049,20.473678932748303,19.73537657393973,81.73186696760698,72.00309694407385,9.71794142969884e-05,0.0923885703086853,0,0,0
6792,235965.2290153117,2010-10-25 06:56:35,4922.484400657022,2,21,0.5501165986061096,4.133927345275879,20.478264554193032,19.73537657393973,81.75081580863254,72.00309694407385,9.70840483205393e-05,0.0923885703086853,0,0,0
6793,235995.2440335676,2010-10-25 06:57:05,4952.499418963031,2,21,0.5501165986061096,4.137165069580078,20.482850045743323,19.73537657393973,81.76977899957403,72.00309694407385,0.0001295089750783,0.0923885703086853,0,0,0
6794,236025.2591476072,2010-10-25 06:57:35,4982.514532977574,2,21,0.5497553944587708,4.140402793884277,20.487435769076377,19.73537657393973,81.78875823604773,72.00309694407385,9.70840483205393e-05,0.0923885703086853,0,0,0
6795,236055.27430364143,2010-10-25 06:58:05,5012.52968902187,2,21,0.5499359965324402,4.143478870391846,20.492021405081868,19.73537657393973,81.80775227508714,72.00309694407385,3.24249267578125e-05,0.0923885703086853,0,0,0
6796,236085.28956540924,2010-10-25 06:58:35,5042.544950754573,2,21,0.5499359965324402,4.147202014923096,20.496606971750527,19.73537657393973,81.82676148944921,72.00309694407385,9.70840483205393e-05,0.0923885703086853,0,0,0
6797,236115.30719868257,2010-10-25 06:59:05,5072.562584148184,2,21,0.5499359965324402,4.150601863861084,20.501192912745648,19.73537657393973,81.8457877658533,72.00309694407385,6.47544875391759e-05,0.0923885703086853,0,0,0
6798,236145.3199608907,2010-10-25 06:59:35,5102.575346271091,2,21,0.5499359965324402,4.154001235961914,20.505778195289057,19.73537657393973,81.86482682543586,72.00309694407385,9.70840483205393e-05,0.0923885703086853,0,0,0
6799,236175.33491764328,2010-10-25 07:00:05,5132.590303013665,2,21,0.5501165986061096,4.157238960266113,20.510363684416497,19.73537657393973,81.88388209174872,72.00309694407385,9.70840483205393e-05,0.0923885703086853,0,0,0
6800,236205.3501529501,2010-10-25 07:00:35,5162.605538310481,2,21,0.5499359965324402,4.160638809204102,20.514949264919384,19.73537657393973,81.90295337242154,72.00309694407385,6.47544875391759e-05,0.0923885703086853,0,0,0
6801,236235.36517125112,2010-10-25 07:01:05,5192.620556621503,2,21,0.5497553944587708,4.164200305938721,20.519534769156778,19.73537657393973,81.92204011728198,72.00309694407385,0.0001295089750783,0.0923885703086853,0,0,0
6802,236265.38031816264,2010-10-25 07:01:35,5222.635703502961,2,21,0.550297200679779,4.167599678039551,20.524120297667658,19.73537657393973,81.94114268765256,72.00309694407385,9.70840483205393e-05,0.0923885703086853,0,0,0
6803,236295.39568561385,2010-10-25 07:02:05,5252.6510709641725,2,21,0.5501165986061096,4.17116117477417,20.528705942190246,19.73537657393973,81.9602618832033,72.00309694407385,9.70840483205393e-05,0.0923885703086853,0,0,0
6804,236325.41061974005,2010-10-25 07:02:35,5282.666005200655,2,21,0.5501165986061096,4.174722671508789,20.533291504039585,19.73537657393973,81.97939688471608,72.00309694407385,9.70840483205393e-05,0.0923885703086853,0,0,0
6805,236355.42578533312,2010-10-25 07:03:05,5312.68117079876,2,21,0.5499359965324402,4.178284168243408,20.537877063607603,19.73537657393973,81.99854813395666,72.00309694407385,6.47544875391759e-05,0.0923885703086853,0,0,0
6806,236385.44105733643,2010-10-25 07:03:35,5342.696442686773,2,21,0.5501165986061096,4.181845664978027,20.54246268056596,19.73537657393973,82.01771615136416,72.00309694407385,0.0001295089750783,0.0923885703086853,0,0,0
6807,236415.456068635,2010-10-25 07:04:05,5372.711454005367,2,21,0.5501165986061096,4.185407161712647,20.54704829178133,19.73537657393973,82.0369006740538,72.00309694407385,9.70840483205393e-05,0.0923885703086853,0,0,0
6808,236445.47128656853,2010-10-25 07:04:35,5402.726672034146,2,21,0.5499359965324402,4.189130783081055,20.551633909072287,19.73537657393973,82.05610185144089,72.00309694407385,9.71794142969884e-05,0.0923885703086853,0,0,0
6809,236475.48646714896,2010-10-25 07:05:05,5432.741852504319,2,21,0.5501165986061096,4.192853927612305,20.556219531849944,19.73537657393973,82.07531976894207,72.00309694407385,9.70840483205393e-05,0.0923885703086853,0,0,0
6810,236505.5014852745,2010-10-25 07:05:35,5462.756870619852,2,21,0.5499359965324402,4.196415424346924,20.5608050518561,19.73537657393973,82.09455412830084,72.00309694407385,0.0001295089750783,0.0923885703086853,0,0,0
6811,236532.89204937813,2010-10-25 07:06:03,5490.14743475354,2,21,0.550297200679779,4.200138568878174,20.564989709358155,19.73537657393973,82.1121220471504,72.00309694407385,0.0001295089750783,0.0923885703086853,0,0,0
6812,236562.91273742256,2010-10-25 07:06:33,30.015160274838827,3,21,0.0,4.111911296844482,20.564989709358155,19.73537657393973,82.1121220471504,72.00309694407385,-0.0003885269106831,0.0923885703086853,0,0,0
6813,236592.92807908947,2010-10-25 07:07:03,60.030502047024896,3,21,0.0,4.100903034210205,20.564989709358155,19.73537657393973,82.1121220471504,72.00309694407385,-0.0001942634553415,0.0923885703086853,0,0,0
6814,236622.94301437857,2010-10-25 07:07:33,90.04543725593015,3,21,0.0,4.094103813171387,20.564989709358155,19.73537657393973,82.1121220471504,72.00309694407385,-0.0001942634553415,0.0923885703086853,0,0,0
6815,236652.911298644,2010-10-25 07:08:03,120.01372149125513,3,21,0.0,4.089894771575928,20.564989709358155,19.73537657393973,82.1121220471504,72.00309694407385,-9.70840483205393e-05,0.0923885703086853,0,0,0
6816,236652.91911070285,2010-10-25 07:08:03,2.862133317e-06,4,21,1.0099477767944336,4.199976921081543,20.5649897101611,19.73537657393973,82.11212205052274,72.00309694407385,0.0,0.0923885703086853,0,0,0
6817,236653.4503054536,2010-10-25 07:08:03,0.531197612896758,4,21,0.9588354229927064,4.199814796447754,20.56513328922318,19.73537657393973,82.11272504543447,72.00309694407385,-3.24249267578125e-05,0.0923885703086853,0,0,0
6818,236655.2940653005,2010-10-25 07:08:05,2.374957439695857,4,21,0.908445417881012,4.199814796447754,20.565610209777333,19.73537657393973,82.11472798940964,72.00309694407385,-3.24249267578125e-05,0.0923885703086853,0,0,0
6819,236658.21577540104,2010-10-25 07:08:08,5.29666753524168,4,21,0.8584166765213013,4.199653148651123,20.56632611974128,19.73537657393973,82.11773462994921,72.00309694407385,-3.23295607813634e-05,0.0923885703086853,0,0,0
6820,236662.3095502325,2010-10-25 07:08:12,9.390442487044634,4,21,0.8083878755569458,4.199653148651123,20.56727244613031,19.73537657393973,82.1217089537908,72.00309694407385,3.24249267578125e-05,0.0923885703086853,0,0,0
6821,236667.6531255213,2010-10-25 07:08:18,14.734017660553995,4,21,0.7581784725189209,4.199814796447754,20.568433635630363,19.73537657393973,82.12658567914447,72.00309694407385,3.23295607813634e-05,0.0923885703086853,0,0,0
6822,236674.5905347196,2010-10-25 07:08:25,21.67142685886363,4,21,0.7081497311592102,4.199814796447754,20.56984504261872,19.73537657393973,82.13251326873643,72.00309694407385,0.0,0.0923885703086853,0,0,0
6823,236683.80918713292,2010-10-25 07:08:34,30.890079327323484,4,21,0.6581209897994995,4.199814796447754,20.57159200804634,19.73537657393973,82.13985012240414,72.00309694407385,0.0,0.0923885703086853,0,0,0
6824,236696.41841726413,2010-10-25 07:08:46,43.49930940343626,4,21,0.6079115867614746,4.199653148651123,20.57380490157116,19.73537657393973,82.1491437858118,72.00309694407385,-6.47544875391759e-05,0.0923885703086853,0,0,0
6825,236715.1369473156,2010-10-25 07:09:05,62.21783954008452,4,21,0.5578827857971191,4.199653148651123,20.576827237732356,19.73537657393973,82.16183693398274,72.00309694407385,-3.23295607813634e-05,0.0923885703086853,0,0,0
6826,236746.3395153159,2010-10-25 07:09:36,93.42040747015638,4,21,0.5078540444374084,4.199653148651123,20.58142707448201,19.73537657393973,82.1811551480276,72.00309694407385,0.0,0.0923885703086853,0,0,0
6827,236804.5103267016,2010-10-25 07:10:35,151.59121887087818,4,21,0.4578252732753753,4.199653148651123,20.58919115191313,19.73537657393973,82.21376245662988,72.00309694407385,-6.47544875391759e-05,0.0923885703086853,0,0,0
6828,236899.55567797663,2010-10-25 07:12:10,246.6365701409667,4,21,0.4077965021133423,4.199653148651123,20.6005862829523,19.73537657393973,82.26161946026552,72.00309694407385,-3.23295607813634e-05,0.0923885703086853,0,0,0
6829,237023.64746366368,2010-10-25 07:14:14,370.72835580292417,4,21,0.3577677309513092,4.199653148651123,20.61375427969,19.73537657393973,82.31692202871123,72.00309694407385,-6.47544875391759e-05,0.0923885703086853,0,0,0
6830,237174.02006520523,2010-10-25 07:16:44,521.1009574346833,4,21,0.3077389597892761,4.199653148651123,20.627634789971022,19.73537657393973,82.37521698775059,72.00309694407385,-3.23295607813634e-05,0.0923885703086853,0,0,0
6831,237351.0355258996,2010-10-25 07:19:41,698.116418063867,4,21,0.257710188627243,4.199653148651123,20.64151111365009,19.73537657393973,82.43349460146369,72.00309694407385,0.0,0.0923885703086853,0,0,0
6832,237566.3419333701,2010-10-25 07:23:16,913.4228255093464,4,21,0.2076814323663711,4.199653148651123,20.655389467711498,19.73537657393973,82.4917807007384,72.00309694407385,-3.23295607813634e-05,0.0923885703086853,0,0,0
6833,237846.6190440891,2010-10-25 07:27:57,1193.699936228369,4,21,0.157652661204338,4.199653148651123,20.66953909066926,19.73537657393973,82.5512059514887,72.00309694407385,-3.23295607813634e-05,0.0923885703086853,0,0,0
6834,238247.03443434136,2010-10-25 07:34:37,1594.1153265106882,4,21,0.1076238825917244,4.199653148651123,20.684130753240407,19.73537657393973,82.61248765587123,72.00309694407385,-3.23295607813634e-05,0.0923885703086853,0,0,0
6835,238957.75721837312,2010-10-25 07:46:28,2304.8381105073418,4,21,0.0574145056307315,4.199653148651123,20.69988720142741,19.73537657393973,82.67866103740806,72.00309694407385,-3.23295607813634e-05,0.0923885703086853,0,0,0
6836,239136.45759302148,2010-10-25 07:49:27,2483.538485165721,4,21,0.0498289167881011,4.199814796447754,20.70256537803589,19.73537657393973,82.68990871870649,72.00309694407385,3.23295607813634e-05,0.0923885703086853,0,0,0
6837,239166.4732882249,2010-10-25 07:49:57,30.015229888337085,5,21,0.0,4.191397190093994,20.70256537803589,19.73537657393973,82.68990871870649,72.00309694407385,-6.47544875391759e-05,0.0923885703086853,0,0,0
6838,239196.4728451564,2010-10-25 07:50:27,60.01478678976834,5,21,0.0,4.190263748168945,20.70256537803589,19.73537657393973,82.68990871870649,72.00309694407385,0.0,0.0923885703086853,0,0,0
6839,239196.6616908162,2010-10-25 07:50:27,0.187419532141645,6,21,-1.9243103452026844e-05,4.190425872802734,20.70256537803589,19.735376574941547,82.68990871870649,72.00309694827187,0.0,0.0963535830378532,0,0,0
6840,239201.48972567465,2010-10-25 07:50:32,5.01545441562047,6,21,0.0008838032954372,4.1901021003723145,20.70256608389275,19.73537657502532,82.6899116764793,72.0030969486229,-3.23295607813634e-05,0.0963535830378532,0,0,0
6841,239231.50660768812,2010-10-25 07:51:02,30.015255216462567,7,21,-1.099568486213684,4.005390167236328,20.70256608389275,19.74454485098774,82.6899116764793,72.04002807372224,-0.0010037422180175,0.0963535830378532,0,0,0
6842,239261.521727437,2010-10-25 07:51:32,60.030375055523,7,21,-1.0997490882873535,3.976412773132324,20.70256608389275,19.753712978674272,82.6899116764793,72.07660830010562,-0.0006475448608398,0.0963535830378532,0,0,0
6843,239291.53681672493,2010-10-25 07:52:02,90.04546421812826,7,21,-1.099568486213684,3.956338882446289,20.70256608389275,19.76288095981943,82.6899116764793,72.11296682262773,-0.0004532813909463,0.0963535830378532,0,0,0
6844,239321.5520945477,2010-10-25 07:52:32,120.06074213617016,7,21,-1.0993878841400146,3.940635919570923,20.70256608389275,19.77204909909605,82.6899116764793,72.14916361656594,-0.0003561496851034,0.0963535830378532,0,0,0
6845,239351.5670995205,2010-10-25 07:53:02,150.07574709892344,7,21,-1.0997490882873535,3.927523136138916,20.70256608389275,19.781217159412392,82.6899116764793,72.1852301820481,-0.0003561496851034,0.0963535830378532,0,0,0
6846,239381.58227523885,2010-10-25 07:53:32,180.09092273203984,7,21,-1.0997490882873535,3.9163529872894287,20.70256608389275,19.790385267246464,82.6899116764793,72.22118640504378,-0.0002913951757363,0.0963535830378532,0,0,0
6847,239411.59739434608,2010-10-25 07:54:02,210.10604185932635,7,21,-1.0997490882873535,3.9059925079345694,20.70256608389275,19.79955333771765,82.6899116764793,72.25704377491144,-0.0003237724304199,0.0963535830378532,0,0,0
6848,239441.61270345683,2010-10-25 07:54:32,240.12135095507264,7,21,-1.099568486213684,3.896441221237183,20.70256608389275,19.80872149665307,82.6899116764793,72.29281051221115,-0.0002590179501567,0.0963535830378532,0,0,0
6849,239471.6276984548,2010-10-25 07:55:02,270.13634594296553,7,21,-1.099568486213684,3.887375593185425,20.70256608389275,19.81788953470242,82.6899116764793,72.32849117495329,-0.0002266406954731,0.0963535830378532,0,0,0
6850,239501.64283844407,2010-10-25 07:55:32,300.15148593725905,7,21,-1.0997490882873535,3.878471851348877,20.70256608389275,19.827057645332783,82.6899116764793,72.36408999084479,-0.0002266406954731,0.0963535830378532,0,0,0
6851,239531.6579687693,2010-10-25 07:56:02,330.16661625744166,7,21,-1.099568486213684,3.869891881942749,20.70256608389275,19.83622570404401,82.6899116764793,72.3996083070112,-0.0001942634553415,0.0963535830378532,0,0,0
6852,239561.67587976475,2010-10-25 07:56:32,360.18452739327245,7,21,-1.0997490882873535,3.861311912536621,20.70256608389275,19.84539471533972,82.6899116764793,72.43505238728619,-0.0002590179501567,0.0963535830378532,0,0,0
6853,239591.6885034125,2010-10-25 07:57:02,390.1971509458188,7,21,-1.0993878841400146,3.853217601776123,20.70256608389275,19.854562041173505,82.6899116764793,72.47041331936347,-0.0001942634553415,0.0963535830378532,0,0,0
6854,239621.70356730212,2010-10-25 07:57:32,420.21221483042353,7,21,-1.099568486213684,3.845123291015625,20.70256608389275,19.86373012464511,82.6899116764793,72.5057025588296,-0.0002590179501567,0.0963535830378532,0,0,0
6855,239651.71854770367,2010-10-25 07:58:02,450.2271951918628,7,21,-1.0997490882873535,3.837190866470337,20.70256608389275,19.87289820814465,82.6899116764793,72.54091780589964,-0.0001618862152099,0.0963535830378532,0,0,0
6856,239681.7336967355,2010-10-25 07:58:32,480.242344228693,7,21,-1.099568486213684,3.829582452774048,20.70256608389275,19.88206642728497,82.6899116764793,72.5760614072634,-0.0001618862152099,0.0963535830378532,0,0,0
6857,239711.7488339128,2010-10-25 07:59:02,510.2574814059656,7,21,-1.099568486213684,3.8218119144439697,20.70256608389275,19.891234629725787,82.6899116764793,72.61113435134527,-0.0001942634553415,0.0963535830378532,0,0,0
6858,239741.764184938,2010-10-25 07:59:32,540.272832521438,7,21,-1.0997490882873535,3.8142032623291016,20.70256608389275,19.90040281206463,82.6899116764793,72.6461375671906,-0.0001942634553415,0.0963535830378532,0,0,0
6859,239771.77913023703,2010-10-25 08:00:02,570.2877777302663,7,21,-1.0997490882873535,3.8065946102142334,20.70256608389275,19.90957087753473,82.6899116764793,72.68107049391364,-0.0001618862152099,0.0963535830378532,0,0,0
6860,239801.794316627,2010-10-25 08:00:32,600.3029641452544,7,21,-1.099568486213684,3.799147844314575,20.70256608389275,19.91873898548304,82.6899116764793,72.71593546445429,-0.0002266406954731,0.0963535830378532,0,0,0
6861,239831.80942213527,2010-10-25 08:01:02,630.3180696285358,7,21,-1.099568486213684,3.792024850845337,20.70256608389275,19.927907079266912,82.6899116764793,72.75073473346289,-0.0002266406954731,0.0963535830378532,0,0,0
6862,239861.8245766057,2010-10-25 08:01:32,660.3332241039205,7,21,-1.0993878841400146,3.785387516021729,20.70256608389275,19.93707512395409,82.6899116764793,72.78546944050659,-0.0001295089750783,0.0963535830378532,0,0,0
6863,239891.83970533693,2010-10-25 08:02:02,690.3483528301305,7,21,-1.099568486213684,3.7784264087677,20.70256608389275,19.946243246204567,82.6899116764793,72.82014166665736,-0.0001618862152099,0.0963535830378532,0,0,0
6864,239921.85484582747,2010-10-25 08:02:32,720.3634933206606,7,21,-1.0997490882873535,3.771789073944092,20.70256608389275,19.955411478896977,82.6899116764793,72.85475269171212,-0.0001942634553415,0.0963535830378532,0,0,0
6865,239951.8699937164,2010-10-25 08:03:02,750.3786412397051,7,21,-1.099568486213684,3.765313625335693,20.70256608389275,19.96457970240173,82.6899116764793,72.88930322023927,-0.0001295089750783,0.0963535830378532,0,0,0
6866,239981.88515970556,2010-10-25 08:03:32,780.3938071987108,7,21,-1.099568486213684,3.758676290512085,20.70256608389275,19.973747851485832,82.6899116764793,72.92379408964342,-0.0001942634553415,0.0963535830378532,0,0,0
6867,240011.90042714743,2010-10-25 08:04:02,810.4090746757303,7,21,-1.0997490882873535,3.752362966537476,20.70256608389275,19.982916060805508,82.6899116764793,72.95822684893548,-0.0001942157687153,0.0963535830378532,0,0,0
6868,240041.9155760389,2010-10-25 08:04:32,840.4242235822356,7,21,-1.099568486213684,3.746373176574707,20.70256608389275,19.992084217468207,82.6899116764793,72.99260250735979,-0.0001618862152099,0.0963535830378532,0,0,0
6869,240071.93058556804,2010-10-25 08:05:02,870.4392330863075,7,21,-1.0997490882873535,3.740221500396729,20.70256608389275,20.00125242128317,82.6899116764793,73.02692230255961,-0.0001618862152099,0.0963535830378532,0,0,0
6870,240101.9457296826,2010-10-25 08:05:32,900.4543771707948,7,21,-1.099568486213684,3.73439359664917,20.70256608389275,20.010420652682303,82.6899116764793,73.06118699804372,-0.0001295089750783,0.0963535830378532,0,0,0
6871,240131.96086832852,2010-10-25 08:06:02,930.4695158217404,7,21,-1.0993878841400146,3.728727579116821,20.70256608389275,20.01958883238992,82.6899116764793,73.09539706222552,-6.47544875391759e-05,0.0963535830378532,0,0,0
6872,240161.9760051299,2010-10-25 08:06:32,960.484652623076,7,21,-1.0997490882873535,3.7227377891540527,20.70256608389275,20.028756926827946,82.6899116764793,73.12955410002125,-0.0001618862152099,0.0963535830378532,0,0,0
6873,240191.99116312404,2010-10-25 08:07:02,990.4998106422928,7,21,-1.0997490882873535,3.717071771621704,20.70256608389275,20.03792512104968,82.6899116764793,73.1636586018326,-0.0001295089750783,0.0963535830378532,0,0,0
6874,240222.0063287973,2010-10-25 08:07:32,1020.5149762955366,7,21,-1.0997490882873535,3.711405754089356,20.70256608389275,20.047093354027087,82.6899116764793,73.19771145715018,-0.0001618862152099,0.0963535830378532,0,0,0
6875,240252.02157505145,2010-10-25 08:08:02,1050.5302225496623,7,21,-1.0997490882873535,3.705901622772217,20.70256608389275,20.05626159016175,82.6899116764793,73.2317131228464,-0.0001618862152099,0.0963535830378532,0,0,0
6876,240282.03671908585,2010-10-25 08:08:32,1080.5453665840248,7,21,-1.0997490882873535,3.700397491455078,20.70256608389275,20.06542977996813,82.6899116764793,73.2656642246524,-0.0001295089750783,0.0963535830378532,0,0,0
6877,240312.05185385208,2010-10-25 08:09:02,1110.5605013903885,7,21,-1.099568486213684,3.69521713256836,20.70256608389275,20.074597958275422,82.6899116764793,73.29956644759406,-0.0001295089750783,0.0963535830378532,0,0,0
6878,240342.06688634845,2010-10-25 08:09:32,1140.5755338416511,7,21,-1.099568486213684,3.6900367736816406,20.70256608389275,20.08376615206229,82.6899116764793,73.33342044903506,-0.0001618862152099,0.0963535830378532,0,0,0
6879,240372.0820219468,2010-10-25 08:10:02,1170.5906694500138,7,21,-1.099568486213684,3.684856414794922,20.70256608389275,20.09293430284413,82.6899116764793,73.36722636176049,-9.713172767078504e-05,0.0963535830378532,0,0,0
6880,240402.09716161524,2010-10-25 08:10:32,1200.605809113483,7,21,-1.099929690361023,3.679514169692993,20.70256608389275,20.102102501839845,82.6899116764793,73.40098549678804,-0.0001942634553415,0.0963535830378532,0,0,0
6881,240432.1123480152,2010-10-25 08:11:03,1230.620995538496,7,21,-1.0997490882873535,3.6746575832366943,20.70256608389275,20.11127073953018,82.6899116764793,73.43469841971275,-0.0001295089750783,0.0963535830378532,0,0,0
6882,240462.12750148308,2010-10-25 08:11:33,1260.6361489762949,7,21,-1.099568486213684,3.669801235198975,20.70256608389275,20.1204389372912,82.6899116764793,73.46836587264573,-0.0001295089750783,0.0963535830378532,0,0,0
6883,240492.14259748772,2010-10-25 08:12:03,1290.6512449809525,7,21,-1.099568486213684,3.664944648742676,20.70256608389275,20.129607159597853,82.6899116764793,73.50198867150533,-9.713172767078504e-05,0.0963535830378532,0,0,0
6884,240522.15774535667,2010-10-25 08:12:33,1320.666392879947,7,21,-1.0997490882873535,3.659926176071167,20.70256608389275,20.138775373855548,82.6899116764793,73.53556717017926,-0.0001942634553415,0.0963535830378532,0,0,0
6885,240552.1728840076,2010-10-25 08:13:03,1350.6815315008175,7,21,-1.0997490882873535,3.655231475830078,20.70256608389275,20.147943570752712,82.6899116764793,73.5691012251585,-0.0001295089750783,0.0963535830378532,0,0,0
6886,240582.188047315,2010-10-25 08:13:33,1380.6966948132267,7,21,-1.0997490882873535,3.650536775588989,20.70256608389275,20.15711178441873,82.6899116764793,73.602591982819,-0.0001295089750783,0.0963535830378532,0,0,0
6887,240612.203174748,2010-10-25 08:14:03,1410.7118222412012,7,21,-1.099568486213684,3.6460039615631104,20.70256608389275,20.16628002572407,82.6899116764793,73.63604008678386,-6.47544875391759e-05,0.0963535830378532,0,0,0
6888,240642.21833734863,2010-10-25 08:14:33,1440.7269848668989,7,21,-1.099568486213684,3.6413092613220215,20.70256608389275,20.175448140522068,82.6899116764793,73.66944535151161,-0.0001618862152099,0.0963535830378532,0,0,0
6889,240672.23346544828,2010-10-25 08:15:03,1470.7421129665474,7,21,-1.099568486213684,3.636776447296143,20.70256608389275,20.184616287227385,82.6899116764793,73.70280871412089,-9.713172767078504e-05,0.0963535830378532,0,0,0
6890,240702.24882783683,2010-10-25 08:15:33,1500.7574753300537,7,21,-1.099568486213684,3.632567405700684,20.70256608389275,20.193784512667204,82.6899116764793,73.73613136247955,-9.713172767078504e-05,0.0963535830378532,0,0,0
6891,240732.26388620268,2010-10-25 08:16:03,1530.7725337159536,7,21,-1.099568486213684,3.6280345916748047,20.70256608389275,20.20295266619267,82.6899116764793,73.76941368816009,-9.713172767078504e-05,0.0963535830378532,0,0,0
6892,240762.27892209752,2010-10-25 08:16:33,1560.7875695907492,7,21,-1.099568486213684,3.6238255500793457,20.70256608389275,20.212120791526804,82.6899116764793,73.80265621040753,-9.713172767078504e-05,0.0963535830378532,0,0,0
6893,240792.29423120836,2010-10-25 08:17:03,1590.8028787466455,7,21,-1.099568486213684,3.619616508483887,20.70256608389275,20.221289023313016,82.6899116764793,73.83586016818585,-9.713172767078504e-05,0.0963535830378532,0,0,0
6894,240822.30921179036,2010-10-25 08:17:33,1620.817859283522,7,21,-1.0993878841400146,3.615407466888428,20.70256608389275,20.230457191535816,82.6899116764793,73.8690257321633,-9.713172767078504e-05,0.0963535830378532,0,0,0
6895,240852.3243745163,2010-10-25 08:18:03,1650.8330220345322,7,21,-1.099568486213684,3.611684083938599,20.70256608389275,20.239625356031677,82.6899116764793,73.90215420657907,-6.47544875391759e-05,0.0963535830378532,0,0,0
6896,240882.33947594443,2010-10-25 08:18:33,1680.8481234376447,7,21,-1.099568486213684,3.60747504234314,20.70256608389275,20.24879354348237,82.6899116764793,73.93524708217731,-0.0001295089750783,0.0963535830378532,0,0,0
6897,240912.35461930712,2010-10-25 08:19:03,1710.8632668003331,7,21,-1.099568486213684,3.603751659393311,20.70256608389275,20.25796170919497,82.6899116764793,73.96830474609327,-0.0001295089750783,0.0963535830378532,0,0,0
6898,240942.36977601808,2010-10-25 08:19:33,1740.8784235112898,7,21,-1.099568486213684,3.600028276443481,20.70256608389275,20.26712990327268,82.6899116764793,74.00132782362215,-6.47544875391759e-05,0.0963535830378532,0,0,0
6899,240972.3849097568,2010-10-25 08:20:03,1770.8935572499925,7,21,-1.0997490882873535,3.5963048934936523,20.70256608389275,20.276298117767105,82.6899116764793,74.03431673885544,-9.713172767078504e-05,0.0963535830378532,0,0,0
6900,241002.40005017715,2010-10-25 08:20:33,1800.9086976703477,7,21,-1.099568486213684,3.592743396759033,20.70256608389275,20.28546631226082,82.6899116764793,74.06727200176836,-6.47544875391759e-05,0.0963535830378532,0,0,0
6901,241032.4152148329,2010-10-25 08:21:03,1830.9238624413924,7,21,-1.0993878841400146,3.589344024658203,20.70256608389275,20.294634510104608,82.6899116764793,74.10019465691326,-6.47544875391759e-05,0.0963535830378532,0,0,0
6902,241062.43037963903,2010-10-25 08:21:33,1860.9390271572995,7,21,-1.0997490882873535,3.585782527923584,20.70256608389275,20.30380273291932,82.6899116764793,74.13308571785566,-9.713172767078504e-05,0.0963535830378532,0,0,0
6903,241092.44548982903,2010-10-25 08:22:03,1890.9541373773864,7,21,-1.0997490882873535,3.582382917404175,20.70256608389275,20.312970964037664,82.6899116764793,74.16594506523644,-6.47544875391759e-05,0.0963535830378532,0,0,0
6904,241122.46062193863,2010-10-25 08:22:33,1920.969269431892,7,21,-1.0997490882873535,3.5789833068847656,20.70256608389275,20.322139176513645,82.6899116764793,74.19877381849783,-0.0001295089750783,0.0963535830378532,0,0,0
6905,241152.47589744072,2010-10-25 08:23:03,1950.9845449389247,7,21,-1.099568486213684,3.5755836963653564,20.70256608389275,20.33130746718675,82.6899116764793,74.23157172374287,-9.713172767078504e-05,0.0963535830378532,0,0,0
6906,241182.49092710504,2010-10-25 08:23:33,1980.999574623292,7,21,-1.099568486213684,3.572345972061157,20.70256608389275,20.34047557355478,82.6899116764793,74.26433841690555,-9.713172767078504e-05,0.0963535830378532,0,0,0
6907,241212.5060703775,2010-10-25 08:24:03,2011.0147178907432,7,21,-1.099568486213684,3.569108247756958,20.70256608389275,20.34964376628117,82.6899116764793,74.29707554839405,-9.713172767078504e-05,0.0963535830378532,0,0,0
6908,241242.52133805,2010-10-25 08:24:33,2041.0299855482124,7,21,-1.099568486213684,3.5660324096679688,20.70256608389275,20.35881199228149,82.6899116764793,74.32978354331703,-6.47544875391759e-05,0.0963535830378532,0,0,0
6909,241272.53637526312,2010-10-25 08:25:03,2071.045022751319,7,21,-1.099568486213684,3.5629565715789795,20.70256608389275,20.367980067119245,82.6899116764793,74.36246208675907,-6.47544875391759e-05,0.0963535830378532,0,0,0
6910,241302.55151038023,2010-10-25 08:25:33,2101.0601578985315,7,21,-1.099568486213684,3.5597188472747803,20.70256608389275,20.377148163944835,82.6899116764793,74.395112017221,-6.47544875391759e-05,0.0963535830378532,0,0,0
6911,241332.56664029945,2010-10-25 08:26:03,2131.0752877926525,7,21,-1.099568486213684,3.556481122970581,20.70256608389275,20.38631625897091,82.6899116764793,74.42773207796824,-9.713172767078504e-05,0.0963535830378532,0,0,0
6912,241362.5818059828,2010-10-25 08:26:33,2161.0904534759707,7,21,-1.0997490882873535,3.553081512451172,20.70256608389275,20.395484371116595,82.6899116764793,74.46032291219814,-9.713172767078504e-05,0.0963535830378532,0,0,0
6913,241392.59691134572,2010-10-25 08:27:03,2191.1055588890777,7,21,-1.099568486213684,3.5500056743621826,20.70256608389275,20.40465254602115,82.6899116764793,74.49288507345332,-9.713172767078504e-05,0.0963535830378532,0,0,0
6914,241422.6120730792,2010-10-25 08:27:33,2221.1207205724263,7,21,-1.099568486213684,3.5467679500579834,20.70256608389275,20.413820719786457,82.6899116764793,74.52541804845174,-9.713172767078504e-05,0.0963535830378532,0,0,0
6915,241452.62726131373,2010-10-25 08:28:03,2251.1359088069494,7,21,-1.0993878841400146,3.543853998184204,20.70256608389275,20.42298902861061,82.6899116764793,74.55792222556926,-6.47544875391759e-05,0.0963535830378532,0,0,0
6916,241482.64496689223,2010-10-25 08:28:33,2281.1536145107807,7,21,-1.0993878841400146,3.540616273880005,20.70256608389275,20.43215797933549,82.6899116764793,74.59039976823526,-6.47544875391759e-05,0.0963535830378532,0,0,0
6917,241512.6577592856,2010-10-25 08:29:03,2311.166406818918,7,21,-1.0997490882873535,3.537216663360596,20.70256608389275,20.44132551304325,82.6899116764793,74.62284290185583,-9.713172767078504e-05,0.0963535830378532,0,0,0
6918,241542.6727060584,2010-10-25 08:29:33,2341.181353611694,7,21,-1.099568486213684,3.5339789390563965,20.70256608389275,20.450493683092382,82.6899116764793,74.65525791166259,-9.713172767078504e-05,0.0963535830378532,0,0,0
6919,241572.68782127087,2010-10-25 08:30:03,2371.196468769086,7,21,-1.0997490882873535,3.5307412147521973,20.70256608389275,20.459661919502285,82.6899116764793,74.68764304755447,-9.713172767078504e-05,0.0963535830378532,0,0,0
6920,241602.7029893853,2010-10-25 08:30:33,2401.2116369335886,7,21,-1.0997490882873535,3.527179718017578,20.70256608389275,20.468830212332705,82.6899116764793,74.71999798238811,-0.0001295089750783,0.0963535830378532,0,0,0
6921,241632.7181065025,2010-10-25 08:31:03,2431.22675400074,7,21,-1.0997490882873535,3.523780107498169,20.70256608389275,20.477998488621186,82.6899116764793,74.75232167595728,-0.0001295089750783,0.0963535830378532,0,0,0
6922,241662.7334781341,2010-10-25 08:31:33,2461.24212574262,7,21,-1.099568486213684,3.5205423831939697,20.70256608389275,20.48716680647588,82.6899116764793,74.78461377469525,-6.47544875391759e-05,0.0963535830378532,0,0,0
6923,241692.74842485672,2010-10-25 08:32:03,2491.2570723749964,7,21,-1.099568486213684,3.5166571140289307,20.70256608389275,20.49633500256424,82.6899116764793,74.81687297690722,-9.713172767078504e-05,0.0963535830378532,0,0,0
6924,241722.76360919155,2010-10-25 08:32:33,2521.2722568100494,7,21,-1.099568486213684,3.5130956172943115,20.70256608389275,20.50550332263353,82.6899116764793,74.84909889851778,-0.0001295089750783,0.0963535830378532,0,0,0
6925,241752.77870264483,2010-10-25 08:33:03,2551.287350173124,7,21,-1.099568486213684,3.509372472763061,20.70256608389275,20.514671631531368,82.6899116764793,74.88129003904987,-6.47544875391759e-05,0.0963535830378532,0,0,0
6926,241782.79384464413,2010-10-25 08:33:33,2581.30249214234,7,21,-1.0993878841400146,3.5050015449523926,20.70256608389275,20.52383931273597,82.6899116764793,74.91344226140603,-0.0001618862152099,0.0963535830378532,0,0,0
6927,241812.8089725683,2010-10-25 08:34:03,2611.3176200665507,7,21,-1.0997490882873535,3.500630617141724,20.70256608389275,20.53300682334525,82.6899116764793,74.94555515349755,-9.713172767078504e-05,0.0963535830378532,0,0,0
6928,241842.8241308983,2010-10-25 08:34:33,2641.3327783965424,7,21,-1.099568486213684,3.4962596893310547,20.70256608389275,20.542174988182527,82.6899116764793,74.97763012032583,-0.0001295089750783,0.0963535830378532,0,0,0
6929,241872.8394040996,2010-10-25 08:35:03,2671.3480516028408,7,21,-1.099568486213684,3.491241216659546,20.70256608389275,20.551343447498844,82.6899116764793,75.00966307588885,-0.0001295089750783,0.0963535830378532,0,0,0
6930,241902.8544523252,2010-10-25 08:35:33,2701.363099848468,7,21,-1.0997490882873535,3.486060857772827,20.70256608389275,20.56051175451324,82.6899116764793,75.04164933502022,-0.0001295089750783,0.0963535830378532,0,0,0
6931,241932.8696967648,2010-10-25 08:36:03,2731.378344278047,7,21,-1.0997490882873535,3.4803948402404785,20.70256608389275,20.569680160878985,82.6899116764793,75.07358590933839,-0.0001295089750783,0.0963535830378532,0,0,0
6932,241962.88496878816,2010-10-25 08:36:33,2761.393616316435,7,21,-1.0997490882873535,3.47391939163208,20.70256608389275,20.578848505817117,82.6899116764793,75.10546594002885,-0.0001618862152099,0.0963535830378532,0,0,0
6933,241992.9001470779,2010-10-25 08:37:03,2791.408794616197,7,21,-1.0997490882873535,3.466634511947632,20.70256608389275,20.58801687169447,82.6899116764793,75.13728335299889,-0.0001942634553415,0.0963535830378532,0,0,0
6934,242022.91499736515,2010-10-25 08:37:33,2821.423644863352,7,21,-1.0997490882873535,3.458540201187134,20.70256608389275,20.59718512044424,82.6899116764793,75.16902969309832,-0.0002266406954731,0.0963535830378532,0,0,0
6935,242052.9301326627,2010-10-25 08:38:03,2851.438780186002,7,21,-1.0997490882873535,3.448503255844116,20.70256608389275,20.606353527321076,82.6899116764793,75.20069466848574,-0.0003237724304199,0.0963535830378532,0,0,0
6936,242082.9453106768,2010-10-25 08:38:33,2881.453958169978,7,21,-1.099568486213684,3.437818765640259,20.70256608389275,20.61552189688688,82.6899116764793,75.23226506921527,-0.0002913951757363,0.0963535830378532,0,0,0
6937,242112.9605281692,2010-10-25 08:39:03,2911.469175657408,7,21,-1.099568486213684,3.424544334411621,20.70256608389275,20.62469025956236,82.6899116764793,75.26372492682077,-0.0003885269106831,0.0963535830378532,0,0,0
6938,242142.97561838944,2010-10-25 08:39:33,2941.484265882661,7,21,-1.0997490882873535,3.408841371536255,20.70256608389275,20.63385859919461,82.6899116764793,75.2950529543501,-0.0004532813909463,0.0963535830378532,0,0,0
6939,242172.9908378117,2010-10-25 08:40:03,2971.4994854302263,7,21,-1.099568486213684,3.389900684356689,20.70256608389275,20.64302693711987,82.6899116764793,75.3262230309475,-0.0005827903514727,0.0963535830378532,0,0,0
6940,242203.0060209485,2010-10-25 08:40:33,3001.5146684467445,7,21,-1.0997490882873535,3.3659415245056152,20.70256608389275,20.652195331785705,82.6899116764793,75.35719724549274,-0.0007122993702068,0.0963535830378532,0,0,0
6941,242233.0210392696,2010-10-25 08:41:03,3031.5296868530027,7,21,-1.0997490882873535,3.334859609603882,20.70256608389275,20.661363711892545,82.6899116764793,75.38792137280632,-0.0009065627818927,0.0963535830378532,0,0,0
6942,242263.03620108825,2010-10-25 08:41:33,3061.5448485864767,7,21,-1.0997490882873535,3.293254852294922,20.70256608389275,20.670532050025496,82.6899116764793,75.41831542771115,-0.0012950897216796,0.0963535830378532,0,0,0
6943,242293.0513215288,2010-10-25 08:42:03,3091.559969027037,7,21,-1.099929690361023,3.235461711883545,20.70256608389275,20.679700386183388,82.6899116764793,75.4482606899212,-0.0017807483673095,0.0963535830378532,0,0,0
6944,242323.0664890918,2010-10-25 08:42:33,3121.575136615102,7,21,-1.099568486213684,3.152414321899414,20.70256608389275,20.68886876754458,82.6899116764793,75.47756904771096,-0.0025578022468835,0.0963535830378532,0,0,0
6945,242353.0817112459,2010-10-25 08:43:04,3151.590358774176,7,21,-1.0997490882873535,3.020801305770874,20.70256608389275,20.69803710580652,82.6899116764793,75.50592118316317,-0.0044680116698145,0.0963535830378532,0,0,0
6946,242377.23757650968,2010-10-25 08:43:28,3175.746224017937,7,21,-1.0997490882873535,2.8207104206085205,20.70256608389275,20.70541575961287,82.6899116764793,75.5275517609804,-0.0085152145475149,0.0963535830378532,0,0,0
6947,242386.98741885176,2010-10-25 08:43:37,3185.4960663650177,7,21,-1.0997490882873535,2.699943780899048,20.70256608389275,20.708393918053385,82.6899116764793,75.53577807813413,-0.0103930477052927,0.0963535830378532,0,0,0
6948,242447.0076294452,2010-10-25 08:44:38,60.01464700137265,8,21,0.0,3.371445655822754,20.70256608389275,20.708393918053385,82.6899116764793,75.53577807813413,0.0012950897216796,0.0963535830378532,0,0,0
6949,242447.2017249916,2010-10-25 08:44:38,0.187447386563435,9,21,0.0001613661734154,3.372578859329224,20.70256609229488,20.708393918053385,82.68991170481614,75.53577807813413,0.0,0.0923051163554191,0,0,0
6950,242452.0297351284,2010-10-25 08:44:43,5.015457503315957,9,21,0.0005225847125984,3.379701852798462,20.702566605089995,20.70839391813557,82.6899134361998,75.5357780784117,0.0011332035064697,0.0923051163554191,0,0,0
