Data_Point,Test_Time(s),Date_Time,Step_Time(s),Step_Index,Cycle_Index,Current(A),Voltage(V),Charge_Capacity(Ah),Discharge_Capacity(Ah),Charge_Energy(Wh),Discharge_Energy(Wh),dV/dt(V/s),Internal_Resistance(Ohm),Is_FC_Data,AC_Impedance(Ohm),ACI_Phase_Angle(Deg)
6951,242482.06742017588,2010-10-25 08:45:13,30.01531925606897,1,22,0.0,3.4153168201446533,20.702566605089995,20.70839391813557,82.6899134361998,75.5357780784117,0.0008094310760498,0.0923051163554191,0,0,0
6952,242512.08239830172,2010-10-25 08:45:43,60.030297376924025,1,22,0.0,3.4399232864379883,20.702566605089995,20.70839391813557,82.6899134361998,75.5357780784117,0.0005827903514727,0.0923051163554191,0,0,0
6953,242542.0975389277,2010-10-25 08:46:13,90.04543799777908,1,22,0.0,3.458540201187134,20.702566605089995,20.70839391813557,82.6899134361998,75.5357780784117,0.0004532813909463,0.0923051163554191,0,0,0
6954,242572.0658298947,2010-10-25 08:46:43,120.01372899495668,1,22,0.0,3.47327184677124,20.702566605089995,20.70839391813557,82.6899134361998,75.5357780784117,0.0003561496851034,0.0923051163554191,0,0,0
6955,242602.07396935511,2010-10-25 08:47:13,30.01512822496067,2,22,0.5501165986061096,3.6277108192443848,20.7071519045401,20.70839391813557,82.70639472911837,75.5357780784117,0.0014569759368896,0.0923051163554191,0,0,0
6956,242632.08934220977,2010-10-25 08:47:43,60.03050110467627,2,22,0.5501165986061096,3.672067642211914,20.71173720694209,20.70839391813557,82.7231376061224,75.5357780784117,0.0010036944877356,0.0923051163554191,0,0,0
6957,242662.10426576465,2010-10-25 08:48:13,90.04542465953608,2,22,0.5499359965324402,3.7037971019744873,20.71632242200584,20.70839391813557,82.74005094028787,75.5357780784117,0.0007446765666827,0.0923051163554191,0,0,0
6958,242692.1194196235,2010-10-25 08:48:43,120.06057848830932,2,22,0.5501165986061096,3.728727579116821,20.72090766062938,20.70839391813557,82.75709233184722,75.5357780784117,0.0006799221155233,0.0923051163554191,0,0,0
6959,242722.1345859785,2010-10-25 08:49:13,150.07574489342667,2,22,0.5499359965324402,3.7483158111572266,20.725492955284263,20.70839391813557,82.77423533071108,75.5357780784117,0.0005180359003134,0.0923051163554191,0,0,0
6960,242752.1522845596,2010-10-25 08:49:43,180.09344354969306,2,22,0.5499359965324402,3.763856649398804,20.730078627820987,20.70839391813557,82.7914614354056,75.5357780784117,0.0003237724304199,0.0923051163554191,0,0,0
6961,242782.16519361868,2010-10-25 08:50:13,210.10635254865977,2,22,0.5501165986061096,3.774703025817871,20.734663520834232,20.70839391813557,82.80874502089237,75.5357780784117,0.0002590179501567,0.0923051163554191,0,0,0
6962,242812.18000543004,2010-10-25 08:50:43,240.12116430488297,2,22,0.5501165986061096,3.78101658821106,20.73924871952397,20.70839391813557,82.82606791688124,75.5357780784117,0.0001295089750783,0.0923051163554191,0,0,0
6963,242842.19513606603,2010-10-25 08:51:13,270.1362949308276,2,22,0.5501165986061096,3.7855494022369385,20.743834069215666,20.70839391813557,82.84341572262355,75.5357780784117,9.713172767078504e-05,0.0923051163554191,0,0,0
6964,242872.21028783463,2010-10-25 08:51:43,300.1514467295413,2,22,0.5497553944587708,3.7894346714019775,20.748419403324625,20.70839391813557,82.86078297849319,75.5357780784117,9.713172767078504e-05,0.0923051163554191,0,0,0
6965,242902.2254126561,2010-10-25 08:52:13,330.16657155603195,2,22,0.5499359965324402,3.7933199405670166,20.7530047401694,20.70839391813557,82.87816818982519,75.5357780784117,6.47544875391759e-05,0.0923051163554191,0,0,0
6966,242932.2407821374,2010-10-25 08:52:43,360.18194100720257,2,22,0.5501165986061096,3.797205209732056,20.757590004294403,20.70839391813557,82.89557064278463,75.5357780784117,9.713172767078504e-05,0.0923051163554191,0,0,0
6967,242962.25571741143,2010-10-25 08:53:13,390.1968763113452,2,22,0.5501165986061096,3.801090478897095,20.76217527717709,20.70839391813557,82.91299052960657,75.5357780784117,9.713172767078504e-05,0.0923051163554191,0,0,0
6968,242992.2708494409,2010-10-25 08:53:43,420.2120083357753,2,22,0.5501165986061096,3.804651975631714,20.76676056588617,20.70839391813557,82.93042730864663,75.5357780784117,9.713172767078504e-05,0.0923051163554191,0,0,0
6969,243022.2859997509,2010-10-25 08:54:13,450.2271587460286,2,22,0.5501165986061096,3.808213472366333,20.77134589066413,20.70839391813557,82.94788074665013,75.5357780784117,0.0001295089750783,0.0923051163554191,0,0,0
6970,243052.3011498654,2010-10-25 08:54:43,480.24230873022,2,22,0.5497553944587708,3.811613082885742,20.77593117748544,20.70839391813557,82.96535024650404,75.5357780784117,9.713172767078504e-05,0.0923051163554191,0,0,0
6971,243082.3163399696,2010-10-25 08:55:13,510.25749895971495,2,22,0.5501165986061096,3.815012693405152,20.78051643896907,20.70839391813557,82.9828355471304,75.5357780784117,9.713172767078504e-05,0.0923051163554191,0,0,0
6972,243112.3314385457,2010-10-25 08:55:43,540.2725974605942,2,22,0.5499359965324402,3.818412303924561,20.785101626088068,20.70839391813557,83.00033617402816,75.5357780784117,3.237724376958795e-05,0.0923051163554191,0,0,0
6973,243142.3466318729,2010-10-25 08:56:13,570.2877907677597,2,22,0.5499359965324402,3.82165002822876,20.789686875064408,20.70839391813557,83.01785225094842,75.5357780784117,6.47544875391759e-05,0.0923051163554191,0,0,0
6974,243172.3617238074,2010-10-25 08:56:43,600.3028826822233,2,22,0.5501165986061096,3.825049638748169,20.794272123227444,20.70839391813557,83.03538328543614,75.5357780784117,6.47544875391759e-05,0.0923051163554191,0,0,0
6975,243202.3769743071,2010-10-25 08:57:13,630.3181331819304,2,22,0.5499359965324402,3.828287363052368,20.798857395201345,20.70839391813557,83.05292942550716,75.5357780784117,9.713172767078504e-05,0.0923051163554191,0,0,0
6976,243232.3922582652,2010-10-25 08:57:43,660.3334171801258,2,22,0.5501165986061096,3.831686973571777,20.80344264840605,20.70839391813557,83.0704905011215,75.5357780784117,9.713172767078504e-05,0.0923051163554191,0,0,0
6977,243262.4071353392,2010-10-25 08:58:13,690.3482942140412,2,22,0.5499359965324402,3.8349244594573975,20.80802788579121,20.70839391813557,83.08806654498322,75.5357780784117,9.713172767078504e-05,0.0923051163554191,0,0,0
6978,243292.4224289865,2010-10-25 08:58:43,720.363587861285,2,22,0.5497553944587708,3.8381621837615967,20.812613214646426,20.70839391813557,83.10565814457446,75.5357780784117,6.47544875391759e-05,0.0923051163554191,0,0,0
6979,243322.4374230721,2010-10-25 08:59:13,750.3785819569542,2,22,0.5499359965324402,3.841561794281006,20.817198449033302,20.70839391813557,83.1232647108155,75.5357780784117,0.0001295089750783,0.0923051163554191,0,0,0
6980,243352.45281984136,2010-10-25 08:59:43,780.3939789417472,2,22,0.5497553944587708,3.844961404800415,20.821783742416383,20.70839391813557,83.14088701968231,75.5357780784117,9.713172767078504e-05,0.0923051163554191,0,0,0
6981,243382.4677221884,2010-10-25 09:00:13,810.4088810732131,2,22,0.5499359965324402,3.848361015319824,20.826368921340087,20.70839391813557,83.15852450063633,75.5357780784117,9.713172767078504e-05,0.0923051163554191,0,0,0
6982,243412.4828760171,2010-10-25 09:00:43,840.424034917024,2,22,0.5499359965324402,3.8517606258392334,20.830954242528907,20.70839391813557,83.1761780736233,75.5357780784117,9.713172767078504e-05,0.0923051163554191,0,0,0
6983,243442.49799931984,2010-10-25 09:01:13,870.4391582247292,2,22,0.5499359965324402,3.8551602363586426,20.835539527121423,20.70839391813557,83.1938470100703,75.5357780784117,0.0001295089750783,0.0923051163554191,0,0,0
6984,243472.51327927297,2010-10-25 09:01:43,900.4544382379931,2,22,0.5499359965324402,3.858397960662842,20.84012488855724,20.70839391813557,83.21153165416837,75.5357780784117,9.713172767078504e-05,0.0923051163554191,0,0,0
6985,243502.52830917283,2010-10-25 09:02:13,930.4694680677226,2,22,0.5501165986061096,3.861797571182251,20.844710154123103,20.70839391813557,83.2292308460953,75.5357780784117,9.713172767078504e-05,0.0923051163554191,0,0,0
6986,243532.5434521596,2010-10-25 09:02:43,960.484611034424,2,22,0.5501165986061096,3.8647115230560303,20.849295388963245,20.70839391813557,83.24694464656044,75.5357780784117,6.47544875391759e-05,0.0923051163554191,0,0,0
6987,243562.55860533167,2010-10-25 09:03:13,990.4997642065608,2,22,0.5499359965324402,3.86778736114502,20.85388058126476,20.70839391813557,83.26467265160038,75.5357780784117,6.47544875391759e-05,0.0923051163554191,0,0,0
6988,243592.5737294264,2010-10-25 09:03:43,1020.5148882962152,2,22,0.5501165986061096,3.8710250854492183,20.85846585406383,20.70839391813557,83.28241511495352,75.5357780784117,9.713172767078504e-05,0.0923051163554191,0,0,0
6989,243622.58899723928,2010-10-25 09:04:14,1050.5301561241097,2,22,0.5499359965324402,3.873939037322998,20.863051143315698,20.70839391813557,83.30017140160533,75.5357780784117,9.713172767078504e-05,0.0923051163554191,0,0,0
6990,243652.60400799144,2010-10-25 09:04:44,1080.5451668612543,2,22,0.5499359965324402,3.876691102981568,20.86763640340775,20.70839391813557,83.317940738644,75.5357780784117,6.47544875391759e-05,0.0923051163554191,0,0,0
6991,243682.6191389131,2010-10-25 09:05:14,1110.5602977879485,2,22,0.5501165986061096,3.8794431686401367,20.87222160625375,20.70839391813557,83.3357226784944,75.5357780784117,6.47544875391759e-05,0.0923051163554191,0,0,0
6992,243712.6343298193,2010-10-25 09:05:44,1140.57548869413,2,22,0.5499359965324402,3.882195234298706,20.87680691696196,20.70839391813557,83.35351725819713,75.5357780784117,9.713172767078504e-05,0.0923051163554191,0,0,0
6993,243742.64947891628,2010-10-25 09:06:14,1170.5906377860977,2,22,0.5499359965324402,3.8844616413116455,20.881392285426887,20.70839391813557,83.37132375850628,75.5357780784117,3.237724376958795e-05,0.0923051163554191,0,0,0
6994,243772.6646417475,2010-10-25 09:06:44,1200.6058006223202,2,22,0.5499359965324402,3.886889934539795,20.88597766371111,20.70839391813557,83.38914125161159,75.5357780784117,3.237724376958795e-05,0.0923051163554191,0,0,0
6995,243802.67988645777,2010-10-25 09:07:14,1230.6210453626732,2,22,0.5499359965324402,3.888994455337525,20.890563028080045,20.70839391813557,83.40696914179524,75.5357780784117,3.237724376958795e-05,0.0923051163554191,0,0,0
6996,243832.69490615223,2010-10-25 09:07:44,1260.6360650471174,2,22,0.5497553944587708,3.891098976135254,20.89514833333974,20.70839391813557,83.42480661313795,75.5357780784117,3.237724376958795e-05,0.0923051163554191,0,0,0
6997,243862.7100582918,2010-10-25 09:08:14,1290.6512171616182,2,22,0.5499359965324402,3.893203496932984,20.89973364704753,20.70839391813557,83.44265334216054,75.5357780784117,9.713172767078504e-05,0.0923051163554191,0,0,0
6998,243892.7254125651,2010-10-25 09:08:44,1320.666571545236,2,22,0.5501165986061096,3.894984245300293,20.904318982272333,20.70839391813557,83.46050877543112,75.5357780784117,6.47544875391759e-05,0.0923051163554191,0,0,0
6999,243922.74036004464,2010-10-25 09:09:14,1350.6815189144484,2,22,0.5499359965324402,3.896441221237183,20.908904251410892,20.70839391813557,83.47837143053026,75.5357780784117,3.237724376958795e-05,0.0923051163554191,0,0,0
7000,243952.75549814425,2010-10-25 09:09:44,1380.6966570090071,2,22,0.5501165986061096,3.898060083389282,20.91348957085787,20.70839391813557,83.49624195758959,75.5357780784117,6.47544875391759e-05,0.0923051163554191,0,0,0
7001,243982.7707704282,2010-10-25 09:10:14,1410.711929303032,2,22,0.5497553944587708,3.899678945541382,20.91807487050553,20.70839391813557,83.51411948944536,75.5357780784117,6.47544875391759e-05,0.0923051163554191,0,0,0
7002,244012.78578970663,2010-10-25 09:10:44,1440.7269485814645,2,22,0.5499359965324402,3.9009740352630615,20.922660209325404,20.70839391813557,83.53200381674853,75.5357780784117,0.0,0.0923051163554191,0,0,0
7003,244042.8009408888,2010-10-25 09:11:14,1470.7420997736665,2,22,0.5501165986061096,3.902431011199951,20.92724547435389,20.70839391813557,83.54989426857762,75.5357780784117,0.0,0.0923051163554191,0,0,0
7004,244072.81606325417,2010-10-25 09:11:44,1500.757222123986,2,22,0.5499359965324402,3.903726100921631,20.931830768252333,20.70839391813557,83.56779099276262,75.5357780784117,3.237724376958795e-05,0.0923051163554191,0,0,0
7005,244102.83121918817,2010-10-25 09:12:14,1530.7723780529936,2,22,0.5499359965324402,3.905021190643311,20.93641614409999,20.70839391813557,83.58569412979872,75.5357780784117,0.0,0.0923051163554191,0,0,0
7006,244132.8463997436,2010-10-25 09:12:44,1560.7875586184027,2,22,0.5499359965324402,3.9063162803649902,20.94100150517915,20.70839391813557,83.60360291991134,75.5357780784117,6.47544875391759e-05,0.0923051163554191,0,0,0
7007,244162.86149735723,2010-10-25 09:13:14,1590.8026562220457,2,22,0.5497553944587708,3.90761137008667,20.945586794142457,20.70839391813557,83.6215174159089,75.5357780784117,3.237724376958795e-05,0.0923051163554191,0,0,0
7008,244192.87666079492,2010-10-25 09:13:44,1620.817819659767,2,22,0.5499359965324402,3.9089064598083496,20.950172094223497,20.70839391813557,83.63943776644035,75.5357780784117,6.47544875391759e-05,0.0923051163554191,0,0,0
7009,244222.89188639252,2010-10-25 09:14:14,1650.833045382723,2,22,0.5499359965324402,3.910201549530029,20.95475741120087,20.70839391813557,83.65736412318601,75.5357780784117,3.237724376958795e-05,0.0923051163554191,0,0,0
7010,244252.90707519857,2010-10-25 09:14:44,1680.8482340733829,2,22,0.5501165986061096,3.911496639251709,20.9593427630126,20.70839391813557,83.675296415679,75.5357780784117,3.237724376958795e-05,0.0923051163554191,0,0,0
7011,244282.92249050905,2010-10-25 09:15:14,1710.863649433974,2,22,0.5499359965324402,3.9127917289733887,20.963928084479985,20.70839391813557,83.69323454040337,75.5357780784117,3.237724376958795e-05,0.0923051163554191,0,0,0
7012,244312.9372163862,2010-10-25 09:15:44,1740.8783752610352,2,22,0.5497553944587708,3.914086580276489,20.968513350347195,20.70839391813557,83.7111783935338,75.5357780784117,6.47544875391759e-05,0.0923051163554191,0,0,0
7013,244342.9524849359,2010-10-25 09:16:14,1770.8936438207534,2,22,0.5501165986061096,3.915381669998169,20.973098704358517,20.70839391813557,83.7291285899626,75.5357780784117,6.47544875391759e-05,0.0923051163554191,0,0,0
7014,244372.9676430303,2010-10-25 09:16:44,1800.9088019151577,2,22,0.5499359965324402,3.9166767597198486,20.977684006325283,20.70839391813557,83.74708437182936,75.5357780784117,6.47544875391759e-05,0.0923051163554191,0,0,0
7015,244402.9826636521,2010-10-25 09:17:14,1830.9238225269128,2,22,0.5499359965324402,3.9178099632263184,20.98226920333909,20.70839391813557,83.76504577579841,75.5357780784117,3.237724376958795e-05,0.0923051163554191,0,0,0
7016,244432.99792364545,2010-10-25 09:17:44,1860.939082520281,2,22,0.5499359965324402,3.919266939163208,20.98685449267609,20.70839391813557,83.78301358708086,75.5357780784117,6.47544875391759e-05,0.0923051163554191,0,0,0
7017,244463.0129392648,2010-10-25 09:18:14,1890.9540981345813,2,22,0.5499359965324402,3.920562028884888,20.99143976642077,20.70839391813557,83.80098752705999,75.5357780784117,0.0,0.0923051163554191,0,0,0
7018,244493.02809821127,2010-10-25 09:18:44,1920.9692571061723,2,22,0.5499359965324402,3.922019004821777,20.996025026380195,20.70839391813557,83.81896750442475,75.5357780784117,6.47544875391759e-05,0.0923051163554191,0,0,0
7019,244523.04317079257,2010-10-25 09:19:14,1950.9843296974768,2,22,0.5497553944587708,3.923152208328247,21.000610223186325,20.70839391813557,83.83695353896175,75.5357780784117,3.237724376958795e-05,0.0923051163554191,0,0,0
7020,244553.05858560177,2010-10-25 09:19:44,1980.9997444816315,2,22,0.5499359965324402,3.9246091842651367,21.005195558489724,20.70839391813557,83.85494636389818,75.5357780784117,0.0,0.0923051163554191,0,0,0
7021,244583.0734959888,2010-10-25 09:20:14,2011.0146548536352,2,22,0.5499359965324402,3.9260661602020255,21.009780844293022,20.70839391813557,83.87294528087651,75.5357780784117,6.47544875391759e-05,0.0923051163554191,0,0,0
7022,244613.0886939526,2010-10-25 09:20:44,2041.0298528474816,2,22,0.5499359965324402,3.927361249923706,21.014366141886416,20.70839391813557,83.8909504600549,75.5357780784117,0.0,0.0923051163554191,0,0,0
7023,244643.1037864335,2010-10-25 09:21:14,2071.044945308307,2,22,0.5499359965324402,3.928818225860596,21.018951441917885,20.70839391813557,83.9089620722679,75.5357780784117,6.47544875391759e-05,0.0923051163554191,0,0,0
7024,244673.12158999612,2010-10-25 09:21:44,2101.06274886602,2,22,0.5501165986061096,3.930275201797485,21.0235371596901,20.70839391813557,83.92698173760452,75.5357780784117,6.47544875391759e-05,0.0923051163554191,0,0,0
7025,244703.13443899064,2010-10-25 09:22:14,2131.0755978754746,2,22,0.5501165986061096,3.931732177734375,21.028122306119464,20.70839391813557,83.94500569538135,75.5357780784117,6.47544875391759e-05,0.0923051163554191,0,0,0
7026,244733.1492671076,2010-10-25 09:22:44,2161.0904259924737,2,22,0.5499359965324402,3.9331891536712646,21.03270768860848,20.70839391813557,83.96303713638436,75.5357780784117,6.47544875391759e-05,0.0923051163554191,0,0,0
7027,244763.164369012,2010-10-25 09:23:14,2191.1055278868103,2,22,0.5497553944587708,3.9343223571777344,21.037293103344144,20.70839391813557,83.98107535635957,75.5357780784117,0.0,0.0923051163554191,0,0,0
7028,244793.1795080439,2010-10-25 09:23:44,2221.1206669187054,2,22,0.5499359965324402,3.936103105545044,21.041878478797784,20.70839391813557,83.99912011414807,75.5357780784117,6.47544875391759e-05,0.0923051163554191,0,0,0
7029,244823.19480953063,2010-10-25 09:24:14,2251.1359684155127,2,22,0.550297200679779,3.9375600814819336,21.04646392951145,20.70839391813557,84.0171717260221,75.5357780784117,3.237724376958795e-05,0.0923051163554191,0,0,0
7030,244853.2098218317,2010-10-25 09:24:44,2281.15098070653,2,22,0.5499359965324402,3.938855171203613,21.051049330851303,20.70839391813557,84.03523001070577,75.5357780784117,0.0,0.0923051163554191,0,0,0
7031,244883.22509183,2010-10-25 09:25:14,2311.1662507148585,2,22,0.5499359965324402,3.940474033355713,21.05563477481597,20.70839391813557,84.05329524253355,75.5357780784117,6.47544875391759e-05,0.0923051163554191,0,0,0
7032,244913.2401018504,2010-10-25 09:25:44,2341.181260755267,2,22,0.5499359965324402,3.9419310092926025,21.06022025117507,20.70839391813557,84.07136740905143,75.5357780784117,3.237724376958795e-05,0.0923051163554191,0,0,0
7033,244943.2552482456,2010-10-25 09:26:14,2371.196407110413,2,22,0.5501165986061096,3.943387985229492,21.064805676892806,20.70839391813557,84.08944630279909,75.5357780784117,3.237724376958795e-05,0.0923051163554191,0,0,0
7034,244973.2704118588,2010-10-25 09:26:44,2401.211570743623,2,22,0.5501165986061096,3.945006847381592,21.06939103179534,20.70839391813557,84.10753182903737,75.5357780784117,3.237724376958795e-05,0.0923051163554191,0,0,0
7035,245003.28554510625,2010-10-25 09:27:14,2431.226704036213,2,22,0.5501165986061096,3.9466257095336914,21.07397646249401,20.70839391813557,84.12562472927839,75.5357780784117,6.47544875391759e-05,0.0923051163554191,0,0,0
7036,245033.30070968185,2010-10-25 09:27:44,2461.241868551621,2,22,0.5497553944587708,3.947920799255371,21.078561890863256,20.70839391813557,84.14372450672734,75.5357780784117,3.237724376958795e-05,0.0923051163554191,0,0,0
7037,245063.3159488884,2010-10-25 09:28:14,2491.2571077631947,2,22,0.5499359965324402,3.949539661407471,21.08314730690232,20.70839391813557,84.16183142640885,75.5357780784117,3.237724376958795e-05,0.0923051163554191,0,0,0
7038,245093.33113760408,2010-10-25 09:28:44,2521.2722964889417,2,22,0.5499359965324402,3.95132040977478,21.08773276941209,20.70839391813557,84.17994581349275,75.5357780784117,6.47544875391759e-05,0.0923051163554191,0,0,0
7039,245123.3461326571,2010-10-25 09:29:14,2551.287291526959,2,22,0.5501165986061096,3.95293927192688,21.09231818523471,20.70839391813557,84.19806725195497,75.5357780784117,6.47544875391759e-05,0.0923051163554191,0,0,0
7040,245153.3613945703,2010-10-25 09:29:44,2581.3025534651747,2,22,0.5501165986061096,3.9543962478637695,21.09690359737721,20.70839391813557,84.21619603246812,75.5357780784117,3.237724376958795e-05,0.0923051163554191,0,0,0
7041,245183.3763760044,2010-10-25 09:30:14,2611.3175349093126,2,22,0.5501165986061096,3.956015110015869,21.101489044663506,20.70839391813557,84.23433233463811,75.5357780784117,3.237724376958795e-05,0.0923051163554191,0,0,0
7042,245213.39153669027,2010-10-25 09:30:44,2641.332695555076,2,22,0.5499359965324402,3.9576339721679688,21.1060744793618,20.70839391813557,84.2524759232346,75.5357780784117,6.47544875391759e-05,0.0923051163554191,0,0,0
7043,245243.40667600787,2010-10-25 09:31:14,2671.347834882708,2,22,0.5499359965324402,3.959252834320069,21.110659873930658,20.70839391813557,84.27062690186699,75.5357780784117,6.47544875391759e-05,0.0923051163554191,0,0,0
7044,245273.4219319161,2010-10-25 09:31:44,2701.363090790894,2,22,0.5499359965324402,3.960871696472168,21.115245233058243,20.70839391813557,84.28878522156859,75.5357780784117,3.237724376958795e-05,0.0923051163554191,0,0,0
7045,245303.43696437732,2010-10-25 09:32:14,2731.3781232521824,2,22,0.5499359965324402,3.9623286724090576,21.119830631959207,20.70839391813557,84.30695127804177,75.5357780784117,0.0,0.0923051163554191,0,0,0
7046,245333.4521135596,2010-10-25 09:32:44,2761.393272434375,2,22,0.5499359965324402,3.964271306991577,21.124416093724104,20.70839391813557,84.3251252482869,75.5357780784117,6.47544875391759e-05,0.0923051163554191,0,0,0
7047,245363.46724484715,2010-10-25 09:33:14,2791.4084037219686,2,22,0.5499359965324402,3.9658901691436768,21.12900156589472,20.70839391813557,84.34330696618582,75.5357780784117,6.47544875391759e-05,0.0923051163554191,0,0,0
7048,245393.48265594715,2010-10-25 09:33:44,2821.4238148269533,2,22,0.5501165986061096,3.967509031295776,21.13358705945464,20.70839391813557,84.36149653256845,75.5357780784117,3.237724376958795e-05,0.0923051163554191,0,0,0
7049,245423.497542595,2010-10-25 09:34:14,2851.438701464805,2,22,0.5501165986061096,3.969289779663086,21.138172464348223,20.70839391813557,84.37969346805895,75.5357780784117,3.237724376958795e-05,0.0923051163554191,0,0,0
7050,245453.51284632235,2010-10-25 09:34:44,2881.454005207209,2,22,0.5499359965324402,3.971070528030396,21.14275792864003,20.70839391813557,84.39789849035779,75.5357780784117,3.237724376958795e-05,0.0923051163554191,0,0,0
7051,245483.52783479905,2010-10-25 09:35:14,2911.4689936738487,2,22,0.5501165986061096,3.972851276397705,21.14734336901051,20.70839391813557,84.41611140334642,75.5357780784117,6.47544875391759e-05,0.0923051163554191,0,0,0
7052,245513.5429743472,2010-10-25 09:35:44,2941.484133252105,2,22,0.5499359965324402,3.9744701385498047,21.151928909358933,20.70839391813557,84.43433267576263,75.5357780784117,9.713172767078504e-05,0.0923051163554191,0,0,0
7053,245543.55811740417,2010-10-25 09:36:15,2971.499276268932,2,22,0.5499359965324402,3.976250886917114,21.156514382344938,20.70839391813557,84.45256173980967,75.5357780784117,3.237724376958795e-05,0.0923051163554191,0,0,0
7054,245573.57327405995,2010-10-25 09:36:45,3001.5144329247505,2,22,0.5499359965324402,3.977869749069214,21.161099919903585,20.70839391813557,84.4707991486318,75.5357780784117,3.237724376958795e-05,0.0923051163554191,0,0,0
7055,245603.58840982872,2010-10-25 09:37:15,3031.529568698525,2,22,0.5497553944587708,3.979812383651733,21.165685358894795,20.70839391813557,84.48904410232625,75.5357780784117,3.237724376958795e-05,0.0923051163554191,0,0,0
7056,245633.6035504646,2010-10-25 09:37:45,3061.5447093695057,2,22,0.5501165986061096,3.981755018234253,21.1702707126936,20.70839391813557,84.50729729289807,75.5357780784117,3.237724376958795e-05,0.0923051163554191,0,0,0
7057,245663.61871182217,2010-10-25 09:38:15,3091.5598707019803,2,22,0.5499359965324402,3.9835357666015625,21.174856177216032,20.70839391813557,84.52555925478069,75.5357780784117,6.47544875391759e-05,0.0923051163554191,0,0,0
7058,245693.6338739867,2010-10-25 09:38:45,3121.575032856504,2,22,0.5497553944587708,3.985154628753662,21.17944152555955,20.70839391813557,84.54382913914866,75.5357780784117,3.237724376958795e-05,0.0923051163554191,0,0,0
7059,245723.64911978468,2010-10-25 09:39:15,3151.5902786996053,2,22,0.5501165986061096,3.987259149551392,21.18402691443349,20.70839391813557,84.56210769842855,75.5357780784117,3.237724376958795e-05,0.0923051163554191,0,0,0
7060,245753.66413128373,2010-10-25 09:39:45,3181.605290158549,2,22,0.5501165986061096,3.989039897918701,21.188612328340373,20.70839391813557,84.58039482698433,75.5357780784117,3.237724376958795e-05,0.0923051163554191,0,0,0
7061,245783.6792928568,2010-10-25 09:40:15,3211.620451746661,2,22,0.5501165986061096,3.9909825325012207,21.19319766620993,20.70839391813557,84.59869031619677,75.5357780784117,6.47544875391759e-05,0.0923051163554191,0,0,0
7062,245813.6946367242,2010-10-25 09:40:45,3241.635795624094,2,22,0.5501165986061096,3.99292516708374,21.197783132159213,20.70839391813557,84.61699511190882,75.5357780784117,6.47544875391759e-05,0.0923051163554191,0,0,0
7063,245843.70970709,2010-10-25 09:41:15,3271.650865974814,2,22,0.5499359965324402,3.994705677032471,21.20236851453479,20.70839391813557,84.63530832882087,75.5357780784117,3.237724376958795e-05,0.0923051163554191,0,0,0
7064,245873.72473296983,2010-10-25 09:41:45,3301.665891839662,2,22,0.5499359965324402,3.9968101978302,21.206953886036207,20.70839391813557,84.65363049713065,75.5357780784117,9.713172767078504e-05,0.0923051163554191,0,0,0
7065,245903.7400627772,2010-10-25 09:42:15,3331.6812217873776,2,22,0.5501165986061096,3.99875283241272,21.21153933515165,20.70839391813557,84.67196193825303,75.5357780784117,6.47544875391759e-05,0.0923051163554191,0,0,0
7066,245933.75503718384,2010-10-25 09:42:45,3361.696196088714,2,22,0.5499359965324402,4.000695705413818,21.216124646326563,20.70839391813557,84.69030197583402,75.5357780784117,3.24249267578125e-05,0.0923051163554191,0,0,0
7067,245963.7702720696,2010-10-25 09:43:15,3391.711430954456,2,22,0.5499359965324402,4.002799987792969,21.22071002453617,20.70839391813557,84.70865157716183,75.5357780784117,6.47544875391759e-05,0.0923051163554191,0,0,0
7068,245993.78529175904,2010-10-25 09:43:45,3421.7264506288748,2,22,0.5499359965324402,4.004904747009277,21.22529544111687,20.70839391813557,84.72701067921196,75.5357780784117,9.71794142969884e-05,0.0923051163554191,0,0,0
7069,246023.80045882583,2010-10-25 09:44:15,3451.7416178259664,2,22,0.5501165986061096,4.007171154022217,21.22988086130732,20.70839391813557,84.74537924438293,75.5357780784117,0.0001295089750783,0.0923051163554191,0,0,0
7070,246053.81560442407,2010-10-25 09:44:45,3481.7567632939017,2,22,0.5499359965324402,4.008951663970947,21.23446625405942,20.70839391813557,84.76375731113353,75.5357780784117,6.47544875391759e-05,0.0923051163554191,0,0,0
7071,246083.83084336,2010-10-25 09:45:15,3511.7720022648755,2,22,0.5499359965324402,4.011056423187256,21.23905164876636,20.70839391813557,84.78214498803725,75.5357780784117,6.47544875391759e-05,0.0923051163554191,0,0,0
7072,246113.84589993133,2010-10-25 09:45:45,3541.787058836253,2,22,0.5499359965324402,4.013160705566406,21.24363703814467,20.70839391813557,84.80054249550933,75.5357780784117,3.23295607813634e-05,0.0923051163554191,0,0,0
7073,246143.86101995583,2010-10-25 09:46:15,3571.802178820676,2,22,0.5499359965324402,4.015427112579346,21.248222436339105,20.70839391813557,84.81894987748356,75.5357780784117,6.47544875391759e-05,0.0923051163554191,0,0,0
7074,246173.87625547324,2010-10-25 09:46:45,3601.8174143430547,2,22,0.5499359965324402,4.017531871795654,21.252807842597072,20.70839391813557,84.83736732804527,75.5357780784117,3.24249267578125e-05,0.0923051163554191,0,0,0
7075,246203.89130942308,2010-10-25 09:47:15,3631.832468297912,2,22,0.5501165986061096,4.019798278808594,21.257393268096603,20.70839391813557,84.85579490322402,75.5357780784117,6.47544875391759e-05,0.0923051163554191,0,0,0
7076,246233.90645355268,2010-10-25 09:47:45,3661.8476124475615,2,22,0.5499359965324402,4.022064685821533,21.26197857009444,20.70839391813557,84.87423224774763,75.5357780784117,3.24249267578125e-05,0.0923051163554191,0,0,0
7077,246263.921599156,2010-10-25 09:48:15,3691.862758020759,2,22,0.5497553944587708,4.024331092834473,21.266563951152506,20.70839391813557,84.8926802771307,75.5357780784117,3.24249267578125e-05,0.0923051163554191,0,0,0
7078,246293.9367734607,2010-10-25 09:48:45,3721.8779323355902,2,22,0.5499359965324402,4.026597499847412,21.271149316286827,20.70839391813557,84.91113871321764,75.5357780784117,3.24249267578125e-05,0.0923051163554191,0,0,0
7079,246323.9518914853,2010-10-25 09:49:15,3751.893050395216,2,22,0.5501165986061096,4.029187679290772,21.27573466152094,20.70839391813557,84.92960772892908,75.5357780784117,9.71794142969884e-05,0.0923051163554191,0,0,0
7080,246353.9671970773,2010-10-25 09:49:45,3781.9083559872297,2,22,0.5497553944587708,4.031291961669922,21.280320128182467,20.70839391813557,84.94808774800633,75.5357780784117,6.47544875391759e-05,0.0923051163554191,0,0,0
7081,246383.9821881304,2010-10-25 09:50:15,3811.9233469952032,2,22,0.5501165986061096,4.03372049331665,21.284905569513025,20.70839391813557,84.96657845537231,75.5357780784117,6.47544875391759e-05,0.0923051163554191,0,0,0
7082,246413.9975092261,2010-10-25 09:50:45,3841.938668110907,2,22,0.5501165986061096,4.036148548126221,21.28949111449504,20.70839391813557,84.98508044180618,75.5357780784117,6.47544875391759e-05,0.0923051163554191,0,0,0
7083,246444.0124697932,2010-10-25 09:51:15,3871.953628673,2,22,0.5499359965324402,4.03841495513916,21.294076525462845,20.70839391813557,85.00359283810349,75.5357780784117,6.47544875391759e-05,0.0923051163554191,0,0,0
7084,246474.02765228337,2010-10-25 09:51:45,3901.9688111632063,2,22,0.5501165986061096,4.0406813621521,21.298661958078053,20.70839391813557,85.0221163244878,75.5357780784117,0.0,0.0923051163554191,0,0,0
7085,246504.04280661332,2010-10-25 09:52:15,3931.9839655082674,2,22,0.5499359965324402,4.043271541595459,21.303247360461924,20.70839391813557,85.04065083157666,75.5357780784117,3.24249267578125e-05,0.0923051163554191,0,0,0
7086,246534.0580937494,2010-10-25 09:52:45,3961.9992526242327,2,22,0.5499359965324402,4.045699596405029,21.307832792474997,20.70839391813557,85.0591966113647,75.5357780784117,0.0001295089750783,0.0923051163554191,0,0,0
7087,246564.07305502327,2010-10-25 09:53:15,3992.0142138981,2,22,0.5499359965324402,4.048289775848389,21.312418114238785,20.70839391813557,85.07775318030917,75.5357780784117,9.70840483205393e-05,0.0923051163554191,0,0,0
7088,246594.09080845103,2010-10-25 09:53:45,4022.0319674411617,2,22,0.5497553944587708,4.050556182861328,21.31700384990043,20.70839391813557,85.09632278151109,75.5357780784117,3.23295607813634e-05,0.0923051163554191,0,0,0
7089,246624.1035818972,2010-10-25 09:54:15,4052.0447408070886,2,22,0.5501165986061096,4.053308486938477,21.32158888648116,20.70839391813557,85.11490097844792,75.5357780784117,9.71794142969884e-05,0.0923051163554191,0,0,0
7090,246654.1185172013,2010-10-25 09:54:45,4082.059676076144,2,22,0.5499359965324402,4.055736541748047,21.32617428009731,20.70839391813557,85.13349226040683,75.5357780784117,6.47544875391759e-05,0.0923051163554191,0,0,0
7091,246684.13365193247,2010-10-25 09:55:15,4112.074810837395,2,22,0.5499359965324402,4.058165073394775,21.33075969339624,20.70839391813557,85.1520952601153,75.5357780784117,6.47544875391759e-05,0.0923051163554191,0,0,0
7092,246714.14882005687,2010-10-25 09:55:45,4142.089978961797,2,22,0.5499359965324402,4.060593128204346,21.335345150651197,20.70839391813557,85.1707102384766,75.5357780784117,3.23295607813634e-05,0.0923051163554191,0,0,0
7093,246744.16393671805,2010-10-25 09:56:15,4172.105095592862,2,22,0.5499359965324402,4.063345432281494,21.33993056177854,20.70839391813557,85.18933650613099,75.5357780784117,9.71794142969884e-05,0.0923051163554191,0,0,0
7094,246774.17931055516,2010-10-25 09:56:45,4202.120469429964,2,22,0.5501165986061096,4.0659356117248535,21.34451598239854,20.70839391813557,85.2079749841033,75.5357780784117,6.47544875391759e-05,0.0923051163554191,0,0,0
7095,246804.1942471876,2010-10-25 09:57:15,4232.135406057404,2,22,0.5501165986061096,4.068687438964844,21.3491012792842,20.70839391813557,85.22662509997085,75.5357780784117,6.47544875391759e-05,0.0923051163554191,0,0,0
7096,246834.20938206915,2010-10-25 09:57:45,4262.150540964018,2,22,0.5499359965324402,4.071277618408203,21.35368668995752,20.70839391813557,85.24528796689879,75.5357780784117,6.47544875391759e-05,0.0923051163554191,0,0,0
7097,246864.22453267488,2010-10-25 09:58:15,4292.165691539683,2,22,0.5501165986061096,4.074191570281982,21.358272073400776,20.70839391813557,85.26396300792605,75.5357780784117,9.70840483205393e-05,0.0923051163554191,0,0,0
7098,246894.23970078424,2010-10-25 09:58:45,4322.18085965406,2,22,0.5499359965324402,4.076781749725342,21.362857482171133,20.70839391813557,85.28265064480894,75.5357780784117,6.47544875391759e-05,0.0923051163554191,0,0,0
7099,246924.2549897498,2010-10-25 09:59:15,4352.196148634674,2,22,0.5499359965324402,4.07953405380249,21.367442833530887,20.70839391813557,85.30135067723657,75.5357780784117,3.24249267578125e-05,0.0923051163554191,0,0,0
7100,246954.26996231684,2010-10-25 09:59:45,4382.211121221737,2,22,0.5499359965324402,4.0822858810424805,21.372028183571924,20.70839391813557,85.3200632881014,75.5357780784117,6.47544875391759e-05,0.0923051163554191,0,0,0
7101,246984.2851342808,2010-10-25 10:00:15,4412.226293165659,2,22,0.5499359965324402,4.08519983291626,21.37661355205747,20.70839391813557,85.33878882484157,75.5357780784117,9.70840483205393e-05,0.0923051163554191,0,0,0
7102,247014.30027323248,2010-10-25 10:00:45,4442.241432107329,2,22,0.5499359965324402,4.087952136993408,21.38119888982752,20.70839391813557,85.35752718818193,75.5357780784117,3.24249267578125e-05,0.0923051163554191,0,0,0
7103,247044.315401262,2010-10-25 10:01:15,4472.25656013179,2,22,0.5499359965324402,4.090703964233398,21.38578423600285,20.70839391813557,85.3762785814523,75.5357780784117,6.47544875391759e-05,0.0923051163554191,0,0,0
7104,247074.3306831499,2010-10-25 10:01:45,4502.271842024739,2,22,0.5499359965324402,4.093780040740967,21.39036965512923,20.70839391813557,85.39504340585293,75.5357780784117,9.71794142969884e-05,0.0923051163554191,0,0,0
7105,247104.34572178652,2010-10-25 10:02:15,4532.286880656406,2,22,0.5499359965324402,4.096531867980957,21.394955047999016,20.70839391813557,85.41382137075796,75.5357780784117,6.47544875391759e-05,0.0923051163554191,0,0,0
7106,247134.36093998572,2010-10-25 10:02:45,4562.302098975909,2,22,0.5499359965324402,4.099445819854736,21.399540442745923,20.70839391813557,85.43261272378183,75.5357780784117,6.47544875391759e-05,0.0923051163554191,0,0,0
7107,247164.3759949632,2010-10-25 10:03:15,4592.317153858076,2,22,0.5499359965324402,4.102198123931885,21.40412590758293,20.70839391813557,85.45141793534181,75.5357780784117,0.0,0.0923051163554191,0,0,0
7108,247194.3911259801,2010-10-25 10:03:45,4622.332284854946,2,22,0.5499359965324402,4.105597496032715,21.40871133191122,20.70839391813557,85.47023665696334,75.5357780784117,9.70840483205393e-05,0.0923051163554191,0,0,0
7109,247224.40631622967,2010-10-25 10:04:15,4652.347475109504,2,22,0.5499359965324402,4.108511447906494,21.413296772154453,20.70839391813557,85.48906927771068,75.5357780784117,6.47544875391759e-05,0.0923051163554191,0,0,0
7110,247254.42143832432,2010-10-25 10:04:45,4682.362597194161,2,22,0.5501165986061096,4.111587524414063,21.417882165255108,20.70839391813557,85.50791555227975,75.5357780784117,6.47544875391759e-05,0.0923051163554191,0,0,0
7111,247284.43658372716,2010-10-25 10:05:15,4712.377742596934,2,22,0.5499359965324402,4.114663124084473,21.422467539485737,20.70839391813557,85.52677575737107,75.5357780784117,6.47544875391759e-05,0.0923051163554191,0,0,0
7112,247314.45183527944,2010-10-25 10:05:45,4742.392994144251,2,22,0.5499359965324402,4.117738723754883,21.427053006508448,20.70839391813557,85.54565051540132,75.5357780784117,6.47544875391759e-05,0.0923051163554191,0,0,0
7113,247344.46688232207,2010-10-25 10:06:15,4772.408041216956,2,22,0.5499359965324402,4.120814800262451,21.431638434713445,20.70839391813557,85.56453943146157,75.5357780784117,3.24249267578125e-05,0.0923051163554191,0,0,0
7114,247374.48201672244,2010-10-25 10:06:45,4802.423175597258,2,22,0.5499359965324402,4.12405252456665,21.43622388206224,20.70839391813557,85.58344279650309,75.5357780784117,9.71794142969884e-05,0.0923051163554191,0,0,0
7115,247404.49714401507,2010-10-25 10:07:15,4832.438302884882,2,22,0.5497553944587708,4.1271281242370605,21.440809300266068,20.70839391813557,85.60236052681944,75.5357780784117,3.23295607813634e-05,0.0923051163554191,0,0,0
7116,247434.5122841848,2010-10-25 10:07:45,4862.453443054613,2,22,0.5499359965324402,4.13036584854126,21.44539467225172,20.70839391813557,85.62129267200353,75.5357780784117,6.47544875391759e-05,0.0923051163554191,0,0,0
7117,247464.52743411387,2010-10-25 10:08:16,4892.468592978655,2,22,0.5499359965324402,4.133765697479248,21.44998008134628,20.70839391813557,85.64023971790267,75.5357780784117,0.0001295089750783,0.0923051163554191,0,0,0
7118,247494.54258997767,2010-10-25 10:08:46,4922.4837488425,2,22,0.5501165986061096,4.137003421783447,21.45456538691365,20.70839391813557,85.65920117221974,75.5357780784117,9.71794142969884e-05,0.0923051163554191,0,0,0
7119,247524.55784359016,2010-10-25 10:09:16,4952.499002505089,2,22,0.5499359965324402,4.140241146087647,21.459150826769303,20.70839391813557,85.67817814813962,75.5357780784117,9.71794142969884e-05,0.0923051163554191,0,0,0
7120,247554.57288600627,2010-10-25 10:09:46,4982.514044876076,2,22,0.5499359965324402,4.143478870391846,21.463736202047247,20.70839391813557,85.69717003710403,75.5357780784117,9.71794142969884e-05,0.0923051163554191,0,0,0
7121,247584.58813885684,2010-10-25 10:10:16,5012.529297731655,2,22,0.5499359965324402,4.146878242492676,21.468321597946424,20.70839391813557,85.7161774402018,75.5357780784117,6.47544875391759e-05,0.0923051163554191,0,0,0
7122,247614.60318979915,2010-10-25 10:10:46,5042.544348663978,2,22,0.5501165986061096,4.150278091430664,21.472906968378368,20.70839391813557,85.7352002544064,75.5357780784117,9.71794142969884e-05,0.0923051163554191,0,0,0
7123,247644.6184320734,2010-10-25 10:11:16,5072.559590948209,2,22,0.5499359965324402,4.153515815734863,21.47749232564833,20.70839391813557,85.7542385171139,75.5357780784117,6.47544875391759e-05,0.0923051163554191,0,0,0
7124,247674.63347054465,2010-10-25 10:11:46,5102.574629419476,2,22,0.5499359965324402,4.156915187835693,21.48207763770012,20.70839391813557,85.77329200676841,75.5357780784117,6.47544875391759e-05,0.0923051163554191,0,0,0
7125,247704.6486035064,2010-10-25 10:12:16,5132.589762401292,2,22,0.5499359965324402,4.1604766845703125,21.48666296920064,20.70839391813557,85.79236119134967,75.5357780784117,0.0001295089750783,0.0923051163554191,0,0,0
7126,247734.66395441137,2010-10-25 10:12:46,5162.605113281177,2,22,0.5501165986061096,4.164038181304932,21.49124838288673,20.70839391813557,85.81144650742914,75.5357780784117,0.0001295089750783,0.0923051163554191,0,0,0
7127,247764.67904119304,2010-10-25 10:13:16,5192.6202000728745,2,22,0.5501165986061096,4.16743803024292,21.49583373019501,20.70839391813557,85.83054745787067,75.5357780784117,0.0001295089750783,0.0923051163554191,0,0,0
7128,247794.69403931373,2010-10-25 10:13:46,5222.635198208613,2,22,0.5499359965324402,4.17083740234375,21.50041902757368,20.70839391813557,85.84966426682871,75.5357780784117,6.47544875391759e-05,0.0923051163554191,0,0,0
7129,247824.70918982424,2010-10-25 10:14:16,5252.650348814353,2,22,0.5497553944587708,4.174398899078369,21.505004430975223,20.70839391813557,85.8687977362252,75.5357780784117,6.47544875391759e-05,0.0923051163554191,0,0,0
7130,247854.72435129705,2010-10-25 10:14:46,5282.6655101668775,2,22,0.5501165986061096,4.178122520446777,21.5095897966307,20.70839391813557,85.88794734071935,75.5357780784117,9.71794142969884e-05,0.0923051163554191,0,0,0
7131,247884.7394801185,2010-10-25 10:15:16,5312.680638988324,2,22,0.5499359965324402,4.1816840171813965,21.514175218363548,20.70839391813557,85.90711377278505,75.5357780784117,9.71794142969884e-05,0.0923051163554191,0,0,0
7132,247914.7546244386,2010-10-25 10:15:46,5342.695783348499,2,22,0.5501165986061096,4.185245513916016,21.51876058718295,20.70839391813557,85.926296564396,75.5357780784117,6.47544875391759e-05,0.0923051163554191,0,0,0
7133,247944.769782142,2010-10-25 10:16:16,5372.710941036892,2,22,0.5501165986061096,4.188968658447266,21.523345864294352,20.70839391813557,85.94549558568667,75.5357780784117,9.70840483205393e-05,0.0923051163554191,0,0,0
7134,247974.78494769,2010-10-25 10:16:46,5402.726106584873,2,22,0.5497553944587708,4.192692279815674,21.527931252659787,20.70839391813557,85.96471194987325,75.5357780784117,0.0001295089750783,0.0923051163554191,0,0,0
7135,248004.8000597948,2010-10-25 10:17:16,5432.741218664595,2,22,0.5499359965324402,4.196253299713135,21.5325165944448,20.70839391813557,85.98394501372832,75.5357780784117,9.70840483205393e-05,0.0923051163554191,0,0,0
7136,248033.59648456072,2010-10-25 10:17:45,5461.537643420525,2,22,0.5501165986061096,4.200138568878174,21.53691572616807,20.70839391813557,86.00241298844766,75.5357780784117,0.0001295089750783,0.0923051163554191,0,0,0
7137,248063.6138970253,2010-10-25 10:18:15,30.01515943775255,3,22,0.0,4.111749172210693,21.53691572616807,20.70839391813557,86.00241298844766,75.5357780784117,-0.0003561973571777,0.0923051163554191,0,0,0
7138,248093.62902883915,2010-10-25 10:18:45,60.030291281732936,3,22,0.0,4.100417137145996,21.53691572616807,20.70839391813557,86.00241298844766,75.5357780784117,-0.0002266883820993,0.0923051163554191,0,0,0
7139,248123.64434442605,2010-10-25 10:19:15,90.04560772078104,3,22,0.0,4.093780040740967,21.53691572616807,20.70839391813557,86.00241298844766,75.5357780784117,-0.0001618385285837,0.0923051163554191,0,0,0
7140,248153.6125186172,2010-10-25 10:19:45,120.013781119868,3,22,0.0,4.089247226715088,21.53691572616807,20.70839391813557,86.00241298844766,75.5357780784117,-9.70840483205393e-05,0.0923051163554191,0,0,0
7141,248153.6166321905,2010-10-25 10:19:45,2.681683581e-06,4,22,0.9976664185523988,4.199814796447754,21.536915726911243,20.70839391813557,86.00241299156885,75.5357780784117,0.0,0.0923051163554191,0,0,0
7142,248154.4759897289,2010-10-25 10:19:46,0.859360230111971,4,22,0.9465540051460266,4.199653148651123,21.537146148101744,20.70839391813557,86.0033806951376,75.5357780784117,-3.23295607813634e-05,0.0923051163554191,0,0,0
7143,248156.6166226197,2010-10-25 10:19:48,2.999993145994633,4,22,0.8961640000343323,4.199814796447754,21.53769298384773,20.70839391813557,86.00567726443897,75.5357780784117,0.0,0.0923051163554191,0,0,0
7144,248159.8510264844,2010-10-25 10:19:51,6.234397025663962,4,22,0.8459545969963074,4.199653148651123,21.53847447933668,20.70839391813557,86.00895934049392,75.5357780784117,-3.23295607813634e-05,0.0923051163554191,0,0,0
7145,248164.27271550897,2010-10-25 10:19:56,10.656086010132949,4,22,0.7959258556365967,4.199814796447754,21.53948140404216,20.70839391813557,86.01318816657083,75.5357780784117,0.0,0.0923051163554191,0,0,0
7146,248170.03849917592,2010-10-25 10:20:01,16.4218697172183,4,22,0.7458970546722412,4.199653148651123,21.54071425281488,20.70839391813557,86.01836583112028,75.5357780784117,-3.23295607813634e-05,0.0923051163554191,0,0,0
7147,248177.5224879838,2010-10-25 10:20:09,23.90585848499337,4,22,0.6958683133125305,4.199653148651123,21.54221045192952,20.70839391813557,86.0246495249949,75.5357780784117,-3.23295607813634e-05,0.0923051163554191,0,0,0
7148,248187.444226905,2010-10-25 10:20:19,33.82759743129029,4,22,0.6456589102745056,4.199653148651123,21.544055805774416,20.70839391813557,86.03239957907839,75.5357780784117,0.0,0.0923051163554191,0,0,0
7149,248201.31900996857,2010-10-25 10:20:33,47.70238046978624,4,22,0.5954495668411255,4.199653148651123,21.546442935709702,20.70839391813557,86.04242497764716,75.5357780784117,-3.23295607813634e-05,0.0923051163554191,0,0,0
7150,248222.6780371714,2010-10-25 10:20:54,69.06140767258398,4,22,0.5452401638031006,4.199653148651123,21.549816815181725,20.70839391813557,86.05659452334781,75.5357780784117,-3.23295607813634e-05,0.0923051163554191,0,0,0
7151,248259.0524606418,2010-10-25 10:21:30,105.43583114300256,4,22,0.4952113926410675,4.199653148651123,21.55505232495017,20.70839391813557,86.0785824629474,75.5357780784117,-3.23295607813634e-05,0.0923051163554191,0,0,0
7152,248327.11393904296,2010-10-25 10:22:38,173.4973095692341,4,22,0.4451826214790344,4.199653148651123,21.56390349629025,20.70839391813557,86.11575530404082,75.5357780784117,-6.47544875391759e-05,0.0923051163554191,0,0,0
7153,248432.17479721297,2010-10-25 10:24:23,278.5581677291866,4,22,0.3951538503170013,4.199653148651123,21.576136864546,20.70839391813557,86.16713255761842,75.5357780784117,-3.23295607813634e-05,0.0923051163554191,0,0,0
7154,248563.0477237996,2010-10-25 10:26:34,409.43109434590826,4,22,0.3451250791549682,4.199653148651123,21.589582604702027,20.70839391813557,86.22360154072545,75.5357780784117,-3.23295607813634e-05,0.0923051163554191,0,0,0
7155,248719.46692069725,2010-10-25 10:29:11,565.8502911984484,4,22,0.2950963079929352,4.199491024017334,21.60348273604574,20.70839391813557,86.28197929013854,75.5357780784117,-6.47544875391759e-05,0.0923051163554191,0,0,0
7156,248907.08892737777,2010-10-25 10:32:18,753.4722978789445,4,22,0.2450675517320633,4.199814796447754,21.61753082893671,20.70839391813557,86.34097807718325,75.5357780784117,3.23295607813634e-05,0.0923051163554191,0,0,0
7157,249138.55399880576,2010-10-25 10:36:10,984.9373693320276,4,22,0.1950387805700302,4.199653148651123,21.63163053448413,20.70839391813557,86.40019367113041,75.5357780784117,3.24249267578125e-05,0.0923051163554191,0,0,0
7158,249442.0647465872,2010-10-25 10:41:13,1288.448117088359,4,22,0.1450100094079971,4.199653148651123,21.645874622193396,20.70839391813557,86.4600156317925,75.5357780784117,-3.23295607813634e-05,0.0923051163554191,0,0,0
7159,249887.63586388525,2010-10-25 10:48:39,1734.019234396496,4,22,0.094981238245964,4.199653148651123,21.66053850949245,20.70839391813557,86.5216006664853,75.5357780784117,-3.23295607813634e-05,0.0923051163554191,0,0,0
7160,250642.26435454737,2010-10-25 11:01:14,2488.647725093695,4,22,0.0498289167881011,4.199491024017334,21.67521621567465,20.70839391813557,86.58324375729042,75.5357780784117,-6.47544875391759e-05,0.0923051163554191,0,0,0
7161,250672.27658755577,2010-10-25 11:01:44,30.01514932254233,5,22,0.0,4.191397190093994,21.67521621567465,20.70839391813557,86.58324375729042,75.5357780784117,-6.47544875391759e-05,0.0923051163554191,0,0,0
7162,250702.27611868296,2010-10-25 11:02:14,60.01468044472377,5,22,0.0,4.1901021003723145,21.67521621567465,20.70839391813557,86.58324375729042,75.5357780784117,-6.47544875391759e-05,0.0923051163554191,0,0,0
7163,250702.4619015926,2010-10-25 11:02:14,0.187640663268454,6,22,-1.9243103452026844e-05,4.1901021003723145,21.67521621567465,20.70839391913857,86.58324375729042,75.53577808261436,0.0,0.0957168191671371,0,0,0
7164,250707.2899124061,2010-10-25 11:02:19,5.01565135144514,6,22,0.0005225847125984,4.1901021003723145,21.67521694522627,20.70839391922146,86.58324681429816,75.53577808296168,-3.23295607813634e-05,0.0957168191671371,0,0,0
7165,250737.3031821124,2010-10-25 11:02:49,30.015139969231008,7,22,-1.099568486213684,4.004904747009277,21.67521694522627,20.71756200066577,86.58324681429816,75.57270464531915,-0.001003646873869,0.0957168191671371,0,0,0
7166,250767.31823041817,2010-10-25 11:03:19,60.03018817475862,7,22,-1.099568486213684,3.9759271144866943,21.67521694522627,20.72672997998129,86.58324681429816,75.60927996408743,-0.0006151676061563,0.0957168191671371,0,0,0
7167,250797.33334465823,2010-10-25 11:03:49,90.04530240985224,7,22,-1.0997490882873535,3.955691337585449,21.67521694522627,20.735897852484783,86.58324681429816,75.64563347825184,-0.0004856586456298,0.0957168191671371,0,0,0
7168,250827.34859639104,2010-10-25 11:04:19,120.06055411756996,7,22,-1.099568486213684,3.939988374710083,21.67521694522627,20.74506584183187,86.58324681429816,75.6818251097718,-0.0004532813909463,0.0957168191671371,0,0,0
7169,250857.36378305164,2010-10-25 11:04:49,150.0757407881952,7,22,-1.0997490882873535,3.927037477493286,21.67521694522627,20.754233767183983,86.58324681429816,75.71788695867053,-0.0003237724304199,0.0957168191671371,0,0,0
7170,250887.37879059583,2010-10-25 11:05:19,180.09074831734475,7,22,-1.099568486213684,3.915867328643799,21.67521694522627,20.76340160405221,86.58324681429816,75.75383844830247,-0.0003237724304199,0.0957168191671371,0,0,0
7171,250917.39391903128,2010-10-25 11:05:49,210.10587675784265,7,22,-1.099568486213684,3.90583062171936,21.67521694522627,20.772569592544293,86.58324681429816,75.78969270976495,-0.0002266406954731,0.0957168191671371,0,0,0
7172,250947.41097482035,2010-10-25 11:06:19,240.1229326721984,7,22,-1.099568486213684,3.8962793350219727,21.67521694522627,20.78173812811123,86.58324681429816,75.8254584891719,-0.0002266406954731,0.0957168191671371,0,0,0
7173,250977.42459803936,2010-10-25 11:06:49,270.13655586114623,7,22,-1.0997490882873535,3.887051820755005,21.67521694522627,20.79090555285057,86.58324681429816,75.86113454742326,-0.0002266406954731,0.0957168191671371,0,0,0
7174,251007.43937464297,2010-10-25 11:07:19,300.15133238455843,7,22,-1.0997490882873535,3.878309965133667,21.67521694522627,20.8000733102856,86.58324681429816,75.89672934726671,-0.0001942634553415,0.0957168191671371,0,0,0
7175,251037.4546287768,2010-10-25 11:07:49,330.1665865133101,7,22,-1.099568486213684,3.869729995727539,21.67521694522627,20.809241303833907,86.58324681429816,75.93224513000834,-0.0002266406954731,0.0957168191671371,0,0,0
7176,251067.46976725227,2010-10-25 11:08:19,360.1817249838058,7,22,-1.099568486213684,3.861150026321411,21.67521694522627,20.81840919693899,86.58324681429816,75.9676825492378,-0.0002266406954731,0.0957168191671371,0,0,0
7177,251097.48475945825,2010-10-25 11:08:49,390.19671719477776,7,22,-1.0997490882873535,3.852731943130493,21.67521694522627,20.827577036030032,86.58324681429816,76.00304307422905,-0.0002590179501567,0.0957168191671371,0,0,0
7178,251127.50029923389,2010-10-25 11:09:19,420.2122569654369,7,22,-1.099568486213684,3.844799518585205,21.67521694522627,20.83674502982188,86.58324681429816,76.0383292758842,-0.0002266406954731,0.0957168191671371,0,0,0
7179,251157.51513697987,2010-10-25 11:09:49,450.2270947064222,7,22,-1.0997490882873535,3.836867094039917,21.67521694522627,20.845912894643227,86.58324681429816,76.07354176059317,-0.0001942634553415,0.0957168191671371,0,0,0
7180,251187.5302376161,2010-10-25 11:10:19,480.2421953426232,7,22,-1.099568486213684,3.829096794128418,21.67521694522627,20.855080887096083,86.58324681429816,76.10868248891671,-0.0002266406954731,0.0957168191671371,0,0,0
7181,251217.54539416663,2010-10-25 11:10:49,510.25735189317993,7,22,-1.099568486213684,3.82148814201355,21.67521694522627,20.864248879659183,86.58324681429816,76.14375232468504,-0.0002266406954731,0.0957168191671371,0,0,0
7182,251247.5605381108,2010-10-25 11:11:19,540.2724958373177,7,22,-1.099568486213684,3.814041376113892,21.67521694522627,20.873416840072,86.58324681429816,76.17875259920001,-0.0001942634553415,0.0957168191671371,0,0,0
7183,251277.57581626443,2010-10-25 11:11:49,570.2877740009717,7,22,-1.099568486213684,3.806432723999024,21.67521694522627,20.882584826678425,86.58324681429816,76.2136842417026,-0.0002266406954731,0.0957168191671371,0,0,0
7184,251307.59081152297,2010-10-25 11:12:19,600.3027692495142,7,22,-1.0993878841400146,3.799147844314575,21.67521694522627,20.89175281383118,86.58324681429816,76.24854887162948,-0.0001942634553415,0.0957168191671371,0,0,0
7185,251337.60595791825,2010-10-25 11:12:49,630.3179156447608,7,22,-1.099568486213684,3.792186737060547,21.67521694522627,20.900920798632672,86.58324681429816,76.28334836378262,-0.0001942634553415,0.0957168191671371,0,0,0
7186,251367.62113004763,2010-10-25 11:13:19,660.3330877841698,7,22,-1.0993878841400146,3.785387516021729,21.67521694522627,20.910088819826708,86.58324681429816,76.31808377403179,-0.0001618862152099,0.0957168191671371,0,0,0
7187,251397.63636700856,2010-10-25 11:13:49,690.3483247451339,7,22,-1.099568486213684,3.77858829498291,21.67521694522627,20.91925688104847,86.58324681429816,76.35275634841328,-0.0001618862152099,0.0957168191671371,0,0,0
7188,251427.6515194188,2010-10-25 11:14:19,720.3634771704093,7,22,-1.099568486213684,3.771789073944092,21.67521694522627,20.928424914517045,86.58324681429816,76.38736693151816,-0.0001942634553415,0.0957168191671371,0,0,0
7189,251457.6665340156,2010-10-25 11:14:49,750.378491742111,7,22,-1.099568486213684,3.765313625335693,21.67521694522627,20.93759285320214,86.58324681429816,76.42191672959662,-0.0001618862152099,0.0957168191671371,0,0,0
7190,251487.6817104958,2010-10-25 11:15:19,780.3936682574263,7,22,-1.099568486213684,3.759000062942505,21.67521694522627,20.94676090065252,86.58324681429816,76.45640807684163,-0.0001618862152099,0.0957168191671371,0,0,0
7191,251517.697004925,2010-10-25 11:15:49,810.408962696644,7,22,-1.099568486213684,3.752686738967896,21.67521694522627,20.95592899295685,86.58324681429816,76.49084183463046,-0.0001942157687153,0.0957168191671371,0,0,0
7192,251547.71197059483,2010-10-25 11:16:19,840.4239283213548,7,22,-1.099568486213684,3.746535062789917,21.67521694522627,20.96509691878988,86.58324681429816,76.52521775210379,-0.0001618862152099,0.0957168191671371,0,0,0
7193,251577.7271181029,2010-10-25 11:16:49,870.4390758644622,7,22,-1.0997490882873535,3.7403833866119385,21.67521694522627,20.974264976304312,86.58324681429816,76.55953804226907,-0.0001942634553415,0.0957168191671371,0,0,0
7194,251607.74226572612,2010-10-25 11:17:19,900.454223482757,7,22,-1.0993878841400146,3.73455548286438,21.67521694522627,20.98343299122867,86.58324681429816,76.59380330802077,-0.0001295089750783,0.0957168191671371,0,0,0
7195,251637.75740036208,2010-10-25 11:17:49,930.4693581136833,7,22,-1.0993878841400146,3.7288894653320312,21.67521694522627,20.992601016166223,86.58324681429816,76.62801450467171,-6.47544875391759e-05,0.0957168191671371,0,0,0
7196,251667.7726639444,2010-10-25 11:18:19,960.4846216759462,7,22,-1.099568486213684,3.7230615615844727,21.67521694522627,21.00176901796343,86.58324681429816,76.66217338209634,-0.0001295089750783,0.0957168191671371,0,0,0
7197,251697.78783762763,2010-10-25 11:18:49,990.4997953742404,7,22,-1.099568486213684,3.717233657836914,21.67521694522627,21.01093701097789,86.58324681429816,76.69627994950082,-0.0001618862152099,0.0957168191671371,0,0,0
7198,251727.80283959795,2010-10-25 11:19:19,1020.5147973545604,7,22,-1.099568486213684,3.711729526519776,21.67521694522627,21.020104964847917,86.58324681429816,76.73033445624979,-0.0001295089750783,0.0957168191671371,0,0,0
7199,251757.81797935665,2010-10-25 11:19:49,1050.5299370882046,7,22,-1.0993878841400146,3.706387281417847,21.67521694522627,21.0292729206473,86.58324681429816,76.76433854573975,-0.0001295089750783,0.0957168191671371,0,0,0
7200,251787.833110138,2010-10-25 11:20:19,1080.545067864524,7,22,-1.0997490882873535,3.700883150100708,21.67521694522627,21.038440885157225,86.58324681429816,76.79829333491757,-0.0001618862152099,0.0957168191671371,0,0,0
7201,251817.8483768681,2010-10-25 11:20:50,1110.560334614732,7,22,-1.099568486213684,3.695864677429199,21.67521694522627,21.04760894809225,86.58324681429816,76.83219956790056,-9.713172767078504e-05,0.0957168191671371,0,0,0
7202,251847.8634108983,2010-10-25 11:21:20,1140.575368629893,7,22,-1.099568486213684,3.690360546112061,21.67521694522627,21.0567769362901,86.58324681429816,76.86605714614413,-0.0001618862152099,0.0957168191671371,0,0,0
7203,251877.8785424917,2010-10-25 11:21:50,1170.5905002533236,7,22,-1.099568486213684,3.685180187225342,21.67521694522627,21.065944889289824,86.58324681429816,76.89986675777945,-0.0001295089750783,0.0957168191671371,0,0,0
7204,251907.89370425025,2010-10-25 11:22:20,1200.6056619817855,7,22,-1.099568486213684,3.680161714553833,21.67521694522627,21.0751129488112,86.58324681429816,76.93362953034499,-9.713172767078504e-05,0.0957168191671371,0,0,0
7205,251937.9088757631,2010-10-25 11:22:50,1230.6208334996454,7,22,-1.099568486213684,3.675143241882324,21.67521694522627,21.08428097099157,86.58324681429816,76.9673461194211,-0.0001295089750783,0.0957168191671371,0,0,0
7206,251967.9239969154,2010-10-25 11:23:20,1260.6359546670162,7,22,-1.0993878841400146,3.670286893844605,21.67521694522627,21.093449022219858,86.58324681429816,77.00101712786558,-6.47544875391759e-05,0.0957168191671371,0,0,0
7207,251997.93911836343,2010-10-25 11:23:50,1290.6510760900244,7,22,-1.099568486213684,3.665268421173096,21.67521694522627,21.102617049965698,86.58324681429816,77.03464302766308,-0.0001295089750783,0.0957168191671371,0,0,0
7208,252027.95426249303,2010-10-25 11:24:20,1320.6662202196242,7,22,-1.099568486213684,3.660411834716797,21.67521694522627,21.11178502328562,86.58324681429816,77.0682240716881,-0.0001295089750783,0.0957168191671371,0,0,0
7209,252057.96940605124,2010-10-25 11:24:50,1350.6813637778,7,22,-1.099568486213684,3.655879020690918,21.67521694522627,21.120953027277316,86.58324681429816,77.10176158082461,-9.713172767078504e-05,0.0957168191671371,0,0,0
7210,252087.9847720789,2010-10-25 11:25:20,1380.696729835513,7,22,-1.099568486213684,3.651184320449829,21.67521694522627,21.13012115126607,86.58324681429816,77.1352565625567,-9.713172767078504e-05,0.0957168191671371,0,0,0
7211,252117.9997342049,2010-10-25 11:25:50,1410.711691961504,7,22,-1.099568486213684,3.6463277339935294,21.67521694522627,21.13928904416423,86.58324681429816,77.16870759143964,-0.0001618862152099,0.0957168191671371,0,0,0
7212,252148.0150289649,2010-10-25 11:26:20,1440.7269867315465,7,22,-1.099568486213684,3.641956806182861,21.67521694522627,21.148456985500587,86.58324681429816,77.20211677979987,-9.713172767078504e-05,0.0957168191671371,0,0,0
7213,252178.0299794268,2010-10-25 11:26:50,1470.741937183442,7,22,-1.099568486213684,3.6374239921569824,21.67521694522627,21.157624913015272,86.58324681429816,77.23548483543574,-0.0001295089750783,0.0957168191671371,0,0,0
7214,252208.0451401277,2010-10-25 11:27:20,1500.7570978542676,7,22,-1.0993878841400146,3.6330530643463135,21.67521694522627,21.16679284830896,86.58324681429816,77.2688124622604,-0.0001295089750783,0.0957168191671371,0,0,0
7215,252238.06027034263,2010-10-25 11:27:50,1530.7722280691878,7,22,-1.099568486213684,3.628682136535645,21.67521694522627,21.175960796062032,86.58324681429816,77.30210033874859,-0.0001618862152099,0.0957168191671371,0,0,0
7216,252268.07541083315,2010-10-25 11:28:20,1560.787368559718,7,22,-1.099568486213684,3.6244730949401855,21.67521694522627,21.18512872155869,86.58324681429816,77.3353491922822,-0.0001618862152099,0.0957168191671371,0,0,0
7217,252298.0907161094,2010-10-25 11:28:50,1590.80267384597,7,22,-1.0997490882873535,3.620425939559937,21.67521694522627,21.194296768054688,86.58324681429816,77.36856029103392,-0.0001295089750783,0.0957168191671371,0,0,0
7218,252328.10575174363,2010-10-25 11:29:20,1620.8177094751534,7,22,-1.099568486213684,3.616378784179688,21.67521694522627,21.20346480144481,86.58324681429816,77.40173357056524,-9.713172767078504e-05,0.0957168191671371,0,0,0
7219,252358.12097881493,2010-10-25 11:29:50,1650.832936551482,7,22,-1.099568486213684,3.612493515014648,21.67521694522627,21.21263283431427,86.58324681429816,77.43487042540832,-0.0001295089750783,0.0957168191671371,0,0,0
7220,252388.13599194304,2010-10-25 11:30:20,1680.847949669561,7,22,-1.099568486213684,3.60860824584961,21.67521694522627,21.22180090029984,86.58324681429816,77.46797195663432,-9.713172767078504e-05,0.0957168191671371,0,0,0
7221,252418.1511380475,2010-10-25 11:30:50,1710.8630957740831,7,22,-1.0997490882873535,3.6047229766845694,21.67521694522627,21.23096891404553,86.58324681429816,77.5010378256905,-9.713172767078504e-05,0.0957168191671371,0,0,0
7222,252448.16629268831,2010-10-25 11:31:20,1740.8782504399426,7,22,-1.0993878841400146,3.601161479949951,21.67521694522627,21.240136817124405,86.58324681429816,77.53406878206502,-9.713172767078504e-05,0.0957168191671371,0,0,0
7223,252478.18142322908,2010-10-25 11:31:50,1770.8933809856876,7,22,-1.099568486213684,3.597276210784912,21.67521694522627,21.24930486515712,86.58324681429816,77.56706619231886,-0.0001295089750783,0.0957168191671371,0,0,0
7224,252508.19656662684,2010-10-25 11:32:20,1800.9085243533884,7,22,-1.099568486213684,3.593876600265503,21.67521694522627,21.258472924739216,86.58324681429816,77.60003003039279,-9.713172767078504e-05,0.0957168191671371,0,0,0
7225,252538.21172539293,2010-10-25 11:32:50,1830.923683149542,7,22,-1.0997490882873535,3.590153455734253,21.67521694522627,21.267640942449564,86.58324681429816,77.6329609086906,-9.713172767078504e-05,0.0957168191671371,0,0,0
7226,252568.2268684348,2010-10-25 11:33:20,1860.9388261864185,7,22,-1.099568486213684,3.586753845214844,21.67521694522627,21.276808950496665,86.58324681429816,77.6658597002065,-6.47544875391759e-05,0.0957168191671371,0,0,0
7227,252598.24211893955,2010-10-25 11:33:50,1890.9540766761004,7,22,-1.099568486213684,3.5833542346954346,21.67521694522627,21.285976986963384,86.58324681429816,77.69872732780868,-6.47544875391759e-05,0.0957168191671371,0,0,0
7228,252628.25730325427,2010-10-25 11:34:20,1920.969261010904,7,22,-1.099568486213684,3.5799546241760254,21.67521694522627,21.295144982250687,86.58324681429816,77.73156377442703,-9.713172767078504e-05,0.0957168191671371,0,0,0
7229,252658.27242183025,2010-10-25 11:34:50,1950.984379596841,7,22,-1.099568486213684,3.576878786087036,21.67521694522627,21.304313016980945,86.58324681429816,77.76436993114703,-9.713172767078504e-05,0.0957168191671371,0,0,0
7230,252688.28745186544,2010-10-25 11:35:20,1980.9994095869704,7,22,-1.0997490882873535,3.573479175567627,21.67521694522627,21.31348097848887,86.58324681429816,77.79714569358995,-9.713172767078504e-05,0.0957168191671371,0,0,0
7231,252718.30269923236,2010-10-25 11:35:50,2011.0146570841944,7,22,-1.0997490882873535,3.570241451263428,21.67521694522627,21.322649038618007,86.58324681429816,77.82989265682946,-9.713172767078504e-05,0.0957168191671371,0,0,0
7232,252748.3180971244,2010-10-25 11:36:20,2041.0300548559487,7,22,-1.099568486213684,3.5670037269592285,21.67521694522627,21.33181711730109,86.58324681429816,77.86261033298908,-0.0001295089750783,0.0957168191671371,0,0,0
7233,252778.3328618484,2010-10-25 11:36:50,2071.044819574941,7,22,-1.099568486213684,3.564089775085449,21.67521694522627,21.3409850866638,86.58324681429816,77.89529914136897,-9.713172767078504e-05,0.0957168191671371,0,0,0
7234,252808.34814330025,2010-10-25 11:37:20,2101.060101036815,7,22,-1.099568486213684,3.56101393699646,21.67521694522627,21.35015307119897,86.58324681429816,77.92795984849005,-6.47544875391759e-05,0.0957168191671371,0,0,0
7235,252838.3631463733,2010-10-25 11:37:50,2131.0751041048456,7,22,-1.099568486213684,3.5579380989074707,21.67521694522627,21.35932103730241,86.58324681429816,77.96059235555919,-6.47544875391759e-05,0.0957168191671371,0,0,0
7236,252868.37925755308,2010-10-25 11:38:20,2161.091215314708,7,22,-1.099929690361023,3.554538488388061,21.67521694522627,21.368489337431104,86.58324681429816,77.99319774764557,-0.0001295089750783,0.0957168191671371,0,0,0
7237,252898.393707658,2010-10-25 11:38:50,2191.105665419584,7,22,-1.099568486213684,3.5516245365142822,21.67521694522627,21.377657160363896,86.58324681429816,78.0257730678469,-9.713172767078504e-05,0.0957168191671371,0,0,0
7238,252928.4086217292,2010-10-25 11:39:20,2221.120579485796,7,22,-1.0993878841400146,3.548548698425293,21.67521694522627,21.38682517826998,86.58324681429816,78.058320573366,-6.47544875391759e-05,0.0957168191671371,0,0,0
7239,252958.42375997413,2010-10-25 11:39:50,2251.1357177056666,7,22,-1.0997490882873535,3.5453109741210938,21.67521694522627,21.395993230475465,86.58324681429816,78.09083921011194,-6.47544875391759e-05,0.0957168191671371,0,0,0
7240,252988.438996098,2010-10-25 11:40:20,2281.1509538295445,7,22,-1.099568486213684,3.5422351360321045,21.67521694522627,21.405161384093983,86.58324681429816,78.12332894934929,-6.47544875391759e-05,0.0957168191671371,0,0,0
7241,253018.4540084993,2010-10-25 11:40:50,2311.1659662258244,7,22,-1.099568486213684,3.5388355255126958,21.67521694522627,21.414329413511933,86.58324681429816,78.15578925113157,-9.713172767078504e-05,0.0957168191671371,0,0,0
7242,253048.46961034965,2010-10-25 11:41:20,2341.181568181468,7,22,-1.0997490882873535,3.535597801208496,21.67521694522627,21.423497654669465,86.58324681429816,78.18822070516903,-9.713172767078504e-05,0.0957168191671371,0,0,0
7243,253078.4843128987,2010-10-25 11:41:50,2371.196270630264,7,22,-1.0997490882873535,3.532360076904297,21.67521694522627,21.432665590888323,86.58324681429816,78.22062120062404,-9.713172767078504e-05,0.0957168191671371,0,0,0
7244,253108.499459314,2010-10-25 11:42:20,2401.2114170756345,7,22,-1.0997490882873535,3.529284238815308,21.67521694522627,21.44183366784821,86.58324681429816,78.25299203573397,-6.47544875391759e-05,0.0957168191671371,0,0,0
7245,253138.5147463648,2010-10-25 11:42:50,2431.226704126438,7,22,-1.099568486213684,3.5258846282958984,21.67521694522627,21.451001788055205,86.58324681429816,78.28533198034027,-6.47544875391759e-05,0.0957168191671371,0,0,0
7246,253168.5297577436,2010-10-25 11:43:20,2461.241715475107,7,22,-1.0993878841400146,3.5223231315612797,21.67521694522627,21.46016984215139,86.58324681429816,78.3176398881595,-9.713172767078504e-05,0.0957168191671371,0,0,0
7247,253198.54501313547,2010-10-25 11:43:50,2491.25697087202,7,22,-1.0997490882873535,3.51843786239624,21.67521694522627,21.46933791079813,86.58324681429816,78.34991496736374,-9.713172767078504e-05,0.0957168191671371,0,0,0
7248,253228.56001594284,2010-10-25 11:44:20,2521.2719736743884,7,22,-1.0997490882873535,3.514714479446411,21.67521694522627,21.47850599349779,86.58324681429816,78.38215627727274,-0.0001295089750783,0.0957168191671371,0,0,0
7249,253258.5757073514,2010-10-25 11:44:50,2551.2876650980133,7,22,-1.0997490882873535,3.510829448699951,21.67521694522627,21.487674179978647,86.58324681429816,78.41436303900707,-0.0001295089750783,0.0957168191671371,0,0,0
7250,253288.5903537706,2010-10-25 11:45:20,2581.3023115422284,7,22,-1.099568486213684,3.506782293319702,21.67521694522627,21.496842054155987,86.58324681429816,78.44653229376647,-9.713172767078504e-05,0.0957168191671371,0,0,0
7251,253318.6055883005,2010-10-25 11:45:50,2611.317546032034,7,22,-1.099568486213684,3.502735137939453,21.67521694522627,21.50601015110245,86.58324681429816,78.4786644105653,-6.47544875391759e-05,0.0957168191671371,0,0,0
7252,253348.62072995392,2010-10-25 11:46:20,2641.332687685462,7,22,-1.0993878841400146,3.498202323913574,21.67521694522627,21.515178178750997,86.58324681429816,78.51075604696887,-9.713172767078504e-05,0.0957168191671371,0,0,0
7253,253378.63576820964,2010-10-25 11:46:50,2671.347725941192,7,22,-1.099568486213684,3.4933457374572754,21.67521694522627,21.52434627472316,86.58324681429816,78.54280523465596,-9.713172767078504e-05,0.0957168191671371,0,0,0
7254,253408.6509002892,2010-10-25 11:47:20,2701.362858025772,7,22,-1.0997490882873535,3.4880034923553467,21.67521694522627,21.533514322144647,86.58324681429816,78.5748087533239,-0.0001618862152099,0.0957168191671371,0,0,0
7255,253438.66605549643,2010-10-25 11:47:50,2731.378013258043,7,22,-1.099568486213684,3.482499361038208,21.67521694522627,21.542682441443723,86.58324681429816,78.6067626362153,-0.0001295089750783,0.0957168191671371,0,0,0
7256,253468.68117238316,2010-10-25 11:48:20,2761.3931301146704,7,22,-1.0997490882873535,3.4761857986450195,21.67521694522627,21.55185040581835,86.58324681429816,78.63866064428005,-0.0001295089750783,0.0957168191671371,0,0,0
7257,253498.6963221568,2010-10-25 11:48:50,2791.4082798933496,7,22,-1.0997490882873535,3.4689009189605717,21.67521694522627,21.561018419481098,86.58324681429816,78.67049722297558,-0.0001942634553415,0.0957168191671371,0,0,0
7258,253528.7114850682,2010-10-25 11:49:20,2821.4234428298223,7,22,-1.099568486213684,3.460968494415283,21.67521694522627,21.570186525262773,86.58324681429816,78.70226533791178,-0.0002266406954731,0.0957168191671371,0,0,0
7259,253558.7265804764,2010-10-25 11:49:50,2851.4385382029054,7,22,-1.099568486213684,3.4517409801483154,21.67521694522627,21.579354609058672,86.58324681429816,78.73395493065489,-0.0002913951757363,0.0957168191671371,0,0,0
7260,253588.74191209825,2010-10-25 11:50:20,2881.453869925044,7,22,-1.0997490882873535,3.441056489944458,21.67521694522627,21.5885227747164,86.58324681429816,78.76555372764992,-0.0002913951757363,0.0957168191671371,0,0,0
7261,253618.7569239983,2010-10-25 11:50:50,2911.46888179,7,22,-1.0997490882873535,3.42826771736145,21.67521694522627,21.59769081107521,86.58324681429816,78.79704516300653,-0.0003885269106831,0.0957168191671371,0,0,0
7262,253648.7720844987,2010-10-25 11:51:20,2941.4840422653383,7,22,-1.099568486213684,3.413050413131714,21.67521694522627,21.606858953942865,86.58324681429816,78.82840889980855,-0.0004856586456298,0.0957168191671371,0,0,0
7263,253678.78720412223,2010-10-25 11:51:50,2971.4991618587865,7,22,-1.0997490882873535,3.3942716121673584,21.67521694522627,21.616027047260697,86.58324681429816,78.85961677758337,-0.0005180359003134,0.0957168191671371,0,0,0
7264,253708.80234680825,2010-10-25 11:52:20,3001.514304569851,7,22,-1.099568486213684,3.370798110961914,21.67521694522627,21.625195117068003,86.58324681429816,78.89063201713664,-0.0006799221155233,0.0957168191671371,0,0,0
7265,253738.81762103207,2010-10-25 11:52:51,3031.529578778648,7,22,-1.099568486213684,3.3400399684906006,21.67521694522627,21.63436323290426,86.58324681429816,78.92140096344963,-0.0009065627818927,0.0957168191671371,0,0,0
7266,253768.83264241577,2010-10-25 11:53:21,3061.5446001723526,7,22,-1.099568486213684,3.2990827560424805,21.67521694522627,21.643531287070584,86.58324681429816,78.95184500447056,-0.0012303352123126,0.0957168191671371,0,0,0
7267,253798.84791942657,2010-10-25 11:53:51,3091.559877168096,7,22,-1.0993878841400146,3.2422609329223637,21.67521694522627,21.652699399680085,86.58324681429816,78.98184580139818,-0.0017159938579425,0.0957168191671371,0,0,0
7268,253828.8629209106,2010-10-25 11:54:21,3121.5748786622044,7,22,-1.099568486213684,3.160508632659912,21.67521694522627,21.66186742178079,86.58324681429816,79.01122109276773,-0.0025901794433593,0.0957168191671371,0,0,0
7269,253858.8781779115,2010-10-25 11:54:51,3151.5901356581016,7,22,-1.099568486213684,3.0313236713409424,21.67521694522627,21.671035561020368,86.58324681429816,79.03965567593687,-0.0043385503813624,0.0957168191671371,0,0,0
7270,253883.4090446444,2010-10-25 11:55:15,3176.121002421034,7,22,-1.0997490882873535,2.831071138381958,21.67521694522627,21.67852855164371,86.58324681429816,79.06170437314658,-0.0085151670500636,0.0957168191671371,0,0,0
7271,253893.87762023584,2010-10-25 11:55:26,3186.5895779724083,7,22,-1.099568486213684,2.699943780899048,21.67521694522627,21.68172616801469,86.58324681429816,79.0705539705878,-0.0105549339205026,0.0957168191671371,0,0,0
7272,253953.89456972948,2010-10-25 11:56:26,60.0146520990777,8,22,0.0,3.3657796382904053,21.67521694522627,21.68172616801469,86.58324681429816,79.0705539705878,0.0013598442310467,0.0957168191671371,0,0,0
7273,253954.0855956192,2010-10-25 11:56:26,0.187638422684228,9,22,-1.9243103452026844e-05,3.3659415245056152,21.67521694522627,21.68172616901768,86.58324681429816,79.07055397396378,0.0,0.0944781526923179,0,0,0
7274,253958.91359934505,2010-10-25 11:56:31,5.015642153521083,9,22,0.0005225847125984,3.3740358352661133,21.675217539314296,21.681726169266824,86.58324881670715,79.07055397480302,0.0011332035064697,0.0944781526923179,0,0,0
