Data_Point,Test_Time(s),Date_Time,Step_Time(s),Step_Index,Cycle_Index,Current(A),Voltage(V),Charge_Capacity(Ah),Discharge_Capacity(Ah),Charge_Energy(Wh),Discharge_Energy(Wh),dV/dt(V/s),Internal_Resistance(Ohm),Is_FC_Data,AC_Impedance(Ohm),ACI_Phase_Angle(Deg)
1638,57934.55096524263,2010-10-23 05:29:06,30.01516983366236,1,6,0.0,3.3772735595703125,4.896167950861531,4.909110076552116,19.59721817459779,17.860546408333036,0.0007770538213662,0.0915781408548355,0,0,0
1639,57964.56635475882,2010-10-23 05:29:36,60.030559470140965,1,6,0.0,3.4026896953582764,4.896167950861531,4.909110076552116,19.59721817459779,17.860546408333036,0.0005827903514727,0.0915781408548355,0,0,0
1640,57994.58132565667,2010-10-23 05:30:06,90.04553026273173,1,6,0.0,3.421630382537842,4.896167950861531,4.909110076552116,19.59721817459779,17.860546408333036,0.0004209041653666,0.0915781408548355,0,0,0
1641,58024.549815925486,2010-10-23 05:30:36,120.0140205165181,1,6,0.0,3.437333106994629,4.896167950861531,4.909110076552116,19.59721817459779,17.860546408333036,0.0004532813909463,0.0915781408548355,0,0,0
1642,58054.56394445662,2010-10-23 05:31:06,30.015311276180636,2,6,0.5501165986061096,3.593067169189453,4.900754611376675,4.909110076552116,19.613532345472045,17.860546408333036,0.0016511917347088,0.0915781408548355,0,0,0
1643,58084.579014185794,2010-10-23 05:31:36,60.03038100033931,2,6,0.5501165986061096,3.6417949199676514,4.905341272679605,4.909110076552116,19.630131478437303,17.860546408333036,0.0011008263099938,0.0915781408548355,0,0,0
1644,58114.59427737714,2010-10-23 05:32:06,90.0456441966902,2,6,0.5499359965324402,3.6772477626800537,4.909927984624318,4.909110076552116,19.64692024492854,17.860546408333036,0.0008418083307333,0.0915781408548355,0,0,0
1645,58144.60934428427,2010-10-23 05:32:36,120.06071112387798,2,6,0.5501165986061096,3.704606533050537,4.914514655252047,4.909110076552116,19.663851088403668,17.860546408333036,0.0006475448608398,0.0915781408548355,0,0,0
1646,58174.62452986719,2010-10-23 05:33:06,150.07589670177984,2,6,0.5501165986061096,3.726946830749512,4.919101388531771,4.909110076552116,19.680896004793876,17.860546408333036,0.0005504131549969,0.0915781408548355,0,0,0
1647,58204.63921379984,2010-10-23 05:33:36,180.09058030861533,2,6,0.550297200679779,3.7454018592834473,4.923688060772459,4.909110076552116,19.698033828245077,17.860546408333036,0.0004532813909463,0.0915781408548355,0,0,0
1648,58234.639291143365,2010-10-23 05:34:06,210.0906580130479,2,6,0.5504778623580933,3.7598094940185542,4.928272391614647,4.909110076552116,19.71523819977284,17.860546408333036,0.0003885269106831,0.0915781408548355,0,0,0
1649,58264.654397574006,2010-10-23 05:34:36,240.10576438354053,2,6,0.5499359965324402,3.7685513496398926,4.932858330167411,4.909110076552116,19.73250212787084,17.860546408333036,0.0001618862152099,0.0915781408548355,0,0,0
1650,58294.66971273989,2010-10-23 05:35:06,270.12107955944043,2,6,0.5501165986061096,3.774379253387451,4.937444113902409,4.909110076552116,19.749797787777595,17.860546408333036,0.0001618862152099,0.0915781408548355,0,0,0
1651,58324.68476222861,2010-10-23 05:35:36,300.1361290331287,2,6,0.5499359965324402,3.77826452255249,4.942029895462042,4.909110076552116,19.767114777018104,17.860546408333036,9.713172767078504e-05,0.0915781408548355,0,0,0
1652,58354.69992479416,2010-10-23 05:36:06,330.1512915986767,2,6,0.5501165986061096,3.7819879055023193,4.946615672138338,4.909110076552116,19.78444949568517,17.860546408333036,9.713172767078504e-05,0.0915781408548355,0,0,0
1653,58384.71524765421,2010-10-23 05:36:36,360.16661456399027,2,6,0.5499359965324402,3.7855494022369385,4.951202186414733,4.909110076552116,19.80180405440003,17.860546408333036,6.47544875391759e-05,0.0915781408548355,0,0,0
1654,58414.73027912303,2010-10-23 05:37:06,390.1816459325549,2,6,0.550297200679779,3.789272785186768,4.955788841623654,4.909110076552116,19.81917573674263,17.860546408333036,0.0001295089750783,0.0915781408548355,0,0,0
1655,58444.7455781186,2010-10-23 05:37:36,420.19694493314114,2,6,0.550297200679779,3.7928342819213863,4.96037549721109,4.909110076552116,19.836563662301277,17.860546408333036,9.713172767078504e-05,0.0915781408548355,0,0,0
1656,58474.76063063486,2010-10-23 05:38:06,450.2119974443999,2,6,0.5501165986061096,3.796233892440796,4.964962111856858,4.909110076552116,19.8539673568484,17.860546408333036,9.713172767078504e-05,0.0915781408548355,0,0,0
1657,58504.775811581225,2010-10-23 05:38:36,480.227178385746,2,6,0.5501165986061096,3.799633502960205,4.969548732771919,4.909110076552116,19.87138658680967,17.860546408333036,0.0001618862152099,0.0915781408548355,0,0,0
1658,58534.79098007654,2010-10-23 05:39:06,510.2423469261852,2,6,0.550297200679779,3.802871227264404,4.974135400525496,4.909110076552116,19.88882121681436,17.860546408333036,9.713172767078504e-05,0.0915781408548355,0,0,0
1659,58564.80616578979,2010-10-23 05:39:36,540.2575325993245,2,6,0.550297200679779,3.806108951568604,4.978722082152316,4.909110076552116,19.906270870452712,17.860546408333036,0.0001295089750783,0.0915781408548355,0,0,0
1660,58594.82132137294,2010-10-23 05:40:06,570.2726881824701,2,6,0.550297200679779,3.8093466758728023,4.983308772040722,4.909110076552116,19.9237353440555,17.860546408333036,9.713172767078504e-05,0.0915781408548355,0,0,0
1661,58624.8391428854,2010-10-23 05:40:36,600.2905098252568,2,6,0.550297200679779,3.812422513961792,4.987895910586057,4.909110076552116,19.941216063402777,17.860546408333036,9.713172767078504e-05,0.0915781408548355,0,0,0
1662,58654.8520720797,2010-10-23 05:41:06,630.3034390095314,2,6,0.5501165986061096,3.815660238265991,4.992482185418533,4.909110076552116,19.95870832453424,17.860546408333036,9.713172767078504e-05,0.0915781408548355,0,0,0
1663,58684.866847761004,2010-10-23 05:41:36,660.3182146056324,2,6,0.5499359965324402,3.8185741901397705,4.99706879346281,4.909110076552116,19.976216282429903,17.860546408333036,3.237724376958795e-05,0.0915781408548355,0,0,0
1664,58714.88204564459,2010-10-23 05:42:06,690.3334124591289,2,6,0.5501165986061096,3.82197380065918,5.001655447183211,4.909110076552116,19.99373891436508,17.860546408333036,9.713172767078504e-05,0.0915781408548355,0,0,0
1665,58744.89724335774,2010-10-23 05:42:36,720.3486101923254,2,6,0.5501165986061096,3.825211524963379,5.006242037746806,4.909110076552116,20.011275920186844,17.860546408333036,9.713172767078504e-05,0.0915781408548355,0,0,0
1666,58774.91240981297,2010-10-23 05:43:06,750.3637766225053,2,6,0.5501165986061096,3.828449249267578,5.010828567752884,4.909110076552116,20.028827707246315,17.860546408333036,9.713172767078504e-05,0.0915781408548355,0,0,0
1667,58804.92777895838,2010-10-23 05:43:36,780.3791457629014,2,6,0.5499359965324402,3.8318488597869873,5.01541511451495,4.909110076552116,20.046394945902072,17.860546408333036,9.713172767078504e-05,0.0915781408548355,0,0,0
1668,58834.94275447274,2010-10-23 05:44:06,810.3941212822727,2,6,0.550297200679779,3.8354101181030273,5.020001674025349,4.909110076552116,20.063977863233195,17.860546408333036,0.0001295089750783,0.0915781408548355,0,0,0
1669,58864.95792444675,2010-10-23 05:44:36,840.409291256285,2,6,0.5501165986061096,3.838809728622437,5.024588218920494,4.909110076552116,20.08157651258994,17.860546408333036,0.0001295089750783,0.0915781408548355,0,0,0
1670,58894.97324077553,2010-10-23 05:45:06,870.4246076301705,2,6,0.5501165986061096,3.8422093391418457,5.029174766882655,4.909110076552116,20.09919105026355,17.860546408333036,9.713172767078504e-05,0.0915781408548355,0,0,0
1671,58924.98844426808,2010-10-23 05:45:36,900.4398110826213,2,6,0.5501165986061096,3.845608949661255,5.033761354652782,4.909110076552116,20.116821492394383,17.860546408333036,9.713172767078504e-05,0.0915781408548355,0,0,0
1672,58955.00347079959,2010-10-23 05:46:06,930.454837609118,2,6,0.550297200679779,3.849170446395874,5.038347899149115,4.909110076552116,20.134467354742,17.860546408333036,0.0001295089750783,0.0915781408548355,0,0,0
1673,58985.0187485873,2010-10-23 05:46:36,960.4701154018476,2,6,0.5501165986061096,3.8522462844848633,5.042934439594498,4.909110076552116,20.1521285540813,17.860546408333036,6.47544875391759e-05,0.0915781408548355,0,0,0
1674,59015.03378917886,2010-10-23 05:47:06,990.4851559883864,2,6,0.5501165986061096,3.855645895004273,5.047520998932874,4.909110076552116,20.16980481735544,17.860546408333036,6.47544875391759e-05,0.0915781408548355,0,0,0
1675,59045.04910452016,2010-10-23 05:47:36,1020.5004713597737,2,6,0.5501165986061096,3.8587217330932617,5.052107540469784,4.909110076552116,20.18749582214738,17.860546408333036,6.47544875391759e-05,0.0915781408548355,0,0,0
1676,59075.064147377365,2010-10-23 05:48:06,1050.5155142069466,2,6,0.5499359965324402,3.861797571182251,5.056694016788415,4.909110076552116,20.205201011273456,17.860546408333036,6.47544875391759e-05,0.0915781408548355,0,0,0
1677,59105.07956598104,2010-10-23 05:48:36,1080.5309328206454,2,6,0.5501165986061096,3.86487340927124,5.061280587802237,4.909110076552116,20.22292061660116,17.860546408333036,3.237724376958795e-05,0.0915781408548355,0,0,0
1678,59135.09452052814,2010-10-23 05:49:06,1110.5458873376722,2,6,0.5499359965324402,3.8679492473602295,5.065867136147547,4.909110076552116,20.24065375622287,17.860546408333036,9.713172767078504e-05,0.0915781408548355,0,0,0
1679,59165.109694732695,2010-10-23 05:49:36,1140.5610615572657,2,6,0.550297200679779,3.870701313018799,5.070453697797334,4.909110076552116,20.258400115731888,17.860546408333036,9.713172767078504e-05,0.0915781408548355,0,0,0
1680,59195.12484461163,2010-10-23 05:50:06,1170.5762114211573,2,6,0.5501165986061096,3.873291492462158,5.075040223607695,4.909110076552116,20.276158950787472,17.860546408333036,6.47544875391759e-05,0.0915781408548355,0,0,0
1681,59225.14002170338,2010-10-23 05:50:36,1200.591388507897,2,6,0.5501165986061096,3.875719785690308,5.079626875421008,4.909110076552116,20.29393023257055,17.860546408333036,6.47544875391759e-05,0.0915781408548355,0,0,0
1682,59255.155219040586,2010-10-23 05:51:06,1230.6065858751813,2,6,0.5501165986061096,3.878148078918457,5.084213498804916,4.909110076552116,20.31171282386757,17.860546408333036,6.47544875391759e-05,0.0915781408548355,0,0,0
1683,59285.170381876815,2010-10-23 05:51:36,1260.6217487214287,2,6,0.5501165986061096,3.880414485931397,5.088800074325444,4.909110076552116,20.32950594278908,17.860546408333036,3.237724376958795e-05,0.0915781408548355,0,0,0
1684,59315.18566773464,2010-10-23 05:52:06,1290.6370345441717,2,6,0.5501165986061096,3.882680892944336,5.09338665824182,4.909110076552116,20.347309249043164,17.860546408333036,6.47544875391759e-05,0.0915781408548355,0,0,0
1685,59345.20087951284,2010-10-23 05:52:36,1320.652246327385,2,6,0.550297200679779,3.8847854137420654,5.097973202958142,4.909110076552116,20.36512184901936,17.860546408333036,9.713172767078504e-05,0.0915781408548355,0,0,0
1686,59375.21601801842,2010-10-23 05:53:06,1350.6673848379808,2,6,0.5501165986061096,3.886566162109375,5.102559806484305,4.909110076552116,20.38294350223237,17.860546408333036,6.47544875391759e-05,0.0915781408548355,0,0,0
1687,59405.23108149702,2010-10-23 05:53:36,1380.682448301536,2,6,0.550297200679779,3.888346910476685,5.107146312725525,4.909110076552116,20.40077304180244,17.860546408333036,6.47544875391759e-05,0.0915781408548355,0,0,0
1688,59435.24624099993,2010-10-23 05:54:06,1410.6976078395385,2,6,0.5501165986061096,3.889803886413574,5.111732854893424,4.909110076552116,20.418610438440087,17.860546408333036,0.0,0.0915781408548355,0,0,0
1689,59465.261416392445,2010-10-23 05:54:36,1440.7127831969678,2,6,0.550297200679779,3.891422748565674,5.116319419734144,4.909110076552116,20.43645514198848,17.860546408333036,9.713172767078504e-05,0.0915781408548355,0,0,0
1690,59495.27659807063,2010-10-23 05:55:07,1470.7279648801627,2,6,0.5501165986061096,3.892879724502564,5.1209059834556,4.909110076552116,20.454306700678465,17.860546408333036,3.237724376958795e-05,0.0915781408548355,0,0,0
1691,59525.29178205456,2010-10-23 05:55:37,1500.7431488590794,2,6,0.5499359965324402,3.894174814224243,5.125492616670448,4.909110076552116,20.47216509313417,17.860546408333036,0.0,0.0915781408548355,0,0,0
1692,59555.30697865494,2010-10-23 05:56:07,1530.7583454845153,2,6,0.5501165986061096,3.895631790161133,5.130079213982927,4.909110076552116,20.49002925798831,17.860546408333036,9.713172767078504e-05,0.0915781408548355,0,0,0
1693,59585.32224421216,2010-10-23 05:56:37,1560.7736110317253,2,6,0.5501165986061096,3.896926879882813,5.134665750412529,4.909110076552116,20.507899349279832,17.860546408333036,6.47544875391759e-05,0.0915781408548355,0,0,0
1694,59615.337289109455,2010-10-23 05:57:07,1590.7886559139702,2,6,0.5501165986061096,3.898221969604492,5.139252250484911,4.909110076552116,20.52577525354013,17.860546408333036,6.47544875391759e-05,0.0915781408548355,0,0,0
1695,59645.35248729377,2010-10-23 05:57:37,1620.8038541033036,2,6,0.550297200679779,3.899517059326172,5.143838772589023,4.909110076552116,20.54365722780564,17.860546408333036,6.47544875391759e-05,0.0915781408548355,0,0,0
1696,59675.367644566126,2010-10-23 05:58:07,1650.8190113706469,2,6,0.5501165986061096,3.9006502628326416,5.148425410251829,4.909110076552116,20.56154552923095,17.860546408333036,6.47544875391759e-05,0.0915781408548355,0,0,0
1697,59705.3829480178,2010-10-23 05:58:37,1680.8343148323513,2,6,0.5499359965324402,3.901945352554321,5.153011948449167,4.909110076552116,20.579439330364327,17.860546408333036,0.0,0.0915781408548355,0,0,0
1698,59735.398021040186,2010-10-23 05:59:07,1710.849387849718,2,6,0.5501165986061096,3.903240442276001,5.157598449467032,4.909110076552116,20.59733891842271,17.860546408333036,3.237724376958795e-05,0.0915781408548355,0,0,0
1699,59765.41321094387,2010-10-23 05:59:37,1740.8645777483882,2,6,0.5499359965324402,3.90469741821289,5.162184997498556,4.909110076552116,20.61524464843309,17.860546408333036,3.237724376958795e-05,0.0915781408548355,0,0,0
1700,59795.428353910575,2010-10-23 06:00:07,1770.87972071509,2,6,0.5499359965324402,3.90583062171936,5.166771550475909,4.909110076552116,20.63315625089129,17.860546408333036,3.237724376958795e-05,0.0915781408548355,0,0,0
1701,59825.44365857026,2010-10-23 06:00:37,1800.8950253848052,2,6,0.5501165986061096,3.90712571144104,5.171358128120107,4.909110076552116,20.65107395071064,17.860546408333036,0.0,0.0915781408548355,0,0,0
1702,59855.45869308667,2010-10-23 06:01:07,1830.9100598911905,2,6,0.5499359965324402,3.9085826873779297,5.175944643003122,4.909110076552116,20.668997338783345,17.860546408333036,6.47544875391759e-05,0.0915781408548355,0,0,0
1703,59885.47388714571,2010-10-23 06:01:37,1860.9252539552424,2,6,0.5501165986061096,3.9097158908844,5.180531152955784,4.909110076552116,20.68692675684274,17.860546408333036,3.237724376958795e-05,0.0915781408548355,0,0,0
1704,59915.48909083876,2010-10-23 06:02:07,1890.9404576482927,2,6,0.5501165986061096,3.911172866821289,5.185117720690588,4.909110076552116,20.70486240163805,17.860546408333036,3.237724376958795e-05,0.0915781408548355,0,0,0
1705,59945.50428181011,2010-10-23 06:02:37,1920.9556486196368,2,6,0.5501165986061096,3.9124679565429688,5.189704228358317,4.909110076552116,20.72280392124744,17.860546408333036,3.237724376958795e-05,0.0915781408548355,0,0,0
1706,59975.5195471518,2010-10-23 06:03:07,1950.9709140214843,2,6,0.550297200679779,3.913762807846069,5.194290819129735,4.909110076552116,20.74075191013483,17.860546408333036,3.23295607813634e-05,0.0915781408548355,0,0,0
1707,60005.53459068067,2010-10-23 06:03:37,1980.9859574801817,2,6,0.5501165986061096,3.915219783782959,5.198877366209,4.909110076552116,20.758705940895563,17.860546408333036,6.47544875391759e-05,0.0915781408548355,0,0,0
1708,60035.54974686532,2010-10-23 06:04:07,2011.0011136748512,2,6,0.5501165986061096,3.916514873504639,5.203463872464422,4.909110076552116,20.77666584917091,17.860546408333036,3.237724376958795e-05,0.0915781408548355,0,0,0
1709,60065.56496317481,2010-10-23 06:04:37,2041.0163300144204,2,6,0.5499359965324402,3.9178099632263184,5.208050364267796,4.909110076552116,20.794632061764943,17.860546408333036,0.0,0.0915781408548355,0,0,0
1710,60095.58009401128,2010-10-23 06:05:07,2071.03146081079,2,6,0.5499359965324402,3.919266939163208,5.212636891109412,4.909110076552116,20.812604724828645,17.860546408333036,3.237724376958795e-05,0.0915781408548355,0,0,0
1711,60125.59528524328,2010-10-23 06:05:37,2101.0466520528084,2,6,0.550297200679779,3.9207239151000977,5.217223381729024,4.909110076552116,20.830583641324385,17.860546408333036,6.47544875391759e-05,0.0915781408548355,0,0,0
1712,60155.61056954222,2010-10-23 06:06:07,2131.0619363617784,2,6,0.5499359965324402,3.922019004821777,5.221809982129068,4.909110076552116,20.848569303990992,17.860546408333036,3.237724376958795e-05,0.0915781408548355,0,0,0
1713,60185.62564759213,2010-10-23 06:06:37,2161.077014401663,2,6,0.550297200679779,3.923475980758667,5.226396503607261,4.909110076552116,20.866561160430766,17.860546408333036,3.237724376958795e-05,0.0915781408548355,0,0,0
1714,60215.640798323184,2010-10-23 06:07:07,2191.0921651327158,2,6,0.5499359965324402,3.9247710704803462,5.230983070323328,4.909110076552116,20.884559717324727,17.860546408333036,0.0,0.0915781408548355,0,0,0
1715,60245.65598193118,2010-10-23 06:07:37,2221.1073487356957,2,6,0.5501165986061096,3.9263899326324463,5.235569663417554,4.909110076552116,20.902564883110426,17.860546408333036,3.237724376958795e-05,0.0915781408548355,0,0,0
1716,60275.67115412572,2010-10-23 06:08:07,2251.122520965329,2,6,0.550297200679779,3.927846908569336,5.240156203236994,4.909110076552116,20.92057643315028,17.860546408333036,6.47544875391759e-05,0.0915781408548355,0,0,0
1717,60305.686475762726,2010-10-23 06:08:37,2281.137842572257,2,6,0.5501165986061096,3.9293038845062256,5.24474274094035,4.909110076552116,20.938594635191297,17.860546408333036,6.47544875391759e-05,0.0915781408548355,0,0,0
1718,60335.70149659503,2010-10-23 06:09:07,2311.1528634246124,2,6,0.5501165986061096,3.930598974227905,5.249329307706576,4.909110076552116,20.956619689000483,17.860546408333036,0.0,0.0915781408548355,0,0,0
1719,60365.71660812337,2010-10-23 06:09:37,2341.167974927897,2,6,0.5501165986061096,3.932217836380005,5.25391584671979,4.909110076552116,20.974651301332404,17.860546408333036,3.237724376958795e-05,0.0915781408548355,0,0,0
1720,60395.731837224754,2010-10-23 06:10:07,2371.183204029273,2,6,0.550297200679779,3.9336748123168954,5.25850241618449,4.909110076552116,20.992689844960232,17.860546408333036,3.237724376958795e-05,0.0915781408548355,0,0,0
1721,60425.7470318502,2010-10-23 06:10:37,2401.198398664749,2,6,0.5501165986061096,3.935131788253784,5.263088952939935,4.909110076552116,21.01073507982742,17.860546408333036,3.237724376958795e-05,0.0915781408548355,0,0,0
1722,60455.76217230565,2010-10-23 06:11:07,2431.2135391452543,2,6,0.5501165986061096,3.936426877975464,5.267675532992392,4.909110076552116,21.028787311414604,17.860546408333036,3.237724376958795e-05,0.0915781408548355,0,0,0
1723,60485.77730573859,2010-10-23 06:11:37,2461.228672543108,2,6,0.5501165986061096,3.938207626342773,5.27226202817292,4.909110076552116,21.046846200141296,17.860546408333036,3.237724376958795e-05,0.0915781408548355,0,0,0
1724,60515.79252038394,2010-10-23 06:12:07,2491.243887188454,2,6,0.5499359965324402,3.939664602279663,5.276848580975603,4.909110076552116,21.06491235964029,17.860546408333036,6.47544875391759e-05,0.0915781408548355,0,0,0
1725,60545.8086357692,2010-10-23 06:12:37,2521.26000270906,2,6,0.5501165986061096,3.9412834644317623,5.281435242017281,4.909110076552116,21.08298600180435,17.860546408333036,3.237724376958795e-05,0.0915781408548355,0,0,0
1726,60575.80984547994,2010-10-23 06:13:07,2551.261212309525,2,6,0.5501165986061096,3.9429023265838623,5.286019671577334,4.909110076552116,21.1010578941135,17.860546408333036,6.47544875391759e-05,0.0915781408548355,0,0,0
1727,60605.82267643941,2010-10-23 06:13:37,2581.274043289044,2,6,0.5501165986061096,3.944197416305542,5.290605859784296,4.909110076552116,21.119143919054387,17.860546408333036,3.237724376958795e-05,0.0915781408548355,0,0,0
1728,60635.83762749281,2010-10-23 06:14:07,2611.2889943374257,2,6,0.5501165986061096,3.9461400508880615,5.295192349610953,4.909110076552116,21.137238360770816,17.860546408333036,9.713172767078504e-05,0.0915781408548355,0,0,0
1729,60665.85277856471,2010-10-23 06:14:37,2641.304145389278,2,6,0.5501165986061096,3.947597026824951,5.299778860849281,4.909110076552116,21.15534008026135,17.860546408333036,3.237724376958795e-05,0.0915781408548355,0,0,0
1730,60695.86807169065,2010-10-23 06:15:07,2671.319438500185,2,6,0.5499359965324402,3.949215888977051,5.304365440226928,4.909110076552116,21.173449439134817,17.860546408333036,6.47544875391759e-05,0.0915781408548355,0,0,0
1731,60725.88313715419,2010-10-23 06:15:37,2701.334503963725,2,6,0.5501165986061096,3.950672864913941,5.308951984955368,4.909110076552116,21.19156606951801,17.860546408333036,3.237724376958795e-05,0.0915781408548355,0,0,0
1732,60755.89853029942,2010-10-23 06:16:07,2731.349897144036,2,6,0.5501165986061096,3.95245361328125,5.313538634486469,4.909110076552116,21.20969056955142,17.860546408333036,3.237724376958795e-05,0.0915781408548355,0,0,0
1733,60785.91347826512,2010-10-23 06:16:37,2761.364845069635,2,6,0.5501165986061096,3.9540724754333496,5.318124603860897,4.909110076552116,21.22781982165113,17.860546408333036,3.237724376958795e-05,0.0915781408548355,0,0,0
1734,60815.92865551727,2010-10-23 06:17:07,2791.3800223568737,2,6,0.5501165986061096,3.955691337585449,5.322710371324689,4.909110076552116,21.245955776968685,17.860546408333036,6.47544875391759e-05,0.0915781408548355,0,0,0
1735,60845.9438396616,2010-10-23 06:17:37,2821.395206466116,2,6,0.5501165986061096,3.957472085952759,5.327296786472263,4.909110076552116,21.26410204287127,17.860546408333036,6.47544875391759e-05,0.0915781408548355,0,0,0
1736,60875.95905129945,2010-10-23 06:18:07,2851.410418129029,2,6,0.550297200679779,3.959252834320069,5.331883454713292,4.909110076552116,21.282257036558025,17.860546408333036,9.713172767078504e-05,0.0915781408548355,0,0,0
1737,60905.974196667135,2010-10-23 06:18:37,2881.4255634716524,2,6,0.5501165986061096,3.960871696472168,5.336470084166943,4.909110076552116,21.300419590392817,17.860546408333036,6.47544875391759e-05,0.0915781408548355,0,0,0
1738,60935.98937527266,2010-10-23 06:19:07,2911.440742082189,2,6,0.5501165986061096,3.9623286724090576,5.341056668936409,4.909110076552116,21.31858977051227,17.860546408333036,3.237724376958795e-05,0.0915781408548355,0,0,0
1739,60966.00456939184,2010-10-23 06:19:37,2941.455936196366,2,6,0.550297200679779,3.964433193206787,5.345643243765754,4.909110076552116,21.33676777036525,17.860546408333036,9.713172767078504e-05,0.0915781408548355,0,0,0
1740,60996.01973637341,2010-10-23 06:20:07,2971.4711031779207,2,6,0.5499359965324402,3.9658901691436768,5.350229859826674,4.909110076552116,21.35495387927882,17.860546408333036,6.47544875391759e-05,0.0915781408548355,0,0,0
1741,61026.03502116858,2010-10-23 06:20:37,3001.486387983127,2,6,0.5499359965324402,3.967509031295776,5.354816482665822,4.909110076552116,21.373147990146062,17.860546408333036,3.237724376958795e-05,0.0915781408548355,0,0,0
1742,61056.0502012177,2010-10-23 06:21:07,3031.5015680523,2,6,0.550297200679779,3.969613552093506,5.359403092838933,4.909110076552116,21.391350050752187,17.860546408333036,0.0001295089750783,0.0915781408548355,0,0,0
1743,61086.050202251055,2010-10-23 06:21:37,3061.5015691808817,2,6,0.550297200679779,3.971394300460816,5.363987420101811,4.909110076552116,21.40955116121465,17.860546408333036,9.713172767078504e-05,0.0915781408548355,0,0,0
1744,61116.064813176745,2010-10-23 06:22:07,3091.516179981261,2,6,0.5497553944587708,3.972851276397705,5.368574566687604,4.909110076552116,21.4277716244006,17.860546408333036,0.0,0.0915781408548355,0,0,0
1745,61146.07998665449,2010-10-23 06:22:37,3121.531353464018,2,6,0.5501165986061096,3.9747939109802246,5.373161909378073,4.909110076552116,21.446001036505937,17.860546408333036,6.47544875391759e-05,0.0915781408548355,0,0,0
1746,61176.095123114974,2010-10-23 06:23:07,3151.546489924504,2,6,0.550297200679779,3.976574659347534,5.377749309275621,4.909110076552116,21.46423898766057,17.860546408333036,6.47544875391759e-05,0.0915781408548355,0,0,0
1747,61206.11029828693,2010-10-23 06:23:37,3181.561665096471,2,6,0.5501165986061096,3.978031635284424,5.382336748488004,4.909110076552116,21.48248509217965,17.860546408333036,3.237724376958795e-05,0.0915781408548355,0,0,0
1748,61236.12559261588,2010-10-23 06:24:07,3211.576959430427,2,6,0.5501165986061096,3.9802980422973633,5.386923473146712,4.909110076552116,21.50073711161736,17.860546408333036,6.47544875391759e-05,0.0915781408548355,0,0,0
1749,61266.14070619434,2010-10-23 06:24:37,3241.5920730038715,2,6,0.5501165986061096,3.981916904449463,5.391509960671132,4.909110076552116,21.518996791785607,17.860546408333036,0.0,0.0915781408548355,0,0,0
1750,61296.15600151575,2010-10-23 06:25:07,3271.607368360375,2,6,0.5501165986061096,3.984021425247192,5.396096466224329,4.909110076552116,21.537265143545053,17.860546408333036,3.237724376958795e-05,0.0915781408548355,0,0,0
1751,61326.171308636585,2010-10-23 06:25:37,3301.6226755664115,2,6,0.5501165986061096,3.985802173614502,5.400682932328,4.909110076552116,21.555542076952243,17.860546408333036,6.47544875391759e-05,0.0915781408548355,0,0,0
1752,61356.18626812099,2010-10-23 06:26:07,3331.637634960594,2,6,0.5501165986061096,3.9877448081970215,5.405269347649482,4.909110076552116,21.573827623408626,17.860546408333036,3.237724376958795e-05,0.0915781408548355,0,0,0
1753,61386.201426561245,2010-10-23 06:26:37,3361.652793365773,2,6,0.5501165986061096,3.989687442779541,5.409855808529374,4.909110076552116,21.59212211543292,17.860546408333036,3.237724376958795e-05,0.0915781408548355,0,0,0
1754,61416.2165796933,2010-10-23 06:27:07,3391.6679465028224,2,6,0.5501165986061096,3.9917919635772714,5.414442266062669,4.909110076552116,21.61042558690092,17.860546408333036,9.713172767078504e-05,0.0915781408548355,0,0,0
1755,61446.23175741662,2010-10-23 06:27:37,3421.683124221136,2,6,0.5501165986061096,3.99373459815979,5.419028718978409,4.909110076552116,21.628738083301226,17.860546408333036,3.237724376958795e-05,0.0915781408548355,0,0,0
1756,61476.24692265883,2010-10-23 06:28:08,3451.69828947338,2,6,0.5501165986061096,3.9956769943237305,5.423615137474414,4.909110076552116,21.64705962316969,17.860546408333036,3.237724376958795e-05,0.0915781408548355,0,0,0
1757,61506.262117269245,2010-10-23 06:28:38,3481.713484108856,2,6,0.5501165986061096,3.99761962890625,5.428201635765336,4.909110076552116,21.66539078215549,17.860546408333036,3.237724376958795e-05,0.0915781408548355,0,0,0
1758,61536.27731675181,2010-10-23 06:29:08,3511.7286835864,2,6,0.5501165986061096,3.9998860359191895,5.432788086325548,4.909110076552116,21.68373102712296,17.860546408333036,6.47544875391759e-05,0.0915781408548355,0,0,0
1759,61566.29259038917,2010-10-23 06:29:38,3541.743957203723,2,6,0.5499359965324402,4.001828670501709,5.437374568987688,4.909110076552116,21.702080913885908,17.860546408333036,3.23295607813634e-05,0.0915781408548355,0,0,0
1760,61596.30764392298,2010-10-23 06:30:08,3571.75901075758,2,6,0.5499359965324402,4.0037713050842285,5.441961024159951,4.909110076552116,21.72044031243192,17.860546408333036,3.23295607813634e-05,0.0915781408548355,0,0,0
1761,61626.32282811243,2010-10-23 06:30:38,3601.7741949169467,2,6,0.5501165986061096,4.006199836730957,5.446547458613238,4.909110076552116,21.738809310389225,17.860546408333036,6.47544875391759e-05,0.0915781408548355,0,0,0
1762,61656.33797605152,2010-10-23 06:31:08,3631.789342851029,2,6,0.5501165986061096,4.008142471313477,5.451133938621237,4.909110076552116,21.757188304355093,17.860546408333036,3.24249267578125e-05,0.0915781408548355,0,0,0
1763,61686.35315777482,2010-10-23 06:31:38,3661.804524609411,2,6,0.5501165986061096,4.010570526123047,5.45572034604707,4.909110076552116,21.775576909050656,17.860546408333036,6.47544875391759e-05,0.0915781408548355,0,0,0
1764,61716.36832945808,2010-10-23 06:32:08,3691.8196962676207,2,6,0.5501165986061096,4.012513160705566,5.460306757119761,4.909110076552116,21.79397567345017,17.860546408333036,3.23295607813634e-05,0.0915781408548355,0,0,0
1765,61746.38391561436,2010-10-23 06:32:38,3721.8352824289,2,6,0.5499359965324402,4.014779567718506,5.464893304267694,4.909110076552116,21.81238515262797,17.860546408333036,3.23295607813634e-05,0.0915781408548355,0,0,0
1766,61776.39869216784,2010-10-23 06:33:08,3751.8500589723626,2,6,0.5497553944587708,4.017045974731445,5.469479719832346,4.909110076552116,21.830804353356385,17.860546408333036,3.23295607813634e-05,0.0915781408548355,0,0,0
1767,61806.413864402486,2010-10-23 06:33:38,3781.865231207008,2,6,0.5501165986061096,4.019312381744385,5.474066185703388,4.909110076552116,21.84923408929499,17.860546408333036,3.23295607813634e-05,0.0915781408548355,0,0,0
1768,61836.42907157922,2010-10-23 06:34:08,3811.880438408803,2,6,0.5499359965324402,4.021578788757324,5.478652538902834,4.909110076552116,21.867673748207785,17.860546408333036,0.0,0.0915781408548355,0,0,0
1769,61866.44422577391,2010-10-23 06:34:38,3841.8955926034887,2,6,0.5501165986061096,4.024168968200684,5.48323898605253,4.909110076552116,21.8861243791351,17.860546408333036,9.70840483205393e-05,0.0915781408548355,0,0,0
1770,61896.45941629914,2010-10-23 06:35:08,3871.9107831337337,2,6,0.5501165986061096,4.026435375213623,5.487825385041394,4.909110076552116,21.904585333496573,17.860546408333036,6.47544875391759e-05,0.0915781408548355,0,0,0
1771,61926.47453608807,2010-10-23 06:35:38,3901.925902952744,2,6,0.5501165986061096,4.0287017822265625,5.492411875864757,4.909110076552116,21.92305741070017,17.860546408333036,0.0,0.0915781408548355,0,0,0
1772,61956.48973389145,2010-10-23 06:36:08,3931.941100695966,2,6,0.550297200679779,4.031130313873291,5.496998336814508,4.909110076552116,21.94154008218531,17.860546408333036,9.71794142969884e-05,0.0915781408548355,0,0,0
1773,61986.50490088804,2010-10-23 06:36:38,3961.9562676925566,2,6,0.5501165986061096,4.033234596252441,5.501584841311426,4.909110076552116,21.960033830733927,17.860546408333036,3.23295607813634e-05,0.0915781408548355,0,0,0
1774,62016.52018663559,2010-10-23 06:37:08,3991.9715534752,2,6,0.550297200679779,4.035824775695801,5.506171338840799,4.909110076552116,21.978538462283087,17.860546408333036,6.47544875391759e-05,0.0915781408548355,0,0,0
1775,62046.53525491114,2010-10-23 06:37:38,4021.9866217206736,2,6,0.5499359965324402,4.038252830505371,5.510757891062273,4.909110076552116,21.997054415264333,17.860546408333036,6.47544875391759e-05,0.0915781408548355,0,0,0
1776,62076.55056337532,2010-10-23 06:38:08,4052.001930199882,2,6,0.5501165986061096,4.0406813621521,5.515344472926301,4.909110076552116,22.01558158848687,17.860546408333036,6.47544875391759e-05,0.0915781408548355,0,0,0
1777,62106.56560362602,2010-10-23 06:38:38,4082.016970435547,2,6,0.5501165986061096,4.04310941696167,5.519930978971371,4.909110076552116,22.03411965294464,17.860546408333036,6.47544875391759e-05,0.0915781408548355,0,0,0
1778,62136.58089175451,2010-10-23 06:39:08,4112.032258674311,2,6,0.5501165986061096,4.045537948608398,5.524517548050271,4.909110076552116,22.05266937554901,17.860546408333036,3.24249267578125e-05,0.0915781408548355,0,0,0
1779,62166.59596909264,2010-10-23 06:39:38,4142.0473359222215,2,6,0.5499359965324402,4.047804355621338,5.52910404198611,4.909110076552116,22.07123018433265,17.860546408333036,0.0,0.0915781408548355,0,0,0
1780,62196.61111965327,2010-10-23 06:40:08,4172.062486462799,2,6,0.550297200679779,4.050718307495117,5.533690600382081,4.909110076552116,22.08980285104737,17.860546408333036,9.71794142969884e-05,0.0915781408548355,0,0,0
1781,62226.62633862941,2010-10-23 06:40:38,4202.077705464003,2,6,0.5501165986061096,4.053146362304688,5.538277194933242,4.909110076552116,22.10838725386188,17.860546408333036,6.47544875391759e-05,0.0915781408548355,0,0,0
1782,62256.64147865378,2010-10-23 06:41:08,4232.092845458296,2,6,0.5501165986061096,4.055736541748047,5.54286382726868,4.909110076552116,22.126983607136435,17.860546408333036,6.47544875391759e-05,0.0915781408548355,0,0,0
1783,62286.65689351312,2010-10-23 06:41:38,4262.108260357738,2,6,0.5499359965324402,4.058326721191406,5.547450488939599,4.909110076552116,22.1455919711462,17.860546408333036,6.47544875391759e-05,0.0915781408548355,0,0,0
1784,62316.67182842127,2010-10-23 06:42:08,4292.123195230806,2,6,0.5501165986061096,4.060755252838135,5.552037083598,4.909110076552116,22.16421201983833,17.860546408333036,3.24249267578125e-05,0.0915781408548355,0,0,0
1785,62346.68701595405,2010-10-23 06:42:38,4322.13838276358,2,6,0.5501165986061096,4.063669204711914,5.556623577586564,4.909110076552116,22.18284336984098,17.860546408333036,9.71794142969884e-05,0.0915781408548355,0,0,0
1786,62376.70219600818,2010-10-23 06:43:08,4352.153562812703,2,6,0.5501165986061096,4.066097259521484,5.561210044275434,4.909110076552116,22.20148689553353,17.860546408333036,6.47544875391759e-05,0.0915781408548355,0,0,0
1787,62406.71736257871,2010-10-23 06:43:38,4382.168729428345,2,6,0.5501165986061096,4.069011211395264,5.565796565202072,4.909110076552116,22.2201430068536,17.860546408333036,9.70840483205393e-05,0.0915781408548355,0,0,0
1788,62436.73252401144,2010-10-23 06:44:08,4412.1838908259815,2,6,0.5501165986061096,4.071763515472412,5.570383258384744,4.909110076552116,22.238812298250465,17.860546408333036,0.0001295089750783,0.0915781408548355,0,0,0
1789,62466.74769489272,2010-10-23 06:44:38,4442.199061702242,2,6,0.5501165986061096,4.074515342712402,5.574969798663314,4.909110076552116,22.257493512827352,17.860546408333036,9.70840483205393e-05,0.0915781408548355,0,0,0
1790,62496.76286144821,2010-10-23 06:45:08,4472.214228257734,2,6,0.5501165986061096,4.077267646789551,5.579556330453078,4.909110076552116,22.276187388703686,17.860546408333036,6.47544875391759e-05,0.0915781408548355,0,0,0
1791,62526.78066357735,2010-10-23 06:45:38,4502.232030532249,2,6,0.550297200679779,4.08018159866333,5.584143226961507,4.909110076552116,22.294895536534103,17.860546408333036,0.0001295089750783,0.0915781408548355,0,0,0
1792,62556.79348656696,2010-10-23 06:46:08,4532.244853416592,2,6,0.550297200679779,4.08293342590332,5.588729491759059,4.909110076552116,22.313613997048623,17.860546408333036,0.0001295089750783,0.0915781408548355,0,0,0
1793,62586.80852059215,2010-10-23 06:46:38,4562.259887431753,2,6,0.5501165986061096,4.085685729980469,5.593315982373241,4.909110076552116,22.332346419561397,17.860546408333036,6.47544875391759e-05,0.0915781408548355,0,0,0
1794,62616.82362543884,2010-10-23 06:47:08,4592.27499236366,2,6,0.550297200679779,4.088599681854248,5.597902518743437,4.909110076552116,22.35109219238309,17.860546408333036,9.71794142969884e-05,0.0915781408548355,0,0,0
1795,62646.83878263602,2010-10-23 06:47:38,4622.290149470604,2,6,0.5501165986061096,4.091513633728027,5.602489077531248,4.909110076552116,22.369851313599472,17.860546408333036,3.24249267578125e-05,0.0915781408548355,0,0,0
1796,62676.85396256483,2010-10-23 06:48:08,4652.305329369351,2,6,0.5499359965324402,4.094427585601807,5.607075667289245,4.909110076552116,22.38862385740769,17.860546408333036,9.71794142969884e-05,0.0915781408548355,0,0,0
1797,62706.869149831946,2010-10-23 06:48:38,4682.320516641476,2,6,0.550297200679779,4.097503185272217,5.611662282146668,4.909110076552116,22.40741013147175,17.860546408333036,9.70840483205393e-05,0.0915781408548355,0,0,0
1798,62736.88432745502,2010-10-23 06:49:08,4712.335694264551,2,6,0.550297200679779,4.100417137145996,5.616248893771275,4.909110076552116,22.42621013309603,17.860546408333036,6.47544875391759e-05,0.0915781408548355,0,0,0
1799,62766.89961995941,2010-10-23 06:49:38,4742.350986773959,2,6,0.5501165986061096,4.103331089019775,5.620835494431688,4.909110076552116,22.44502375659389,17.860546408333036,6.47544875391759e-05,0.0915781408548355,0,0,0
1800,62796.91468353324,2010-10-23 06:50:08,4772.366050352803,2,6,0.5501165986061096,4.106407165527344,5.625422094968973,4.909110076552116,22.46385120830337,17.860546408333036,9.71794142969884e-05,0.0915781408548355,0,0,0
1801,62826.92985347718,2010-10-23 06:50:38,4802.381220291727,2,6,0.550297200679779,4.109644889831543,5.630008745435332,4.909110076552116,22.48269283627821,17.860546408333036,9.71794142969884e-05,0.0915781408548355,0,0,0
1802,62856.94513999165,2010-10-23 06:51:08,4832.396506806193,2,6,0.5501165986061096,4.112558841705322,5.634595278174527,4.909110076552116,22.50154802112649,17.860546408333036,6.47544875391759e-05,0.0915781408548355,0,0,0
1803,62886.96019644273,2010-10-23 06:51:38,4862.411563282334,2,6,0.5497553944587708,4.115472316741943,5.639181806376618,4.909110076552116,22.520417284438476,17.860546408333036,3.23295607813634e-05,0.0915781408548355,0,0,0
1804,62916.97536575509,2010-10-23 06:52:08,4892.42673259971,2,6,0.550297200679779,4.118872165679932,5.643768398669539,4.909110076552116,22.53930112638647,17.860546408333036,9.71794142969884e-05,0.0915781408548355,0,0,0
1805,62946.99056331786,2010-10-23 06:52:38,4922.441930127395,2,6,0.550297200679779,4.121947765350342,5.648354999703964,4.909110076552116,22.558199456213966,17.860546408333036,6.47544875391759e-05,0.0915781408548355,0,0,0
1806,62977.00571754263,2010-10-23 06:53:08,4952.457084357166,2,6,0.5501165986061096,4.125185489654541,5.652941598603015,4.909110076552116,22.577112283044425,17.860546408333036,0.0001295089750783,0.0915781408548355,0,0,0
1807,63007.02103099423,2010-10-23 06:53:38,4982.472397803757,2,6,0.5501165986061096,4.12842321395874,5.657528225992508,4.909110076552116,22.59603997127688,17.860546408333036,0.0001295089750783,0.0915781408548355,0,0,0
1808,63037.03615872295,2010-10-23 06:54:08,5012.487525542506,2,6,0.5501165986061096,4.13166093826294,5.662114777139045,4.909110076552116,22.61498223107269,17.860546408333036,9.70840483205393e-05,0.0915781408548355,0,0,0
1809,63067.05127989032,2010-10-23 06:54:38,5042.502646699852,2,6,0.5499359965324402,4.134898662567139,5.666701379291331,4.909110076552116,22.63393970704512,17.860546408333036,9.70840483205393e-05,0.0915781408548355,0,0,0
1810,63097.06642530813,2010-10-23 06:55:08,5072.5177921728,2,6,0.5501165986061096,4.138136386871338,5.671288012748429,4.909110076552116,22.65291237681645,17.860546408333036,6.47544875391759e-05,0.0915781408548355,0,0,0
1811,63127.08158830475,2010-10-23 06:55:38,5102.5329551293225,2,6,0.5501165986061096,4.141536235809326,5.675874635326381,4.909110076552116,22.671900087055352,17.860546408333036,6.47544875391759e-05,0.0915781408548355,0,0,0
1812,63157.09677972722,2010-10-23 06:56:08,5132.548146541766,2,6,0.5501165986061096,4.144935607910156,5.680461204570484,4.909110076552116,22.690902857719152,17.860546408333036,6.47544875391759e-05,0.0915781408548355,0,0,0
1813,63187.11195624755,2010-10-23 06:56:38,5162.563323062093,2,6,0.5501165986061096,4.1483354568481445,5.685047796377439,4.909110076552116,22.709921458089237,17.860546408333036,0.0001295089750783,0.0915781408548355,0,0,0
1814,63217.12713917885,2010-10-23 06:57:08,5192.578505998411,2,6,0.5497553944587708,4.151573181152344,5.689634345791447,4.909110076552116,22.728955455483344,17.860546408333036,6.47544875391759e-05,0.0915781408548355,0,0,0
1815,63247.1424265254,2010-10-23 06:57:38,5222.593793354977,2,6,0.5501165986061096,4.155134677886963,5.694220954357782,4.909110076552116,22.74800531295505,17.860546408333036,9.71794142969884e-05,0.0915781408548355,0,0,0
1816,63277.15747546776,2010-10-23 06:58:08,5252.608842282303,2,6,0.5501165986061096,4.158534049987793,5.698807486983751,4.909110076552116,22.767070498221905,17.860546408333036,9.70840483205393e-05,0.0915781408548355,0,0,0
1817,63307.17266100055,2010-10-23 06:58:38,5282.624027820106,2,6,0.550297200679779,4.161933898925781,5.703394011985641,4.909110076552116,22.78615148575963,17.860546408333036,9.71794142969884e-05,0.0915781408548355,0,0,0
1818,63337.18784065869,2010-10-23 06:59:08,5312.639207473241,2,6,0.5501165986061096,4.165333271026611,5.707980582939877,4.909110076552116,22.80524865991341,17.860546408333036,6.47544875391759e-05,0.0915781408548355,0,0,0
1819,63367.20300235709,2010-10-23 06:59:38,5342.654369166616,2,6,0.5499359965324402,4.168894767761231,5.71256711906136,4.909110076552116,22.824361809657898,17.860546408333036,9.70840483205393e-05,0.0915781408548355,0,0,0
1820,63397.218168606814,2010-10-23 07:00:09,5372.669535426371,2,6,0.5501165986061096,4.17245626449585,5.717153621002518,4.909110076552116,22.84349100029981,17.860546408333036,0.0001295089750783,0.0915781408548355,0,0,0
1821,63427.23337172844,2010-10-23 07:00:39,5402.684738547997,2,6,0.5501165986061096,4.176017761230469,5.721740174230327,4.909110076552116,22.8626366513744,17.860546408333036,6.47544875391759e-05,0.0915781408548355,0,0,0
1822,63457.248547191135,2010-10-23 07:01:09,5432.69991403575,2,6,0.5501165986061096,4.179741382598877,5.726326680065542,4.909110076552116,22.881798504948783,17.860546408333036,6.47544875391759e-05,0.0915781408548355,0,0,0
1823,63487.26370529054,2010-10-23 07:01:39,5462.715072125143,2,6,0.550297200679779,4.183302879333496,5.730913212668073,4.909110076552116,22.900976992604143,17.860546408333036,9.71794142969884e-05,0.0915781408548355,0,0,0
1824,63517.27887383099,2010-10-23 07:02:09,5492.730240670594,2,6,0.5501165986061096,4.186864376068115,5.735499773923167,4.909110076552116,22.92017220505119,17.860546408333036,6.47544875391759e-05,0.0915781408548355,0,0,0
1825,63547.29420015968,2010-10-23 07:02:39,5522.7455669742285,2,6,0.5501165986061096,4.190587520599365,5.740086361202303,4.909110076552116,22.93938420782203,17.860546408333036,9.70840483205393e-05,0.0915781408548355,0,0,0
1826,63577.309225212506,2010-10-23 07:03:09,5552.760592027053,2,6,0.5499359965324402,4.194311141967773,5.744672886567508,4.909110076552116,22.958612766607967,17.860546408333036,0.0001295089750783,0.0915781408548355,0,0,0
1827,63607.324402374434,2010-10-23 07:03:39,5582.775769193991,2,6,0.5499359965324402,4.197872161865234,5.749259433136346,4.909110076552116,22.977858380911275,17.860546408333036,9.70840483205393e-05,0.0915781408548355,0,0,0
1828,63623.21479722776,2010-10-23 07:03:55,5598.666164042305,2,6,0.550297200679779,4.200138568878174,5.751687640969811,4.909110076552116,22.98805431648737,17.860546408333036,0.0001295089750783,0.0915781408548355,0,0,0
1829,63653.23079732184,2010-10-23 07:04:25,30.015177357413865,3,6,0.0,4.115148544311523,5.751687640969811,4.909110076552116,22.98805431648737,17.860546408333036,-0.0003885269106831,0.0915781408548355,0,0,0
1830,63683.24598041856,2010-10-23 07:04:55,60.03036045413184,3,6,0.0,4.104464530944824,5.751687640969811,4.909110076552116,22.98805431648737,17.860546408333036,-0.0002265930233988,0.0915781408548355,0,0,0
1831,63713.261577867976,2010-10-23 07:05:25,90.04595801381905,3,6,0.0,4.098150730133057,5.751687640969811,4.909110076552116,22.98805431648737,17.860546408333036,-0.0001619339018361,0.0915781408548355,0,0,0
1832,63743.22950268251,2010-10-23 07:05:55,120.01388269301953,3,6,0.0,4.094265460968018,5.751687640969811,4.909110076552116,22.98805431648737,17.860546408333036,-3.24249267578125e-05,0.0915781408548355,0,0,0
1833,63743.24378928552,2010-10-23 07:05:55,0.015625834387242,4,6,0.9915257096290588,4.199814796447754,5.751691970963131,4.909110076552116,22.988072501657385,17.860546408333036,0.0,0.0915781408548355,0,0,0
1834,63744.22814831109,2010-10-23 07:05:56,0.999984849933681,4,6,0.9409551024436952,4.199653148651123,5.751954645255087,4.909110076552116,22.98917565794823,17.860546408333036,-3.23295607813634e-05,0.0915781408548355,0,0,0
1835,63746.41561928182,2010-10-23 07:05:58,3.187455820660723,4,6,0.8905650973320007,4.199653148651123,5.752509915599734,4.909110076552116,22.991507630700102,17.860546408333036,-3.23295607813634e-05,0.0915781408548355,0,0,0
1836,63749.66557100149,2010-10-23 07:06:01,6.437407515268824,4,6,0.8403556942939758,4.199814796447754,5.753290071190247,4.909110076552116,22.9947840448017,17.860546408333036,0.0,0.0915781408548355,0,0,0
1837,63754.14989391899,2010-10-23 07:06:06,10.921730432770904,4,6,0.7899657487869263,4.199653148651123,5.754304271317618,4.909110076552116,22.99904339081419,17.860546408333036,0.0,0.0915781408548355,0,0,0
1838,63759.977930263805,2010-10-23 07:06:12,16.749766802646594,4,6,0.7397563457489014,4.199814796447754,5.755541087437023,4.909110076552116,23.00423766562237,17.860546408333036,3.23295607813634e-05,0.0915781408548355,0,0,0
1839,63767.58740261528,2010-10-23 07:06:19,24.35923923933496,4,6,0.6895470023155212,4.199976921081543,5.757049764520775,4.909110076552116,23.010573685377107,17.860546408333036,6.47544875391759e-05,0.0915781408548355,0,0,0
1840,63777.71205290408,2010-10-23 07:06:29,34.483889447931766,4,6,0.6395182013511658,4.199814796447754,5.758915507358608,4.909110076552116,23.01840927895621,17.860546408333036,3.23295607813634e-05,0.0915781408548355,0,0,0
1841,63791.88368688647,2010-10-23 07:06:43,48.65552340024369,4,6,0.5894894599914551,4.199814796447754,5.76132905975445,4.909110076552116,23.02854553414801,17.860546408333036,3.23295607813634e-05,0.0915781408548355,0,0,0
1842,63813.57086294719,2010-10-23 07:07:05,70.34269945595176,4,6,0.5394606590270996,4.199653148651123,5.764719009434239,4.909110076552116,23.042782393472816,17.860546408333036,0.0,0.0915781408548355,0,0,0
1843,63850.82034194022,2010-10-23 07:07:42,107.592178484068,4,6,0.4892512857913971,4.199653148651123,5.770019035241832,4.909110076552116,23.06504104389163,17.860546408333036,-3.23295607813634e-05,0.0915781408548355,0,0,0
1844,63918.47555485779,2010-10-23 07:08:50,175.24739136655973,4,6,0.439222514629364,4.199653148651123,5.778708133132398,4.909110076552116,23.101532828025288,17.860546408333036,0.0,0.0915781408548355,0,0,0
1845,64019.02095515238,2010-10-23 07:10:31,275.79279172129,4,6,0.3891937434673309,4.199653148651123,5.79025222323797,4.909110076552116,23.150014893715053,17.860546408333036,-3.23295607813634e-05,0.0915781408548355,0,0,0
1846,64144.76904423208,2010-10-23 07:12:36,401.5408807608963,4,6,0.3391649723052978,4.199653148651123,5.802956721874564,4.909110076552116,23.203370365884275,17.860546408333036,-3.23295607813634e-05,0.0915781408548355,0,0,0
1847,64294.46994733944,2010-10-23 07:15:06,551.2417838782812,4,6,0.2891362011432647,4.199653148651123,5.816001623855052,4.909110076552116,23.258155427702743,17.860546408333036,0.0,0.0915781408548355,0,0,0
1848,64473.90473824408,2010-10-23 07:18:05,730.6765747578581,4,6,0.2391074448823928,4.199653148651123,5.829141731815652,4.909110076552116,23.313340290894253,17.860546408333036,0.0,0.0915781408548355,0,0,0
1849,64697.01080564707,2010-10-23 07:21:49,953.782642210972,4,6,0.1890786737203598,4.199653148651123,5.842366970517265,4.909110076552116,23.368882807014405,17.860546408333036,0.0,0.0915781408548355,0,0,0
1850,64993.45947744718,2010-10-23 07:26:45,1250.231313960949,4,6,0.1390499025583267,4.199653148651123,5.855796929015772,4.909110076552116,23.42528499733664,17.860546408333036,0.0,0.0915781408548355,0,0,0
1851,65452.17139210562,2010-10-23 07:34:24,1708.9432286294302,4,6,0.0890211313962936,4.199491024017334,5.870106403314916,4.909110076552116,23.48538098487405,17.860546408333036,-3.24249267578125e-05,0.0915781408548355,0,0,0
1852,66110.86468160793,2010-10-23 07:45:22,2367.6365181217034,4,6,0.0496483072638511,4.199653148651123,5.882460888782852,4.909110076552116,23.53726649869337,17.860546408333036,-3.23295607813634e-05,0.0915781408548355,0,0,0
1853,66140.8787843851,2010-10-23 07:45:53,30.015187342299267,5,6,0.0,4.191882610321045,5.882460888782852,4.909110076552116,23.53726649869337,17.860546408333036,-6.47544875391759e-05,0.0915781408548355,0,0,0
1854,66170.87834028904,2010-10-23 07:46:23,60.014743246244485,5,6,0.0,4.190911293029785,5.882460888782852,4.909110076552116,23.53726649869337,17.860546408333036,0.0,0.0915781408548355,0,0,0
1855,66171.06518506256,2010-10-23 07:46:23,0.186994843687344,6,6,-0.0012835080269724,4.191073417663574,5.882460888782852,4.90911014322139,23.53726649869337,17.860546687748858,0.0,0.0932833403348922,0,0,0
1856,66175.89354630443,2010-10-23 07:46:28,5.015356110614146,6,6,0.0007031940040178,4.190587520599365,5.882461778023387,4.909110143305237,23.53727022532343,17.860546688100403,-3.24249267578125e-05,0.0932833403348922,0,0,0
1857,66205.90846389766,2010-10-23 07:46:58,30.0153060281008,7,6,-1.0997490882873535,4.014455795288086,5.882461778023387,4.918278521755569,23.53727022532343,17.897550198749588,-0.0009389877086505,0.0932833403348922,0,0,0
1858,66235.92352831861,2010-10-23 07:47:28,60.03037040894229,7,6,-1.099568486213684,3.987582921981812,5.882461778023387,4.927446919375236,23.53727022532343,17.934222951073107,-0.0005504131549969,0.0932833403348922,0,0,0
1859,66265.93869204204,2010-10-23 07:47:58,90.04553413738857,7,6,-1.0993878841400146,3.968804121017456,5.882461778023387,4.936615156274455,23.53727022532343,17.97068972612547,-0.0004209041653666,0.0932833403348922,0,0,0
1860,66295.95388031166,2010-10-23 07:48:28,120.06072239196152,7,6,-1.0997490882873535,3.9540724754333496,5.882461778023387,4.945783351502199,23.53727022532343,18.007005255924355,-0.0003237724304199,0.0932833403348922,0,0,0
1861,66325.96904258146,2010-10-23 07:48:58,150.07588468182237,7,6,-1.099568486213684,3.941607236862183,5.882461778023387,4.954951553254921,23.53727022532343,18.043198170174453,-0.0003237724304199,0.0932833403348922,0,0,0
1862,66355.98435681,2010-10-23 07:49:28,180.09119890534873,7,6,-1.099568486213684,3.930922746658325,5.882461778023387,4.964119780146277,23.53727022532343,18.079285571499103,-0.0002590179501567,0.0932833403348922,0,0,0
1863,66385.99939369231,2010-10-23 07:49:58,210.1062357826429,7,6,-1.099929690361023,3.920562028884888,5.882461778023387,4.973287969613278,23.53727022532343,18.115277176994507,-0.0002913951757363,0.0932833403348922,0,0,0
1864,66416.01482386983,2010-10-23 07:50:28,240.1216660604121,7,6,-1.099568486213684,3.911334753036499,5.882461778023387,4.982456343277472,23.53727022532343,18.15118036286196,-0.0002266406954731,0.0932833403348922,0,0,0
1865,66446.02974402621,2010-10-23 07:50:58,270.1365861215645,7,6,-1.0997490882873535,3.902269124984741,5.882461778023387,4.991624446377101,23.53727022532343,18.186998103596427,-0.0002266406954731,0.0932833403348922,0,0,0
1866,66476.04493547375,2010-10-23 07:51:28,300.1517775640828,7,6,-1.099568486213684,3.8935272693634033,5.882461778023387,5.000792656272172,23.53727022532343,18.22273461273773,-0.0002266406954731,0.0932833403348922,0,0,0
1867,66506.06013630466,2010-10-23 07:51:58,330.16697842006226,7,6,-1.0997490882873535,3.8849472999572754,5.882461778023387,5.009960859665832,23.53727022532343,18.258392832506285,-0.0002590179501567,0.0932833403348922,0,0,0
1868,66536.07540670397,2010-10-23 07:52:28,360.1822488344026,7,6,-1.0997490882873535,3.876691102981568,5.882461778023387,5.019129118316068,23.53727022532343,18.293974263517036,-0.0002590179501567,0.0932833403348922,0,0,0
1869,66566.09045767138,2010-10-23 07:52:58,390.19729976171385,7,6,-1.099568486213684,3.8687586784362793,5.882461778023387,5.028297351249458,23.53727022532343,18.329480126857703,-0.0002266406954731,0.0932833403348922,0,0,0
1870,66596.10565610632,2010-10-23 07:53:28,420.2124982267344,7,6,-1.0997490882873535,3.860664367675781,5.882461778023387,5.037465711832431,23.53727022532343,18.36491275529568,-0.0002266406954731,0.0932833403348922,0,0,0
1871,66626.12080778474,2010-10-23 07:53:58,450.2276499001357,7,6,-1.099568486213684,3.852893829345703,5.882461778023387,5.046633971569868,23.53727022532343,18.40027215809517,-0.0001618862152099,0.0932833403348922,0,0,0
1872,66656.13861102166,2010-10-23 07:54:28,480.2454532372991,7,6,-1.0997490882873535,3.844961404800415,5.882461778023387,5.055802981495873,23.53727022532343,18.435562584201172,-0.0002266406954731,0.0932833403348922,0,0,0
1873,66686.15139360556,2010-10-23 07:54:58,510.2582357309756,7,6,-1.099568486213684,3.837352752685547,5.882461778023387,5.064970456433685,23.53727022532343,18.470776107998493,-0.0002266406954731,0.0932833403348922,0,0,0
1874,66716.16638162608,2010-10-23 07:55:28,540.2732237063913,7,6,-1.099568486213684,3.829744338989258,5.882461778023387,5.074138655072845,23.53727022532343,18.505923034437853,-0.0002266406954731,0.0932833403348922,0,0,0
1875,66746.18165991505,2010-10-23 07:55:58,570.2885020053827,7,6,-1.099568486213684,3.8224594593048096,5.882461778023387,5.08330690431204,23.53727022532343,18.54100173905407,-0.0001295089750783,0.0932833403348922,0,0,0
1876,66776.19672952392,2010-10-23 07:56:28,600.303571634304,7,6,-1.0997490882873535,3.815174579620361,5.882461778023387,5.092475149336996,23.53727022532343,18.576012845797138,-0.0001942634553415,0.0932833403348922,0,0,0
1877,66806.21186987912,2010-10-23 07:56:58,630.318711999522,7,6,-1.0993878841400146,3.807889699935913,5.882461778023387,5.101643383097674,23.53727022532343,18.610958083545857,-0.0001942634553415,0.0932833403348922,0,0,0
1878,66836.22725751561,2010-10-23 07:57:28,660.334099605941,7,6,-1.0997490882873535,3.8009285926818848,5.882461778023387,5.110811689636546,23.53727022532343,18.64583884687202,-0.0001942634553415,0.0932833403348922,0,0,0
1879,66866.24222307515,2010-10-23 07:57:58,690.3490651654894,7,6,-1.099568486213684,3.7941293716430655,5.882461778023387,5.119979897070121,23.53727022532343,18.68065562274036,-0.0001942634553415,0.0932833403348922,0,0,0
1880,66896.257411039,2010-10-23 07:58:28,720.364253244625,7,6,-1.099568486213684,3.787492036819458,5.882461778023387,5.129148199354766,23.53727022532343,18.715410273066087,-0.0001295089750783,0.0932833403348922,0,0,0
1881,66926.27262354402,2010-10-23 07:58:58,750.3794656644252,7,6,-1.0993878841400146,3.7808547019958496,5.882461778023387,5.138316530802415,23.53727022532343,18.75010412180857,-0.0001618862152099,0.0932833403348922,0,0,0
1882,66956.28779619971,2010-10-23 07:59:28,780.394638290046,7,6,-1.0997490882873535,3.774379253387451,5.882461778023387,5.147484834295811,23.53727022532343,18.784738412628315,-0.0001618862152099,0.0932833403348922,0,0,0
1883,66986.30293185318,2010-10-23 07:59:58,810.4097739435207,7,6,-1.0993878841400146,3.7682275772094727,5.882461778023387,5.156653033915055,23.53727022532343,18.819314006342385,-0.0001295089750783,0.0932833403348922,0,0,0
1884,67016.31809979213,2010-10-23 08:00:28,840.424941882461,7,6,-1.099568486213684,3.761914014816284,5.882461778023387,5.165821322552626,23.53727022532343,18.85383258003234,-0.0001618862152099,0.0932833403348922,0,0,0
1885,67046.33343139397,2010-10-23 08:00:58,870.4402734943243,7,6,-1.0997490882873535,3.7557623386383057,5.882461778023387,5.17498963054426,23.53727022532343,18.888294482786257,-0.0001618862152099,0.0932833403348922,0,0,0
1886,67076.34860115744,2010-10-23 08:01:28,900.4554432578118,7,6,-1.099568486213684,3.749772787094116,5.882461778023387,5.1841578626321,23.53727022532343,18.9227014448448,-0.0001942634553415,0.0932833403348922,0,0,0
1887,67106.36363905229,2010-10-23 08:01:58,930.470481172692,7,6,-1.0997490882873535,3.744106769561768,5.882461778023387,5.193326116509382,23.53727022532343,18.957054540334223,-0.0001295089750783,0.0932833403348922,0,0,0
1888,67136.37895390237,2010-10-23 08:02:28,960.485795992705,7,6,-1.0993878841400146,3.738278865814209,5.882461778023387,5.202494432333107,23.53727022532343,18.991354375075524,-0.0001618862152099,0.0932833403348922,0,0,0
1889,67166.39399412299,2010-10-23 08:02:58,990.5008362133316,7,6,-1.099568486213684,3.732612848281861,5.882461778023387,5.211662729209544,23.53727022532343,19.02560187512082,-0.0001618862152099,0.0932833403348922,0,0,0
1890,67196.40917769089,2010-10-23 08:03:28,1020.516019781224,7,6,-1.0997490882873535,3.726946830749512,5.882461778023387,5.220831000126757,23.53727022532343,19.05979788474865,-0.0001942634553415,0.0932833403348922,0,0,0
1891,67226.42434383536,2010-10-23 08:03:58,1050.5311859507542,7,6,-1.099929690361023,3.721442699432373,5.882461778023387,5.229999230872545,23.53727022532343,19.093943660817324,-0.0001942634553415,0.0932833403348922,0,0,0
1892,67256.43951782939,2010-10-23 08:04:28,1080.5463599247355,7,6,-1.0997490882873535,3.716424226760864,5.882461778023387,5.239167464569568,23.53727022532343,19.1280402264244,-0.0001295089750783,0.0932833403348922,0,0,0
1893,67286.45473771279,2010-10-23 08:04:58,1110.5615798031247,7,6,-1.0997490882873535,3.711081981658936,5.882461778023387,5.248335779572845,23.53727022532343,19.162088507733184,-0.0001295089750783,0.0932833403348922,0,0,0
1894,67316.46987947148,2010-10-23 08:05:28,1140.5767215718406,7,6,-1.099568486213684,3.705739736557007,5.882461778023387,5.257504054716489,23.53727022532343,19.19608849050566,-0.0001618862152099,0.0932833403348922,0,0,0
1895,67346.48506738018,2010-10-23 08:05:58,1170.5919094755393,7,6,-1.0997490882873535,3.700721263885498,5.882461778023387,5.266672412182165,23.53727022532343,19.23004133317752,-0.0001295089750783,0.0932833403348922,0,0,0
1896,67376.50035206007,2010-10-23 08:06:28,1200.6071941554335,7,6,-1.099568486213684,3.695702791213989,5.882461778023387,5.275840791461029,23.53727022532343,19.263947556675003,-9.713172767078504e-05,0.0932833403348922,0,0,0
1897,67406.51540111272,2010-10-23 08:06:58,1230.62224320306,7,6,-1.099568486213684,3.6905224323272714,5.882461778023387,5.28500908640829,23.53727022532343,19.29780767499233,-0.0001618862152099,0.0932833403348922,0,0,0
1898,67436.53059221941,2010-10-23 08:07:28,1260.6374343097411,7,6,-1.099568486213684,3.6858277320861816,5.882461778023387,5.294177392773104,23.53727022532343,19.331622763257656,-0.0001295089750783,0.0932833403348922,0,0,0
1899,67466.54574776746,2010-10-23 08:07:58,1290.6525898577995,7,6,-1.099568486213684,3.680971145629883,5.882461778023387,5.30334573601549,23.53727022532343,19.36539358879387,-0.0001295089750783,0.0932833403348922,0,0,0
1900,67496.56105233693,2010-10-23 08:08:28,1320.6678944272649,7,6,-1.0997490882873535,3.676114559173584,5.882461778023387,5.312514121711217,23.53727022532343,19.39912054840681,-0.0001295089750783,0.0932833403348922,0,0,0
1901,67526.57610249732,2010-10-23 08:08:59,1350.6829445926771,7,6,-1.0997490882873535,3.671581983566284,5.882461778023387,5.321682366957535,23.53727022532343,19.43280371121823,-9.713172767078504e-05,0.0932833403348922,0,0,0
1902,67556.59145041484,2010-10-23 08:09:29,1380.6982925352418,7,6,-1.099568486213684,3.6668872833251953,5.882461778023387,5.330850716511944,23.53727022532343,19.46644469478561,-0.0001295089750783,0.0932833403348922,0,0,0
1903,67586.6063785862,2010-10-23 08:09:59,1410.7132206765325,7,6,-1.099568486213684,3.662354469299317,5.882461778023387,5.340019008160686,23.53727022532343,19.500043840990408,-0.0001618862152099,0.0932833403348922,0,0,0
1904,67616.62160735173,2010-10-23 08:10:29,1440.7284494671335,7,6,-1.0997490882873535,3.6578216552734375,5.882461778023387,5.349188179869776,23.53727022532343,19.53360416529012,-0.0001295089750783,0.0932833403348922,0,0,0
1905,67646.63672996771,2010-10-23 08:10:59,1470.743572063065,7,6,-1.099568486213684,3.653450727462769,5.882461778023387,5.358357210021391,23.53727022532343,19.567123070280715,-9.713172767078504e-05,0.0932833403348922,0,0,0
1906,67676.65210778975,2010-10-23 08:11:29,1500.7589498700606,7,6,-1.0997490882873535,3.6490797996521,5.882461778023387,5.36752632256625,23.53727022532343,19.60060219130464,-9.713172767078504e-05,0.0932833403348922,0,0,0
1907,67706.66713938888,2010-10-23 08:11:59,1530.7739814792253,7,6,-1.0997490882873535,3.6448707580566406,5.882461778023387,5.376695357385166,23.53727022532343,19.63404100815922,-9.713172767078504e-05,0.0932833403348922,0,0,0
1908,67736.68232506204,2010-10-23 08:12:29,1560.7891671523644,7,6,-1.0997490882873535,3.640499830245972,5.882461778023387,5.385864371912879,23.53727022532343,19.667440624626643,-0.0001295089750783,0.0932833403348922,0,0,0
1909,67766.69752409848,2010-10-23 08:12:59,1590.8043661888091,7,6,-1.0997490882873535,3.636452674865722,5.882461778023387,5.395033464864498,23.53727022532343,19.700802158349227,-6.47544875391759e-05,0.0932833403348922,0,0,0
1910,67796.7128263221,2010-10-23 08:13:29,1620.8196684174404,7,6,-1.099568486213684,3.6324055194854736,5.882461778023387,5.40420180141545,23.53727022532343,19.734123765336747,-0.0001295089750783,0.0932833403348922,0,0,0
1911,67826.72804814031,2010-10-23 08:13:59,1650.8348902757643,7,6,-1.0997490882873535,3.6283583641052246,5.882461778023387,5.413370073251765,23.53727022532343,19.767408364073965,-0.0001295089750783,0.0932833403348922,0,0,0
1912,67856.74303131376,2010-10-23 08:14:29,1680.8498734040993,7,6,-1.0997490882873535,3.6244730949401855,5.882461778023387,5.422538214882287,23.53727022532343,19.80065655523162,-0.0001295089750783,0.0932833403348922,0,0,0
1913,67886.75832817401,2010-10-23 08:14:59,1710.8651702593386,7,6,-1.099568486213684,3.620749711990357,5.882461778023387,5.431706530383255,23.53727022532343,19.83387014139557,-9.713172767078504e-05,0.0932833403348922,0,0,0
1914,67916.77342321626,2010-10-23 08:15:29,1740.8802653066105,7,6,-1.0997490882873535,3.6170263290405273,5.882461778023387,5.440874805268533,23.53727022532343,19.86704905752,-9.713172767078504e-05,0.0932833403348922,0,0,0
1915,67946.78861074905,2010-10-23 08:15:59,1770.8954528393842,7,6,-1.0997490882873535,3.613302946090698,5.882461778023387,5.450043045484123,23.53727022532343,19.9001944939513,-0.0001295089750783,0.0932833403348922,0,0,0
1916,67976.8037569037,2010-10-23 08:16:29,1800.9105989940313,7,6,-1.0993878841400146,3.610065221786499,5.882461778023387,5.459211296460143,23.53727022532343,19.93330746772251,-6.47544875391759e-05,0.0932833403348922,0,0,0
1917,68006.81893695281,2010-10-23 08:16:59,1830.9257790381407,7,6,-1.099568486213684,3.60650372505188,5.882461778023387,5.468379555257165,23.53727022532343,19.96638836627067,-9.713172767078504e-05,0.0932833403348922,0,0,0
1918,68036.83413375368,2010-10-23 08:17:29,1860.940975899164,7,6,-1.099568486213684,3.603104114532471,5.882461778023387,5.477547824479409,23.53727022532343,19.99943742360331,-9.713172767078504e-05,0.0932833403348922,0,0,0
1919,68066.84939214305,2010-10-23 08:17:59,1890.9562342434224,7,6,-1.0997490882873535,3.599542617797852,5.882461778023387,5.486716119228294,23.53727022532343,20.032455726244084,-9.713172767078504e-05,0.0932833403348922,0,0,0
1920,68096.86444092503,2010-10-23 08:18:29,1920.9712830153608,7,6,-1.099568486213684,3.5966286659240723,5.882461778023387,5.49588430442673,23.53727022532343,20.065443934844417,-6.47544875391759e-05,0.0932833403348922,0,0,0
1921,68126.87974400578,2010-10-23 08:18:59,1950.9865861061417,7,6,-1.099568486213684,3.593390941619873,5.882461778023387,5.505052580659248,23.53727022532343,20.09840318895762,-6.47544875391759e-05,0.0932833403348922,0,0,0
1922,68156.8948098202,2010-10-23 08:19:29,1981.0016519105309,7,6,-1.099568486213684,3.590315341949463,5.882461778023387,5.514220879269834,23.53727022532343,20.13133382419992,-6.47544875391759e-05,0.0932833403348922,0,0,0
1923,68186.90999103723,2010-10-23 08:19:59,2011.016833157639,7,6,-1.0993878841400146,3.5872395038604736,5.882461778023387,5.523389125740167,23.53727022532343,20.16423599747272,-6.47544875391759e-05,0.0932833403348922,0,0,0
1924,68216.92527552665,2010-10-23 08:20:29,2041.0321176470588,7,6,-1.0997490882873535,3.5840017795562744,5.882461778023387,5.532557416154728,23.53727022532343,20.19711017541706,-0.0001295089750783,0.0932833403348922,0,0,0
1925,68246.94032082995,2010-10-23 08:20:59,2071.0471629202784,7,6,-1.0997490882873535,3.581087827682495,5.882461778023387,5.541725635305125,23.53727022532343,20.229956644463226,-6.47544875391759e-05,0.0932833403348922,0,0,0
1926,68276.95551776115,2010-10-23 08:21:29,2101.0623599016008,7,6,-1.0997490882873535,3.578011989593506,5.882461778023387,5.550893916579143,23.53727022532343,20.262775905989,-0.0001295089750783,0.0932833403348922,0,0,0
1927,68306.97067875277,2010-10-23 08:21:59,2131.0775208431014,7,6,-1.0997490882873535,3.5752599239349365,5.882461778023387,5.560062258603546,23.53727022532343,20.295567909762376,-6.47544875391759e-05,0.0932833403348922,0,0,0
1928,68336.98599423944,2010-10-23 08:22:29,2161.0928363548383,7,6,-1.099568486213684,3.572345972061157,5.882461778023387,5.569230616473299,23.53727022532343,20.328332957190916,-6.47544875391759e-05,0.0932833403348922,0,0,0
1929,68367.001033633,2010-10-23 08:22:59,2191.107875748404,7,6,-1.0997490882873535,3.569270133972168,5.882461778023387,5.578398810443298,23.53727022532343,20.36107052572636,-9.713172767078504e-05,0.0932833403348922,0,0,0
1930,68397.01626548123,2010-10-23 08:23:29,2221.1231075715627,7,6,-1.099568486213684,3.5663561820983887,5.882461778023387,5.587567165506261,23.53727022532343,20.393781440448663,-3.237724376958795e-05,0.0932833403348922,0,0,0
1931,68427.03139280394,2010-10-23 08:23:59,2251.13823492435,7,6,-1.099568486213684,3.5632803440093994,5.882461778023387,5.596735463277152,23.53727022532343,20.426464647778904,-6.47544875391759e-05,0.0932833403348922,0,0,0
1932,68457.04656982551,2010-10-23 08:24:29,2281.153411945927,7,6,-1.099929690361023,3.56020450592041,5.882461778023387,5.605903717731073,23.53727022532343,20.459120919772467,-0.0001618862152099,0.0932833403348922,0,0,0
1933,68487.06189448004,2010-10-23 08:24:59,2311.168736610476,7,6,-1.0993878841400146,3.557614326477051,5.882461778023387,5.615071980651445,23.53727022532343,20.491749629809565,-3.237724376958795e-05,0.0932833403348922,0,0,0
1934,68517.07693661044,2010-10-23 08:25:29,2341.183778730837,7,6,-1.0997490882873535,3.5542147159576416,5.882461778023387,5.624240158273062,23.53727022532343,20.5243499917512,-9.713172767078504e-05,0.0932833403348922,0,0,0
1935,68547.09211029368,2010-10-23 08:25:59,2371.198952384019,7,6,-1.099568486213684,3.5511388778686523,5.882461778023387,5.633408450542003,23.53727022532343,20.556922206615447,-6.47544875391759e-05,0.0932833403348922,0,0,0
1936,68577.10926458321,2010-10-23 08:26:29,2401.2161067036304,7,6,-1.0997490882873535,3.548063039779663,5.882461778023387,5.642577315343536,23.53727022532343,20.58946764999512,-9.713172767078504e-05,0.0932833403348922,0,0,0
1937,68607.12273107663,2010-10-23 08:26:59,2431.2295732922826,7,6,-1.099568486213684,3.544663429260254,5.882461778023387,5.651745062578536,23.53727022532343,20.621979714280737,-6.47544875391759e-05,0.0932833403348922,0,0,0
1938,68637.13765425555,2010-10-23 08:27:29,2461.244496345893,7,6,-1.0993878841400146,3.5415875911712646,5.882461778023387,5.660913300153148,23.53727022532343,20.65446365454837,-6.47544875391759e-05,0.0932833403348922,0,0,0
1939,68667.15293188789,2010-10-23 08:27:59,2491.259773983235,7,6,-1.0993878841400146,3.538349866867065,5.882461778023387,5.670081617784141,23.53727022532343,20.686917560858568,-3.237724376958795e-05,0.0932833403348922,0,0,0
1940,68697.16798099065,2010-10-23 08:28:29,2521.2748230809866,7,6,-1.0997490882873535,3.5346264839172363,5.882461778023387,5.679249886753749,23.53727022532343,20.71934009461458,-9.713172767078504e-05,0.0932833403348922,0,0,0
1941,68727.18321053813,2010-10-23 08:28:59,2551.290052778849,7,6,-1.099568486213684,3.531064987182617,5.882461778023387,5.688418222904875,23.53727022532343,20.75173068690898,-9.713172767078504e-05,0.0932833403348922,0,0,0
1942,68757.19855925764,2010-10-23 08:29:29,2581.305401373037,7,6,-1.099568486213684,3.527341604232788,5.882461778023387,5.697586654480126,23.53727022532343,20.784088144201544,-9.713172767078504e-05,0.0932833403348922,0,0,0
1943,68787.21352903772,2010-10-23 08:29:59,2611.320371128042,7,6,-1.0997490882873535,3.523456335067749,5.882461778023387,5.706754936461166,23.53727022532343,20.816410388332876,-0.0001295089750783,0.0932833403348922,0,0,0
1944,68817.22870869585,2010-10-23 08:30:29,2641.33555078619,7,6,-1.099568486213684,3.5194091796875,5.882461778023387,5.715923227568613,23.53727022532343,20.84869612603629,-0.0001295089750783,0.0932833403348922,0,0,0
1945,68847.24400727038,2010-10-23 08:30:59,2671.3508493707395,7,6,-1.0997490882873535,3.515038251876831,5.882461778023387,5.72509158679403,23.53727022532343,20.880944091026755,-0.0001618862152099,0.0932833403348922,0,0,0
1946,68877.25906447333,2010-10-23 08:31:29,2701.3659065636666,7,6,-1.0997490882873535,3.510667562484741,5.882461778023387,5.734259835537221,23.53727022532343,20.913151646050967,-9.713172767078504e-05,0.0932833403348922,0,0,0
1947,68907.27423110903,2010-10-23 08:31:59,2731.3810731993585,7,6,-1.0997490882873535,3.5058109760284424,5.882461778023387,5.743428191528925,23.53727022532343,20.94531714577401,-0.0001295089750783,0.0932833403348922,0,0,0
1948,68937.28942754398,2010-10-23 08:32:29,2761.39626963432,7,6,-1.0997490882873535,3.500630617141724,5.882461778023387,5.752596513749255,23.53727022532343,20.977436832449072,-0.0001618862152099,0.0932833403348922,0,0,0
1949,68967.30459518719,2010-10-23 08:32:59,2791.4114372775225,7,6,-1.099568486213684,3.494964599609375,5.882461778023387,5.761764830677552,23.53727022532343,21.00950668660622,-0.0001618862152099,0.0932833403348922,0,0,0
1950,68997.31977828892,2010-10-23 08:33:29,2821.426620409328,7,6,-1.0993878841400146,3.4888129234313965,5.882461778023387,5.770933259705539,23.53727022532343,21.04152158147743,-0.0001295089750783,0.0932833403348922,0,0,0
1951,69027.33495104486,2010-10-23 08:33:59,2851.441793190336,7,6,-1.0997490882873535,3.481689929962158,5.882461778023387,5.78010158469242,23.53727022532343,21.073474794254206,-0.0001618862152099,0.0932833403348922,0,0,0
1952,69057.35023051177,2010-10-23 08:34:29,2881.4570726021007,7,6,-1.0997490882873535,3.47343373298645,5.882461778023387,5.789269906017362,23.53727022532343,21.10535811416387,-0.0002590179501567,0.0932833403348922,0,0,0
1953,69087.36528332379,2010-10-23 08:34:59,2911.4721254141086,7,6,-1.099568486213684,3.4642062187194824,5.882461778023387,5.798438166470151,23.53727022532343,21.13716196307846,-0.0002266406954731,0.0932833403348922,0,0,0
1954,69117.38047249062,2010-10-23 08:35:29,2941.487314580956,7,6,-1.099568486213684,3.453197956085205,5.882461778023387,5.80760652419795,23.53727022532343,21.168874043623504,-0.0002913951757363,0.0932833403348922,0,0,0
1955,69147.39563424414,2010-10-23 08:35:59,2971.5024763344795,7,6,-1.099568486213684,3.440408945083618,5.882461778023387,5.816774833418652,23.53727022532343,21.20047773099593,-0.0003561496851034,0.0932833403348922,0,0,0
1956,69177.41081999247,2010-10-23 08:36:29,3001.517662082806,7,6,-1.0997490882873535,3.424868106842041,5.882461778023387,5.825943158229755,23.53727022532343,21.231951696335507,-0.0004856586456298,0.0932833403348922,0,0,0
1957,69207.42614695776,2010-10-23 08:36:59,3031.532989088189,7,6,-1.099568486213684,3.405279874801636,5.882461778023387,5.835111519939318,23.53727022532343,21.263265583832755,-0.0005180359003134,0.0932833403348922,0,0,0
1958,69237.44132182897,2010-10-23 08:37:29,3061.548163929332,7,6,-1.099568486213684,3.379863739013672,5.882461778023387,5.844279849037376,23.53727022532343,21.29437485244475,-0.0007770538213662,0.0932833403348922,0,0,0
1959,69267.45635007475,2010-10-23 08:37:59,3091.5631921650884,7,6,-1.099568486213684,3.3450584411621094,5.882461778023387,5.853448169033783,23.53727022532343,21.325211035238297,-0.0011008263099938,0.0932833403348922,0,0,0
1960,69297.47165771687,2010-10-23 08:38:29,3121.5784998874115,7,6,-1.0997490882873535,3.296168804168701,5.882461778023387,5.862616510716652,23.53727022532343,21.35566906652581,-0.0015541076427325,0.0932833403348922,0,0,0
1961,69327.48670583218,2010-10-23 08:38:59,3151.5935479225145,7,6,-1.099568486213684,3.226072311401367,5.882461778023387,5.871784722909674,23.53727022532343,21.38558809872869,-0.0021692751906812,0.0932833403348922,0,0,0
1962,69357.5018922572,2010-10-23 08:39:29,3181.608734347528,7,6,-1.0997490882873535,3.120360851287842,5.882461778023387,5.880953076147668,23.53727022532343,21.41471809671931,-0.003431987715885,0.0932833403348922,0,0,0
1963,69387.51705836155,2010-10-23 08:39:59,3211.623900451895,7,6,-1.0997490882873535,2.929497718811035,5.882461778023387,5.89012144878923,23.53727022532343,21.44257053054323,-0.0072524547576904,0.0932833403348922,0,0,0
1964,69403.31372641386,2010-10-23 08:40:15,3227.420568504195,7,6,-1.099568486213684,2.729244947433472,5.882461778023387,5.894946650164323,23.53727022532343,21.456259522112603,-0.0117529388517141,0.0932833403348922,0,0,0
1965,69405.2355412678,2010-10-23 08:40:17,3229.3423833631514,7,6,-1.099568486213684,2.699943780899048,5.882461778023387,5.895533684041169,23.53727022532343,21.45785320133663,-0.0120442863553762,0.0932833403348922,0,0,0
1966,69465.25160128404,2010-10-23 08:41:17,60.01474730135106,8,6,0.0,3.3319456577301025,5.882461778023387,5.895533684041169,23.53727022532343,21.45785320133663,0.0013598442310467,0.0932833403348922,0,0,0
1967,69465.44128466971,2010-10-23 08:41:18,0.187600713701842,9,6,0.0010644125286489,3.3330788612365723,5.882461833491319,5.895533684041169,23.537270410202417,21.45785320133663,0.0,0.0907677188515663,0,0,0
1968,69470.26922047627,2010-10-23 08:41:22,5.015536495188007,9,6,0.0005225847125984,3.3403637409210205,5.882462694930848,5.895533684041169,23.53727328480911,21.45785320133663,0.0011979580158367,0.0907677188515663,0,0,0
