Data_Point,Test_Time(s),Date_Time,Step_Time(s),Step_Index,Cycle_Index,Current(A),Voltage(V),Charge_Capacity(Ah),Discharge_Capacity(Ah),Charge_Energy(Wh),Discharge_Energy(Wh),dV/dt(V/s),Internal_Resistance(Ohm),Is_FC_Data,AC_Impedance(Ohm),ACI_Phase_Angle(Deg)
10174,355016.66833803226,2010-10-26 16:01:00,30.0152968652642,1,32,0.0,3.416935682296753,30.32703232957764,30.332113909950667,121.16962563843984,110.49190282039336,0.0007770538213662,0.0939245000481605,0,0,0
10175,355046.68351059774,2010-10-26 16:01:30,60.03046944076005,1,32,0.0,3.441218376159668,30.32703232957764,30.332113909950667,121.16962563843984,110.49190282039336,0.0005827903514727,0.0939245000481605,0,0,0
10176,355076.6986040861,2010-10-26 16:02:00,90.04556287902156,1,32,0.0,3.4596734046936035,30.32703232957764,30.332113909950667,121.16962563843984,110.49190282039336,0.0004856586456298,0.0939245000481605,0,0,0
10177,355106.666783831,2010-10-26 16:02:30,120.01374262893673,1,32,0.0,3.47391939163208,30.32703232957764,30.332113909950667,121.16962563843984,110.49190282039336,0.0003561496851034,0.0939245000481605,0,0,0
10178,355136.6959819259,2010-10-26 16:03:00,30.01506099239643,2,32,0.550297200679779,3.629653453826904,30.331618636793504,30.332113909950667,121.18611887147782,110.49190282039336,0.0014893531333655,0.0939245000481605,0,0,0
10179,355166.711126647,2010-10-26 16:03:30,60.03020568339554,2,32,0.5499359965324402,3.673848152160645,30.33620497080813,30.332113909950667,121.20287411581955,110.49190282039336,0.0009388923645019,0.0939245000481605,0,0,0
10180,355196.7262845209,2010-10-26 16:04:00,90.04536355725038,2,32,0.5499359965324402,3.705739736557007,30.340791257021923,30.332113909950667,121.2198007060684,110.49190282039336,0.0007446765666827,0.0939245000481605,0,0,0
10181,355226.7416396714,2010-10-26 16:04:30,120.0607187679293,2,32,0.5501165986061096,3.730508327484131,30.345377624227496,30.332113909950667,121.236855932151,110.49190282039336,0.0005504131549969,0.0939245000481605,0,0,0
10182,355256.7565602288,2010-10-26 16:05:00,150.07563929023104,2,32,0.5501165986061096,3.750582218170166,30.34996389792718,30.332113909950667,121.25401281463417,110.49190282039336,0.0004856586456298,0.0939245000481605,0,0,0
10183,355286.7717020125,2010-10-26 16:05:30,180.09078104892194,2,32,0.5501165986061096,3.766284942626953,30.35455014876053,30.332113909950667,121.27125175868312,110.49190282039336,0.0003885269106831,0.0939245000481605,0,0,0
10184,355316.78686112945,2010-10-26 16:06:00,210.1059401909374,2,32,0.5499359965324402,3.7768075466156006,30.35913642891549,30.332113909950667,121.28855134601092,110.49190282039336,0.0002266406954731,0.0939245000481605,0,0,0
10185,355346.8020122415,2010-10-26 16:06:30,240.1210912778772,2,32,0.5499359965324402,3.783282995223999,30.363722748525543,30.332113909950667,121.30588915570344,110.49190282039336,0.0001618862152099,0.0939245000481605,0,0,0
10186,355376.81714712805,2010-10-26 16:07:00,270.13622616444064,2,32,0.5501165986061096,3.787977695465088,30.36830907173453,30.332113909950667,121.323251630164,110.49190282039336,0.0001618862152099,0.0939245000481605,0,0,0
10187,355406.8323481244,2010-10-26 16:07:30,300.15142727605723,2,32,0.550297200679779,3.792186737060547,30.372895391619338,30.332113909950667,121.3406337040856,110.49190282039336,0.0001295089750783,0.0939245000481605,0,0,0
10188,355436.8475122438,2010-10-26 16:08:00,330.16659128019063,2,32,0.550297200679779,3.796072006225586,30.377481693279098,30.332113909950667,121.3580338572908,110.49190282039336,0.0001295089750783,0.0939245000481605,0,0,0
10189,355466.8627313302,2010-10-26 16:08:30,360.18181039668093,2,32,0.5501165986061096,3.799795389175415,30.38206798245071,30.332113909950667,121.37545168719694,110.49190282039336,0.0001295089750783,0.0939245000481605,0,0,0
10190,355496.8777434458,2010-10-26 16:09:00,390.1968224821863,2,32,0.5501165986061096,3.803518772125244,30.38665423311248,30.332113909950667,121.392886677649,110.49190282039336,9.713172767078504e-05,0.0939245000481605,0,0,0
10191,355526.89290256274,2010-10-26 16:09:30,420.2119816041519,2,32,0.550297200679779,3.8070802688598633,30.391240522518245,30.332113909950667,121.41033875483262,110.49190282039336,9.713172767078504e-05,0.0939245000481605,0,0,0
10192,355556.90802248206,2010-10-26 16:10:00,450.22710151338725,2,32,0.5501165986061096,3.8106417655944815,30.39582684267182,30.332113909950667,121.42780759995486,110.49190282039336,6.47544875391759e-05,0.0939245000481605,0,0,0
10193,355586.9234727847,2010-10-26 16:10:30,480.24255181606463,2,32,0.5499359965324402,3.8142032623291016,30.400413209614623,30.332113909950667,121.44529296357464,110.49190282039336,9.713172767078504e-05,0.0939245000481605,0,0,0
10194,355616.9384708302,2010-10-26 16:11:00,510.2575499117031,2,32,0.5501165986061096,3.817602872848511,30.40499944393651,30.332113909950667,121.46279385762594,110.49190282039336,9.713172767078504e-05,0.0939245000481605,0,0,0
10195,355646.9535932507,2010-10-26 16:11:30,540.2726723021223,2,32,0.5499359965324402,3.82084059715271,30.40958578734693,30.332113909950667,121.48031061238731,110.49190282039336,6.47544875391759e-05,0.0939245000481605,0,0,0
10196,355676.9688654896,2010-10-26 16:12:00,570.2879445660723,2,32,0.5501165986061096,3.824240207672119,30.41417209483438,30.332113909950667,121.49784235359084,110.49190282039336,9.713172767078504e-05,0.0939245000481605,0,0,0
10197,355706.98389734933,2010-10-26 16:12:30,600.3029764007989,2,32,0.5501165986061096,3.8274779319763184,30.418758285500445,30.332113909950667,121.5153885641696,110.49190282039336,3.237724376958795e-05,0.0939245000481605,0,0,0
10198,355736.99891147995,2010-10-26 16:13:00,630.3179905163639,2,32,0.5501165986061096,3.8307156562805176,30.423344525533903,30.332113909950667,121.53294985136988,110.49190282039336,9.713172767078504e-05,0.0939245000481605,0,0,0
10199,355767.0140566973,2010-10-26 16:13:30,660.3331357336748,2,32,0.5499359965324402,3.833791255950928,30.42793077985419,30.332113909950667,121.55052606273664,110.49190282039336,6.47544875391759e-05,0.0939245000481605,0,0,0
10200,355797.0292073582,2010-10-26 16:14:00,690.3482863945526,2,32,0.5501165986061096,3.837352752685547,30.432517045702088,30.332113909950667,121.56811726554734,110.49190282039336,0.0001295089750783,0.0939245000481605,0,0,0
10201,355827.0443976979,2010-10-26 16:14:30,720.3634767543725,2,32,0.5499359965324402,3.840590476989746,30.437103102451868,30.332113909950667,121.58572270355371,110.49190282039336,9.713172767078504e-05,0.0939245000481605,0,0,0
10202,355857.0595039832,2010-10-26 16:15:00,750.3785830396527,2,32,0.5497553944587708,3.843828201293945,30.44168842397759,30.332113909950667,121.6033404795996,110.49190282039336,6.47544875391759e-05,0.0939245000481605,0,0,0
10203,355887.0748236653,2010-10-26 16:15:30,780.3939027318085,2,32,0.5499359965324402,3.8472278118133545,30.446273739436485,30.332113909950667,121.62097364854678,110.49190282039336,6.47544875391759e-05,0.0939245000481605,0,0,0
10204,355917.0900690323,2010-10-26 16:16:00,810.4091481638853,2,32,0.5499359965324402,3.850627422332764,30.450859018826197,30.332113909950667,121.63862221966173,110.49190282039336,9.713172767078504e-05,0.0939245000481605,0,0,0
10205,355947.1050946565,2010-10-26 16:16:30,840.4241737329961,2,32,0.5497553944587708,3.854027032852173,30.455444625120563,30.332113909950667,121.65628756700804,110.49190282039336,9.713172767078504e-05,0.0939245000481605,0,0,0
10206,355977.1200906419,2010-10-26 16:17:00,870.4391696732628,2,32,0.5501165986061096,3.857264757156372,30.460030884005096,30.332113909950667,121.67397101110208,110.49190282039336,6.47544875391759e-05,0.0939245000481605,0,0,0
10207,356007.1352435483,2010-10-26 16:17:30,900.4543225797373,2,32,0.5501165986061096,3.8605024814605713,30.4646171724903,30.332113909950667,121.69166975557565,110.49190282039336,6.47544875391759e-05,0.0939245000481605,0,0,0
10208,356037.1504050563,2010-10-26 16:18:00,930.4694840876492,2,32,0.550297200679779,3.863902091979981,30.46920342509425,30.332113909950667,121.7093832827384,110.49190282039336,6.47544875391759e-05,0.0939245000481605,0,0,0
10209,356067.1655523638,2010-10-26 16:18:31,960.484631390157,2,32,0.5501165986061096,3.8669779300689697,30.473789651642424,30.332113909950667,121.72711130479058,110.49190282039336,6.47544875391759e-05,0.0939245000481605,0,0,0
10210,356097.1808730434,2010-10-26 16:19:01,990.4999521299238,2,32,0.5497553944587708,3.870053768157959,30.478375911128445,30.332113909950667,121.74485384487583,110.49190282039336,6.47544875391759e-05,0.0939245000481605,0,0,0
10211,356127.19597806555,2010-10-26 16:19:31,1020.5150571269934,2,32,0.5501165986061096,3.873291492462158,30.482962168548298,30.332113909950667,121.76261041638564,110.49190282039336,0.0001295089750783,0.0939245000481605,0,0,0
10212,356157.2111143707,2010-10-26 16:20:01,1050.5301934120423,2,32,0.550297200679779,3.8762054443359375,30.487548427500418,30.332113909950667,121.78038053742264,110.49190282039336,0.0001295089750783,0.0939245000481605,0,0,0
10213,356187.2262773572,2010-10-26 16:20:31,1080.5453563936271,2,32,0.5501165986061096,3.878957509994507,30.492134679008,30.332113909950667,121.7981638265471,110.49190282039336,9.713172767078504e-05,0.0939245000481605,0,0,0
10214,356217.2412924051,2010-10-26 16:21:01,1110.5603714665783,2,32,0.5499359965324402,3.881547689437866,30.496720914458795,30.332113909950667,121.8159596736038,110.49190282039336,3.237724376958795e-05,0.0939245000481605,0,0,0
10215,356247.25647791784,2010-10-26 16:21:31,1140.57555698433,2,32,0.550297200679779,3.884299755096436,30.50130727195762,30.332113909950667,121.83376813967274,110.49190282039336,9.713172767078504e-05,0.0939245000481605,0,0,0
10216,356277.2715840277,2010-10-26 16:22:01,1170.5906630640982,2,32,0.550297200679779,3.886728048324585,30.505893557180737,30.332113909950667,121.85158772212915,110.49190282039336,6.47544875391759e-05,0.0939245000481605,0,0,0
10217,356307.2867478965,2010-10-26 16:22:31,1200.6058269278817,2,32,0.5501165986061096,3.888994455337525,30.510479815427463,30.332113909950667,121.86941804238845,110.49190282039336,6.47544875391759e-05,0.0939245000481605,0,0,0
10218,356337.3020220251,2010-10-26 16:23:01,1230.6211010614918,2,32,0.5501165986061096,3.891098976135254,30.51506611498357,30.332113909950667,121.88725870831858,110.49190282039336,3.237724376958795e-05,0.0939245000481605,0,0,0
10219,356367.31719946774,2010-10-26 16:23:31,1260.6362785141428,2,32,0.5499359965324402,3.893041610717773,30.51965244213565,30.332113909950667,121.90510903755988,110.49190282039336,6.47544875391759e-05,0.0939245000481605,0,0,0
10220,356397.3321853529,2010-10-26 16:24:01,1290.6512643893243,2,32,0.5501165986061096,3.894822359085083,30.52423879523708,30.332113909950667,121.9229683714502,110.49190282039336,0.0,0.0939245000481605,0,0,0
10221,356427.3475555159,2010-10-26 16:24:31,1320.666634567306,2,32,0.550297200679779,3.8967649936676025,30.52882506354656,30.332113909950667,121.94083524355308,110.49190282039336,3.237724376958795e-05,0.0939245000481605,0,0,0
10222,356457.3625006696,2010-10-26 16:25:01,1350.6815797009467,2,32,0.5501165986061096,3.898221969604492,30.533411278679957,30.332113909950667,121.95870982946975,110.49190282039336,3.237724376958795e-05,0.0939245000481605,0,0,0
10223,356487.37763788697,2010-10-26 16:25:31,1380.6967169183197,2,32,0.5499359965324402,3.899678945541382,30.537997518650677,30.332113909950667,121.97659186721218,110.49190282039336,3.237724376958795e-05,0.0939245000481605,0,0,0
10224,356517.39279804146,2010-10-26 16:26:01,1410.711877072859,2,32,0.5499359965324402,3.9012978076934814,30.54258368011175,30.332113909950667,121.99448038401972,110.49190282039336,3.237724376958795e-05,0.0939245000481605,0,0,0
10225,356547.4080830221,2010-10-26 16:26:31,1440.7271620835777,2,32,0.5501165986061096,3.902592897415161,30.547170609892696,30.332113909950667,122.01237855410568,110.49190282039336,3.237724376958795e-05,0.0939245000481605,0,0,0
10226,356577.42316632514,2010-10-26 16:27:01,1470.7422453665288,2,32,0.5499359965324402,3.904049873352051,30.55175773013631,30.332113909950667,122.03028377679706,110.49190282039336,3.237724376958795e-05,0.0939245000481605,0,0,0
10227,356607.43832901097,2010-10-26 16:27:31,1500.7574080523766,2,32,0.550297200679779,3.9053449630737305,30.556344757003,30.332113909950667,122.0481947651574,110.49190282039336,3.237724376958795e-05,0.0939245000481605,0,0,0
10228,356637.4534745541,2010-10-26 16:28:01,1530.7725535954996,2,32,0.5501165986061096,3.90664005279541,30.560931911996303,30.332113909950667,122.0661120733274,110.49190282039336,3.237724376958795e-05,0.0939245000481605,0,0,0
10229,356667.46854805766,2010-10-26 16:28:31,1560.78762718429,2,32,0.550297200679779,3.90793514251709,30.56551900518831,30.332113909950667,122.08403504372204,110.49190282039336,3.237724376958795e-05,0.0939245000481605,0,0,0
10230,356697.4836262028,2010-10-26 16:29:01,1590.8027052392115,2,32,0.5501165986061096,3.90906834602356,30.57010609277969,30.332113909950667,122.10196377460144,110.49190282039336,0.0,0.0939245000481605,0,0,0
10231,356727.49877322465,2010-10-26 16:29:31,1620.817852250995,2,32,0.5501165986061096,3.9103634357452393,30.574692706894684,30.332113909950667,122.11989639465148,110.49190282039336,3.237724376958795e-05,0.0939245000481605,0,0,0
10232,356757.5141330919,2010-10-26 16:30:01,1650.8332121533667,2,32,0.5499359965324402,3.911658525466919,30.57927910123572,30.332113909950667,122.13783387603613,110.49190282039336,3.237724376958795e-05,0.0939245000481605,0,0,0
10233,356787.529090847,2010-10-26 16:30:31,1680.8481698783892,2,32,0.5499359965324402,3.912953615188599,30.58386544508541,30.332113909950667,122.15577706392288,110.49190282039336,6.47544875391759e-05,0.0939245000481605,0,0,0
10234,356817.5443530709,2010-10-26 16:31:01,1710.8634321123416,2,32,0.5501165986061096,3.914248466491699,30.58845184344155,30.332113909950667,122.17372634904292,110.49190282039336,3.237724376958795e-05,0.0939245000481605,0,0,0
10235,356847.5595101127,2010-10-26 16:31:31,1740.87858914911,2,32,0.5501165986061096,3.915543556213379,30.59303833024995,30.332113909950667,122.19168201792536,110.49190282039336,6.47544875391759e-05,0.0939245000481605,0,0,0
10236,356877.57538906374,2010-10-26 16:32:01,1770.894468230436,2,32,0.5499359965324402,3.9168386459350586,30.59762482346297,30.332113909950667,122.20964346582748,110.49190282039336,3.237724376958795e-05,0.0939245000481605,0,0,0
10237,356907.5898128079,2010-10-26 16:32:31,1800.9088918843888,2,32,0.5499359965324402,3.917971849441528,30.60221108616809,30.332113909950667,122.22761010477753,110.49190282039336,3.237724376958795e-05,0.0939245000481605,0,0,0
10238,356937.60481957515,2010-10-26 16:33:01,1830.9238986366024,2,32,0.5501165986061096,3.919428825378418,30.60679744068505,30.332113909950667,122.24558313281167,110.49190282039336,3.237724376958795e-05,0.0939245000481605,0,0,0
10239,356967.6199657849,2010-10-26 16:33:31,1860.939044816312,2,32,0.5501165986061096,3.9207239151000977,30.611383863881297,30.332113909950667,122.2635625868472,110.49190282039336,6.47544875391759e-05,0.0939245000481605,0,0,0
10240,356997.6351152228,2010-10-26 16:34:01,1890.954194279204,2,32,0.5499359965324402,3.922019004821777,30.615970252231843,30.332113909950667,122.2815480197302,110.49190282039336,3.237724376958795e-05,0.0939245000481605,0,0,0
10241,357027.6502751267,2010-10-26 16:34:31,1920.9693541931429,2,32,0.5501165986061096,3.923475980758667,30.620556685749964,30.332113909950667,122.29953992851196,110.49190282039336,3.237724376958795e-05,0.0939245000481605,0,0,0
10242,357057.6654176573,2010-10-26 16:35:01,1950.9844967137328,2,32,0.5499359965324402,3.9247710704803462,30.62514316157061,30.332113909950667,122.31753824204776,110.49190282039336,0.0,0.0939245000481605,0,0,0
10243,357087.6806728487,2010-10-26 16:35:31,1980.9997519151573,2,32,0.5501165986061096,3.9260661602020255,30.62972965737864,30.332113909950667,122.33554289609576,110.49190282039336,3.237724376958795e-05,0.0939245000481605,0,0,0
10244,357117.6957315103,2010-10-26 16:36:01,2011.014810576745,2,32,0.5499359965324402,3.927523136138916,30.634316014944027,30.332113909950667,122.3535533322148,110.49190282039336,0.0,0.0939245000481605,0,0,0
10245,357147.7111016933,2010-10-26 16:36:31,2041.030180769765,2,32,0.5501165986061096,3.9289801120758057,30.63890244789477,30.332113909950667,122.3715705355848,110.49190282039336,0.0,0.0939245000481605,0,0,0
10246,357177.7260114136,2010-10-26 16:37:01,2071.0450904700947,2,32,0.5501165986061096,3.930598974227905,30.64348881558997,30.332113909950667,122.38959405494953,110.49190282039336,3.237724376958795e-05,0.0939245000481605,0,0,0
10247,357207.74115837034,2010-10-26 16:37:31,2101.060237401678,2,32,0.5499359965324402,3.931894063949585,30.64807525399809,30.332113909950667,122.40762437641968,110.49190282039336,0.0,0.0939245000481605,0,0,0
10248,357237.7563107004,2010-10-26 16:38:01,2131.075389736728,2,32,0.5499359965324402,3.933512926101685,30.65266167290597,30.332113909950667,122.42566126901224,110.49190282039336,6.47544875391759e-05,0.0939245000481605,0,0,0
10249,357267.77146402287,2010-10-26 16:38:31,2161.090543054227,2,32,0.5499359965324402,3.934808015823364,30.65724819298736,30.332113909950667,122.44370523179076,110.49190282039336,3.237724376958795e-05,0.0939245000481605,0,0,0
10250,357297.78663386655,2010-10-26 16:39:01,2191.1057129029277,2,32,0.5501165986061096,3.936264991760254,30.66183468319629,30.332113909950667,122.461755828773,110.49190282039336,3.237724376958795e-05,0.0939245000481605,0,0,0
10251,357327.8017609988,2010-10-26 16:39:31,2221.1208400602272,2,32,0.550297200679779,3.9378838539123535,30.666421052365248,30.332113909950667,122.47981251193694,110.49190282039336,6.47544875391759e-05,0.0939245000481605,0,0,0
10252,357357.81690131384,2010-10-26 16:40:01,2251.135980365295,2,32,0.5499359965324402,3.939340829849243,30.67100740294317,30.332113909950667,122.49787601068456,110.49190282039336,9.713172767078504e-05,0.0939245000481605,0,0,0
10253,357387.8320608669,2010-10-26 16:40:31,2281.151139898285,2,32,0.5499359965324402,3.940797805786133,30.675593836340557,30.332113909950667,122.51594672994104,110.49190282039336,3.237724376958795e-05,0.0939245000481605,0,0,0
10254,357417.8473262938,2010-10-26 16:41:01,2311.166405345245,2,32,0.5499359965324402,3.9422547817230233,30.680180267069108,30.332113909950667,122.53402432329968,110.49190282039336,0.0,0.0939245000481605,0,0,0
10255,357447.8623442991,2010-10-26 16:41:31,2341.1814233655414,2,32,0.5501165986061096,3.943873643875122,30.684766618888737,30.332113909950667,122.5521086467495,110.49190282039336,3.237724376958795e-05,0.0939245000481605,0,0,0
10256,357477.87750261906,2010-10-26 16:42:01,2371.196581650421,2,32,0.5501165986061096,3.945330619812012,30.689353010703563,30.332113909950667,122.5702001569671,110.49190282039336,0.0,0.0939245000481605,0,0,0
10257,357507.89287522814,2010-10-26 16:42:31,2401.2119542644746,2,32,0.5501165986061096,3.946787595748901,30.6939395177445,30.332113909950667,122.58829921046568,110.49190282039336,3.237724376958795e-05,0.0939245000481605,0,0,0
10258,357537.90789799026,2010-10-26 16:43:01,2431.2269770215767,2,32,0.5501165986061096,3.948568344116211,30.698525988633666,30.332113909950667,122.60640520173008,110.49190282039336,6.47544875391759e-05,0.0939245000481605,0,0,0
10259,357567.9229925011,2010-10-26 16:43:31,2461.2420715375247,2,32,0.5501165986061096,3.9500253200531006,30.703112386161585,30.332113909950667,122.62451816365858,110.49190282039336,0.0,0.0939245000481605,0,0,0
10260,357597.93823503604,2010-10-26 16:44:01,2491.257314062356,2,32,0.5501165986061096,3.95180606842041,30.70769880117374,30.332113909950667,122.64263855105112,110.49190282039336,9.713172767078504e-05,0.0939245000481605,0,0,0
10261,357627.953283833,2010-10-26 16:44:31,2521.2723628693825,2,32,0.5499359965324402,3.9532630443573,30.71228518028001,30.332113909950667,122.66076608099654,110.49190282039336,3.237724376958795e-05,0.0939245000481605,0,0,0
10262,357657.96842650895,2010-10-26 16:45:01,2551.287505565409,2,32,0.550297200679779,3.95504379272461,30.71687166758015,30.332113909950667,122.67890153440337,110.49190282039336,3.237724376958795e-05,0.0939245000481605,0,0,0
10263,357687.983556764,2010-10-26 16:45:31,2581.302635800379,2,32,0.5501165986061096,3.956662654876709,30.72145817191621,30.332113909950667,122.69704459638872,110.49190282039336,6.47544875391759e-05,0.0939245000481605,0,0,0
10264,357717.99872243224,2010-10-26 16:46:01,2611.3178014887103,2,32,0.550297200679779,3.958119630813599,30.72604463715652,30.332113909950667,122.71519493160233,110.49190282039336,6.47544875391759e-05,0.0939245000481605,0,0,0
10265,357748.0138803663,2010-10-26 16:46:31,2641.3329593976528,2,32,0.5501165986061096,3.959900379180908,30.73063110362428,30.332113909950667,122.7333529244582,110.49190282039336,3.237724376958795e-05,0.0939245000481605,0,0,0
10266,357778.0291245452,2010-10-26 16:47:01,2671.348203586632,2,32,0.550297200679779,3.9616811275482178,30.73521753498764,30.332113909950667,122.7515184238188,110.49190282039336,9.713172767078504e-05,0.0939245000481605,0,0,0
10267,357808.04413633,2010-10-26 16:47:31,2701.3632153914373,2,32,0.550297200679779,3.9631381034851074,30.73980389666428,30.332113909950667,122.76969125206728,110.49190282039336,6.47544875391759e-05,0.0939245000481605,0,0,0
10268,357838.0594154561,2010-10-26 16:48:01,2731.37849449744,2,32,0.5501165986061096,3.964918851852417,30.744390225020872,30.332113909950667,122.7878717097312,110.49190282039336,3.237724376958795e-05,0.0939245000481605,0,0,0
10269,357868.07445902,2010-10-26 16:48:31,2761.3935380864614,2,32,0.5501165986061096,3.966699600219727,30.74897652711219,30.332113909950667,122.80605978495214,110.49190282039336,6.47544875391759e-05,0.0939245000481605,0,0,0
10270,357898.0895823678,2010-10-26 16:49:01,2791.408661404192,2,32,0.5501165986061096,3.968318462371826,30.753562930205465,30.332113909950667,122.82425613063208,110.49190282039336,6.47544875391759e-05,0.0939245000481605,0,0,0
10271,357928.1047409584,2010-10-26 16:49:31,2821.423819999846,2,32,0.5499359965324402,3.969937324523926,30.75814925430593,30.332113909950667,122.84246008555344,110.49190282039336,3.237724376958795e-05,0.0939245000481605,0,0,0
10272,357958.1198711081,2010-10-26 16:50:01,2851.4389501395785,2,32,0.5501165986061096,3.971879959106445,30.762735654905715,30.332113909950667,122.86067228602796,110.49190282039336,6.47544875391759e-05,0.0939245000481605,0,0,0
10273,357988.1350343304,2010-10-26 16:50:32,2881.454113361763,2,32,0.5501165986061096,3.973498821258545,30.767322107311248,30.332113909950667,122.87889273113488,110.49190282039336,6.47544875391759e-05,0.0939245000481605,0,0,0
10274,358018.1502270862,2010-10-26 16:51:02,2911.4693061476296,2,32,0.5501165986061096,3.9752795696258554,30.771908511864947,30.332113909950667,122.89712105834376,110.49190282039336,6.47544875391759e-05,0.0939245000481605,0,0,0
10275,358048.1653241435,2010-10-26 16:51:32,2941.484403174836,2,32,0.5499359965324402,3.977060317993164,30.776494931455048,30.332113909950667,122.91535764832986,110.49190282039336,0.0,0.0939245000481605,0,0,0
10276,358078.1805922721,2010-10-26 16:52:02,2971.4996713435794,2,32,0.5501165986061096,3.979002952575684,30.78108139712509,30.332113909950667,122.93360216799316,110.49190282039336,6.47544875391759e-05,0.0939245000481605,0,0,0
10277,358108.1957624115,2010-10-26 16:52:32,3001.514841457941,2,32,0.5501165986061096,3.980621814727783,30.78566774491884,30.332113909950667,122.95185495814196,110.49190282039336,3.237724376958795e-05,0.0939245000481605,0,0,0
10278,358138.2108590277,2010-10-26 16:53:02,3031.5299380891606,2,32,0.5501165986061096,3.982564449310303,30.790254080977647,30.332113909950667,122.97011602774651,110.49190282039336,3.237724376958795e-05,0.0939245000481605,0,0,0
10279,358168.225936812,2010-10-26 16:53:32,3061.545015848345,2,32,0.5499359965324402,3.984345197677612,30.794840366608117,30.332113909950667,122.98838518469884,110.49190282039336,6.47544875391759e-05,0.0939245000481605,0,0,0
10280,358198.241056626,2010-10-26 16:54:02,3091.56013565733,2,32,0.5501165986061096,3.986287832260132,30.79942670310788,30.332113909950667,123.00666310335458,110.49190282039336,6.47544875391759e-05,0.0939245000481605,0,0,0
10281,358228.25621317147,2010-10-26 16:54:32,3121.5752922279376,2,32,0.5499359965324402,3.9880685806274414,30.80401311691292,30.332113909950667,123.0249499266474,110.49190282039336,6.47544875391759e-05,0.0939245000481605,0,0,0
10282,358258.2713638023,2010-10-26 16:55:02,3151.5904428386903,2,32,0.5501165986061096,3.990011215209961,30.8085994820348,30.332113909950667,123.04324513873162,110.49190282039336,3.237724376958795e-05,0.0939245000481605,0,0,0
10283,358288.28650911484,2010-10-26 16:55:32,3181.605588146226,2,32,0.5501165986061096,3.991953849792481,30.81318583315458,30.332113909950667,123.06154908958298,110.49190282039336,6.47544875391759e-05,0.0939245000481605,0,0,0
10284,358318.30166392605,2010-10-26 16:56:02,3211.6207429825104,2,32,0.5501165986061096,3.99373459815979,30.81777219780427,30.332113909950667,123.07986193689204,110.49190282039336,3.237724376958795e-05,0.0939245000481605,0,0,0
10285,358348.3168225468,2010-10-26 16:56:32,3241.6359016132515,2,32,0.5499359965324402,3.9956769943237305,30.822358481659432,30.332113909950667,123.0981833287728,110.49190282039336,3.237724376958795e-05,0.0939245000481605,0,0,0
10286,358378.3319473833,2010-10-26 16:57:02,3271.65102641468,2,32,0.5501165986061096,3.99778151512146,30.826944892085475,30.332113909950667,123.11651424896664,110.49190282039336,0.0,0.0939245000481605,0,0,0
10287,358408.3470925154,2010-10-26 16:57:32,3301.666171546778,2,32,0.5501165986061096,3.99972414970398,30.831531284880995,30.332113909950667,123.13485409933216,110.49190282039336,6.47544875391759e-05,0.0939245000481605,0,0,0
10288,358438.3622156627,2010-10-26 16:58:02,3331.6812946990963,2,32,0.5501165986061096,4.001828670501709,30.836117574647936,30.332113909950667,123.15320284871773,110.49190282039336,6.47544875391759e-05,0.0939245000481605,0,0,0
10289,358468.37766882253,2010-10-26 16:58:32,3361.696747949119,2,32,0.5501165986061096,4.003933429718018,30.840704017473424,30.332113909950667,123.1715616053826,110.49190282039336,9.71794142969884e-05,0.0939245000481605,0,0,0
10290,358498.39270934893,2010-10-26 16:59:02,3391.7117883953083,2,32,0.5499359965324402,4.005876064300537,30.845290362494737,30.332113909950667,123.18992936959526,110.49190282039336,6.47544875391759e-05,0.0939245000481605,0,0,0
10291,358528.4077005875,2010-10-26 16:59:32,3421.72677961882,2,32,0.5501165986061096,4.008142471313477,30.84987610326681,30.332113909950667,123.20830421447214,110.49190282039336,6.47544875391759e-05,0.0939245000481605,0,0,0
10292,358558.42292160867,2010-10-26 17:00:02,3451.7420006801567,2,32,0.5497553944587708,4.010085105895996,30.85446158009655,30.332113909950667,123.22668751001838,110.49190282039336,6.47544875391759e-05,0.0939245000481605,0,0,0
10293,358588.43803471595,2010-10-26 17:00:32,3481.757113752352,2,32,0.5501165986061096,4.012351512908936,30.85904762014485,30.332113909950667,123.24508296201442,110.49190282039336,6.47544875391759e-05,0.0939245000481605,0,0,0
10294,358618.4531743644,2010-10-26 17:01:02,3511.7722534007835,2,32,0.550297200679779,4.014617919921875,30.863633929548715,30.332113909950667,123.2634894676492,110.49190282039336,9.71794142969884e-05,0.0939245000481605,0,0,0
10295,358648.4683173612,2010-10-26 17:01:32,3541.78739639756,2,32,0.5499359965324402,4.0165605545043945,30.868220251538297,30.332113909950667,123.28190600980548,110.49190282039336,3.24249267578125e-05,0.0939245000481605,0,0,0
10296,358678.4834666787,2010-10-26 17:02:02,3571.8025457150898,2,32,0.5501165986061096,4.018826961517334,30.87280660987635,30.332113909950667,123.30033284753962,110.49190282039336,3.24249267578125e-05,0.0939245000481605,0,0,0
10297,358708.4986218759,2010-10-26 17:02:32,3601.8177009122733,2,32,0.5499359965324402,4.021093368530273,30.87739291403274,30.332113909950667,123.31876942413584,110.49190282039336,6.47544875391759e-05,0.0939245000481605,0,0,0
10298,358738.5137618802,2010-10-26 17:03:02,3631.832840946666,2,32,0.5499359965324402,4.023359775543213,30.88197918085503,30.332113909950667,123.33721623591089,110.49190282039336,6.47544875391759e-05,0.0939245000481605,0,0,0
10299,358768.5289238092,2010-10-26 17:03:32,3661.8480028455538,2,32,0.5501165986061096,4.025626182556152,30.88656545000815,30.332113909950667,123.35567343901783,110.49190282039336,6.47544875391759e-05,0.0939245000481605,0,0,0
10300,358798.54424630833,2010-10-26 17:04:02,3691.86332537478,2,32,0.5499359965324402,4.027892589569092,30.891151723385985,30.332113909950667,123.37414124731808,110.49190282039336,3.24249267578125e-05,0.0939245000481605,0,0,0
10301,358828.5593380223,2010-10-26 17:04:32,3721.878417068694,2,32,0.5501165986061096,4.030158996582031,30.895738034223665,30.332113909950667,123.3926198061737,110.49190282039336,9.71794142969884e-05,0.0939245000481605,0,0,0
10302,358858.5744953548,2010-10-26 17:05:02,3751.8935744312753,2,32,0.5501165986061096,4.032587051391602,30.900324332915737,30.332113909950667,123.41110903421472,110.49190282039336,6.47544875391759e-05,0.0939245000481605,0,0,0
10303,358888.5895039416,2010-10-26 17:05:32,3781.9085829779606,2,32,0.5501165986061096,4.035015106201172,30.904910599569497,30.332113909950667,123.42960900749726,110.49190282039336,6.47544875391759e-05,0.0939245000481605,0,0,0
10304,358918.6046662816,2010-10-26 17:06:02,3811.923745317946,2,32,0.5501165986061096,4.0374436378479,30.909496938971337,30.332113909950667,123.4481202286108,110.49190282039336,9.71794142969884e-05,0.0939245000481605,0,0,0
10305,358948.6198286015,2010-10-26 17:06:32,3841.938907662945,2,32,0.5499359965324402,4.03971004486084,30.91408333186916,30.332113909950667,123.46664275531964,110.49190282039336,9.71794142969884e-05,0.0939245000481605,0,0,0
10306,358978.6349732925,2010-10-26 17:07:02,3871.9540523288815,2,32,0.5499359965324402,4.04213809967041,30.91866962505247,30.332113909950667,123.4851758493633,110.49190282039336,9.70840483205393e-05,0.0939245000481605,0,0,0
10307,359008.65010067035,2010-10-26 17:07:32,3901.9691797067294,2,32,0.5499359965324402,4.0447282791137695,30.92325585450288,30.332113909950667,123.50371991828216,110.49190282039336,9.70840483205393e-05,0.0939245000481605,0,0,0
10308,359038.66523545166,2010-10-26 17:08:02,3931.9843144830193,2,32,0.5501165986061096,4.047156810760498,30.92784207658329,30.332113909950667,123.52227521195697,110.49190282039336,9.71794142969884e-05,0.0939245000481605,0,0,0
10309,359068.6806239904,2010-10-26 17:08:32,3961.999703066874,2,32,0.5501165986061096,4.049746990203857,30.932428407995445,30.332113909950667,123.54084242782712,110.49190282039336,9.71794142969884e-05,0.0939245000481605,0,0,0
10310,359098.6955445979,2010-10-26 17:09:02,3992.0146236393007,2,32,0.550297200679779,4.052337169647217,30.93701471976219,30.332113909950667,123.55942104227498,110.49190282039336,9.71794142969884e-05,0.0939245000481605,0,0,0
10311,359128.710744291,2010-10-26 17:09:32,4022.0298233273697,2,32,0.5501165986061096,4.054765224456787,30.94160104161687,30.332113909950667,123.57801127180664,110.49190282039336,9.70840483205393e-05,0.0939245000481605,0,0,0
10312,359158.7258262056,2010-10-26 17:10:02,4052.0449052419103,2,32,0.5499359965324402,4.057193756103516,30.94618737331528,30.332113909950667,123.59661323441932,110.49190282039336,3.24249267578125e-05,0.0939245000481605,0,0,0
10313,359188.7410326655,2010-10-26 17:10:32,4082.0601117269193,2,32,0.5499359965324402,4.059783935546875,30.950773711691635,30.332113909950667,123.61522708957496,110.49190282039336,9.71794142969884e-05,0.0939245000481605,0,0,0
10314,359218.7561227704,2010-10-26 17:11:02,4112.075201806811,2,32,0.5501165986061096,4.062374114990234,30.95536009474876,30.332113909950667,123.63385262256934,110.49190282039336,9.71794142969884e-05,0.0939245000481605,0,0,0
10315,359248.7712673762,2010-10-26 17:11:32,4142.090346412598,2,32,0.5501165986061096,4.064964294433594,30.959946382649164,30.332113909950667,123.65248971212822,110.49190282039336,6.47544875391759e-05,0.0939245000481605,0,0,0
10316,359278.7864232651,2010-10-26 17:12:02,4172.105502306517,2,32,0.5501165986061096,4.067554473876953,30.96453269691699,30.332113909950667,123.67113895667528,110.49190282039336,3.24249267578125e-05,0.0939245000481605,0,0,0
10317,359308.8016017854,2010-10-26 17:12:32,4202.120680912042,2,32,0.5499359965324402,4.070306301116943,30.969119031211125,30.332113909950667,123.68980052524331,110.49190282039336,9.70840483205393e-05,0.0939245000481605,0,0,0
10318,359338.81671467714,2010-10-26 17:13:02,4232.135793713564,2,32,0.5499359965324402,4.073058605194092,30.97370531719961,30.332113909950667,123.7084741586882,110.49190282039336,9.71794142969884e-05,0.0939245000481605,0,0,0
10319,359368.8318608268,2010-10-26 17:13:32,4262.150939863198,2,32,0.5501165986061096,4.075810432434082,30.978291556346363,30.332113909950667,123.72716005945658,110.49190282039336,9.70840483205393e-05,0.0939245000481605,0,0,0
10320,359398.84703448,2010-10-26 17:14:02,4292.166113546455,2,32,0.5499359965324402,4.078400611877441,30.982877869651208,30.332113909950667,123.74585890689605,110.49190282039336,9.70840483205393e-05,0.0939245000481605,0,0,0
10321,359428.8625563861,2010-10-26 17:14:32,4322.181635457602,2,32,0.5501165986061096,4.081314563751221,30.987464219359907,30.332113909950667,123.76457069459173,110.49190282039336,6.47544875391759e-05,0.0939245000481605,0,0,0
10322,359458.8774624975,2010-10-26 17:15:02,4352.196541579013,2,32,0.5501165986061096,4.084228515625,30.992050442266173,30.332113909950667,123.78329468970944,110.49190282039336,9.70840483205393e-05,0.0939245000481605,0,0,0
10323,359488.8924716407,2010-10-26 17:15:32,4382.211550677072,2,32,0.5501165986061096,4.086818695068359,30.99663665304063,30.332113909950667,123.80203163039148,110.49190282039336,6.47544875391759e-05,0.0939245000481605,0,0,0
10324,359518.9077283609,2010-10-26 17:16:02,4412.226807397283,2,32,0.5501165986061096,4.089732646942139,31.00122297437466,30.332113909950667,123.82078209864171,110.49190282039336,6.47544875391759e-05,0.0939245000481605,0,0,0
10325,359548.92275717814,2010-10-26 17:16:32,4442.2418362195,2,32,0.5499359965324402,4.092646598815918,31.005809249218597,30.332113909950667,123.83954552786663,110.49190282039336,9.70840483205393e-05,0.0939245000481605,0,0,0
10326,359578.9378962952,2010-10-26 17:17:02,4472.256975336609,2,32,0.550297200679779,4.095560550689697,31.01039552100206,30.332113909950667,123.85832228207232,110.49190282039336,6.47544875391759e-05,0.0939245000481605,0,0,0
10327,359608.9530587204,2010-10-26 17:17:32,4502.272137756794,2,32,0.5501165986061096,4.098474502563477,31.01498186284412,30.332113909950667,123.87711275171696,110.49190282039336,6.47544875391759e-05,0.0939245000481605,0,0,0
10328,359638.9681857925,2010-10-26 17:18:02,4532.287264828881,2,32,0.5499359965324402,4.101388454437256,31.01956819781556,30.332113909950667,123.89591684764358,110.49190282039336,6.47544875391759e-05,0.0939245000481605,0,0,0
10329,359668.98334588186,2010-10-26 17:18:32,4562.302424918257,2,32,0.5501165986061096,4.104626178741455,31.02415449640257,30.332113909950667,123.91473438150406,110.49190282039336,0.0001295089750783,0.0939245000481605,0,0,0
10330,359698.9986068226,2010-10-26 17:19:02,4592.317685864,2,32,0.5501165986061096,4.107540130615234,31.028740798209743,30.332113909950667,123.93356566345676,110.49190282039336,0.0001295089750783,0.0939245000481605,0,0,0
10331,359729.0137547617,2010-10-26 17:19:32,4622.332833803094,2,32,0.5501165986061096,4.110616207122803,31.033327059723856,30.332113909950667,123.9524107320984,110.49190282039336,9.71794142969884e-05,0.0939245000481605,0,0,0
10332,359759.0290100132,2010-10-26 17:20:02,4652.348089139857,2,32,0.5501165986061096,4.113691806793213,31.037913349867733,30.332113909950667,123.97126996568215,110.49190282039336,9.70840483205393e-05,0.0939245000481605,0,0,0
10333,359789.0439368062,2010-10-26 17:20:32,4682.363015842561,2,32,0.5501165986061096,4.116767406463623,31.04249959007477,30.332113909950667,123.99014317698408,110.49190282039336,9.70840483205393e-05,0.0939245000481605,0,0,0
10334,359819.0592204735,2010-10-26 17:21:02,4712.378299514945,2,32,0.5501165986061096,4.119843482971191,31.047085881715024,30.332113909950667,124.00903093605264,110.49190282039336,6.47544875391759e-05,0.0939245000481605,0,0,0
10335,359849.0742947741,2010-10-26 17:21:32,4742.393373810497,2,32,0.5501165986061096,4.122919082641602,31.05167216613789,30.332113909950667,124.02793295986967,110.49190282039336,6.47544875391759e-05,0.0939245000481605,0,0,0
10336,359879.0893582577,2010-10-26 17:22:02,4772.408437294102,2,32,0.5499359965324402,4.126156806945801,31.056258446559383,30.332113909950667,124.0468494119045,110.49190282039336,6.47544875391759e-05,0.0939245000481605,0,0,0
10337,359909.10452210146,2010-10-26 17:22:33,4802.423601142848,2,32,0.5501165986061096,4.129232883453369,31.06084479608732,30.332113909950667,124.06578078844488,110.49190282039336,6.47544875391759e-05,0.0939245000481605,0,0,0
10338,359939.1197092282,2010-10-26 17:23:03,4832.438788294673,2,32,0.5501165986061096,4.132632255554199,31.06543112502407,30.332113909950667,124.08472671967723,110.49190282039336,0.0001295089750783,0.0939245000481605,0,0,0
10339,359969.1348089371,2010-10-26 17:23:33,4862.453887973487,2,32,0.550297200679779,4.135869979858398,31.070017439486,30.332113909950667,124.1036872421419,110.49190282039336,9.70840483205393e-05,0.0939245000481605,0,0,0
10340,359999.150071522,2010-10-26 17:24:03,4892.469150573353,2,32,0.5501165986061096,4.139107704162598,31.0746037630378,30.332113909950667,124.12266269182912,110.49190282039336,9.70840483205393e-05,0.0939245000481605,0,0,0
10341,360029.1652535309,2010-10-26 17:24:33,4922.484332572334,2,32,0.5501165986061096,4.142345428466797,31.079190092596505,30.332113909950667,124.14165318058387,110.49190282039336,9.70840483205393e-05,0.0939245000481605,0,0,0
10342,360059.1802425389,2010-10-26 17:25:03,4952.499321605385,2,32,0.5501165986061096,4.145745277404785,31.08377640834856,30.332113909950667,124.16065872465136,110.49190282039336,9.71794142969884e-05,0.0939245000481605,0,0,0
10343,360089.1953940018,2010-10-26 17:25:33,4982.514473033175,2,32,0.5501165986061096,4.148983001708984,31.088362764589075,30.332113909950667,124.17967996877556,110.49190282039336,6.47544875391759e-05,0.0939245000481605,0,0,0
10344,360119.210533931,2010-10-26 17:26:03,5012.529612967319,2,32,0.5499359965324402,4.152382373809815,31.092949064952577,30.332113909950667,124.1987165053316,110.49190282039336,9.70840483205393e-05,0.0939245000481605,0,0,0
10345,360149.225697108,2010-10-26 17:26:33,5042.544776169453,2,32,0.550297200679779,4.155943870544434,31.09753539795214,30.332113909950667,124.21776890816564,110.49190282039336,9.70840483205393e-05,0.0939245000481605,0,0,0
10346,360179.2408809616,2010-10-26 17:27:03,5072.559959992983,2,32,0.5499359965324402,4.159181594848633,31.102121684600657,30.332113909950667,124.236836896532,110.49190282039336,6.47544875391759e-05,0.0939245000481605,0,0,0
10347,360209.2560073871,2010-10-26 17:27:33,5102.575086453546,2,32,0.550297200679779,4.162905216217041,31.10670798451592,30.332113909950667,124.2559209049623,110.49190282039336,6.47544875391759e-05,0.0939245000481605,0,0,0
10348,360239.27115169715,2010-10-26 17:28:03,5132.59023073352,2,32,0.5501165986061096,4.166304588317871,31.11129432638371,30.332113909950667,124.27502110737944,110.49190282039336,9.70840483205393e-05,0.0939245000481605,0,0,0
10349,360269.2863146637,2010-10-26 17:28:33,5162.605393730143,2,32,0.5499359965324402,4.16986608505249,31.11588059123236,30.332113909950667,124.29413702348914,110.49190282039336,9.70840483205393e-05,0.0939245000481605,0,0,0
10350,360299.3014244878,2010-10-26 17:29:03,5192.62050354923,2,32,0.5501165986061096,4.173265933990479,31.12046689901032,30.332113909950667,124.31326937640696,110.49190282039336,9.71794142969884e-05,0.0939245000481605,0,0,0
10351,360329.31655563,2010-10-26 17:29:33,5222.635634666399,2,32,0.5499359965324402,4.1769890785217285,31.125053189800425,30.332113909950667,124.33241806029584,110.49190282039336,9.70840483205393e-05,0.0939245000481605,0,0,0
10352,360359.33175417024,2010-10-26 17:30:03,5252.650833326907,2,32,0.5501165986061096,4.180712699890137,31.12963948466501,30.332113909950667,124.3515833331576,110.49190282039336,0.0001295089750783,0.0939245000481605,0,0,0
10353,360389.3470700128,2010-10-26 17:30:33,5282.666149129368,2,32,0.5501165986061096,4.184274196624756,31.13422579857552,30.332113909950667,124.3707653891732,110.49190282039336,9.71794142969884e-05,0.0939245000481605,0,0,0
10354,360419.36212648894,2010-10-26 17:31:03,5312.681205535335,2,32,0.5499359965324402,4.187835693359375,31.138811991747403,30.332113909950667,124.3899636596834,110.49190282039336,9.71794142969884e-05,0.0939245000481605,0,0,0
10355,360449.3771686544,2010-10-26 17:31:33,5342.696247690783,2,32,0.5501165986061096,4.191720962524414,31.143398219895285,30.332113909950667,124.40917898762814,110.49190282039336,0.0001295089750783,0.0939245000481605,0,0,0
10356,360479.39231312985,2010-10-26 17:32:03,5372.71139219632,2,32,0.5501165986061096,4.195281982421875,31.147984518854017,30.332113909950667,124.42841167686434,110.49190282039336,9.70840483205393e-05,0.0939245000481605,0,0,0
10357,360509.4076571677,2010-10-26 17:32:33,5402.726736299315,2,32,0.5501165986061096,4.199167251586914,31.152570770106884,30.332113909950667,124.44766119447182,110.49190282039336,0.0001295089750783,0.0939245000481605,0,0,0
10358,360516.1729580591,2010-10-26 17:32:40,5409.49203709553,2,32,0.5501165986061096,4.200138568878174,31.15360448440027,30.332113909950667,124.45200231605304,110.49190282039336,0.0001295089750783,0.0939245000481605,0,0,0
10359,360546.1788590802,2010-10-26 17:33:10,30.01512585405164,3,32,0.0,4.110454082489014,31.15360448440027,30.332113909950667,124.45200231605304,110.49190282039336,-0.0003885269106831,0.0939245000481605,0,0,0
10360,360576.1940168837,2010-10-26 17:33:40,60.03028365773157,3,32,0.0,4.099122047424316,31.15360448440027,30.332113909950667,124.45200231605304,110.49190282039336,-0.0002266883820993,0.0939245000481605,0,0,0
10361,360606.20933323767,2010-10-26 17:34:10,90.0456000065548,3,32,0.0,4.092161178588867,31.15360448440027,30.332113909950667,124.45200231605304,110.49190282039336,-0.0001942634553415,0.0939245000481605,0,0,0
10362,360636.1774773638,2010-10-26 17:34:40,120.01374417278448,3,32,0.0,4.087790012359619,31.15360448440027,30.332113909950667,124.45200231605304,110.49190282039336,-0.0001295089750783,0.0939245000481605,0,0,0
10363,360636.1857360354,2010-10-26 17:34:40,2.781933434e-06,4,32,0.996402144432068,4.199814796447754,31.15360448517025,30.332113909950667,124.45200231928682,110.49190282039336,0.0,0.0939245000481605,0,0,0
10364,360636.9826151784,2010-10-26 17:34:41,0.796881899888954,4,32,0.946192741394043,4.199814796447754,31.153817846088305,30.332113909950667,124.45289839095368,110.49190282039336,0.0,0.0939245000481605,0,0,0
10365,360639.0919519547,2010-10-26 17:34:43,2.90621868117462,4,32,0.8958027958869934,4.199814796447754,31.15435636825756,30.332113909950667,124.45516008704126,110.49190282039336,0.0,0.0939245000481605,0,0,0
10366,360642.29509369953,2010-10-26 17:34:46,6.109360451047225,4,32,0.8457739949226379,4.199653148651123,31.1551301261849,30.332113909950667,124.45840971679476,110.49190282039336,-3.23295607813634e-05,0.0939245000481605,0,0,0
10367,360646.7168265984,2010-10-26 17:34:50,10.531093324902065,4,32,0.795564591884613,4.199814796447754,31.15613705692673,30.332113909950667,124.46263863795195,110.49190282039336,3.23295607813634e-05,0.0939245000481605,0,0,0
10368,360652.49801556015,2010-10-26 17:34:56,16.312282286622043,4,32,0.7453552484512329,4.199814796447754,31.15737322319076,30.332113909950667,124.46783031453948,110.49190282039336,-3.24249267578125e-05,0.0939245000481605,0,0,0
10369,360660.1541226046,2010-10-26 17:35:04,23.96838933110213,4,32,0.695145845413208,4.199814796447754,31.15890310871089,30.332113909950667,124.47425558560282,110.49190282039336,0.0,0.0939245000481605,0,0,0
10370,360670.1383147635,2010-10-26 17:35:14,33.95258149002129,4,32,0.6451171040534973,4.199653148651123,31.160758663262698,30.332113909950667,124.482048591029,110.49190282039336,-3.23295607813634e-05,0.0939245000481605,0,0,0
10371,360684.2162475487,2010-10-26 17:35:28,48.03051427519355,4,32,0.5950883030891418,4.199976921081543,31.16317834529183,30.332113909950667,124.49221084531578,110.49190282039336,0.0,0.0939245000481605,0,0,0
10372,360705.77838879416,2010-10-26 17:35:50,69.59265554574478,4,32,0.5448789596557617,4.199653148651123,31.16658119180518,30.332113909950667,124.50650226686842,110.49190282039336,0.0,0.0939245000481605,0,0,0
10373,360743.18414863216,2010-10-26 17:36:27,106.99841536367562,4,32,0.4946695566177368,4.199814796447754,31.171957554422043,30.332113909950667,124.52908205747096,110.49190282039336,0.0,0.0939245000481605,0,0,0
10374,360812.7611637922,2010-10-26 17:37:36,176.57543052376693,4,32,0.4446407854557037,4.199653148651123,31.18099107400012,30.332113909950667,124.5670213199878,110.49190282039336,-6.47544875391759e-05,0.0939245000481605,0,0,0
10375,360919.63437347487,2010-10-26 17:39:23,283.4486402364354,4,32,0.3946120142936706,4.199814796447754,31.19341869797081,30.332113909950667,124.61921518581352,110.49190282039336,0.0,0.0939245000481605,0,0,0
10376,361053.2103379436,2010-10-26 17:41:37,417.0246047001758,4,32,0.3444026410579681,4.199653148651123,31.207117545955835,30.332113909950667,124.67674808420298,110.49190282039336,-3.23295607813634e-05,0.0939245000481605,0,0,0
10377,361214.0046351825,2010-10-26 17:44:18,577.8189019390636,4,32,0.2941932678222656,4.199814796447754,31.22136557007622,30.332113909950667,124.73658740973993,110.49190282039336,0.0,0.0939245000481605,0,0,0
10378,361406.26729974535,2010-10-26 17:47:30,770.0815665069096,4,32,0.2441644966602325,4.199653148651123,31.235716015336155,30.332113909950667,124.7968569051476,110.49190282039336,0.0,0.0939245000481605,0,0,0
10379,361645.3414913771,2010-10-26 17:51:29,1009.1557581036584,4,32,0.19395512342453,4.199976921081543,31.25022091052733,30.332113909950667,124.85777498943364,110.49190282039336,6.47544875391759e-05,0.0939245000481605,0,0,0
10380,361960.3212510151,2010-10-26 17:56:44,1324.1355177966625,4,32,0.1439263522624969,4.199653148651123,31.26490760163665,30.332113909950667,124.91945670387082,110.49190282039336,-3.23295607813634e-05,0.0939245000481605,0,0,0
10381,362428.34461023344,2010-10-26 18:04:32,1792.1588769598843,4,32,0.0938975811004638,4.199976921081543,31.280145108339557,30.332113909950667,124.98345185262087,110.49190282039336,0.0,0.0939245000481605,0,0,0
10382,363196.7542450571,2010-10-26 18:17:21,2560.568511813674,4,32,0.0498289167881011,4.199976921081543,31.294964250003808,30.332113909950667,125.04568986706118,110.49190282039336,3.24249267578125e-05,0.0939245000481605,0,0,0
10383,363226.771730862,2010-10-26 18:17:51,30.01514250555229,5,32,0.0,4.191397190093994,31.294964250003808,30.332113909950667,125.04568986706118,110.49190282039336,-3.23295607813634e-05,0.0939245000481605,0,0,0
10384,363256.7712481496,2010-10-26 18:18:21,60.01465978824147,5,32,0.0,4.1901021003723145,31.294964250003808,30.332113909950667,125.04568986706118,110.49190282039336,-3.23295607813634e-05,0.0939245000481605,0,0,0
10385,363256.9621763295,2010-10-26 18:18:21,0.187596057096147,6,32,0.0023286775685846,4.190587520599365,31.29496437135123,30.332113909950667,125.0456903755782,110.49190282039336,0.0,0.0972511246800422,0,0,0
10386,363261.7900945723,2010-10-26 18:18:26,5.015514319920417,6,32,0.0005225847125984,4.1901021003723145,31.294965359068836,30.332113909950667,125.04569451437558,110.49190282039336,-3.23295607813634e-05,0.0972511246800422,0,0,0
10387,363291.79305482,2010-10-26 18:18:56,30.01516745272833,7,32,-1.099568486213684,4.002152442932129,31.294965359068836,30.34128108439329,125.04569451437558,110.5288020475222,-0.0010037422180175,0.0972511246800422,0,0,0
10388,363321.8081791553,2010-10-26 18:19:26,60.030291813057154,7,32,-1.099568486213684,3.972527503967285,31.294965359068836,30.35044826036509,125.04569451437558,110.56534631110148,-0.0006799221155233,0.0972511246800422,0,0,0
10389,363351.8233191847,2010-10-26 18:19:56,90.04543181737561,7,32,-1.0997490882873535,3.95180606842041,31.294965359068836,30.359615356630343,125.04569451437558,110.6016645872805,-0.0005180359003134,0.0972511246800422,0,0,0
10390,363381.8387108463,2010-10-26 18:20:26,120.06082356912614,7,32,-1.099568486213684,3.935941219329834,31.294965359068836,30.368782536558143,125.04569451437558,110.6378173044737,-0.0004209041653666,0.0972511246800422,0,0,0
10391,363411.8537631419,2010-10-26 18:20:56,150.0758757896604,7,32,-1.099568486213684,3.922828435897827,31.294965359068836,30.37794961192189,125.04569451437558,110.67383702580048,-0.0003237724304199,0.0972511246800422,0,0,0
10392,363441.868834034,2010-10-26 18:21:26,180.0909467168173,7,32,-1.0992072820663452,3.911496639251709,31.294965359068836,30.387116634977065,125.04569451437558,110.70974407980484,-0.0002590179501567,0.0972511246800422,0,0,0
10393,363471.883907688,2010-10-26 18:21:56,210.1060203256578,7,32,-1.0993878841400146,3.900812149047852,31.294965359068836,30.39628368758158,125.04569451437558,110.7455512486748,-0.0002913951757363,0.0972511246800422,0,0,0
10394,363501.89906831866,2010-10-26 18:22:26,240.1211809613961,7,32,-1.099568486213684,3.891260862350464,31.294965359068836,30.405450718527213,125.04569451437558,110.78126627105432,-0.0002266406954731,0.0972511246800422,0,0,0
10395,363531.9142020575,2010-10-26 18:22:56,270.13631471513617,7,32,-1.099568486213684,3.882033348083496,31.294965359068836,30.41461772048343,125.04569451437558,110.81689485488384,-0.0002266406954731,0.0972511246800422,0,0,0
10396,363561.9293414452,2010-10-26 18:23:26,300.15145410793053,7,32,-1.099568486213684,3.8729677200317374,31.294965359068836,30.423784735950186,125.04569451437558,110.85243956911376,-0.0002266406954731,0.0972511246800422,0,0,0
10397,363591.9445275494,2010-10-26 18:23:56,330.16664020713165,7,32,-1.099568486213684,3.8640639781951904,31.294965359068836,30.43295182147902,125.04569451437558,110.88790314007842,-0.0002590179501567,0.0972511246800422,0,0,0
10398,363621.9596559749,2010-10-26 18:24:26,360.181768612542,7,32,-1.099568486213684,3.855645895004273,31.294965359068836,30.44211891177387,125.04569451437558,110.92328764498636,-0.0002590179501567,0.0972511246800422,0,0,0
10399,363651.97518263786,2010-10-26 18:24:56,390.1972953106204,7,32,-1.099568486213684,3.8472278118133545,31.294965359068836,30.451286091934385,125.04569451437558,110.95859483724992,-0.0002266406954731,0.0972511246800422,0,0,0
10400,363681.990054559,2010-10-26 18:25:26,420.2121672067306,7,32,-1.099568486213684,3.8392953872680655,31.294965359068836,30.460453097042205,125.04569451437558,110.99382591266512,-0.0001942634553415,0.0972511246800422,0,0,0
10401,363712.0050881932,2010-10-26 18:25:56,450.227200881042,7,32,-1.099568486213684,3.831201314926148,31.294965359068836,30.46962014874251,125.04569451437558,111.02898308580085,-0.0002266406954731,0.0972511246800422,0,0,0
10402,363742.0202393303,2010-10-26 18:26:26,480.24235201309415,7,32,-1.099568486213684,3.823430776596069,31.294965359068836,30.478787245112933,125.04569451437558,111.06406771156956,-0.0001618862152099,0.0972511246800422,0,0,0
10403,363772.0354600006,2010-10-26 18:26:56,510.2575726533822,7,32,-1.0993878841400146,3.815498352050781,31.294965359068836,30.48795439847694,125.04569451437558,111.09908116149882,-0.0001942634553415,0.0972511246800422,0,0,0
10404,363802.0505014192,2010-10-26 18:27:26,540.2726140519449,7,32,-1.0997490882873535,3.807889699935913,31.294965359068836,30.497121372083225,125.04569451437558,111.1340233723059,-0.0002266406954731,0.0972511246800422,0,0,0
10405,363832.065769593,2010-10-26 18:27:56,570.2878822507635,7,32,-1.099568486213684,3.800604820251465,31.294965359068836,30.50628843583289,125.04569451437558,111.16889693018864,-0.0001618862152099,0.0972511246800422,0,0,0
10406,363862.0807885206,2010-10-26 18:28:26,600.3029011482464,7,32,-1.099568486213684,3.793158054351807,31.294965359068836,30.51545543750448,125.04569451437558,111.20370265596148,-0.0001942634553415,0.0972511246800422,0,0,0
10407,363892.0959496175,2010-10-26 18:28:56,630.3180622501466,7,32,-1.099568486213684,3.7858731746673584,31.294965359068836,30.52462251444141,125.04569451437558,111.23844247581776,-0.0002266406954731,0.0972511246800422,0,0,0
10408,363922.1110974563,2010-10-26 18:29:26,660.333210088991,7,32,-1.0993878841400146,3.77907395362854,31.294965359068836,30.5337896295118,125.04569451437558,111.27311735032212,-0.0001942634553415,0.0972511246800422,0,0,0
10409,363952.1262213405,2010-10-26 18:29:56,690.3483339781455,7,32,-1.0993878841400146,3.7722747325897217,31.294965359068836,30.542956747163597,125.04569451437558,111.30772904963337,-0.0001942634553415,0.0972511246800422,0,0,0
10410,363982.1413611293,2010-10-26 18:30:26,720.3634737569018,7,32,-1.0993878841400146,3.7654755115509033,31.294965359068836,30.55212385471239,125.04569451437558,111.34227858534462,-0.0001942634553415,0.0972511246800422,0,0,0
10411,364012.15674297634,2010-10-26 18:30:56,750.3788556340417,7,32,-1.099568486213684,3.758838176727295,31.294965359068836,30.56129108415535,125.04569451437558,111.37676759102948,-0.0001618862152099,0.0972511246800422,0,0,0
10412,364042.17166183447,2010-10-26 18:31:26,780.393774462121,7,32,-1.0993878841400146,3.7525248527526855,31.294965359068836,30.57045816472261,125.04569451437558,111.4111962211113,-0.0001618385285837,0.0972511246800422,0,0,0
10413,364072.18681095645,2010-10-26 18:31:56,810.408923619251,7,32,-1.099568486213684,3.745887517929077,31.294965359068836,30.579625240586733,125.04569451437558,111.44556618549473,-0.0001942634553415,0.0972511246800422,0,0,0
10414,364102.2022175501,2010-10-26 18:32:26,840.4243303032173,7,32,-1.0997490882873535,3.739735841751098,31.294965359068836,30.588792456978624,125.04569451437558,111.47987874865127,-0.0001942634553415,0.0972511246800422,0,0,0
10415,364132.21711745614,2010-10-26 18:32:56,870.4392300938492,7,32,-1.0993878841400146,3.73374605178833,31.294965359068836,30.597959471068545,125.04569451437558,111.51413440420656,-0.0001942634553415,0.0972511246800422,0,0,0
10416,364162.2323598407,2010-10-26 18:33:26,900.454472483343,7,32,-1.0997490882873535,3.7277562618255615,31.294965359068836,30.607126635733675,125.04569451437558,111.54833503341352,-0.0001942634553415,0.0972511246800422,0,0,0
10417,364192.2473893245,2010-10-26 18:33:56,930.469501982248,7,32,-1.0993878841400146,3.722090244293213,31.294965359068836,30.61629368774892,125.04569451437558,111.58248174198197,-9.713172767078504e-05,0.0972511246800422,0,0,0
10418,364222.2625753636,2010-10-26 18:34:26,960.4846881165366,7,32,-1.0993878841400146,3.7162623405456543,31.294965359068836,30.6254608201995,125.04569451437558,111.61657517070178,-0.0001618862152099,0.0972511246800422,0,0,0
10419,364252.27768856107,2010-10-26 18:34:56,990.4998011937444,7,32,-1.099568486213684,3.710434436798096,31.294965359068836,30.63462796410806,125.04569451437558,111.65061570129076,-0.0001618862152099,0.0972511246800422,0,0,0
10420,364282.2928137384,2010-10-26 18:35:26,1020.514926396172,7,32,-1.0993878841400146,3.704768419265747,31.294965359068836,30.64379504148019,125.04569451437558,111.68460398116385,-0.0001942634553415,0.0972511246800422,0,0,0
10421,364312.3079576374,2010-10-26 18:35:56,1050.5300702701347,7,32,-1.099568486213684,3.699264287948608,31.294965359068836,30.65296216692137,125.04569451437558,111.71854129329024,-0.0001618862152099,0.0972511246800422,0,0,0
10422,364342.3232431995,2010-10-26 18:36:26,1080.5453558372403,7,32,-1.099568486213684,3.69392204284668,31.294965359068836,30.66212934121329,125.04569451437558,111.75242851297229,-0.0001618862152099,0.0972511246800422,0,0,0
10423,364372.3383865221,2010-10-26 18:36:56,1110.5604991648415,7,32,-1.0993878841400146,3.688579797744751,31.294965359068836,30.67129650233997,125.04569451437558,111.78626642489225,-9.713172767078504e-05,0.0972511246800422,0,0,0
10424,364402.3535259952,2010-10-26 18:37:26,1140.5756386428482,7,32,-1.0993878841400146,3.6832375526428223,31.294965359068836,30.68046366060384,125.04569451437558,111.82005526845208,-0.0001295089750783,0.0972511246800422,0,0,0
10425,364432.3687531918,2010-10-26 18:37:56,1170.5908658645392,7,32,-1.099568486213684,3.6778953075408936,31.294965359068836,30.68963081927216,125.04569451437558,111.85379577414378,-0.0001618862152099,0.0972511246800422,0,0,0
10426,364462.3836801752,2010-10-26 18:38:26,1200.605792832907,7,32,-1.099568486213684,3.672714948654175,31.294965359068836,30.69879791380477,125.04569451437558,111.88748836921944,-0.0001618862152099,0.0972511246800422,0,0,0
10427,364492.3988366004,2010-10-26 18:38:57,1230.6209492330886,7,32,-1.099568486213684,3.667696714401245,31.294965359068836,30.707965168399493,125.04569451437558,111.92113445334482,-9.713172767078504e-05,0.0972511246800422,0,0,0
10428,364522.4140228149,2010-10-26 18:39:27,1260.6361354726394,7,32,-1.0993878841400146,3.662678241729736,31.294965359068836,30.717132309079247,125.04569451437558,111.95473371560144,-0.0001618862152099,0.0972511246800422,0,0,0
10429,364552.4290501584,2010-10-26 18:39:57,1290.6511627911102,7,32,-1.099568486213684,3.657659769058228,31.294965359068836,30.72629945163975,125.04569451437558,111.9882875002894,-0.0001618862152099,0.0972511246800422,0,0,0
10430,364582.444372031,2010-10-26 18:40:27,1320.6664846687129,7,32,-1.099568486213684,3.6529650688171382,31.294965359068836,30.73546661872493,125.04569451437558,112.02179629126404,-0.0001295089750783,0.0972511246800422,0,0,0
10431,364612.45954621554,2010-10-26 18:40:57,1350.681658863244,7,32,-1.099568486213684,3.64810848236084,31.294965359068836,30.74463378561552,125.04569451437558,112.05526133875524,-0.0001295089750783,0.0972511246800422,0,0,0
10432,364642.47453643655,2010-10-26 18:41:27,1380.6966490942807,7,32,-1.099568486213684,3.643251895904541,31.294965359068836,30.75380088489739,125.04569451437558,112.08868181023156,-0.0001295089750783,0.0972511246800422,0,0,0
10433,364672.4896740097,2010-10-26 18:41:57,1410.711786642478,7,32,-1.099568486213684,3.638719081878662,31.294965359068836,30.762967986135457,125.04569451437558,112.12205957608056,-0.0001618862152099,0.0972511246800422,0,0,0
10434,364702.50481811934,2010-10-26 18:42:27,1440.7269307470156,7,32,-1.099568486213684,3.634024381637573,31.294965359068836,30.772135141252228,125.04569451437558,112.15539526087396,-0.0001618862152099,0.0972511246800422,0,0,0
10435,364732.51997909095,2010-10-26 18:42:57,1470.742091748666,7,32,-1.099568486213684,3.629653453826904,31.294965359068836,30.78130227570606,125.04569451437558,112.1886894781304,-0.0001295089750783,0.0972511246800422,0,0,0
10436,364762.5352156158,2010-10-26 18:43:27,1500.7573282935934,7,32,-1.0993878841400146,3.6252825260162354,31.294965359068836,30.7904694178319,125.04569451437558,112.22194245205382,-0.0001295089750783,0.0972511246800422,0,0,0
10437,364792.5502698113,2010-10-26 18:43:57,1530.7723824439372,7,32,-1.099568486213684,3.6209115982055664,31.294965359068836,30.79963651988949,125.04569451437558,112.25515478234124,-9.713172767078504e-05,0.0972511246800422,0,0,0
10438,364822.5654042667,2010-10-26 18:44:27,1560.7875169244887,7,32,-1.099568486213684,3.616378784179688,31.294965359068836,30.808803628707626,125.04569451437558,112.28832710182938,-0.0001618862152099,0.0972511246800422,0,0,0
10439,364852.5805564264,2010-10-26 18:44:57,1590.802669064052,7,32,-1.099568486213684,3.6123316287994394,31.294965359068836,30.81797070775587,125.04569451437558,112.3214604927426,-9.713172767078504e-05,0.0972511246800422,0,0,0
10440,364882.5956928668,2010-10-26 18:45:27,1620.8178054994758,7,32,-1.0993878841400146,3.6082844734191895,31.294965359068836,30.82713782805707,125.04569451437558,112.35455627987577,-9.713172767078504e-05,0.0972511246800422,0,0,0
10441,364912.6108347658,2010-10-26 18:45:57,1650.8329473985164,7,32,-1.099568486213684,3.6043992042541504,31.294965359068836,30.836304915153285,125.04569451437558,112.38761486503353,-6.47544875391759e-05,0.0972511246800422,0,0,0
10442,364942.6259826398,2010-10-26 18:46:27,1680.8480952975108,7,32,-1.099568486213684,3.6003520488739014,31.294965359068836,30.845472054254483,125.04569451437558,112.42063743428542,-9.713172767078504e-05,0.0972511246800422,0,0,0
10443,364972.6413706272,2010-10-26 18:46:57,1710.8634832648293,7,32,-1.099568486213684,3.5964667797088623,31.294965359068836,30.85463925352545,125.04569451437558,112.4536245539731,-9.713172767078504e-05,0.0972511246800422,0,0,0
10444,365002.6562715256,2010-10-26 18:47:27,1740.8783841582097,7,32,-1.0993878841400146,3.592743396759033,31.294965359068836,30.863806336093965,125.04569451437558,112.4865761652499,-9.713172767078504e-05,0.0972511246800422,0,0,0
10445,365032.6715659197,2010-10-26 18:47:57,1770.8936785673525,7,32,-1.099568486213684,3.589020252227783,31.294965359068836,30.87297352094659,125.04569451437558,112.51949401164504,-6.47544875391759e-05,0.0972511246800422,0,0,0
10446,365062.68669153313,2010-10-26 18:48:27,1800.9088041808045,7,32,-1.099568486213684,3.585296869277954,31.294965359068836,30.88214070515229,125.04569451437558,112.552378138493,-0.0001295089750783,0.0972511246800422,0,0,0
10447,365092.701785242,2010-10-26 18:48:57,1830.9238978947533,7,32,-1.0993878841400146,3.581897258758545,31.294965359068836,30.891307810388867,125.04569451437558,112.58522884694972,-6.47544875391759e-05,0.0972511246800422,0,0,0
10448,365122.71685249,2010-10-26 18:49:27,1860.9389651277029,7,32,-1.099568486213684,3.578335762023926,31.294965359068836,30.900474904674123,125.04569451437558,112.61804704682922,-6.47544875391759e-05,0.0972511246800422,0,0,0
10449,365152.7319918978,2010-10-26 18:49:57,1890.9541045355347,7,32,-1.0993878841400146,3.5749361515045166,31.294965359068836,30.909642075772748,125.04569451437558,112.65083376683398,-6.47544875391759e-05,0.0972511246800422,0,0,0
10450,365182.747160293,2010-10-26 18:50:27,1920.969272930612,7,32,-1.099568486213684,3.5715365409851074,31.294965359068836,30.91880917242219,125.04569451437558,112.68358924692434,-9.713172767078504e-05,0.0972511246800422,0,0,0
10451,365212.7622889991,2010-10-26 18:50:57,1950.9844016317595,7,32,-1.099568486213684,3.5679750442504883,31.294965359068836,30.927976255030803,125.04569451437558,112.71631392713482,-6.47544875391759e-05,0.0972511246800422,0,0,0
10452,365242.77741928416,2010-10-26 18:51:27,1980.9995319118416,7,32,-1.0993878841400146,3.564899206161499,31.294965359068836,30.937143424470243,125.04569451437558,112.74900871630432,-9.713172767078504e-05,0.0972511246800422,0,0,0
10453,365272.79255993007,2010-10-26 18:51:57,2011.014672562772,7,32,-1.099568486213684,3.5616614818573,31.294965359068836,30.946310540665,125.04569451437558,112.78167339854198,-9.713172767078504e-05,0.0972511246800422,0,0,0
10454,365302.8079470653,2010-10-26 18:52:27,2041.0300596980169,7,32,-1.0993878841400146,3.5584237575531006,31.294965359068836,30.95547775146487,125.04569451437558,112.81430875392638,-9.713172767078504e-05,0.0972511246800422,0,0,0
10455,365332.8228752718,2010-10-26 18:52:57,2071.044987909482,7,32,-1.099568486213684,3.5551860332489014,31.294965359068836,30.96464478158113,125.04569451437558,112.8469140065852,-6.47544875391759e-05,0.0972511246800422,0,0,0
10456,365362.83800682,2010-10-26 18:53:27,2101.060119482788,7,32,-1.099568486213684,3.552110195159912,31.294965359068836,30.973811925569898,125.04569451437558,112.8794899974368,-6.47544875391759e-05,0.0972511246800422,0,0,0
10457,365392.8531859068,2010-10-26 18:53:57,2131.075298664749,7,32,-1.0993878841400146,3.548872470855713,31.294965359068836,30.98297911199457,125.04569451437558,112.91203663231728,-3.237724376958795e-05,0.0972511246800422,0,0,0
10458,365422.86829559045,2010-10-26 18:54:27,2161.0904082181746,7,32,-1.099568486213684,3.5453109741210938,31.294965359068836,30.99214700188078,125.04569451437558,112.94455591663,-0.0001295089750783,0.0972511246800422,0,0,0
10459,365452.8835367469,2010-10-26 18:54:57,2191.1056494096824,7,32,-1.099568486213684,3.5423970222473145,31.294965359068836,31.00131501490621,125.04569451437558,112.97704597121046,-6.47544875391759e-05,0.0972511246800422,0,0,0
10460,365482.8986340047,2010-10-26 18:55:27,2221.120746792776,7,32,-1.0997490882873535,3.5391592979431152,31.294965359068836,31.010482735074948,125.04569451437558,113.0095058716072,-6.47544875391759e-05,0.0972511246800422,0,0,0
10461,365512.9137261497,2010-10-26 18:55:57,2251.1358388977146,7,32,-1.0997490882873535,3.535759687423706,31.294965359068836,31.019650673326822,125.04569451437558,113.04193678511749,-6.47544875391759e-05,0.0972511246800422,0,0,0
10462,365542.9288531918,2010-10-26 18:56:27,2281.150965924689,7,32,-1.099568486213684,3.532521963119507,31.294965359068836,31.028818559430416,125.04569451437558,113.07433764911356,-6.47544875391759e-05,0.0972511246800422,0,0,0
10463,365572.9442450488,2010-10-26 18:56:57,2311.166357841852,7,32,-1.099929690361023,3.5291223526000977,31.294965359068836,31.037986513503125,125.04569451437558,113.10670844833284,-9.713172767078504e-05,0.0972511246800422,0,0,0
10464,365602.959185626,2010-10-26 18:57:27,2341.1812982838,7,32,-1.0993878841400146,3.5260465145111084,31.294965359068836,31.04715371615228,125.04569451437558,113.13904631416018,-3.237724376958795e-05,0.0972511246800422,0,0,0
10465,365632.9742784628,2010-10-26 18:57:57,2371.1963911205617,7,32,-1.0993878841400146,3.5224850177764893,31.294965359068836,31.05632076292787,125.04569451437558,113.17135285611572,-9.713172767078504e-05,0.0972511246800422,0,0,0
10466,365662.9894141865,2010-10-26 18:58:27,2401.211526844212,7,32,-1.0993878841400146,3.51892352104187,31.294965359068836,31.065487544069804,125.04569451437558,113.20362687170734,-9.713172767078504e-05,0.0972511246800422,0,0,0
10467,365693.00459610025,2010-10-26 18:58:57,2431.226708752969,7,32,-1.0993878841400146,3.515362024307251,31.294965359068836,31.07465430743161,125.04569451437558,113.23586861809332,-0.0001295089750783,0.0972511246800422,0,0,0
10468,365723.01973264094,2010-10-26 18:59:27,2461.2418452786173,7,32,-1.0993878841400146,3.511638879776001,31.294965359068836,31.0838210972094,125.04569451437558,113.26807725429352,-0.0001294612884521,0.0972511246800422,0,0,0
10469,365753.0348457584,2010-10-26 18:59:57,2491.256958420988,7,32,-1.099568486213684,3.508077383041382,31.294965359068836,31.092987889694456,125.04569451437558,113.30025189089568,-9.713172767078504e-05,0.0972511246800422,0,0,0
10470,365783.0499921985,2010-10-26 19:00:27,2521.2721048864096,7,32,-1.0993878841400146,3.504030227661133,31.294965359068836,31.10215486578057,125.04569451437558,113.33239168420972,-9.713172767078504e-05,0.0972511246800422,0,0,0
10471,365813.0651766938,2010-10-26 19:00:57,2551.2872893515378,7,32,-1.0992072820663452,3.499821186065674,31.294965359068836,31.11132190711048,125.04569451437558,113.3644945162883,-0.0001295089750783,0.0972511246800422,0,0,0
10472,365843.0804060558,2010-10-26 19:01:27,2581.3025186935133,7,32,-1.0993878841400146,3.495450258255005,31.294965359068836,31.12048846240909,125.04569451437558,113.39655693823376,-0.0001295089750783,0.0972511246800422,0,0,0
10473,365873.09554890223,2010-10-26 19:01:57,2611.317661539915,7,32,-1.0992072820663452,3.490917444229126,31.294965359068836,31.12965481550674,125.04569451437558,113.42857777609288,-0.0001295089750783,0.0972511246800422,0,0,0
10474,365903.1105710528,2010-10-26 19:02:27,2641.332683685493,7,32,-1.099568486213684,3.485898971557617,31.294965359068836,31.13882166884533,125.04569451437558,113.4605565290492,-0.0001618862152099,0.0972511246800422,0,0,0
10475,365933.1259172109,2010-10-26 19:02:57,2671.3480299588978,7,32,-1.0997490882873535,3.4803948402404785,31.294965359068836,31.147988907262597,125.04569451437558,113.49248952262072,-0.0001942634553415,0.0972511246800422,0,0,0
10476,365963.14091926144,2010-10-26 19:03:27,2701.363031894105,7,32,-1.0993878841400146,3.47489070892334,31.294965359068836,31.157155874427847,125.04569451437558,113.52437024646784,-0.0001618862152099,0.0972511246800422,0,0,0
10477,365993.15608415776,2010-10-26 19:03:57,2731.3781967954747,7,32,-1.099568486213684,3.4682533740997314,31.294965359068836,31.166322973998145,125.04569451437558,113.55619522551878,-0.0001942634553415,0.0972511246800422,0,0,0
10478,366023.1713496699,2010-10-26 19:04:27,2761.393462302585,7,32,-1.0993878841400146,3.461292266845703,31.294965359068836,31.17549016272779,125.04569451437558,113.58795868369896,-0.0001942634553415,0.0972511246800422,0,0,0
10479,366053.1863523671,2010-10-26 19:04:57,2791.4084650297664,7,32,-1.0993878841400146,3.453359842300415,31.294965359068836,31.18465731183029,125.04569451437558,113.61965292042468,-0.0001942634553415,0.0972511246800422,0,0,0
10480,366083.201545604,2010-10-26 19:05:27,2821.423658266757,7,32,-1.0993878841400146,3.4439704418182373,31.294965359068836,31.193824496690063,125.04569451437558,113.65126845048258,-0.0002590179501567,0.0972511246800422,0,0,0
10481,366113.2166261502,2010-10-26 19:05:57,2851.438738807876,7,32,-1.0993878841400146,3.4336097240448,31.294965359068836,31.202991578671124,125.04569451437558,113.6827928781198,-0.0002266406954731,0.0972511246800422,0,0,0
10482,366143.23176991387,2010-10-26 19:06:27,2881.453882541488,7,32,-1.0993878841400146,3.420820951461792,31.294965359068836,31.21215865553787,125.04569451437558,113.71421148926078,-0.0003561496851034,0.0972511246800422,0,0,0
10483,366173.2469459279,2010-10-26 19:06:57,2911.4690585605667,7,32,-1.099568486213684,3.4057655334472656,31.294965359068836,31.22132581867398,125.04569451437558,113.74550394251052,-0.0004209041653666,0.0972511246800422,0,0,0
10484,366203.2620661229,2010-10-26 19:07:27,2941.4841787555138,7,32,-1.099568486213684,3.38763427734375,31.294965359068836,31.23049291196786,125.04569451437558,113.77664444854868,-0.0004856586456298,0.0972511246800422,0,0,0
10485,366233.27722152055,2010-10-26 19:07:57,2971.499334153197,7,32,-1.099568486213684,3.3646464347839355,31.294965359068836,31.23966004365825,125.04569451437558,113.80759809261866,-0.0006799221155233,0.0972511246800422,0,0,0
10486,366263.2924717696,2010-10-26 19:08:27,3001.514584427342,7,32,-1.099568486213684,3.335669040679932,31.294965359068836,31.24882720172089,125.04569451437558,113.8383154636135,-0.0008741855854168,0.0972511246800422,0,0,0
10487,366293.3075067872,2010-10-26 19:08:57,3031.5296194149264,7,32,-1.0993878841400146,3.297302007675171,31.294965359068836,31.25799430121757,125.04569451437558,113.86872621263468,-0.0011332035064697,0.0972511246800422,0,0,0
10488,366323.32263854606,2010-10-26 19:09:27,3061.544751203769,7,32,-1.099568486213684,3.2448511123657227,31.294965359068836,31.267161434907383,125.04569451437558,113.89872680855032,-0.0016836166614666,0.0972511246800422,0,0,0
10489,366353.33778257534,2010-10-26 19:09:57,3091.5598952331197,7,32,-1.0993878841400146,3.1716787815093994,31.294965359068836,31.27632853408365,125.04569451437558,113.92815990412552,-0.0022664070129394,0.0972511246800422,0,0,0
10490,366383.3529312914,2010-10-26 19:10:27,3121.57504394915,7,32,-1.0993878841400146,3.0603013038635254,31.294965359068836,31.285495657320425,125.04569451437558,113.9567629782954,-0.003593873931095,0.0972511246800422,0,0,0
10491,366412.4618343995,2010-10-26 19:10:57,3150.683947032219,7,32,-1.0993878841400146,2.860048770904541,31.294965359068836,31.294386001326,125.04569451437558,113.98318966547612,-0.0074143409729003,0.0972511246800422,0,0,0
10492,366426.5397618464,2010-10-26 19:11:11,3164.761874499136,7,32,-1.0993878841400146,2.699943780899048,31.294965359068836,31.2986856504682,125.04569451437558,113.99515880677708,-0.0099397655576467,0.0972511246800422,0,0,0
10493,366486.5459212879,2010-10-26 19:12:11,60.01461187382398,8,32,0.0,3.379863739013672,31.294965359068836,31.2986856504682,125.04569451437558,113.99515880677708,0.0012950897216796,0.0972511246800422,0,0,0
10494,366486.7260561773,2010-10-26 19:12:11,0.187609129677041,9,32,-1.9243103452026844e-05,3.380025625228882,31.294965359068836,31.298685651471025,125.04569451437558,113.99515881016664,0.0,0.0933678373694419,0,0,0
10495,366491.5540802288,2010-10-26 19:12:16,5.015633156096734,9,32,0.0007031940040178,3.38828182220459,31.294966249867887,31.298685651637555,125.04569752964058,113.99515881072952,0.0011332035064697,0.0933678373694419,0,0,0
