Data_Point,Test_Time(s),Date_Time,Step_Time(s),Step_Index,Cycle_Index,Current(A),Voltage(V),Charge_Capacity(Ah),Discharge_Capacity(Ah),Charge_Energy(Wh),Discharge_Energy(Wh),dV/dt(V/s),Internal_Resistance(Ohm),Is_FC_Data,AC_Impedance(Ohm),ACI_Phase_Angle(Deg)
5960,207975.0017413283,2010-10-24 23:10:02,30.012777305746628,1,19,0.0,3.3575234413146973,17.74860361044162,17.767042822315744,70.89577575155235,64.8251881774993,0.0008094310760498,0.0914128422737121,0,0,0
5961,208005.0167508975,2010-10-24 23:10:32,60.0277868900182,1,19,0.0,3.382615804672241,17.74860361044162,17.767042822315744,70.89577575155235,64.8251881774993,0.0006151676061563,0.0914128422737121,0,0,0
5962,208035.0319416884,2010-10-24 23:11:02,90.04297771098739,1,19,0.0,3.4017183780670166,17.74860361044162,17.767042822315744,70.89577575155235,64.8251881774993,0.0004856586456298,0.0914128422737121,0,0,0
5963,208065.0005285981,2010-10-24 23:11:32,120.01156460062,1,19,0.0,3.417097568511963,17.74860361044162,17.767042822315744,70.89577575155235,64.8251881774993,0.0004209041653666,0.0914128422737121,0,0,0
5964,208095.01745129275,2010-10-24 23:12:02,30.0152133220488,2,19,0.5501165986061096,3.573479175567627,17.753189230269943,17.767042822315744,70.91199113246041,64.8251881774993,0.0016836166614666,0.0914128422737121,0,0,0
5965,208125.03280678915,2010-10-24 23:12:32,60.03056885853975,2,19,0.5499359965324402,3.6244730949401855,17.757774936853927,17.767042822315744,70.92850230983655,64.8251881774993,0.0011655807029455,0.0914128422737121,0,0,0
5966,208155.04785509995,2010-10-24 23:13:02,90.04561713925476,2,19,0.5499359965324402,3.661706924438477,17.76236063582634,17.767042822315744,70.9452122067047,64.8251881774993,0.0008741855854168,0.0914128422737121,0,0,0
5967,208185.0630768129,2010-10-24 23:13:32,120.06083886725376,2,19,0.5499359965324402,3.690684318542481,17.766946346778326,17.767042822315744,70.96207253282215,64.8251881774993,0.0006799221155233,0.0914128422737121,0,0,0
5968,208215.07829265625,2010-10-24 23:14:02,150.0760547105864,2,19,0.5499359965324402,3.7144815921783447,17.771532015357614,17.767042822315744,70.97905340553984,64.8251881774993,0.0005827903514727,0.0914128422737121,0,0,0
5969,208245.0934856526,2010-10-24 23:14:32,180.09124768191492,2,19,0.5501165986061096,3.73439359664917,17.776117680989383,17.767042822315744,70.99613389577887,64.8251881774993,0.0004856586456298,0.0914128422737121,0,0,0
5970,208275.10882178572,2010-10-24 23:15:02,210.1065838350967,2,19,0.5499359965324402,3.750258445739746,17.78070336530132,17.767042822315744,71.01329663729612,64.8251881774993,0.0003561496851034,0.0914128422737121,0,0,0
5971,208305.1239128782,2010-10-24 23:15:32,240.1216749575866,2,19,0.5499359965324402,3.761590242385864,17.7852890625092,17.767042822315744,71.03052264899607,64.8251881774993,0.0002590179501567,0.0914128422737121,0,0,0
5972,208335.1391489469,2010-10-24 23:16:02,270.1369110012647,2,19,0.5499359965324402,3.768065690994263,17.78987474781058,17.767042822315744,71.04778878618443,64.8251881774993,9.713172767078504e-05,0.0914128422737121,0,0,0
5973,208365.1543475573,2010-10-24 23:16:32,300.15210964172246,2,19,0.5501165986061096,3.7725985050201416,17.79446048462974,17.767042822315744,71.06507931538805,64.8251881774993,9.713172767078504e-05,0.0914128422737121,0,0,0
5974,208395.1695636963,2010-10-24 23:17:02,330.1673257507172,2,19,0.5499359965324402,3.7763218879699703,17.799046261029755,17.767042822315744,71.08238824797441,64.8251881774993,9.713172767078504e-05,0.0914128422737121,0,0,0
5975,208425.18480056716,2010-10-24 23:17:32,360.1825626214565,2,19,0.5499359965324402,3.77988338470459,17.803631963288222,17.767042822315744,71.09971343120208,64.8251881774993,9.713172767078504e-05,0.0914128422737121,0,0,0
5976,208455.2000200595,2010-10-24 23:18:02,390.1977821389463,2,19,0.5501165986061096,3.783282995223999,17.808217728655848,17.767042822315744,71.1170549079765,64.8251881774993,9.713172767078504e-05,0.0914128422737121,0,0,0
5977,208485.21523245427,2010-10-24 23:18:32,420.21299451363393,2,19,0.5499359965324402,3.786682605743408,17.81280345331721,17.767042822315744,71.1344119481356,64.8251881774993,9.713172767078504e-05,0.0914128422737121,0,0,0
5978,208515.23056643704,2010-10-24 23:19:02,450.22832848638143,2,19,0.5499359965324402,3.7900822162628174,17.8173892078277,17.767042822315744,71.15178452173294,64.8251881774993,9.713172767078504e-05,0.0914128422737121,0,0,0
5979,208545.2456367928,2010-10-24 23:19:32,480.24339884712674,2,19,0.5501165986061096,3.7933199405670166,17.82197506227664,17.767042822315744,71.16917247262639,64.8251881774993,0.0001295089750783,0.0914128422737121,0,0,0
5980,208575.26086536283,2010-10-24 23:20:02,510.2586273921158,2,19,0.5499359965324402,3.796395778656006,17.826560870006865,17.767042822315744,71.18657497691001,64.8251881774993,6.47544875391759e-05,0.0914128422737121,0,0,0
5981,208605.2760698278,2010-10-24 23:20:32,540.27383185709,2,19,0.5501165986061096,3.799633502960205,17.831146716514446,17.767042822315744,71.20399196514317,64.8251881774993,9.713172767078504e-05,0.0914128422737121,0,0,0
5982,208635.2913026184,2010-10-24 23:21:02,570.2890647679601,2,19,0.5501165986061096,3.8027093410491934,17.83573251415334,17.767042822315744,71.22142290593885,64.8251881774993,9.713172767078504e-05,0.0914128422737121,0,0,0
5983,208665.3065034092,2010-10-24 23:21:33,600.3042654485024,2,19,0.5497553944587708,3.805461406707764,17.84031830083642,17.767042822315744,71.23886780432795,64.8251881774993,6.47544875391759e-05,0.0914128422737121,0,0,0
5984,208695.3217716481,2010-10-24 23:22:03,630.3195337174958,2,19,0.5499359965324402,3.808699131011963,17.844904131647976,17.767042822315744,71.2563268111784,64.8251881774993,9.713172767078504e-05,0.0914128422737121,0,0,0
5985,208725.33692653952,2010-10-24 23:22:33,660.3346885688177,2,19,0.5499359965324402,3.811613082885742,17.849489963914337,17.767042822315744,71.27379974760213,64.8251881774993,3.237724376958795e-05,0.0914128422737121,0,0,0
5986,208755.352152854,2010-10-24 23:23:03,690.34991488826,2,19,0.5497553944587708,3.814850807189941,17.854075771920435,17.767042822315744,71.29128677768637,64.8251881774993,6.47544875391759e-05,0.0914128422737121,0,0,0
5987,208785.36745542844,2010-10-24 23:23:33,720.3652174878158,2,19,0.550297200679779,3.8180885314941406,17.858661609302995,17.767042822315744,71.30878821824273,64.8251881774993,0.0001295089750783,0.0914128422737121,0,0,0
5988,208815.3826792868,2010-10-24 23:24:03,750.380441456399,2,19,0.5501165986061096,3.82132625579834,17.863247397725864,17.767042822315744,71.32630392109822,64.8251881774993,9.713172767078504e-05,0.0914128422737121,0,0,0
5989,208845.39791132044,2010-10-24 23:24:33,780.395673470033,2,19,0.5501165986061096,3.824402093887329,17.867833269367154,17.767042822315744,71.34383471155954,64.8251881774993,6.47544875391759e-05,0.0914128422737121,0,0,0
5990,208875.4131445672,2010-10-24 23:25:03,810.4109066966903,2,19,0.5499359965324402,3.827639818191528,17.872419077761837,17.767042822315744,71.36138043711561,64.8251881774993,6.47544875391759e-05,0.0914128422737121,0,0,0
5991,208905.4282268075,2010-10-24 23:25:33,840.4259888718807,2,19,0.5501165986061096,3.831201314926148,17.877004874814897,17.767042822315744,71.37894165436693,64.8251881774993,9.713172767078504e-05,0.0914128422737121,0,0,0
5992,208935.44367792225,2010-10-24 23:26:03,870.4414399514944,2,19,0.5499359965324402,3.8346006870269775,17.881590761291516,17.767042822315744,71.39651893754191,64.8251881774993,9.713172767078504e-05,0.0914128422737121,0,0,0
5993,208965.4586597523,2010-10-24 23:26:33,900.4564218367315,2,19,0.5499359965324402,3.8380002975463863,17.886176577190064,17.767042822315744,71.41411172343203,64.8251881774993,6.47544875391759e-05,0.0914128422737121,0,0,0
5994,208995.4738786984,2010-10-24 23:27:03,930.4716407577348,2,19,0.5501165986061096,3.841561794281006,17.890762404057533,17.767042822315744,71.4317201617995,64.8251881774993,0.0001295089750783,0.0914128422737121,0,0,0
5995,209025.4891282407,2010-10-24 23:27:33,960.486890295043,2,19,0.5497553944587708,3.844637632369995,17.89534819680973,17.767042822315744,71.44934383731827,64.8251881774993,6.47544875391759e-05,0.0914128422737121,0,0,0
5996,209055.50435958267,2010-10-24 23:28:03,990.5021216319906,2,19,0.5501165986061096,3.8478753566741934,17.89993398225889,17.767042822315744,71.46698261596391,64.8251881774993,6.47544875391759e-05,0.0914128422737121,0,0,0
5997,209085.51953336617,2010-10-24 23:28:33,1020.5172954154972,2,19,0.5501165986061096,3.851274967193604,17.904519793887438,17.767042822315744,71.4846363339413,64.8251881774993,9.713172767078504e-05,0.0914128422737121,0,0,0
5998,209115.535168309,2010-10-24 23:29:03,1050.5329303834171,2,19,0.5499359965324402,3.8543508052825928,17.9091057233905,17.767042822315744,71.50230502941547,64.8251881774993,6.47544875391759e-05,0.0914128422737121,0,0,0
5999,209145.53547499416,2010-10-24 23:29:33,1080.5332370685398,2,19,0.5501165986061096,3.857264757156372,17.91368926096958,17.767042822315744,71.51997873754341,64.8251881774993,3.237724376958795e-05,0.0914128422737121,0,0,0
6000,209175.5496006454,2010-10-24 23:30:03,1110.5473627247911,2,19,0.5501165986061096,3.860340595245361,17.91827490912799,17.767042822315744,71.53767441738637,64.8251881774993,6.47544875391759e-05,0.0914128422737121,0,0,0
6001,209205.5648750096,2010-10-24 23:30:33,1140.5626371792005,2,19,0.5499359965324402,3.863416433334351,17.922860797203647,17.767042822315744,71.5553844352819,64.8251881774993,0.0001295089750783,0.0914128422737121,0,0,0
6002,209235.5799838813,2010-10-24 23:31:03,1170.5777459556896,2,19,0.5499359965324402,3.86600661277771,17.927446516125283,17.767042822315744,71.57310657852283,64.8251881774993,9.713172767078504e-05,0.0914128422737121,0,0,0
6003,209265.59517742405,2010-10-24 23:31:33,1200.5929394433049,2,19,0.5499359965324402,3.868596792221069,17.932032298841413,17.767042822315744,71.59084132782425,64.8251881774993,9.713172767078504e-05,0.0914128422737121,0,0,0
6004,209295.6105238478,2010-10-24 23:32:03,1230.608285877109,2,19,0.5501165986061096,3.8711869716644287,17.93661808400453,17.767042822315744,71.60858776373632,64.8251881774993,6.47544875391759e-05,0.0914128422737121,0,0,0
6005,209325.62505913,2010-10-24 23:32:33,1260.6228211743114,2,19,0.5501165986061096,3.873453378677368,17.941179953237373,17.767042822315744,71.62625269108004,64.8251881774993,6.47544875391759e-05,0.0914128422737121,0,0,0
6006,209355.6252029492,2010-10-24 23:33:03,1290.6229649935224,2,19,0.5499359965324402,3.8755578994750977,17.945787261474525,17.767042822315744,71.64410402284581,64.8251881774993,0.0,0.0914128422737121,0,0,0
6007,209385.64039484784,2010-10-24 23:33:33,1320.6381568821523,2,19,0.5501165986061096,3.877662420272827,17.950373020920004,17.767042822315744,71.66188174286168,64.8251881774993,3.237724376958795e-05,0.0914128422737121,0,0,0
6008,209415.6556072777,2010-10-24 23:34:03,1350.6533693119777,2,19,0.5501165986061096,3.8797669410705566,17.954958794155825,17.767042822315744,71.67966879410297,64.8251881774993,6.47544875391759e-05,0.0914128422737121,0,0,0
6009,209445.6708275972,2010-10-24 23:34:33,1380.6685896214412,2,19,0.5499359965324402,3.881547689437866,17.95954457859057,17.767042822315744,71.69746453263274,64.8251881774993,6.47544875391759e-05,0.0914128422737121,0,0,0
6010,209475.6860528089,2010-10-24 23:35:03,1410.68381482811,2,19,0.5501165986061096,3.883328437805176,17.964130358910612,17.767042822315744,71.71526826703855,64.8251881774993,9.713172767078504e-05,0.0914128422737121,0,0,0
6011,209505.70125434152,2010-10-24 23:35:33,1440.6990163657886,2,19,0.5501165986061096,3.8847854137420654,17.968716186889313,17.767042822315744,71.7330796886521,64.8251881774993,6.47544875391759e-05,0.0914128422737121,0,0,0
6012,209535.7165989307,2010-10-24 23:36:03,1470.7143610452204,2,19,0.550297200679779,3.886404275894165,17.97330284315697,17.767042822315744,71.75090138185166,64.8251881774993,6.47544875391759e-05,0.0914128422737121,0,0,0
6013,209565.7317061584,2010-10-24 23:36:33,1500.7294681826245,2,19,0.5501165986061096,3.8876993656158447,17.97788959500678,17.767042822315744,71.76873016371022,64.8251881774993,6.47544875391759e-05,0.0914128422737121,0,0,0
6014,209595.7469496456,2010-10-24 23:37:03,1530.7447116748665,2,19,0.5499359965324402,3.888994455337525,17.982475509924075,17.767042822315744,71.78656212186368,64.8251881774993,0.0,0.0914128422737121,0,0,0
6015,209625.7621467472,2010-10-24 23:37:33,1560.7599087915266,2,19,0.5499359965324402,3.890451431274414,17.98706133975461,17.767042822315744,71.80439988745306,64.8251881774993,0.0,0.0914128422737121,0,0,0
6016,209655.77735882616,2010-10-24 23:38:03,1590.7751208504274,2,19,0.5499359965324402,3.8917465209960938,17.991647156975873,17.767042822315744,71.82224368328912,64.8251881774993,3.237724376958795e-05,0.0914128422737121,0,0,0
6017,209685.7925712209,2010-10-24 23:38:33,1620.7903332702274,2,19,0.5499359965324402,3.893041610717773,17.9962329824884,17.767042822315744,71.84009346889134,64.8251881774993,3.237724376958795e-05,0.0914128422737121,0,0,0
6018,209715.80780172572,2010-10-24 23:39:03,1650.8055637500386,2,19,0.5501165986061096,3.894498586654663,18.000818849880684,17.767042822315744,71.85794937368031,64.8251881774993,6.47544875391759e-05,0.0914128422737121,0,0,0
6019,209745.82300274217,2010-10-24 23:39:33,1680.8207647914803,2,19,0.5499359965324402,3.895469903945923,18.005404701878398,17.767042822315744,71.87581063981028,64.8251881774993,0.0,0.0914128422737121,0,0,0
6020,209775.83916778612,2010-10-24 23:40:03,1710.8369300109505,2,19,0.5501165986061096,3.896926879882813,18.009990611119438,17.767042822315744,71.89367802694662,64.8251881774993,6.47544875391759e-05,0.0914128422737121,0,0,0
6021,209805.8404222184,2010-10-24 23:40:33,1740.8381843629506,2,19,0.5499359965324402,3.897898197174072,18.01457433442167,17.767042822315744,71.9115427276889,64.8251881774993,3.237724376958795e-05,0.0914128422737121,0,0,0
6022,209835.8532479799,2010-10-24 23:41:03,1770.8510100392518,2,19,0.5499359965324402,3.899355173110962,18.01915973098564,17.767042822315744,71.92941979837538,64.8251881774993,3.237724376958795e-05,0.0914128422737121,0,0,0
6023,209865.8682744513,2010-10-24 23:41:33,1800.8660364755235,2,19,0.5501165986061096,3.9006502628326416,18.023745592012183,17.767042822315744,71.94730456383891,64.8251881774993,6.47544875391759e-05,0.0914128422737121,0,0,0
6024,209895.88346251537,2010-10-24 23:42:03,1830.8812245747088,2,19,0.5501165986061096,3.9021072387695312,18.028331418328325,17.767042822315744,71.96519508172368,64.8251881774993,6.47544875391759e-05,0.0914128422737121,0,0,0
6025,209925.8987288896,2010-10-24 23:42:33,1860.8964909389551,2,19,0.5499359965324402,3.903240442276001,18.032917206521653,17.767042822315744,71.9830913537093,64.8251881774993,3.237724376958795e-05,0.0914128422737121,0,0,0
6026,209955.9138952296,2010-10-24 23:43:03,1890.9116573039728,2,19,0.5501165986061096,3.90469741821289,18.03750302320456,17.767042822315744,72.0009937365284,64.8251881774993,9.713172767078504e-05,0.0914128422737121,0,0,0
6027,209985.9293286151,2010-10-24 23:43:33,1920.9270907496373,2,19,0.5501165986061096,3.90583062171936,18.042088866091653,17.767042822315744,72.01890210485259,64.8251881774993,6.47544875391759e-05,0.0914128422737121,0,0,0
6028,210015.9443338736,2010-10-24 23:44:03,1950.9420960131404,2,19,0.5499359965324402,3.90712571144104,18.04667463528884,17.767042822315744,72.0368162794987,64.8251881774993,3.237724376958795e-05,0.0914128422737121,0,0,0
6029,210045.95954134103,2010-10-24 23:44:33,1980.9573033653105,2,19,0.550297200679779,3.90842080116272,18.05126046208495,17.767042822315744,72.05473672266018,64.8251881774993,6.47544875391759e-05,0.0914128422737121,0,0,0
6030,210075.9747475303,2010-10-24 23:45:03,2010.9725095796448,2,19,0.5499359965324402,3.9097158908844,18.055846251588346,17.767042822315744,72.07266313621093,64.8251881774993,3.237724376958795e-05,0.0914128422737121,0,0,0
6031,210105.98998018057,2010-10-24 23:45:33,2040.9877422048028,2,19,0.5499359965324402,3.911172866821289,18.06043209752626,17.767042822315744,72.09059586057035,64.8251881774993,3.237724376958795e-05,0.0914128422737121,0,0,0
6032,210136.00521897103,2010-10-24 23:46:03,2071.002981025402,2,19,0.5501165986061096,3.9126298427581783,18.06501791708751,17.767042822315744,72.10853469336246,64.8251881774993,6.47544875391759e-05,0.0914128422737121,0,0,0
6033,210166.02040189737,2010-10-24 23:46:33,2101.018163951695,2,19,0.5501165986061096,3.9139246940612793,18.069603667133315,17.767042822315744,72.12647946888137,64.8251881774993,6.470680091297254e-05,0.0914128422737121,0,0,0
6034,210196.03568529405,2010-10-24 23:47:03,2131.0334474386163,2,19,0.5501165986061096,3.915381669998169,18.07418948504479,17.767042822315744,72.1444308746744,64.8251881774993,3.237724376958795e-05,0.0914128422737121,0,0,0
6035,210226.0508439348,2010-10-24 23:47:33,2161.0486059640957,2,19,0.5501165986061096,3.9166767597198486,18.078775290060637,17.767042822315744,72.1623883648872,64.8251881774993,3.237724376958795e-05,0.0914128422737121,0,0,0
6036,210256.06604445496,2010-10-24 23:48:03,2191.06380652935,2,19,0.5501165986061096,3.917971849441528,18.083361117143752,17.767042822315744,72.18035246229866,64.8251881774993,3.237724376958795e-05,0.0914128422737121,0,0,0
6037,210286.08148065748,2010-10-24 23:48:33,2221.0792427118354,2,19,0.5499359965324402,3.919266939163208,18.087946958496406,17.767042822315744,72.19832297939155,64.8251881774993,3.237724376958795e-05,0.0914128422737121,0,0,0
6038,210316.0964737707,2010-10-24 23:49:03,2251.094235845106,2,19,0.5499359965324402,3.9207239151000977,18.092532786806466,17.767042822315744,72.2162999833863,64.8251881774993,0.0,0.0914128422737121,0,0,0
6039,210346.11172368395,2010-10-24 23:49:33,2281.109485793439,2,19,0.5499359965324402,3.9221808910369873,18.09711858772979,17.767042822315744,72.23428333259186,64.8251881774993,0.0,0.0914128422737121,0,0,0
6040,210376.1269188056,2010-10-24 23:50:03,2311.124680854977,2,19,0.5501165986061096,3.923799753189087,18.1017044126344,17.767042822315744,72.25227341661079,64.8251881774993,9.713172767078504e-05,0.0914128422737121,0,0,0
6041,210406.1421568493,2010-10-24 23:50:33,2341.139918868565,2,19,0.5499359965324402,3.925094842910767,18.10629024220071,17.767042822315744,72.2702701816335,64.8251881774993,3.237724376958795e-05,0.0914128422737121,0,0,0
6042,210436.1575070124,2010-10-24 23:51:03,2371.1552690517133,2,19,0.5499359965324402,3.926713705062866,18.11087611625286,17.767042822315744,72.28827372880527,64.8251881774993,6.47544875391759e-05,0.0914128422737121,0,0,0
6043,210466.17257582428,2010-10-24 23:51:33,2401.170337853573,2,19,0.5501165986061096,3.928170680999756,18.115461930614487,17.767042822315744,72.3062837654767,64.8251881774993,6.47544875391759e-05,0.0914128422737121,0,0,0
6044,210496.18777289585,2010-10-24 23:52:03,2431.1855349201087,2,19,0.5497553944587708,3.9296276569366455,18.120047743887906,17.767042822315744,72.32430058962953,64.8251881774993,3.237724376958795e-05,0.0914128422737121,0,0,0
6045,210526.2031151442,2010-10-24 23:52:33,2461.200877173494,2,19,0.5499359965324402,3.931084632873535,18.12463363307709,17.767042822315744,72.34232463488921,64.8251881774993,3.237724376958795e-05,0.0914128422737121,0,0,0
6046,210556.21831364432,2010-10-24 23:53:03,2491.2160757838765,2,19,0.5501165986061096,3.9327034950256343,18.129219464414604,17.767042822315744,72.36035526292748,64.8251881774993,6.47544875391759e-05,0.0914128422737121,0,0,0
6047,210586.23343993947,2010-10-24 23:53:33,2521.23120196374,2,19,0.5499359965324402,3.934160470962525,18.133805329152363,17.767042822315744,72.37839304574625,64.8251881774993,6.47544875391759e-05,0.0914128422737121,0,0,0
6048,210616.24863133187,2010-10-24 23:54:03,2551.246393381196,2,19,0.5501165986061096,3.935617446899414,18.13839111275388,17.767042822315744,72.396437504354,64.8251881774993,0.0,0.0914128422737121,0,0,0
6049,210646.2638463181,2010-10-24 23:54:33,2581.261608367393,2,19,0.550297200679779,3.937398195266724,18.142976945336557,17.767042822315744,72.41448906894955,64.8251881774993,6.47544875391759e-05,0.0914128422737121,0,0,0
6050,210676.2790635047,2010-10-24 23:55:04,2611.276825529011,2,19,0.5499359965324402,3.938531398773194,18.14756274035256,17.767042822315744,72.4325477276555,64.8251881774993,-3.237724376958795e-05,0.0914128422737121,0,0,0
6051,210706.29429611983,2010-10-24 23:55:34,2641.292058144144,2,19,0.5499359965324402,3.940150260925293,18.152148518268056,17.767042822315744,72.45061344053096,64.8251881774993,0.0,0.0914128422737121,0,0,0
6052,210736.3095058179,2010-10-24 23:56:04,2671.3072678421604,2,19,0.5497553944587708,3.9417691230773926,18.15673436256536,17.767042822315744,72.46868670251926,64.8251881774993,3.237724376958795e-05,0.0914128422737121,0,0,0
6053,210766.3247490996,2010-10-24 23:56:34,2701.3225111489405,2,19,0.5501165986061096,3.943387985229492,18.16132019509073,17.767042822315744,72.48676725036329,64.8251881774993,3.237724376958795e-05,0.0914128422737121,0,0,0
6054,210796.3399391737,2010-10-24 23:57:04,2731.3377011979856,2,19,0.5499359965324402,3.9451687335968018,18.16590598470283,17.767042822315744,72.50485501327364,64.8251881774993,6.47544875391759e-05,0.0914128422737121,0,0,0
6055,210826.35515570376,2010-10-24 23:57:34,2761.3529177280298,2,19,0.550297200679779,3.946787595748901,18.17049188954069,17.767042822315744,72.52295073862702,64.8251881774993,6.47544875391759e-05,0.0914128422737121,0,0,0
6056,210856.3703516876,2010-10-24 23:58:04,2791.3681137619915,2,19,0.5501165986061096,3.948406457901001,18.17507770133436,17.767042822315744,72.54105352727761,64.8251881774993,3.237724376958795e-05,0.0914128422737121,0,0,0
6057,210886.38556726024,2010-10-24 23:58:34,2821.3833292845247,2,19,0.5497553944587708,3.9500253200531006,18.179663600905723,17.767042822315744,72.55916430056699,64.8251881774993,3.237724376958795e-05,0.0914128422737121,0,0,0
6058,210916.40080058711,2010-10-24 23:59:04,2851.398562616444,2,19,0.5501165986061096,3.95180606842041,18.184249367703305,17.767042822315744,72.57728220764345,64.8251881774993,6.47544875391759e-05,0.0914128422737121,0,0,0
6059,210946.4161958326,2010-10-24 23:59:34,2881.413957851877,2,19,0.5497553944587708,3.9532630443573,18.188835160943032,17.767042822315744,72.59540785988314,64.8251881774993,0.0,0.0914128422737121,0,0,0
6060,210976.43124816843,2010-10-25 00:00:04,2911.4290101876986,2,19,0.5499359965324402,3.9552056789398193,18.19342090470724,17.767042822315744,72.61354108861708,64.8251881774993,9.713172767078504e-05,0.0914128422737121,0,0,0
6061,211006.4464359919,2010-10-25 00:00:34,2941.4441980362594,2,19,0.5499359965324402,3.956824541091919,18.19800672341417,17.767042822315744,72.63168249180076,64.8251881774993,6.47544875391759e-05,0.0914128422737121,0,0,0
6062,211036.46176581932,2010-10-25 00:01:04,2971.459527843626,2,19,0.5499359965324402,3.958605289459229,18.202592606211947,17.767042822315744,72.64983187891441,64.8251881774993,6.47544875391759e-05,0.0914128422737121,0,0,0
6063,211066.47687601933,2010-10-25 00:01:34,3001.47463803865,2,19,0.550297200679779,3.960386037826538,18.207178406138823,17.767042822315744,72.66798896982748,64.8251881774993,6.47544875391759e-05,0.0914128422737121,0,0,0
6064,211096.49219576668,2010-10-25 00:02:04,3031.489957795968,2,19,0.5499359965324402,3.962166786193848,18.21176415701983,17.767042822315744,72.68615389129104,64.8251881774993,9.713172767078504e-05,0.0914128422737121,0,0,0
6065,211126.5077795621,2010-10-25 00:02:34,3061.505541736713,2,19,0.5501165986061096,3.9637856483459473,18.216349982629588,17.767042822315744,72.70432714573585,64.8251881774993,6.47544875391759e-05,0.0914128422737121,0,0,0
6066,211156.52250667737,2010-10-25 00:03:04,3091.5202687266724,2,19,0.5499359965324402,3.965566396713257,18.220935725448985,17.767042822315744,72.72250827806687,64.8251881774993,3.237724376958795e-05,0.0914128422737121,0,0,0
6067,211186.5377428664,2010-10-25 00:03:34,3121.5355048906504,2,19,0.5501165986061096,3.967509031295776,18.22552148840313,17.767042822315744,72.74069770328849,64.8251881774993,6.47544875391759e-05,0.0914128422737121,0,0,0
6068,211216.55306366127,2010-10-25 00:04:04,3151.550825690567,2,19,0.5501165986061096,3.969289779663086,18.23010742350756,17.767042822315744,72.75889601494349,64.8251881774993,3.237724376958795e-05,0.0914128422737121,0,0,0
6069,211246.56814807703,2010-10-25 00:04:34,3181.5659101013293,2,19,0.5499359965324402,3.9709086418151855,18.234693223435507,17.767042822315744,72.7771021431993,64.8251881774993,0.0,0.0914128422737121,0,0,0
6070,211276.5834861952,2010-10-25 00:05:04,3211.581248229433,2,19,0.5499359965324402,3.972851276397705,18.239279109768944,17.767042822315744,72.79531706548823,64.8251881774993,3.237724376958795e-05,0.0914128422737121,0,0,0
6071,211306.5985975932,2010-10-25 00:05:34,3241.596359617431,2,19,0.5499359965324402,3.9747939109802246,18.243864948718635,17.767042822315744,72.8135402971404,64.8251881774993,6.47544875391759e-05,0.0914128422737121,0,0,0
6072,211336.61380048425,2010-10-25 00:06:04,3271.61156254357,2,19,0.5499359965324402,3.976736545562744,18.248450794802057,17.767042822315744,72.83177211749991,64.8251881774993,6.47544875391759e-05,0.0914128422737121,0,0,0
6073,211366.62901531,2010-10-25 00:06:34,3301.6267773342797,2,19,0.5501165986061096,3.9785172939300537,18.25303667452036,17.767042822315744,72.85001238890547,64.8251881774993,0.0001295089750783,0.0914128422737121,0,0,0
6074,211396.64424454173,2010-10-25 00:07:04,3331.6420065609677,2,19,0.5499359965324402,3.9802980422973633,18.257622383335843,17.767042822315744,72.86826114411406,64.8251881774993,3.237724376958795e-05,0.0914128422737121,0,0,0
6075,211426.6595425097,2010-10-25 00:07:34,3361.657304554042,2,19,0.5499359965324402,3.9824025630950928,18.26220811056315,17.767042822315744,72.88651885371057,64.8251881774993,6.47544875391759e-05,0.0914128422737121,0,0,0
6076,211456.6747806988,2010-10-25 00:08:04,3391.6725427380547,2,19,0.5499359965324402,3.984345197677612,18.266793907072657,17.767042822315744,72.90478576380106,64.8251881774993,6.47544875391759e-05,0.0914128422737121,0,0,0
6077,211486.69011444596,2010-10-25 00:08:34,3421.687876480228,2,19,0.5499359965324402,3.986449718475342,18.271379709119973,17.767042822315744,72.92306181077169,64.8251881774993,9.713172767078504e-05,0.0914128422737121,0,0,0
6078,211516.70511155916,2010-10-25 00:09:04,3451.70287357838,2,19,0.5501165986061096,3.988392353057861,18.275965449355244,17.767042822315744,72.94134673735878,64.8251881774993,6.47544875391759e-05,0.0914128422737121,0,0,0
6079,211546.7203398635,2010-10-25 00:09:34,3481.718102003069,2,19,0.5499359965324402,3.990496873855591,18.280551248775204,17.767042822315744,72.95964113247364,64.8251881774993,6.47544875391759e-05,0.0914128422737121,0,0,0
6080,211576.73552434868,2010-10-25 00:10:04,3511.7332863729603,2,19,0.5501165986061096,3.99260139465332,18.285136973182624,17.767042822315744,72.9779445683194,64.8251881774993,9.713172767078504e-05,0.0914128422737121,0,0,0
6081,211606.7509221956,2010-10-25 00:10:34,3541.7486843402016,2,19,0.550297200679779,3.9945437908172607,18.289722807666084,17.767042822315744,72.99625788011507,64.8251881774993,6.47544875391759e-05,0.0914128422737121,0,0,0
6082,211636.76595754916,2010-10-25 00:11:04,3571.7637195733982,2,19,0.5499359965324402,3.99648642539978,18.294308575573663,17.767042822315744,73.01458042341848,64.8251881774993,0.0,0.0914128422737121,0,0,0
6083,211666.78131616328,2010-10-25 00:11:34,3601.779078202597,2,19,0.5501165986061096,3.9985909461975098,18.298894352317525,17.767042822315744,73.03291264742893,64.8251881774993,3.237724376958795e-05,0.0914128422737121,0,0,0
6084,211696.7963818173,2010-10-25 00:12:04,3631.794143841575,2,19,0.5501165986061096,4.000857353210449,18.30348000717755,17.767042822315744,73.05125407316281,64.8251881774993,9.70840483205393e-05,0.0914128422737121,0,0,0
6085,211726.81428824132,2010-10-25 00:12:34,3661.812050395987,2,19,0.5501165986061096,4.003123760223389,18.3080661254298,17.767042822315744,73.06960729190251,64.8251881774993,9.70840483205393e-05,0.0914128422737121,0,0,0
6086,211756.8270888402,2010-10-25 00:13:04,3691.8248509998,2,19,0.5501165986061096,4.005228519439697,18.312651499881916,17.767042822315744,73.08796754564244,64.8251881774993,6.47544875391759e-05,0.0914128422737121,0,0,0
6087,211786.84206540216,2010-10-25 00:13:34,3721.83982754172,2,19,0.5499359965324402,4.007332801818848,18.317237189389683,17.767042822315744,73.10633920486967,64.8251881774993,0.0,0.0914128422737121,0,0,0
6088,211816.8572713408,2010-10-25 00:14:04,3751.855033365079,2,19,0.5501165986061096,4.009599208831787,18.32182302294759,17.767042822315744,73.12472163208648,64.8251881774993,3.23295607813634e-05,0.0914128422737121,0,0,0
6089,211846.87246485348,2010-10-25 00:14:34,3781.8702268827697,2,19,0.5499359965324402,4.011865615844727,18.32640876534799,17.767042822315744,73.14311391868878,64.8251881774993,6.47544875391759e-05,0.0914128422737121,0,0,0
6090,211876.88769643605,2010-10-25 00:15:04,3811.8854584653286,2,19,0.5501165986061096,4.014132022857666,18.33099446144029,17.767042822315744,73.16151638590016,64.8251881774993,6.47544875391759e-05,0.0914128422737121,0,0,0
6091,211906.9030010005,2010-10-25 00:15:34,3841.9007630598567,2,19,0.5499359965324402,4.0165605545043945,18.33558024733346,17.767042822315744,73.17992957792265,64.8251881774993,0.0001295089750783,0.0914128422737121,0,0,0
6092,211936.9181292856,2010-10-25 00:16:04,3871.9158913148926,2,19,0.5499359965324402,4.018664836883545,18.340166073981035,17.767042822315744,73.19835347145508,64.8251881774993,3.23295607813634e-05,0.0914128422737121,0,0,0
6093,211966.9333338909,2010-10-25 00:16:34,3901.9310959703416,2,19,0.5501165986061096,4.021093368530273,18.34475187205309,17.767042822315744,73.2167877178452,64.8251881774993,6.47544875391759e-05,0.0914128422737121,0,0,0
6094,211996.9485452481,2010-10-25 00:17:04,3931.946307272355,2,19,0.5501165986061096,4.023359775543213,18.34933762854353,17.767042822315744,73.23523263815669,64.8251881774993,9.71794142969884e-05,0.0914128422737121,0,0,0
6095,212026.96376334704,2010-10-25 00:17:34,3961.961525376322,2,19,0.5499359965324402,4.025787830352783,18.35392332766072,17.767042822315744,73.25368813682257,64.8251881774993,9.70840483205393e-05,0.0914128422737121,0,0,0
6096,212056.97909410176,2010-10-25 00:18:04,3991.976856171149,2,19,0.5501165986061096,4.028216361999512,18.358509121997944,17.767042822315744,73.27215488859648,64.8251881774993,9.71794142969884e-05,0.0914128422737121,0,0,0
6097,212086.99421243707,2010-10-25 00:18:34,4021.9919744964377,2,19,0.5499359965324402,4.030482769012451,18.36309486700681,17.767042822315744,73.29063233213445,64.8251881774993,6.47544875391759e-05,0.0914128422737121,0,0,0
6098,212117.00943159364,2010-10-25 00:19:04,4052.007193622953,2,19,0.5501165986061096,4.0329108238220215,18.36768059723069,17.767042822315744,73.30912076492805,64.8251881774993,3.23295607813634e-05,0.0914128422737121,0,0,0
6099,212147.0246548755,2010-10-25 00:19:34,4082.022416904824,2,19,0.5499359965324402,4.035177230834961,18.372266373445584,17.767042822315744,73.32762058182516,64.8251881774993,3.24249267578125e-05,0.0914128422737121,0,0,0
6100,212177.0398582227,2010-10-25 00:20:04,4112.037620252013,2,19,0.5499359965324402,4.03776741027832,18.376852146166517,17.767042822315744,73.34613163193973,64.8251881774993,3.24249267578125e-05,0.0914128422737121,0,0,0
6101,212207.05520022547,2010-10-25 00:20:34,4142.052962254774,2,19,0.5501165986061096,4.04035758972168,18.381437967941235,17.767042822315744,73.3646542288237,64.8251881774993,6.47544875391759e-05,0.0914128422737121,0,0,0
6102,212237.0704605246,2010-10-25 00:21:04,4172.068222594004,2,19,0.5501165986061096,4.04278564453125,18.38602368549681,17.767042822315744,73.3831878116739,64.8251881774993,6.47544875391759e-05,0.0914128422737121,0,0,0
6103,212267.0855197877,2010-10-25 00:21:34,4202.083281811978,2,19,0.5499359965324402,4.0452141761779785,18.39060933996464,17.767042822315744,73.40173274050211,64.8251881774993,3.24249267578125e-05,0.0914128422737121,0,0,0
6104,212297.10076668343,2010-10-25 00:22:04,4232.098528737777,2,19,0.5499359965324402,4.047966003417969,18.39519498148729,17.767042822315744,73.42028928310606,64.8251881774993,6.47544875391759e-05,0.0914128422737121,0,0,0
6105,212327.1159301011,2010-10-25 00:22:34,4262.113692150437,2,19,0.5501165986061096,4.050556182861328,18.399780701918985,17.767042822315744,73.43885797631432,64.8251881774993,6.47544875391759e-05,0.0914128422737121,0,0,0
6106,212357.13128822905,2010-10-25 00:23:04,4292.129050268361,2,19,0.5499359965324402,4.053146362304688,18.404366396887397,17.767042822315744,73.45743835252577,64.8251881774993,6.47544875391759e-05,0.0914128422737121,0,0,0
6107,212387.1463832964,2010-10-25 00:23:34,4322.144145320645,2,19,0.5499359965324402,4.055736541748047,18.408952127123296,17.767042822315744,73.4760309224856,64.8251881774993,6.47544875391759e-05,0.0914128422737121,0,0,0
6108,212417.1615851047,2010-10-25 00:24:04,4352.159347128999,2,19,0.5497553944587708,4.058326721191406,18.413537910427586,17.767042822315744,73.49463585642492,64.8251881774993,6.47544875391759e-05,0.0914128422737121,0,0,0
6109,212447.1769409169,2010-10-25 00:24:34,4382.174703036413,2,19,0.5501165986061096,4.060755252838135,18.418123735209413,17.767042822315744,73.51325311282372,64.8251881774993,0.0,0.0914128422737121,0,0,0
6110,212477.19201449063,2010-10-25 00:25:04,4412.189776519942,2,19,0.5499359965324402,4.063669204711914,18.422709493841108,17.767042822315744,73.53188224127521,64.8251881774993,6.47544875391759e-05,0.0914128422737121,0,0,0
6111,212507.2073719921,2010-10-25 00:25:34,4442.205134021329,2,19,0.5501165986061096,4.066583156585693,18.42729529563501,17.767042822315744,73.5505241267678,64.8251881774993,0.0001295089750783,0.0914128422737121,0,0,0
6112,212537.22245433263,2010-10-25 00:26:04,4472.220216361932,2,19,0.550297200679779,4.069334983825684,18.431881010979307,17.767042822315744,73.56917827764812,64.8251881774993,0.0001295089750783,0.0914128422737121,0,0,0
6113,212567.2376639605,2010-10-25 00:26:34,4502.235425979749,2,19,0.5497553944587708,4.072087287902832,18.43646677300114,17.767042822315744,73.58784534181821,64.8251881774993,6.47544875391759e-05,0.0914128422737121,0,0,0
6114,212597.2528771522,2010-10-25 00:27:05,4532.250639176486,2,19,0.5501165986061096,4.074839115142822,18.441052512549835,17.767042822315744,73.60652513018834,64.8251881774993,9.70840483205393e-05,0.0914128422737121,0,0,0
6115,212627.26810265964,2010-10-25 00:27:35,4562.265864708967,2,19,0.5501165986061096,4.077753067016602,18.445638250336227,17.767042822315744,73.62521788083336,64.8251881774993,9.70840483205393e-05,0.0914128422737121,0,0,0
6116,212657.28332621217,2010-10-25 00:28:05,4592.281088231439,2,19,0.5501165986061096,4.08050537109375,18.450224003362155,17.767042822315744,73.64392383657625,64.8251881774993,6.47544875391759e-05,0.0914128422737121,0,0,0
6117,212687.2985364616,2010-10-25 00:28:35,4622.296298530954,2,19,0.5499359965324402,4.083419322967529,18.454809826528237,17.767042822315744,73.66264324910611,64.8251881774993,9.71794142969884e-05,0.0914128422737121,0,0,0
6118,212717.31374667588,2010-10-25 00:29:05,4652.311508695132,2,19,0.5501165986061096,4.086333274841309,18.45939558070797,17.767042822315744,73.68137568660558,64.8251881774993,6.47544875391759e-05,0.0914128422737121,0,0,0
6119,212747.3289890804,2010-10-25 00:29:35,4682.326751134751,2,19,0.5501165986061096,4.089408874511719,18.4639813092782,17.767042822315744,73.70012139343707,64.8251881774993,6.47544875391759e-05,0.0914128422737121,0,0,0
6120,212777.3441830292,2010-10-25 00:30:05,4712.34194517374,2,19,0.5501165986061096,4.092322826385498,18.46856705684729,17.767042822315744,73.71888073057971,64.8251881774993,0.0001295089750783,0.0914128422737121,0,0,0
6121,212807.35938426107,2010-10-25 00:30:35,4742.357146280345,2,19,0.5499359965324402,4.095075130462647,18.47315280384757,17.767042822315744,73.73765369040838,64.8251881774993,6.47544875391759e-05,0.0914128422737121,0,0,0
6122,212837.3746131369,2010-10-25 00:31:05,4772.372375161171,2,19,0.550297200679779,4.098474502563477,18.47773859712316,17.767042822315744,73.75644058289792,64.8251881774993,9.70840483205393e-05,0.0914128422737121,0,0,0
6123,212867.3900565524,2010-10-25 00:31:35,4802.387818601746,2,19,0.5499359965324402,4.101388454437256,18.48232441895817,17.767042822315744,73.77524147196728,64.8251881774993,6.47544875391759e-05,0.0914128422737121,0,0,0
6124,212897.40516629632,2010-10-25 00:32:05,4832.402928320584,2,19,0.5499359965324402,4.104302406311035,18.48691019097185,17.767042822315744,73.79405608242092,64.8251881774993,9.70840483205393e-05,0.0914128422737121,0,0,0
6125,212927.42024525348,2010-10-25 00:32:35,4862.418007282767,2,19,0.5501165986061096,4.107540130615234,18.49149586454887,17.767042822315744,73.81288442766464,64.8251881774993,9.70840483205393e-05,0.0914128422737121,0,0,0
6126,212957.43558119112,2010-10-25 00:33:05,4892.433343230436,2,19,0.5501165986061096,4.110616207122803,18.49608163879517,17.767042822315744,73.83172743099237,64.8251881774993,6.47544875391759e-05,0.0914128422737121,0,0,0
6127,212987.4506839426,2010-10-25 00:33:35,4922.448445971884,2,19,0.5499359965324402,4.113691806793213,18.50066738392396,17.767042822315744,73.85058461379094,64.8251881774993,6.47544875391759e-05,0.0914128422737121,0,0,0
6128,213017.4660132788,2010-10-25 00:34:05,4952.4637753181005,2,19,0.5499359965324402,4.116767406463623,18.505253134442388,17.767042822315744,73.86945625046657,64.8251881774993,6.47544875391759e-05,0.0914128422737121,0,0,0
6129,213047.4811182107,2010-10-25 00:34:35,4982.478880229957,2,19,0.5501165986061096,4.120005130767822,18.50983887329557,17.767042822315744,73.88834238701655,64.8251881774993,9.70840483205393e-05,0.0914128422737121,0,0,0
6130,213077.4963528258,2010-10-25 00:35:05,5012.494114850088,2,19,0.5499359965324402,4.1232428550720215,18.51442466923947,17.767042822315744,73.90724339990231,64.8251881774993,9.70840483205393e-05,0.0914128422737121,0,0,0
6131,213107.51155108036,2010-10-25 00:35:35,5042.509313104584,2,19,0.5499359965324402,4.12631893157959,18.519010418681688,17.767042822315744,73.92615899774114,64.8251881774993,3.24249267578125e-05,0.0914128422737121,0,0,0
6132,213137.52675050776,2010-10-25 00:36:05,5072.524512532003,2,19,0.5499359965324402,4.12971830368042,18.5235962333402,17.767042822315744,73.94508986947609,64.8251881774993,6.47544875391759e-05,0.0914128422737121,0,0,0
6133,213167.541975544,2010-10-25 00:36:35,5102.539737603334,2,19,0.5501165986061096,4.133118152618408,18.528182053494515,17.767042822315744,73.96403581816709,64.8251881774993,9.71794142969884e-05,0.0914128422737121,0,0,0
6134,213197.5571801142,2010-10-25 00:37:05,5132.554942138484,2,19,0.5501165986061096,4.136517524719238,18.53276783556595,17.767042822315744,73.98299664903834,64.8251881774993,0.0001295089750783,0.0914128422737121,0,0,0
6135,213227.57240501512,2010-10-25 00:37:35,5162.570167039391,2,19,0.5499359965324402,4.1397552490234375,18.53735364310462,17.767042822315744,74.00197290288308,64.8251881774993,9.70840483205393e-05,0.0914128422737121,0,0,0
6136,213257.5877365969,2010-10-25 00:38:05,5192.585498626191,2,19,0.5501165986061096,4.143155097961426,18.54193950561521,17.767042822315744,74.0209647149046,64.8251881774993,0.0001295089750783,0.0914128422737121,0,0,0
6137,213287.6028445764,2010-10-25 00:38:35,5222.600606630756,2,19,0.550297200679779,4.146554470062256,18.546525295137865,17.767042822315744,74.0399717609575,64.8251881774993,9.70840483205393e-05,0.0914128422737121,0,0,0
6138,213317.61804697625,2010-10-25 00:39:05,5252.615809030584,2,19,0.5501165986061096,4.149792194366455,18.55111113537824,17.767042822315744,74.05899482119156,64.8251881774993,6.47544875391759e-05,0.0914128422737121,0,0,0
6139,213347.63327443853,2010-10-25 00:39:35,5282.631036457788,2,19,0.5499359965324402,4.153353691101074,18.55569692524693,17.767042822315744,74.07803332551806,64.8251881774993,9.70840483205393e-05,0.0914128422737121,0,0,0
6140,213377.6484752344,2010-10-25 00:40:05,5312.6462372636415,2,19,0.5501165986061096,4.156753540039063,18.560282730111872,17.767042822315744,74.09708762271036,64.8251881774993,9.71794142969884e-05,0.0914128422737121,0,0,0
6141,213407.66384707647,2010-10-25 00:40:35,5342.661609125821,2,19,0.5499359965324402,4.160152912139893,18.564868543356557,17.767042822315744,74.11615790311537,64.8251881774993,6.47544875391759e-05,0.0914128422737121,0,0,0
6142,213437.67891178813,2010-10-25 00:41:05,5372.676673812425,2,19,0.5501165986061096,4.163876533508301,18.56945427586304,17.767042822315744,74.13524388476965,64.8251881774993,9.71794142969884e-05,0.0914128422737121,0,0,0
6143,213467.69430849224,2010-10-25 00:41:35,5402.692070531555,2,19,0.5499359965324402,4.16743803024292,18.5740400783652,17.767042822315744,74.15434617438393,64.8251881774993,9.71794142969884e-05,0.0914128422737121,0,0,0
6144,213497.70935971028,2010-10-25 00:42:05,5432.7071217295415,2,19,0.5499359965324402,4.17083740234375,18.578625821684327,17.767042822315744,74.17346458016391,64.8251881774993,9.70840483205393e-05,0.0914128422737121,0,0,0
6145,213527.7247010313,2010-10-25 00:42:35,5462.722463100728,2,19,0.5499359965324402,4.174398899078369,18.58321163465044,17.767042822315744,74.19259963859811,64.8251881774993,9.70840483205393e-05,0.0914128422737121,0,0,0
6146,213557.73990950128,2010-10-25 00:43:05,5492.737671530584,2,19,0.5499359965324402,4.177960395812988,18.58779738224908,17.767042822315744,74.21175077636144,64.8251881774993,6.47544875391759e-05,0.0914128422737121,0,0,0
6147,213587.75500080423,2010-10-25 00:43:35,5522.752762828512,2,19,0.5499359965324402,4.181521892547607,18.59238317450802,17.767042822315744,74.23091860408157,64.8251881774993,6.47544875391759e-05,0.0914128422737121,0,0,0
6148,213617.77033070684,2010-10-25 00:44:05,5552.768092736127,2,19,0.5499359965324402,4.185083389282227,18.596968953754665,17.767042822315744,74.25010300840414,64.8251881774993,6.47544875391759e-05,0.0914128422737121,0,0,0
6149,213647.78818261507,2010-10-25 00:44:35,5582.785944779682,2,19,0.5501165986061096,4.188968658447266,18.60155510281677,17.767042822315744,74.2693057869033,64.8251881774993,9.70840483205393e-05,0.0914128422737121,0,0,0
6150,213677.80086902424,2010-10-25 00:45:05,5612.798631088636,2,19,0.5501165986061096,4.192692279815674,18.606140418339404,17.767042822315744,74.2885220320232,64.8251881774993,9.71794142969884e-05,0.0914128422737121,0,0,0
6151,213707.8160366825,2010-10-25 00:45:35,5642.813798716802,2,19,0.5501165986061096,4.196415424346924,18.61072617470548,17.767042822315744,74.3077571709878,64.8251881774993,9.71794142969884e-05,0.0914128422737121,0,0,0
6152,213736.34683770235,2010-10-25 00:46:04,5671.344599731639,2,19,0.550297200679779,4.200138568878174,18.615085104193952,17.767042822315744,74.32605675557492,64.8251881774993,0.0001618385285837,0.0914128422737121,0,0,0
6153,213766.3631526664,2010-10-25 00:46:34,30.01522720164101,3,19,0.0,4.117900848388672,18.615085141782743,17.767042822315744,74.32605691345306,64.8251881774993,-0.0003885269106831,0.0914128422737121,0,0,0
6154,213796.378365828,2010-10-25 00:47:04,60.03044047356489,3,19,0.0,4.107702255249023,18.615085141782743,17.767042822315744,74.32605691345306,64.8251881774993,-0.0002265930233988,0.0914128422737121,0,0,0
6155,213826.3935889946,2010-10-25 00:47:34,90.04566352486195,3,19,0.0,4.101874351501465,18.615085141782743,17.767042822315744,74.32605691345306,64.8251881774993,-9.70840483205393e-05,0.0914128422737121,0,0,0
6156,213856.36201628143,2010-10-25 00:48:04,120.01409081672784,3,19,0.0,4.097989082336426,18.615085141782743,17.767042822315744,74.32605691345306,64.8251881774993,-9.70840483205393e-05,0.0914128422737121,0,0,0
6157,213856.3647619808,2010-10-25 00:48:04,2.927295722e-06,4,19,0.9889971613883972,4.199653148651123,18.61508514258693,17.767042822315744,74.32605691683038,64.8251881774993,0.0,0.0914128422737121,0,0,0
6158,213857.3334728062,2010-10-25 00:48:05,0.968713637450261,4,19,0.938245952129364,4.199491024017334,18.61534298840488,17.767042822315744,74.32713977012004,64.8251881774993,-3.24249267578125e-05,0.0914128422737121,0,0,0
6159,213859.4429439825,2010-10-25 00:48:07,3.07818495905179,4,19,0.8880365490913391,4.199491024017334,18.615876987707537,17.767042822315744,74.32938236559137,64.8251881774993,-3.24249267578125e-05,0.0914128422737121,0,0,0
6160,213862.6459268864,2010-10-25 00:48:10,6.281167812856658,4,19,0.837827205657959,4.199491024017334,18.61664365325948,17.767042822315744,74.33260205924242,64.8251881774993,-3.24249267578125e-05,0.0914128422737121,0,0,0
6161,213867.02085407104,2010-10-25 00:48:15,10.656094902294948,4,19,0.7874372005462646,4.199653148651123,18.617630256992005,17.767042822315744,74.33674540872377,64.8251881774993,0.0,0.0914128422737121,0,0,0
6162,213872.81778461565,2010-10-25 00:48:20,16.45302546693297,4,19,0.7370471954345703,4.199491024017334,18.618856624151388,17.767042822315744,74.34189570787987,64.8251881774993,-3.24249267578125e-05,0.0914128422737121,0,0,0
6163,213880.36443203807,2010-10-25 00:48:28,23.99967287431753,4,19,0.6870184540748596,4.199653148651123,18.62034706728368,17.767042822315744,74.34815503068562,64.8251881774993,0.0,0.0914128422737121,0,0,0
6164,213890.34877319337,2010-10-25 00:48:38,33.9840140396064,4,19,0.6369896531105042,4.199653148651123,18.622179442395893,17.767042822315744,74.3558503673132,64.8251881774993,-3.23295607813634e-05,0.0914128422737121,0,0,0
6165,213904.27033116436,2010-10-25 00:48:52,47.905572000601495,4,19,0.5869609117507935,4.199653148651123,18.624540474569407,17.767042822315744,74.36576588812963,64.8251881774993,-3.23295607813634e-05,0.0914128422737121,0,0,0
6166,213925.5513157108,2010-10-25 00:49:13,69.18655654708658,4,19,0.536932110786438,4.199491024017334,18.627851881916545,17.767042822315744,74.37967263088413,64.8251881774993,-6.47544875391759e-05,0.0914128422737121,0,0,0
6167,213961.5214654116,2010-10-25 00:49:49,105.15670627795429,4,19,0.4869033694267273,4.199653148651123,18.632945966950224,17.767042822315744,74.40106602003664,64.8251881774993,0.0,0.0914128422737121,0,0,0
6168,214026.09680431552,2010-10-25 00:50:54,169.73204515176286,4,19,0.4368745982646942,4.199491024017334,18.641196710075057,17.767042822315744,74.43571619652423,64.8251881774993,-3.24249267578125e-05,0.0914128422737121,0,0,0
6169,214121.4548768482,2010-10-25 00:52:29,265.09011767944725,4,19,0.3868458271026611,4.199491024017334,18.652081733196432,17.767042822315744,74.48142946811423,64.8251881774993,-3.24249267578125e-05,0.0914128422737121,0,0,0
6170,214241.0470112146,2010-10-25 00:54:29,384.6822520508807,4,19,0.336817055940628,4.199491024017334,18.66408614434235,17.767042822315744,74.5318438509253,64.8251881774993,-6.47544875391759e-05,0.0914128422737121,0,0,0
6171,214382.79520861732,2010-10-25 00:56:50,526.4304494636633,4,19,0.2867882847785949,4.199653148651123,18.676343789406005,17.767042822315744,74.58332169704752,64.8251881774993,0.0,0.0914128422737121,0,0,0
6172,214551.4803238176,2010-10-25 00:59:39,695.115564678892,4,19,0.2367595136165619,4.199653148651123,18.68858824517111,17.767042822315744,74.63474413940163,64.8251881774993,0.0,0.0914128422737121,0,0,0
6173,214764.8523633831,2010-10-25 01:03:12,908.4876042494373,4,19,0.1867307424545288,4.199653148651123,18.70109908248691,17.767042822315744,74.6872853379135,64.8251881774993,0.0,0.0914128422737121,0,0,0
6174,215051.14532497857,2010-10-25 01:07:59,1194.7805658097875,4,19,0.1363407671451568,4.199491024017334,18.71386539443786,17.767042822315744,74.74089937126897,64.8251881774993,0.0,0.0914128422737121,0,0,0
6175,215502.061049763,2010-10-25 01:15:30,1645.6962905942505,4,19,0.0861313790082931,4.199491024017334,18.72758326226911,17.767042822315744,74.7985095772394,64.8251881774993,0.0,0.0914128422737121,0,0,0
6176,216093.1000419096,2010-10-25 01:25:21,2236.735282750856,4,19,0.0496483072638511,4.199491024017334,18.73850921065581,17.767042822315744,74.84439470456552,64.8251881774993,-3.24249267578125e-05,0.0914128422737121,0,0,0
6177,216123.11726229344,2010-10-25 01:25:51,30.015303947916344,5,19,0.0,4.192206382751465,18.73850921065581,17.767042822315744,74.84439470456552,64.8251881774993,0.0,0.0914128422737121,0,0,0
6178,216153.11683809196,2010-10-25 01:26:21,60.01487972138252,5,19,0.0,4.190911293029785,18.73850921065581,17.767042822315744,74.84439470456552,64.8251881774993,-6.47544875391759e-05,0.0914128422737121,0,0,0
6179,216153.30689176044,2010-10-25 01:26:21,0.187280746244486,6,19,-1.9243103452026844e-05,4.190749645233154,18.73850921065581,17.767042823316817,74.84439470456552,64.82518818169456,0.0,0.0923885703086853,0,0,0
6180,216158.13494811743,2010-10-25 01:26:26,5.015337133316883,6,19,0.0003419754502829,4.190911293029785,18.73850966237154,17.767042823567607,74.84439659769532,64.82518818274556,-3.24249267578125e-05,0.0923885703086853,0,0,0
6181,216188.1532565317,2010-10-25 01:26:56,30.01534828842654,7,19,-1.099929690361023,4.020931243896484,18.73850966237154,17.77621278833065,74.84439659769532,64.86225129990574,-0.0009389877086505,0.0923885703086853,0,0,0
6182,216218.17094479708,2010-10-25 01:27:26,60.0330365638206,7,19,-1.099929690361023,3.995353221893311,18.73850966237154,17.78538351926605,74.84439659769532,64.89900093721107,-0.0006151676061563,0.0923885703086853,0,0,0
6183,216248.1837653055,2010-10-25 01:27:56,90.04585708727906,7,19,-1.0997490882873535,3.977545976638794,18.73850966237154,17.794552696518853,74.84439659769532,64.93555003812418,-0.0004209041653666,0.0923885703086853,0,0,0
6184,216278.19877559657,2010-10-25 01:28:26,120.06086737329962,7,19,-1.0997490882873535,3.963623762130737,18.73850966237154,17.803722400518257,74.84439659769532,64.97195757257633,-0.0003237724304199,0.0923885703086853,0,0,0
6185,216308.21396923956,2010-10-25 01:28:56,150.07606098622722,7,19,-1.0997490882873535,3.95180606842041,18.73850966237154,17.812892202613753,74.84439659769532,65.00824771738074,-0.0002913951757363,0.0923885703086853,0,0,0
6186,216338.22919500252,2010-10-25 01:29:26,180.09128674427032,7,19,-1.0997490882873535,3.9411215782165527,18.73850966237154,17.822062058924114,74.84439659769532,65.04443529292689,-0.0002590179501567,0.0923885703086853,0,0,0
6187,216368.2443961543,2010-10-25 01:29:56,210.1064878909744,7,19,-1.0997490882873535,3.931246519088745,18.73850966237154,17.831231849812124,74.84439659769532,65.08052867199653,-0.0002590179501567,0.0923885703086853,0,0,0
6188,216398.25995340853,2010-10-25 01:30:26,240.12204534069528,7,19,-1.0997490882873535,3.921857118606568,18.73850966237154,17.84040143118213,74.84439659769532,65.11653343327414,-0.0002590179501567,0.0923885703086853,0,0,0
6189,216428.27481021205,2010-10-25 01:30:56,270.1369019888029,7,19,-1.099929690361023,3.9127917289733887,18.73850966237154,17.849570357460983,74.84439659769532,65.15245159679402,-0.0002589702489785,0.0923885703086853,0,0,0
6190,216458.290036737,2010-10-25 01:31:26,300.1521284836824,7,19,-1.0997490882873535,3.9042117595672607,18.73850966237154,17.85873951490272,74.84439659769532,65.18828981472576,-0.0002266406954731,0.0923885703086853,0,0,0
6191,216488.30524497136,2010-10-25 01:31:56,330.1673367180512,7,19,-1.0997490882873535,3.895793676376343,18.73850966237154,17.867908500025674,74.84439659769532,65.22404879655815,-0.0002266406954731,0.0923885703086853,0,0,0
6192,216518.3207993334,2010-10-25 01:32:26,360.1828912104013,7,19,-1.0997490882873535,3.8875374794006343,18.73850966237154,17.877077587110474,74.84439659769532,65.25973182540646,-0.0002266406954731,0.0923885703086853,0,0,0
6193,216548.3356829938,2010-10-25 01:32:56,390.19777473549465,7,19,-1.0997490882873535,3.879281282424927,18.73850966237154,17.886246496413296,74.84439659769532,65.29533914121144,-0.0002590179501567,0.0923885703086853,0,0,0
6194,216578.3508983459,2010-10-25 01:33:26,420.2129901176779,7,19,-1.0997490882873535,3.8715107440948486,18.73850966237154,17.895415701550405,74.84439659769532,65.33087375694626,-0.0001942634553415,0.0923885703086853,0,0,0
6195,216608.36613529685,2010-10-25 01:33:56,450.22822703854223,7,19,-1.0997490882873535,3.863578319549561,18.73850966237154,17.904585374576286,74.84439659769532,65.3663372461912,-0.0002266406954731,0.0923885703086853,0,0,0
6196,216638.3813513457,2010-10-25 01:34:26,480.2434430873869,7,19,-1.099929690361023,3.855645895004273,18.73850966237154,17.913755001300537,74.84439659769532,65.40172883910208,-0.0002266406954731,0.0923885703086853,0,0,0
6197,216668.3965481566,2010-10-25 01:34:56,510.2586399283599,7,19,-1.0997490882873535,3.8481991291046143,18.73850966237154,17.922924646831085,74.84439659769532,65.43704918167224,-0.0001942634553415,0.0923885703086853,0,0,0
6198,216698.4118878837,2010-10-25 01:35:26,540.2739796554489,7,19,-1.0997490882873535,3.840428590774536,18.73850966237154,17.932094345012217,74.84439659769532,65.4723001083546,-0.0002266406954731,0.0923885703086853,0,0,0
6199,216728.4269748508,2010-10-25 01:35:56,570.2890665925075,7,19,-1.099568486213684,3.832820177078247,18.73850966237154,17.941263959440228,74.84439659769532,65.50748130345923,-0.0002265930233988,0.0923885703086853,0,0,0
6200,216758.4422052404,2010-10-25 01:36:26,600.3042969871063,7,19,-1.0997490882873535,3.825535297393799,18.73850966237154,17.95043365142294,74.84439659769532,65.5425947027269,-0.0002266406954731,0.0923885703086853,0,0,0
6201,216788.45741619155,2010-10-25 01:36:56,630.3195079582961,7,19,-1.0997490882873535,3.818412303924561,18.73850966237154,17.959603321286288,74.84439659769532,65.5776415764431,-0.0001942634553415,0.0923885703086853,0,0,0
6202,216818.47265043572,2010-10-25 01:37:26,660.3347421774268,7,19,-1.0997490882873535,3.811289310455322,18.73850966237154,17.968773061452783,74.84439659769532,65.61262287252835,-0.0001942634553415,0.0923885703086853,0,0,0
6203,216848.48787300583,2010-10-25 01:37:56,690.3499647475246,7,19,-1.0997490882873535,3.804328203201294,18.73850966237154,17.977942699808835,74.84439659769532,65.64753901630901,-0.0001942634553415,0.0923885703086853,0,0,0
6204,216878.50306977663,2010-10-25 01:38:26,720.365161523335,7,19,-1.0997490882873535,3.7976908683776855,18.73850966237154,17.987112340216285,74.84439659769532,65.68239271474017,-0.0001942634553415,0.0923885703086853,0,0,0
6205,216908.5183997244,2010-10-25 01:38:56,750.3804914660384,7,19,-1.0997490882873535,3.790891647338867,18.73850966237154,17.996282030373436,74.84439659769532,65.71718493053231,-0.0001942634553415,0.0923885703086853,0,0,0
6206,216938.5336143096,2010-10-25 01:39:26,780.3957060512355,7,19,-1.0997490882873535,3.784254312515259,18.73850966237154,18.00545172842463,74.84439659769532,65.75191643605633,-0.0001942634553415,0.0923885703086853,0,0,0
6207,216968.5488292757,2010-10-25 01:39:56,810.4109210374316,7,19,-1.099929690361023,3.7779407501220703,18.73850966237154,18.014621411922818,74.84439659769532,65.78658859470735,-0.0001942634553415,0.0923885703086853,0,0,0
6208,216998.5639306387,2010-10-25 01:40:26,840.4260223854067,7,19,-1.0997490882873535,3.771627187728882,18.73850966237154,18.023791125145173,74.84439659769532,65.82120274778327,-0.0001618862152099,0.0923885703086853,0,0,0
6209,217028.57915447195,2010-10-25 01:40:56,870.4412462387025,7,19,-1.0997490882873535,3.7654755115509033,18.73850966237154,18.03296083694808,74.84439659769532,65.85575976342288,-0.0001618862152099,0.0923885703086853,0,0,0
6210,217058.5944337534,2010-10-25 01:41:26,900.4565255301675,7,19,-1.099929690361023,3.759485721588135,18.73850966237154,18.042130587327858,74.84439659769532,65.89026086597129,-0.0001295089750783,0.0923885703086853,0,0,0
6211,217088.60969320545,2010-10-25 01:41:57,930.471784957124,7,19,-1.0997490882873535,3.753657817840576,18.73850966237154,18.051300295265516,74.84439659769532,65.92470755097456,-0.0001618862152099,0.0923885703086853,0,0,0
6212,217118.62475710505,2010-10-25 01:42:27,960.4868488667912,7,19,-1.099929690361023,3.7478301525115967,18.73850966237154,18.06046999331526,74.84439659769532,65.95910091507885,-0.0001618862152099,0.0923885703086853,0,0,0
6213,217148.63998031672,2010-10-25 01:42:57,990.5020721035504,7,19,-1.0997490882873535,3.742164134979248,18.73850966237154,18.06963977090521,74.84439659769532,65.99344193360979,-0.0001295089750783,0.0923885703086853,0,0,0
6214,217178.65518960377,2010-10-25 01:43:27,1020.51728136548,7,19,-1.099929690361023,3.736660003662109,18.73850966237154,18.07880957746544,74.84439659769532,66.02773089742072,-0.0001295089750783,0.0923885703086853,0,0,0
6215,217208.67045993285,2010-10-25 01:43:57,1050.5325517096458,7,19,-1.0997490882873535,3.7309939861297607,18.73850966237154,18.087979394357223,74.84439659769532,66.0619691555774,-0.0001942634553415,0.0923885703086853,0,0,0
6216,217238.68570339505,2010-10-25 01:44:27,1080.5477951467503,7,19,-1.0997490882873535,3.725813627243042,18.73850966237154,18.09714914450519,74.84439659769532,66.09615788720646,-0.0001295089750783,0.0923885703086853,0,0,0
6217,217268.70089627613,2010-10-25 01:44:57,1110.562988027854,7,19,-1.0997490882873535,3.720471382141113,18.73850966237154,18.10631893356153,74.84439659769532,66.13029814321364,-0.0001618862152099,0.0923885703086853,0,0,0
6218,217298.71623110105,2010-10-25 01:45:27,1140.5783228527253,7,19,-1.099568486213684,3.7156147956848153,18.73850966237154,18.115488757263165,74.84439659769532,66.16439036643447,-6.47544875391759e-05,0.0923885703086853,0,0,0
6219,217328.73132604305,2010-10-25 01:45:57,1170.5934177947345,7,19,-1.0997490882873535,3.709948778152466,18.73850966237154,18.124658459917853,74.84439659769532,66.19843430967587,-0.0001618862152099,0.0923885703086853,0,0,0
6220,217358.746935342,2010-10-25 01:46:27,1200.609027188917,7,19,-1.099929690361023,3.705092191696167,18.73850966237154,18.133828375442757,74.84439659769532,66.23243211149142,-0.0001295089750783,0.0923885703086853,0,0,0
6221,217388.76176754417,2010-10-25 01:46:57,1230.6238593259354,7,19,-1.099929690361023,3.699911832809448,18.73850966237154,18.14299804443252,74.84439659769532,66.26638260310479,-0.0001295089750783,0.0923885703086853,0,0,0
6222,217418.7774206222,2010-10-25 01:47:27,1260.639512388954,7,19,-1.099568486213684,3.695055246353149,18.73850966237154,18.15216799826566,74.84439659769532,66.30028879239644,-0.0001295089750783,0.0923885703086853,0,0,0
6223,217448.7923779813,2010-10-25 01:47:57,1290.654469733027,7,19,-1.0997490882873535,3.6901986598968506,18.73850966237154,18.161337668157607,74.84439659769532,66.33414909369006,-9.713172767078504e-05,0.0923885703086853,0,0,0
6224,217478.8076115388,2010-10-25 01:48:27,1320.6697033306086,7,19,-1.0997490882873535,3.685665845870972,18.73850966237154,18.17050739517888,74.84439659769532,66.36796525810139,-9.713172767078504e-05,0.0923885703086853,0,0,0
6225,217508.82262809045,2010-10-25 01:48:57,1350.6847198672076,7,19,-1.099929690361023,3.680647373199463,18.73850966237154,18.17967712251711,74.84439659769532,66.40173792036067,-0.0001295089750783,0.0923885703086853,0,0,0
6226,217538.8379376724,2010-10-25 01:49:27,1380.7000294241031,7,19,-1.0997490882873535,3.676114559173584,18.73850966237154,18.18884691566977,74.84439659769532,66.43546776589298,-0.0001295089750783,0.0923885703086853,0,0,0
6227,217568.85306569183,2010-10-25 01:49:57,1410.7151574435516,7,19,-1.099929690361023,3.671258211135864,18.73850966237154,18.198016692959115,74.84439659769532,66.46915536663437,-0.0001618862152099,0.0923885703086853,0,0,0
6228,217598.8684208474,2010-10-25 01:50:27,1440.730512609118,7,19,-1.0997490882873535,3.667049169540405,18.73850966237154,18.207186563778265,74.84439659769532,66.5028014482519,-9.713172767078504e-05,0.0923885703086853,0,0,0
6229,217628.8835005013,2010-10-25 01:50:57,1470.7455922529998,7,19,-1.0997490882873535,3.6625163555145264,18.73850966237154,18.216356374736577,74.84439659769532,66.53640616323065,-0.0001295089750783,0.0923885703086853,0,0,0
6230,217658.8988618372,2010-10-25 01:51:27,1500.7609535989698,7,19,-1.0997490882873535,3.657983541488648,18.73850966237154,18.225526192275723,74.84439659769532,66.56997000517354,-0.0001295089750783,0.0923885703086853,0,0,0
6231,217688.9139489648,2010-10-25 01:51:57,1530.7760409320151,7,19,-1.099929690361023,3.653774499893189,18.73850966237154,18.234695916269366,74.84439659769532,66.60349361280475,-9.713172767078504e-05,0.0923885703086853,0,0,0
6232,217718.9291684221,2010-10-25 01:52:27,1560.7912602038928,7,19,-1.0997490882873535,3.6495654582977295,18.73850966237154,18.243865710385503,74.84439659769532,66.63697822865716,-9.713172767078504e-05,0.0923885703086853,0,0,0
6233,217748.9443610927,2010-10-25 01:52:57,1590.8064528443967,7,19,-1.0997490882873535,3.6453564167022714,18.73850966237154,18.25303548216076,74.84439659769532,66.67042378628946,-9.713172767078504e-05,0.0923885703086853,0,0,0
6234,217778.9595771666,2010-10-25 01:53:27,1620.821668918304,7,19,-1.099929690361023,3.6409854888916016,18.73850966237154,18.26220525835982,74.84439659769532,66.7038315954433,-0.0001618862152099,0.0923885703086853,0,0,0
6235,217808.97481126545,2010-10-25 01:53:57,1650.836903017135,7,19,-1.099929690361023,3.637262105941773,18.73850966237154,18.271375019831765,74.84439659769532,66.73720219553353,-9.713172767078504e-05,0.0923885703086853,0,0,0
6236,217838.9900598253,2010-10-25 01:54:27,1680.8521515770074,7,19,-1.099929690361023,3.633214950561523,18.73850966237154,18.28054478898451,74.84439659769532,66.77053661869957,-9.713172767078504e-05,0.0923885703086853,0,0,0
6237,217869.00524954853,2010-10-25 01:54:57,1710.8673413002405,7,19,-1.099929690361023,3.6294915676116943,18.73850966237154,18.289714550663,74.84439659769532,66.80383582257426,-6.47544875391759e-05,0.0923885703086853,0,0,0
6238,217899.0205756266,2010-10-25 01:55:27,1740.8826673732997,7,19,-1.0997490882873535,3.6256062984466553,18.73850966237154,18.29888434368173,74.84439659769532,66.83710057869325,-0.0001618862152099,0.0923885703086853,0,0,0
6239,217929.03566239323,2010-10-25 01:55:57,1770.8977541700085,7,19,-1.0997490882873535,3.622206687927246,18.73850966237154,18.3080540828608,74.84439659769532,66.87033130782481,-6.47544875391759e-05,0.0923885703086853,0,0,0
6240,217959.0508956149,2010-10-25 01:56:27,1800.9129873766155,7,19,-1.1001102924346924,3.618645191192627,18.73850966237154,18.317223874084004,74.84439659769532,66.90352905747751,-6.47544875391759e-05,0.0923885703086853,0,0,0
6241,217989.06609391447,2010-10-25 01:56:57,1830.9281856661987,7,19,-1.0997490882873535,3.615083694458008,18.73850966237154,18.32639368156942,74.84439659769532,66.93669454133885,-6.47544875391759e-05,0.0923885703086853,0,0,0
6242,218019.08131333173,2010-10-25 01:57:27,1860.9434050834384,7,19,-1.099929690361023,3.6115221977233887,18.73850966237154,18.33556345341916,74.84439659769532,66.96982855433568,-0.0001295089750783,0.0923885703086853,0,0,0
6243,218049.0966522117,2010-10-25 01:57:57,1890.958743968429,7,19,-1.0997490882873535,3.6084463596344,18.73850966237154,18.344733245759816,74.84439659769532,67.00293165515963,-6.47544875391759e-05,0.0923885703086853,0,0,0
6244,218079.11175443183,2010-10-25 01:58:27,1920.9738462086275,7,19,-1.0997490882873535,3.6050467491149902,18.73850966237154,18.35390302827341,74.84439659769532,67.03600451947885,-9.713172767078504e-05,0.0923885703086853,0,0,0
6245,218109.12694493704,2010-10-25 01:58:57,1950.989036688747,7,19,-1.1001102924346924,3.601809024810791,18.73850966237154,18.36307276017236,74.84439659769532,67.06904781995972,-6.47544875391759e-05,0.0923885703086853,0,0,0
6246,218139.1448054016,2010-10-25 01:59:27,1981.006897278602,7,19,-1.0997490882873535,3.598895072937012,18.73850966237154,18.372243427275567,74.84439659769532,67.10206546522613,-6.47544875391759e-05,0.0923885703086853,0,0,0
6247,218169.15767809507,2010-10-25 01:59:57,2011.019769886872,7,19,-1.0997490882873535,3.5958192348480225,18.73850966237154,18.38141255743192,74.84439659769532,67.1350492513976,-6.47544875391759e-05,0.0923885703086853,0,0,0
6248,218199.1726558049,2010-10-25 02:00:27,2041.0347475616152,7,19,-1.099929690361023,3.592743396759033,18.73850966237154,18.390582314171084,74.84439659769532,67.16800731074566,-6.47544875391759e-05,0.0923885703086853,0,0,0
6249,218229.18786893648,2010-10-25 02:00:57,2071.049960718251,7,19,-1.0997490882873535,3.589829683303833,18.73850966237154,18.39975217149521,74.84439659769532,67.20093825553592,-3.237724376958795e-05,0.0923885703086853,0,0,0
6250,218259.2030643238,2010-10-25 02:01:27,2101.0651560755264,7,19,-1.1001102924346924,3.586753845214844,18.73850966237154,18.40892201058752,74.84439659769532,67.23384194646063,-9.713172767078504e-05,0.0923885703086853,0,0,0
6251,218289.2183060015,2010-10-25 02:01:57,2131.080397763272,7,19,-1.0997490882873535,3.5838398933410645,18.73850966237154,18.418091846679797,74.84439659769532,67.26671876899599,-6.47544875391759e-05,0.0923885703086853,0,0,0
6252,218319.2335550376,2010-10-25 02:02:27,2161.0956467893056,7,19,-1.099929690361023,3.580925941467285,18.73850966237154,18.427261658531226,74.84439659769532,67.29956895269403,-9.713172767078504e-05,0.0923885703086853,0,0,0
6253,218349.2487245655,2010-10-25 02:02:57,2191.110816327231,7,19,-1.099929690361023,3.578011989593506,18.73850966237154,18.4364314746252,74.84439659769532,67.33239241902942,-9.713172767078504e-05,0.0923885703086853,0,0,0
6254,218379.26393539636,2010-10-25 02:03:27,2221.126027148046,7,19,-1.0997490882873535,3.5750980377197266,18.73850966237154,18.445601309058063,74.84439659769532,67.36518933796924,-9.713172767078504e-05,0.0923885703086853,0,0,0
6255,218409.2792884316,2010-10-25 02:03:57,2251.141380223403,7,19,-1.099929690361023,3.5721840858459477,18.73850966237154,18.454771147725417,74.84439659769532,67.39795931714747,-0.0001295089750783,0.0923885703086853,0,0,0
6256,218439.29440332836,2010-10-25 02:04:27,2281.1564950800453,7,19,-1.099929690361023,3.569108247756958,18.73850966237154,18.46394093467964,74.84439659769532,67.43070222052769,-9.713172767078504e-05,0.0923885703086853,0,0,0
6257,218469.30958447012,2010-10-25 02:04:57,2311.1716762319165,7,19,-1.099568486213684,3.566518068313598,18.73850966237154,18.473110739360585,74.84439659769532,67.46341803977624,-3.237724376958795e-05,0.0923885703086853,0,0,0
6258,218499.32484045852,2010-10-25 02:05:27,2341.1869322353405,7,19,-1.099929690361023,3.5632803440093994,18.73850966237154,18.48228056454929,74.84439659769532,67.49610611132263,-3.237724376958795e-05,0.0923885703086853,0,0,0
6259,218529.34002224705,2010-10-25 02:05:57,2371.20211400876,7,19,-1.0997490882873535,3.56036639213562,18.73850966237154,18.491450375940616,74.84439659769532,67.52876712720396,-3.237724376958795e-05,0.0923885703086853,0,0,0
6260,218559.355253995,2010-10-25 02:06:27,2401.2173457567324,7,19,-1.0997490882873535,3.557290554046631,18.73850966237154,18.500620186348065,74.84439659769532,67.56139983682911,-3.237724376958795e-05,0.0923885703086853,0,0,0
6261,218589.3704565653,2010-10-25 02:06:57,2431.232548326984,7,19,-1.0997490882873535,3.554052829742432,18.73850966237154,18.509790002880752,74.84439659769532,67.59400364120113,-6.47544875391759e-05,0.0923885703086853,0,0,0
6262,218619.3858046632,2010-10-25 02:07:27,2461.247896555261,7,19,-1.099929690361023,3.5506532192230225,18.73850966237154,18.518959860220445,74.84439659769532,67.6265780764777,-9.713172767078504e-05,0.0923885703086853,0,0,0
6263,218649.40090094856,2010-10-25 02:07:57,2491.262992710293,7,19,-1.099568486213684,3.5474154949188232,18.73850966237154,18.52812968823766,74.84439659769532,67.65912202497404,-9.713172767078504e-05,0.0923885703086853,0,0,0
6264,218679.41611483705,2010-10-25 02:08:27,2521.278206598754,7,19,-1.0997490882873535,3.543853998184204,18.73850966237154,18.53729953802815,74.84439659769532,67.69163475591252,-9.713172767078504e-05,0.0923885703086853,0,0,0
6265,218709.43133906627,2010-10-25 02:08:57,2551.2934308279864,7,19,-1.099929690361023,3.540292501449585,18.73850966237154,18.54646941365315,74.84439659769532,67.72411549543342,-9.713172767078504e-05,0.0923885703086853,0,0,0
6266,218739.44653819792,2010-10-25 02:09:27,2581.308629989744,7,19,-1.0997490882873535,3.536731004714966,18.73850966237154,18.55563923987677,74.84439659769532,67.75656265608747,-9.713172767078504e-05,0.0923885703086853,0,0,0
6267,218769.46188331343,2010-10-25 02:09:57,2611.323975095237,7,19,-1.0997490882873535,3.5330076217651367,18.73850966237154,18.56480917314797,74.84439659769532,67.78897562944873,-6.47544875391759e-05,0.0923885703086853,0,0,0
6268,218799.4768783966,2010-10-25 02:10:27,2641.338970148293,7,19,-1.099929690361023,3.528636693954468,18.73850966237154,18.573978984245976,74.84439659769532,67.82135227272666,-0.0001618862152099,0.0923885703086853,0,0,0
6269,218829.49216332208,2010-10-25 02:10:57,2671.3542550788115,7,19,-1.0997490882873535,3.5245895385742188,18.73850966237154,18.583148865007377,74.84439659769532,67.85369186331414,-0.0001295089750783,0.0923885703086853,0,0,0
6270,218859.50748374607,2010-10-25 02:11:27,2701.3695755078043,7,19,-1.099929690361023,3.52021861076355,18.73850966237154,18.592318746121983,74.84439659769532,67.88599240926213,-9.713172767078504e-05,0.0923885703086853,0,0,0
6271,218889.5227063813,2010-10-25 02:11:57,2731.384798143064,7,19,-1.0997490882873535,3.515685796737671,18.73850966237154,18.601488624782046,74.84439659769532,67.91825193081537,-9.713172767078504e-05,0.0923885703086853,0,0,0
6272,218919.5378189773,2010-10-25 02:12:27,2761.399910729048,7,19,-1.0997490882873535,3.510829448699951,18.73850966237154,18.610658441634698,74.84439659769532,67.95046743209463,-9.713172767078504e-05,0.0923885703086853,0,0,0
6273,218949.5531435968,2010-10-25 02:12:57,2791.4152353585087,7,19,-1.0997490882873535,3.5053253173828125,18.73850966237154,18.619828351114226,74.84439659769532,67.98263608529712,-0.0001295089750783,0.0923885703086853,0,0,0
6274,218979.5682299173,2010-10-25 02:13:27,2821.430321669006,7,19,-1.099929690361023,3.499335527420044,18.73850966237154,18.628998262944187,74.84439659769532,68.01475311723887,-0.0001942634553415,0.0923885703086853,0,0,0
6275,219009.58344417668,2010-10-25 02:13:58,2851.445535928391,7,19,-1.099929690361023,3.492860078811645,18.73850966237154,18.638168173231104,74.84439659769532,68.04681287968856,-0.0001618862152099,0.0923885703086853,0,0,0
6276,219039.59867486704,2010-10-25 02:14:28,2881.4607666187267,7,19,-1.0997490882873535,3.4854133129119877,18.73850966237154,18.647338067545835,74.84439659769532,68.07880845932651,-0.0002266406954731,0.0923885703086853,0,0,0
6277,219069.6138815575,2010-10-25 02:14:58,2911.475973309248,7,19,-1.099929690361023,3.47683334350586,18.73850966237154,18.656507867409307,74.84439659769532,68.11073052427913,-0.0002266406954731,0.0923885703086853,0,0,0
6278,219099.62909584705,2010-10-25 02:15:28,2941.49118762377,7,19,-1.0997490882873535,3.466958284378052,18.73850966237154,18.665677706294247,74.84439659769532,68.14256826956944,-0.0002590179501567,0.0923885703086853,0,0,0
6279,219129.6444523509,2010-10-25 02:15:58,2971.5065441376973,7,19,-1.0997490882873535,3.4553024768829346,18.73850966237154,18.674847648653312,74.84439659769532,68.17430825486552,-0.0003237724304199,0.0923885703086853,0,0,0
6280,219159.65967422927,2010-10-25 02:16:28,3001.5217660110584,7,19,-1.099929690361023,3.441380262374878,18.73850966237154,18.68401751393554,74.84439659769532,68.20593135724855,-0.0003885269106831,0.0923885703086853,0,0,0
6281,219189.6747443996,2010-10-25 02:16:58,3031.5368361512537,7,19,-1.0997490882873535,3.424058675765991,18.73850966237154,18.693187366961528,74.84439659769532,68.23741187950155,-0.0005180359003134,0.0923885703086853,0,0,0
6282,219219.68996461376,2010-10-25 02:17:28,3061.55205636548,7,19,-1.099929690361023,3.4013946056365967,18.73850966237154,18.70235718584789,74.84439659769532,68.26871143632339,-0.0007122993702068,0.0923885703086853,0,0,0
6283,219249.70517569524,2010-10-25 02:17:58,3091.5672674469447,7,19,-1.0997490882873535,3.371121883392334,18.73850966237154,18.711527069937333,74.84439659769532,68.29977189838944,-0.0009389400365762,0.0923885703086853,0,0,0
6284,219279.72063925097,2010-10-25 02:18:28,3121.5827311229523,7,19,-1.099929690361023,3.3285460472106934,18.73850966237154,18.720697084830825,74.84439659769532,68.33050201126044,-0.0013274669181555,0.0923885703086853,0,0,0
6285,219309.7356207753,2010-10-25 02:18:58,3151.5977125269906,7,19,-1.0997490882873535,3.267838954925537,18.73850966237154,18.7298668740862,74.84439659769532,68.3607622410552,-0.0018454551463946,0.0923885703086853,0,0,0
6286,219339.7508559869,2010-10-25 02:19:28,3181.612947738595,7,19,-1.099929690361023,3.1784780025482178,18.73850966237154,18.739036781579987,74.84439659769532,68.39034551227003,-0.0028491497505456,0.0923885703086853,0,0,0
6287,219369.7660817048,2010-10-25 02:19:58,3211.6281734615504,7,19,-1.099929690361023,3.0350470542907715,18.73850966237154,18.74820670080373,74.84439659769532,68.41889589336523,-0.004953718278557,0.0923885703086853,0,0,0
6288,219390.531402248,2010-10-25 02:20:18,3232.3934939996607,7,19,-1.0997490882873535,2.834956407546997,18.73850966237154,18.75455066871556,74.84439659769532,68.43759851428646,-0.0103606702759861,0.0923885703086853,0,0,0
6289,219399.45324659423,2010-10-25 02:20:27,3241.315338371017,7,19,-1.0997490882873535,2.699458122253418,18.73850966237154,18.757276364269728,74.84439659769532,68.44514610353637,-0.0125946998596191,0.0923885703086853,0,0,0
6290,219459.4681579337,2010-10-25 02:21:27,60.01480117060983,8,19,0.0,3.3118717670440674,18.73850966237154,18.757276364269728,74.84439659769532,68.44514610353637,0.0013598442310467,0.0923885703086853,0,0,0
6291,219459.65670496272,2010-10-25 02:21:28,0.187513285804621,9,19,-1.9243103452026844e-05,3.3120336532592773,18.73850966237154,18.757276365272045,74.84439659769532,68.44514610685609,0.0,0.0922218039631843,0,0,0
6292,219464.48453017863,2010-10-25 02:21:33,5.015338491702397,9,19,0.0001613661734154,3.3202898502349854,18.73851018850708,18.75727636552167,74.84439834274691,68.44514610768351,0.0011655807029455,0.0922218039631843,0,0,0
