Data_Point,Test_Time(s),Date_Time,Step_Time(s),Step_Index,Cycle_Index,Current(A),Voltage(V),Charge_Capacity(Ah),Discharge_Capacity(Ah),Charge_Energy(Wh),Discharge_Energy(Wh),dV/dt(V/s),Internal_Resistance(Ohm),Is_FC_Data,AC_Impedance(Ohm),ACI_Phase_Angle(Deg)
16014,562101.637016185,2010-10-29 01:32:48,30.01514289652673,1,50,0.0,3.409812688827514,47.82042134703728,47.82544462156678,191.16279847184452,174.08348853431454,0.0007446765666827,0.0923885703086853,0,0,0
16015,562131.6521635725,2010-10-29 01:33:19,60.0302902792344,1,50,0.0,3.4336097240448,47.82042134703728,47.82544462156678,191.16279847184452,174.08348853431454,0.0005503654247149,0.0923885703086853,0,0,0
16016,562161.6672850758,2010-10-29 01:33:49,90.04541181251736,1,50,0.0,3.451255321502685,47.82042134703728,47.82544462156678,191.16279847184452,174.08348853431454,0.0004209041653666,0.0923885703086853,0,0,0
16017,562191.6356388745,2010-10-29 01:34:18,120.013765706453,1,50,0.0,3.465501308441162,47.82042134703728,47.82544462156678,191.16279847184452,174.08348853431454,0.0003237724304199,0.0923885703086853,0,0,0
16018,562221.6556192846,2010-10-29 01:34:49,30.01486555029458,2,50,0.5501165986061096,3.621882915496826,47.82500746551753,47.82544462156678,191.1792530460773,174.08348853431454,0.0015217304462566,0.0923885703086853,0,0,0
16019,562251.6708301306,2010-10-29 01:35:19,60.030076391159504,2,50,0.5499359965324402,3.667372941970825,47.82959360832762,47.82544462156678,191.19597476134612,174.08348853431454,0.0010036944877356,0.0923885703086853,0,0,0
16020,562281.6858786268,2010-10-29 01:35:49,90.0451248874117,2,50,0.5501165986061096,3.700073719024658,47.834179711539335,47.82544462156678,191.2128725652659,174.08348853431454,0.0007446765666827,0.0923885703086853,0,0,0
16021,562311.7010936631,2010-10-29 01:36:19,120.0603399187205,2,50,0.5501165986061096,3.725813627243042,47.83876580926032,47.82544462156678,191.2299026490664,174.08348853431454,0.0006151676061563,0.0923885703086853,0,0,0
16022,562341.7163432054,2010-10-29 01:36:49,150.0755895211913,2,50,0.550297200679779,3.746696949005127,47.84335195154773,47.82544462156678,191.2470384902744,174.08348853431454,0.0005504131549969,0.0923885703086853,0,0,0
16023,562371.7313883234,2010-10-29 01:37:19,180.090634583886,2,50,0.5499359965324402,3.763047218322754,47.8479379920894,47.82544462156678,191.2642598714796,174.08348853431454,0.0003885269106831,0.0923885703086853,0,0,0
16024,562401.7464139224,2010-10-29 01:37:49,210.10566019309664,2,50,0.5501165986061096,3.774703025817871,47.85252408889582,47.82544462156678,191.2815468606085,174.08348853431454,0.0002590179501567,0.0923885703086853,0,0,0
16025,562431.7616442117,2010-10-29 01:38:19,240.1208904974706,2,50,0.5501165986061096,3.7816641330718994,47.85711034095682,47.82544462156678,191.29887656012207,174.08348853431454,9.713172767078504e-05,0.0923885703086853,0,0,0
16026,562461.7767089035,2010-10-29 01:38:49,270.13595519911166,2,50,0.5501165986061096,3.786682605743408,47.86169657917608,47.82544462156678,191.31623273241283,174.08348853431454,0.0001295089750783,0.0923885703086853,0,0,0
16027,562491.7918573738,2010-10-29 01:39:19,300.1511036394553,2,50,0.5497553944587708,3.790729761123657,47.86628277669159,47.82544462156678,191.33360920875916,174.08348853431454,6.47544875391759e-05,0.0923885703086853,0,0,0
16028,562521.8069773632,2010-10-29 01:39:49,330.16622364392794,2,50,0.5499359965324402,3.794938802719116,47.87086901179108,47.82544462156678,191.35100453345805,174.08348853431454,9.713172767078504e-05,0.0923885703086853,0,0,0
16029,562551.8221422696,2010-10-29 01:40:19,360.1813885553225,2,50,0.550297200679779,3.798985958099365,47.87545524533702,47.82544462156678,191.368418054391,174.08348853431454,0.0001618862152099,0.0923885703086853,0,0,0
16030,562581.8373813559,2010-10-29 01:40:49,390.1966276616336,2,50,0.5501165986061096,3.802871227264404,47.88004160164744,47.82544462156678,191.38584981357064,174.08348853431454,9.713172767078504e-05,0.0923885703086853,0,0,0
16031,562611.8524504184,2010-10-29 01:41:19,420.2116966790308,2,50,0.5499359965324402,3.806432723999024,47.88462791391039,47.82544462156678,191.4032988512002,174.08348853431454,9.713172767078504e-05,0.0923885703086853,0,0,0
16032,562641.8675406035,2010-10-29 01:41:49,450.226786889247,2,50,0.5501165986061096,3.810156106948853,47.88921420336498,47.82544462156678,191.42076478976747,174.08348853431454,9.713172767078504e-05,0.0923885703086853,0,0,0
16033,562671.8854852028,2010-10-29 01:42:19,480.2447316037663,2,50,0.5501165986061096,3.813717603683472,47.89380092042418,47.82544462156678,191.43824901495745,174.08348853431454,9.713172767078504e-05,0.0923885703086853,0,0,0
16034,562701.8979580296,2010-10-29 01:42:49,510.2572043053457,2,50,0.5499359965324402,3.817279100418091,47.898386835179046,47.82544462156678,191.4557467396644,174.08348853431454,6.47544875391759e-05,0.0923885703086853,0,0,0
16035,562731.9131019036,2010-10-29 01:43:19,540.2723481793084,2,50,0.5499359965324402,3.8206787109375,47.90297310283415,47.82544462156678,191.47326172089285,174.08348853431454,6.47544875391759e-05,0.0923885703086853,0,0,0
16036,562761.9281481593,2010-10-29 01:43:49,570.2873944249515,2,50,0.5501165986061096,3.824240207672119,47.907559308125165,47.82544462156678,191.49079209265832,174.08348853431454,9.713172767078504e-05,0.0923885703086853,0,0,0
16037,562791.9432391865,2010-10-29 01:44:19,600.302485442179,2,50,0.5501165986061096,3.8274779319763184,47.91214556601555,47.82544462156678,191.50833813624092,174.08348853431454,6.47544875391759e-05,0.0923885703086853,0,0,0
16038,562821.9585058566,2010-10-29 01:44:49,630.3177521522873,2,50,0.5501165986061096,3.830877542495728,47.916731827117445,47.82544462156678,191.52589953923848,174.08348853431454,0.0001295089750783,0.0923885703086853,0,0,0
16039,562851.9735284032,2010-10-29 01:45:19,660.3327746738024,2,50,0.5501165986061096,3.8342769145965576,47.92131803281302,47.82544462156678,191.54347609633945,174.08348853431454,6.47544875391759e-05,0.0923885703086853,0,0,0
16040,562881.9886534903,2010-10-29 01:45:49,690.3478997509177,2,50,0.5501165986061096,3.837514638900757,47.92590424388977,47.82544462156678,191.5610680368189,174.08348853431454,9.713172767078504e-05,0.0923885703086853,0,0,0
16041,562912.0037952039,2010-10-29 01:46:19,720.3630414895587,2,50,0.5501165986061096,3.841076135635376,47.93049056524994,47.82544462156678,191.5786758567865,174.08348853431454,0.0001295089750783,0.0923885703086853,0,0,0
16042,562942.0189305816,2010-10-29 01:46:49,750.3781768673463,2,50,0.5501165986061096,3.844313859939575,47.93507677464713,47.82544462156678,191.59629894022044,174.08348853431454,9.713172767078504e-05,0.0923885703086853,0,0,0
16043,562972.0341126408,2010-10-29 01:47:19,780.3933588964034,2,50,0.5504778623580933,3.848037242889404,47.93966309458582,47.82544462156678,191.6139383436109,174.08348853431454,0.0001618862152099,0.0923885703086853,0,0,0
16044,563002.0495037509,2010-10-29 01:47:49,810.4087500466547,2,50,0.550297200679779,3.8514368534088135,47.9442493934998,47.82544462156678,191.63159362479345,174.08348853431454,9.713172767078504e-05,0.0923885703086853,0,0,0
16045,563032.0643563288,2010-10-29 01:48:19,840.4236025945434,2,50,0.550297200679779,3.8549983501434326,47.9488356030308,47.82544462156678,191.6492645323488,174.08348853431454,0.0001295089750783,0.0923885703086853,0,0,0
16046,563062.0794969999,2010-10-29 01:48:49,870.4387432554984,2,50,0.5499359965324402,3.858236074447632,47.95342180998325,47.82544462156678,191.66695128957485,174.08348853431454,6.47544875391759e-05,0.0923885703086853,0,0,0
16047,563092.0946424026,2010-10-29 01:49:19,900.4538886532589,2,50,0.5501165986061096,3.861473798751831,47.958008076743205,47.82544462156678,191.6846538749461,174.08348853431454,6.47544875391759e-05,0.0923885703086853,0,0,0
16048,563122.1097737052,2010-10-29 01:49:49,930.4690199709275,2,50,0.5499359965324402,3.8647115230560303,47.96259433057697,47.82544462156678,191.7023717954661,174.08348853431454,6.47544875391759e-05,0.0923885703086853,0,0,0
16049,563152.1250376184,2010-10-29 01:50:19,960.484283884065,2,50,0.5501165986061096,3.86811113357544,47.9671806163902,47.82544462156678,191.7201049468498,174.08348853431454,3.237724376958795e-05,0.0923885703086853,0,0,0
16050,563182.1401950312,2010-10-29 01:50:49,990.4994413067952,2,50,0.5499359965324402,3.871348857879639,47.97176683829304,47.82544462156678,191.73785267964308,174.08348853431454,6.47544875391759e-05,0.0923885703086853,0,0,0
16051,563212.1554056114,2010-10-29 01:51:19,1020.5146519070606,2,50,0.5501165986061096,3.874586582183838,47.97635315926459,47.82544462156678,191.75561536640004,174.08348853431454,9.713172767078504e-05,0.0923885703086853,0,0,0
16052,563242.1704694909,2010-10-29 01:51:49,1050.529715766603,2,50,0.5499359965324402,3.877500534057617,47.98093935969099,47.82544462156678,191.7733917514526,174.08348853431454,6.47544875391759e-05,0.0923885703086853,0,0,0
16053,563272.1854698922,2010-10-29 01:52:19,1080.5447161529503,2,50,0.5501165986061096,3.8805763721466064,47.98552558670376,47.82544462156678,191.79118192645603,174.08348853431454,9.713172767078504e-05,0.0923885703086853,0,0,0
16054,563302.2006109041,2010-10-29 01:52:49,1110.5598571948549,2,50,0.5499359965324402,3.883328437805176,47.99011188407348,47.82544462156678,191.808985605886,174.08348853431454,9.713172767078504e-05,0.0923885703086853,0,0,0
16055,563332.2157703871,2010-10-29 01:53:19,1140.5750166476448,2,50,0.5499359965324402,3.886080503463745,47.99469812282063,47.82544462156678,191.8268016285685,174.08348853431454,9.713172767078504e-05,0.0923885703086853,0,0,0
16056,563362.2308944616,2010-10-29 01:53:49,1170.590140747324,2,50,0.5501165986061096,3.8885087966918954,47.99928443511905,47.82544462156678,191.8446299477397,174.08348853431454,6.47544875391759e-05,0.0923885703086853,0,0,0
16057,563392.2460483406,2010-10-29 01:54:19,1200.6052946011598,2,50,0.5501165986061096,3.890937089920044,48.003870784700005,47.82544462156678,191.86246986169112,174.08348853431454,6.47544875391759e-05,0.0923885703086853,0,0,0
16058,563422.2611764453,2010-10-29 01:54:49,1230.6204227058208,2,50,0.5499359965324402,3.893041610717773,48.00845708174722,47.82544462156678,191.8803203434884,174.08348853431454,0.0,0.0923885703086853,0,0,0
16059,563452.2764352255,2010-10-29 01:55:19,1260.6356815763902,2,50,0.5501165986061096,3.895146131515503,48.01304342566253,47.82544462156678,191.89818087404592,174.08348853431454,6.47544875391759e-05,0.0923885703086853,0,0,0
16060,563482.2915467088,2010-10-29 01:55:49,1290.650792994463,2,50,0.550297200679779,3.897250652313232,48.01762971412517,47.82544462156678,191.9160503978876,174.08348853431454,3.237724376958795e-05,0.0923885703086853,0,0,0
16061,563512.3065658819,2010-10-29 01:56:19,1320.6658121425708,2,50,0.5501165986061096,3.899193286895752,48.022215891515714,47.82544462156678,191.9339282511468,174.08348853431454,6.47544875391759e-05,0.0923885703086853,0,0,0
16062,563542.321708147,2010-10-29 01:56:49,1350.6809544175485,2,50,0.5501165986061096,3.900812149047852,48.02680220454703,47.82544462156678,191.9518148718068,174.08348853431454,0.0,0.0923885703086853,0,0,0
16063,563572.3370951919,2010-10-29 01:57:19,1380.696341572843,2,50,0.5499359965324402,3.902269124984741,48.03138851120632,47.82544462156678,191.96970922645272,174.08348853431454,0.0,0.0923885703086853,0,0,0
16064,563602.3520374133,2010-10-29 01:57:49,1410.7112837040008,2,50,0.5499359965324402,3.904049873352051,48.0359747606516,47.82544462156678,191.9876106306288,174.08348853431454,6.47544875391759e-05,0.0923885703086853,0,0,0
16065,563632.3671346109,2010-10-29 01:58:19,1440.7263808966193,2,50,0.5501165986061096,3.9053449630737305,48.040561100126745,47.82544462156678,192.00551930743345,174.08348853431454,0.0,0.0923885703086853,0,0,0
16066,563662.3823053569,2010-10-29 01:58:49,1470.7415524545793,2,50,0.5501165986061096,3.90680193901062,48.04514734438031,47.82544462156678,192.0234341667102,174.08348853431454,0.0,0.0923885703086853,0,0,0
16067,563692.3975485583,2010-10-29 01:59:19,1500.7567949092354,2,50,0.5501165986061096,3.90842080116272,48.04973367141831,47.82544462156678,192.04135580145817,174.08348853431454,6.47544875391759e-05,0.0923885703086853,0,0,0
16068,563722.4125598519,2010-10-29 01:59:49,1530.771806112542,2,50,0.5499359965324402,3.9097158908844,48.05431993539346,47.82544462156678,192.05928351224296,174.08348853431454,3.237724376958795e-05,0.0923885703086853,0,0,0
16069,563752.4278150334,2010-10-29 02:00:19,1560.7870612989295,2,50,0.5497553944587708,3.910687208175659,48.05890632212516,47.82544462156678,192.0772178479367,174.08348853431454,-3.237724376958795e-05,0.0923885703086853,0,0,0
16070,563782.4428357302,2010-10-29 02:00:49,1590.802082010935,2,50,0.5499359965324402,3.912306070327759,48.06349261770707,47.82544462156678,192.09515800595025,174.08348853431454,0.0,0.0923885703086853,0,0,0
16071,563812.458004827,2010-10-29 02:01:19,1620.8172510826982,2,50,0.5501165986061096,3.913762807846069,48.068078929547184,47.82544462156678,192.1131043495336,174.08348853431454,6.470680091297254e-05,0.0923885703086853,0,0,0
16072,563842.4731104308,2010-10-29 02:01:50,1650.8323567163543,2,50,0.5501165986061096,3.915057897567749,48.07266526011595,47.82544462156678,192.1310569580674,174.08348853431454,3.237724376958795e-05,0.0923885703086853,0,0,0
16073,563872.4882494074,2010-10-29 02:02:20,1680.8474956880996,2,50,0.5499359965324402,3.9163529872894287,48.0772515896501,47.82544462156678,192.14901556046613,174.08348853431454,0.0,0.0923885703086853,0,0,0
16074,563902.5034069956,2010-10-29 02:02:50,1710.8626532561923,2,50,0.5499359965324402,3.9178099632263184,48.08183786938712,47.82544462156678,192.16698021889687,174.08348853431454,6.47544875391759e-05,0.0923885703086853,0,0,0
16075,563932.5185524133,2010-10-29 02:03:20,1740.8777986790153,2,50,0.5501165986061096,3.919105052947998,48.08642419488746,47.82544462156678,192.18495123271748,174.08348853431454,3.237724376958795e-05,0.0923885703086853,0,0,0
16076,563962.5336894603,2010-10-29 02:03:50,1770.8929357209506,2,50,0.5501165986061096,3.9204001426696777,48.09101049368324,47.82544462156678,192.20292841466093,174.08348853431454,6.47544875391759e-05,0.0923885703086853,0,0,0
16077,563992.5488390635,2010-10-29 02:04:20,1800.9080853241926,2,50,0.5501165986061096,3.921857118606568,48.095596803153,47.82544462156678,192.22091179521536,174.08348853431454,6.47544875391759e-05,0.0923885703086853,0,0,0
16078,564022.5639741155,2010-10-29 02:04:50,1830.9232203761685,2,50,0.5499359965324402,3.923152208328247,48.100183046913294,47.82544462156678,192.23890128746504,174.08348853431454,3.237724376958795e-05,0.0923885703086853,0,0,0
16079,564052.5791055686,2010-10-29 02:05:20,1860.9383518542368,2,50,0.5499359965324402,3.924447298049927,48.10476938374173,47.82544462156678,192.25689748792203,174.08348853431454,3.237724376958795e-05,0.0923885703086853,0,0,0
16080,564082.594352735,2010-10-29 02:05:50,1890.953599010611,2,50,0.5499359965324402,3.925904273986816,48.10935576891529,47.82544462156678,192.2749002802892,174.08348853431454,3.237724376958795e-05,0.0923885703086853,0,0,0
16081,564112.6093725999,2010-10-29 02:06:20,1920.9686188554551,2,50,0.5501165986061096,3.927361249923706,48.11394208595144,47.82544462156678,192.2929090871532,174.08348853431454,6.47544875391759e-05,0.0923885703086853,0,0,0
16082,564142.6245088096,2010-10-29 02:06:50,1950.9837550703287,2,50,0.5501165986061096,3.928818225860596,48.11852839908478,47.82544462156678,192.3109243991064,174.08348853431454,6.47544875391759e-05,0.0923885703086853,0,0,0
16083,564172.640005498,2010-10-29 02:07:20,1980.9992518588635,2,50,0.5501165986061096,3.930275201797485,48.12311473328655,47.82544462156678,192.3289462730054,174.08348853431454,6.47544875391759e-05,0.0923885703086853,0,0,0
16084,564202.6547939312,2010-10-29 02:07:50,2011.0140401917083,2,50,0.5499359965324402,3.931570291519165,48.12770099172575,47.82544462156678,192.346974404471,174.08348853431454,3.237724376958795e-05,0.0923885703086853,0,0,0
16085,564232.6700766059,2010-10-29 02:08:20,2041.0293228716184,2,50,0.5501165986061096,3.9331891536712646,48.13228725615707,47.82544462156678,192.36500915160903,174.08348853431454,6.47544875391759e-05,0.0923885703086853,0,0,0
16086,564262.6851905202,2010-10-29 02:08:50,2071.0444368159874,2,50,0.550297200679779,3.9346461296081534,48.13687360775876,47.82544462156678,192.38305098900423,174.08348853431454,3.237724376958795e-05,0.0923885703086853,0,0,0
16087,564292.700229142,2010-10-29 02:09:20,2101.059475402542,2,50,0.5499359965324402,3.935941219329834,48.14145994095506,47.82544462156678,192.4010994949347,174.08348853431454,3.237724376958795e-05,0.0923885703086853,0,0,0
16088,564322.7154727444,2010-10-29 02:09:50,2131.074719015084,2,50,0.5499359965324402,3.937398195266724,48.14604630555611,47.82544462156678,192.419154734608,174.08348853431454,0.0,0.0923885703086853,0,0,0
16089,564352.7304899677,2010-10-29 02:10:20,2161.089736228369,2,50,0.5499359965324402,3.938855171203613,48.15063259230463,47.82544462156678,192.4372165808157,174.08348853431454,0.0,0.0923885703086853,0,0,0
16090,564382.7456514054,2010-10-29 02:10:50,2191.1048976761317,2,50,0.5501165986061096,3.940474033355713,48.155218936920825,47.82544462156678,192.455285507609,174.08348853431454,3.237724376958795e-05,0.0923885703086853,0,0,0
16091,564412.7608056954,2010-10-29 02:11:20,2221.120051981092,2,50,0.5501165986061096,3.9419310092926025,48.15980529894402,47.82544462156678,192.4733614064143,174.08348853431454,3.237724376958795e-05,0.0923885703086853,0,0,0
16092,564442.7759345369,2010-10-29 02:11:50,2251.1351808225886,2,50,0.5499359965324402,3.943387985229492,48.16439163352282,47.82544462156678,192.4914441673129,174.08348853431454,-3.237724376958795e-05,0.0923885703086853,0,0,0
16093,564472.7910549825,2010-10-29 02:12:20,2281.150301268161,2,50,0.5501165986061096,3.945006847381592,48.16897796362752,47.82544462156678,192.5095338947936,174.08348853431454,3.237724376958795e-05,0.0923885703086853,0,0,0
16094,564502.8061917237,2010-10-29 02:12:50,2311.165438014358,2,50,0.5501165986061096,3.9466257095336914,48.1735643477285,47.82544462156678,192.52763095541505,174.08348853431454,6.47544875391759e-05,0.0923885703086853,0,0,0
16095,564532.8213476227,2010-10-29 02:13:20,2341.180593878204,2,50,0.5499359965324402,3.948082685470581,48.1781507145551,47.82544462156678,192.54573489341408,174.08348853431454,3.237724376958795e-05,0.0923885703086853,0,0,0
16096,564562.8365986436,2010-10-29 02:13:50,2371.195844914248,2,50,0.5499359965324402,3.949539661407471,48.18273707703651,47.82544462156678,192.5638460401401,174.08348853431454,3.237724376958795e-05,0.0923885703086853,0,0,0
16097,564592.8543228786,2010-10-29 02:14:20,2401.21356913924,2,50,0.550297200679779,3.95132040977478,48.18732380991042,47.82544462156678,192.5819659057429,174.08348853431454,6.47544875391759e-05,0.0923885703086853,0,0,0
16098,564622.8669112284,2010-10-29 02:14:50,2431.2261575040875,2,50,0.5501165986061096,3.95293927192688,48.191909813275046,47.82544462156678,192.6000901263948,174.08348853431454,6.47544875391759e-05,0.0923885703086853,0,0,0
16099,564652.8820599244,2010-10-29 02:15:20,2461.241306195056,2,50,0.5499359965324402,3.9543962478637695,48.19649609598248,47.82544462156678,192.6182227641015,174.08348853431454,3.237724376958795e-05,0.0923885703086853,0,0,0
16100,564682.897039584,2010-10-29 02:15:50,2491.256285849733,2,50,0.5499359965324402,3.956015110015869,48.20108242221859,47.82544462156678,192.63636297319752,174.08348853431454,3.237724376958795e-05,0.0923885703086853,0,0,0
16101,564712.9123546496,2010-10-29 02:16:20,2521.271600925383,2,50,0.5501165986061096,3.9577958583831783,48.20566887775133,47.82544462156678,192.654511086866,174.08348853431454,6.47544875391759e-05,0.0923885703086853,0,0,0
16102,564742.9273158032,2010-10-29 02:16:50,2551.286562088976,2,50,0.5501165986061096,3.959252834320069,48.21025523654166,47.82544462156678,192.6726663257592,174.08348853431454,0.0,0.0923885703086853,0,0,0
16103,564772.9426081573,2010-10-29 02:17:20,2581.301854427959,2,50,0.5499359965324402,3.961033582687378,48.21484164475499,47.82544462156678,192.6908292727435,174.08348853431454,3.237724376958795e-05,0.0923885703086853,0,0,0
16104,564802.9575608297,2010-10-29 02:17:50,2611.316807095376,2,50,0.5501165986061096,3.9626524448394775,48.21942801426642,47.82544462156678,192.70899972392272,174.08348853431454,3.237724376958795e-05,0.0923885703086853,0,0,0
16105,564832.9727134254,2010-10-29 02:18:20,2641.331959686064,2,50,0.5501165986061096,3.964433193206787,48.22401428584488,47.82544462156678,192.7271774216206,174.08348853431454,6.47544875391759e-05,0.0923885703086853,0,0,0
16106,564862.9878585776,2010-10-29 02:18:50,2671.3471048732995,2,50,0.5501165986061096,3.966052055358887,48.22860052953971,47.82544462156678,192.74536269642343,174.08348853431454,3.237724376958795e-05,0.0923885703086853,0,0,0
16107,564893.0030517293,2010-10-29 02:19:20,2701.3622979899906,2,50,0.5501165986061096,3.967832803726196,48.23318689771277,47.82544462156678,192.7635562020504,174.08348853431454,9.713172767078504e-05,0.0923885703086853,0,0,0
16108,564923.018463446,2010-10-29 02:19:50,2731.377709836824,2,50,0.5501165986061096,3.969451665878296,48.23777332336808,47.82544462156678,192.7817577380952,174.08348853431454,3.237724376958795e-05,0.0923885703086853,0,0,0
16109,564953.0333378883,2010-10-29 02:20:20,2761.392584148956,2,50,0.550297200679779,3.9712324142456055,48.24235970132699,47.82544462156678,192.79996693310383,174.08348853431454,9.713172767078504e-05,0.0923885703086853,0,0,0
16110,564983.0484824089,2010-10-29 02:20:50,2791.4077286945926,2,50,0.5501165986061096,3.972851276397705,48.24694609240438,47.82544462156678,192.81818408400864,174.08348853431454,3.237724376958795e-05,0.0923885703086853,0,0,0
16111,565013.0636196313,2010-10-29 02:21:20,2821.422865886903,2,50,0.5501165986061096,3.974632024765015,48.25153245466814,47.82544462156678,192.8364090405398,174.08348853431454,6.47544875391759e-05,0.0923885703086853,0,0,0
16112,565043.0787392448,2010-10-29 02:21:50,2851.437985530476,2,50,0.5501165986061096,3.976250886917114,48.25611882587622,47.82544462156678,192.85464203095796,174.08348853431454,3.237724376958795e-05,0.0923885703086853,0,0,0
16113,565073.094315401,2010-10-29 02:22:20,2881.4535616868197,2,50,0.5501165986061096,3.977869749069214,48.26070530877934,47.82544462156678,192.87288339327225,174.08348853431454,3.237724376958795e-05,0.0923885703086853,0,0,0
16114,565103.1090277897,2010-10-29 02:22:50,2911.468274075388,2,50,0.5501165986061096,3.979974269866944,48.26529154431935,47.82544462156678,192.8911316958536,174.08348853431454,6.47544875391759e-05,0.0923885703086853,0,0,0
16115,565133.1241871222,2010-10-29 02:23:20,2941.4834333778035,2,50,0.550297200679779,3.981755018234253,48.269877802788834,47.82544462156678,192.90938859981787,174.08348853431454,6.47544875391759e-05,0.0923885703086853,0,0,0
16116,565163.1393094223,2010-10-29 02:23:50,2971.4985557080727,2,50,0.550297200679779,3.9835357666015625,48.27446416514579,47.82544462156678,192.9276542100181,174.08348853431454,6.47544875391759e-05,0.0923885703086853,0,0,0
16117,565193.1544421535,2010-10-29 02:24:20,3001.5136884091894,2,50,0.5499359965324402,3.985154628753662,48.27905040181194,47.82544462156678,192.945927687864,174.08348853431454,0.0,0.0923885703086853,0,0,0
16118,565223.1695835815,2010-10-29 02:24:50,3031.5288298470805,2,50,0.550297200679779,3.987259149551392,48.28363665945847,47.82544462156678,192.9642096243075,174.08348853431454,6.47544875391759e-05,0.0923885703086853,0,0,0
16119,565253.184737736,2010-10-29 02:25:20,3061.5439840317404,2,50,0.5501165986061096,3.989039897918701,48.28822292747871,47.82544462156678,192.98249998434852,174.08348853431454,3.237724376958795e-05,0.0923885703086853,0,0,0
16120,565283.1998838856,2010-10-29 02:25:50,3091.5591301713503,2,50,0.5497553944587708,3.9908206462860103,48.292809059105565,47.82544462156678,193.00079836426897,174.08348853431454,3.237724376958795e-05,0.0923885703086853,0,0,0
16121,565313.2150148173,2010-10-29 02:26:20,3121.574261103057,2,50,0.5501165986061096,3.9927632808685294,48.29739532650159,47.82544462156678,193.01910592570871,174.08348853431454,6.47544875391759e-05,0.0923885703086853,0,0,0
16122,565343.2301452778,2010-10-29 02:26:50,3151.589391538527,2,50,0.5501165986061096,3.9945437908172607,48.30198157732408,47.82544462156678,193.03742214428627,174.08348853431454,0.0,0.0923885703086853,0,0,0
16123,565373.2454210406,2010-10-29 02:27:20,3181.6046673011965,2,50,0.5501165986061096,3.99648642539978,48.30656788376312,47.82544462156678,193.0557473925711,174.08348853431454,3.237724376958795e-05,0.0923885703086853,0,0,0
16124,565403.2604255673,2010-10-29 02:27:50,3211.6196718378883,2,50,0.550297200679779,3.9984290599823,48.31115417332401,47.82544462156678,193.07408143754964,174.08348853431454,3.237724376958795e-05,0.0923885703086853,0,0,0
16125,565433.2755710001,2010-10-29 02:28:20,3241.6348172607118,2,50,0.5497553944587708,4.000371932983398,48.31574045831877,47.82544462156678,193.09242426841405,174.08348853431454,3.24249267578125e-05,0.0923885703086853,0,0,0
16126,565463.2908283719,2010-10-29 02:28:50,3271.650074637558,2,50,0.5501165986061096,4.002476215362549,48.32032670843928,47.82544462156678,193.11077608006065,174.08348853431454,6.47544875391759e-05,0.0923885703086853,0,0,0
16127,565493.3058986024,2010-10-29 02:29:20,3301.6651448579537,2,50,0.550297200679779,4.004742622375488,48.324913017591065,47.82544462156678,193.129137279662,174.08348853431454,9.70840483205393e-05,0.0923885703086853,0,0,0
16128,565523.3209907674,2010-10-29 02:29:50,3331.680237053117,2,50,0.550297200679779,4.006685256958008,48.32949923200068,47.82544462156678,193.147507390726,174.08348853431454,0.0001295089750783,0.0923885703086853,0,0,0
16129,565553.3361228169,2010-10-29 02:30:20,3361.695369077547,2,50,0.5501165986061096,4.008627891540527,48.33408540130295,47.82544462156678,193.16588672825216,174.08348853431454,3.23295607813634e-05,0.0923885703086853,0,0,0
16130,565583.351398344,2010-10-29 02:30:50,3391.710644639717,2,50,0.5499359965324402,4.010732650756836,48.33867167017392,47.82544462156678,193.18427583219915,174.08348853431454,6.47544875391759e-05,0.0923885703086853,0,0,0
16131,565613.3665698469,2010-10-29 02:31:20,3421.7258161174777,2,50,0.5501165986061096,4.012675285339356,48.34325780902938,47.82544462156678,193.2026739915065,174.08348853431454,3.24249267578125e-05,0.0923885703086853,0,0,0
16132,565643.381557717,2010-10-29 02:31:50,3451.740804002668,2,50,0.550297200679779,4.014941692352295,48.3478440441247,47.82544462156678,193.22108226266883,174.08348853431454,6.47544875391759e-05,0.0923885703086853,0,0,0
16133,565673.3966889394,2010-10-29 02:32:20,3481.755935225099,2,50,0.5499359965324402,4.016884326934815,48.35243030081801,47.82544462156678,193.23950038133552,174.08348853431454,3.24249267578125e-05,0.0923885703086853,0,0,0
16134,565703.4118512894,2010-10-29 02:32:50,3511.7710975600726,2,50,0.5499359965324402,4.019150733947754,48.35701669065226,47.82544462156678,193.2579290048719,174.08348853431454,6.47544875391759e-05,0.0923885703086853,0,0,0
16135,565733.427003063,2010-10-29 02:33:20,3541.786249353774,2,50,0.5501165986061096,4.021417140960693,48.3616029828186,47.82544462156678,193.27636714851067,174.08348853431454,6.47544875391759e-05,0.0923885703086853,0,0,0
16136,565763.4421104761,2010-10-29 02:33:51,3571.8013567618527,2,50,0.5501165986061096,4.023521423339844,48.36618927819864,47.82544462156678,193.2948156143024,174.08348853431454,6.47544875391759e-05,0.0923885703086853,0,0,0
16137,565793.4572500795,2010-10-29 02:34:21,3601.8164963551467,2,50,0.5499359965324402,4.025949954986572,48.37077560015167,47.82544462156678,193.313274527774,174.08348853431454,9.71794142969884e-05,0.0923885703086853,0,0,0
16138,565823.472389788,2010-10-29 02:34:51,3631.8316360486906,2,50,0.550297200679779,4.028216361999512,48.37536187896232,47.82544462156678,193.3317436700159,174.08348853431454,3.24249267578125e-05,0.0923885703086853,0,0,0
16139,565853.4875431056,2010-10-29 02:35:21,3661.8467893661896,2,50,0.5499359965324402,4.030644416809082,48.37994820787781,47.82544462156678,193.35022345407577,174.08348853431454,6.47544875391759e-05,0.0923885703086853,0,0,0
16140,565883.5027056761,2010-10-29 02:35:51,3691.8619519367503,2,50,0.5499359965324402,4.032749176025391,48.384534462142405,47.82544462156678,193.3687135042481,174.08348853431454,6.47544875391759e-05,0.0923885703086853,0,0,0
16141,565913.5178311291,2010-10-29 02:36:21,3721.877077419877,2,50,0.550297200679779,4.035338878631592,48.389120737474826,47.82544462156678,193.38721439251304,174.08348853431454,9.70840483205393e-05,0.0923885703086853,0,0,0
16142,565943.5330318549,2010-10-29 02:36:51,3751.8922782357567,2,50,0.5501165986061096,4.0374436378479,48.39370705167699,47.82544462156678,193.40572620052052,174.08348853431454,6.47544875391759e-05,0.0923885703086853,0,0,0
16143,565973.5487139202,2010-10-29 02:37:21,3781.9079602258703,2,50,0.5501165986061096,4.039871692657471,48.39829346709426,47.82544462156678,193.4242493394985,174.08348853431454,9.70840483205393e-05,0.0923885703086853,0,0,0
16144,566003.5632946505,2010-10-29 02:37:51,3811.9225409412697,2,50,0.5499359965324402,4.042300224304199,48.40287971424667,47.82544462156678,193.4427826881065,174.08348853431454,6.47544875391759e-05,0.0923885703086853,0,0,0
16145,566033.5783849009,2010-10-29 02:38:21,3841.9376311665233,2,50,0.5499359965324402,4.044566631317139,48.4074659882497,47.82544462156678,193.46132723471325,174.08348853431454,0.0,0.0923885703086853,0,0,0
16146,566063.59357898,2010-10-29 02:38:51,3871.952825350874,2,50,0.5501165986061096,4.047156810760498,48.412052234858486,47.82544462156678,193.47988277550564,174.08348853431454,6.47544875391759e-05,0.0923885703086853,0,0,0
16147,566093.6088521262,2010-10-29 02:39:21,3901.968098386749,2,50,0.5501165986061096,4.049746990203857,48.41663855340595,47.82544462156678,193.4984499820482,174.08348853431454,6.47544875391759e-05,0.0923885703086853,0,0,0
16148,566123.6238804872,2010-10-29 02:39:51,3931.983126858093,2,50,0.5499359965324402,4.052013397216797,48.4212247979098,47.82544462156678,193.51702828101364,174.08348853431454,6.47544875391759e-05,0.0923885703086853,0,0,0
16149,566153.6389235299,2010-10-29 02:40:21,3961.9981697904777,2,50,0.5501165986061096,4.054765224456787,48.42581101870511,47.82544462156678,193.5356179759359,174.08348853431454,0.0001295089750783,0.0923885703086853,0,0,0
16150,566183.6541287767,2010-10-29 02:40:51,3992.0133751276257,2,50,0.550297200679779,4.057193756103516,48.43039732547295,47.82544462156678,193.55421960795752,174.08348853431454,6.47544875391759e-05,0.0923885703086853,0,0,0
16151,566213.6692219593,2010-10-29 02:41:21,4022.0284682200254,2,50,0.5497553944587708,4.059783935546875,48.43498367701184,47.82544462156678,193.57283314632377,174.08348853431454,6.47544875391759e-05,0.0923885703086853,0,0,0
16152,566243.6844090311,2010-10-29 02:41:51,4052.0436552866377,2,50,0.5501165986061096,4.062374114990234,48.43956999817424,47.82544462156678,193.59145801808563,174.08348853431454,9.71794142969884e-05,0.0923885703086853,0,0,0
16153,566273.699485091,2010-10-29 02:42:21,4082.0587313866863,2,50,0.550297200679779,4.064964294433594,48.44415624582555,47.82544462156678,193.61009447760097,174.08348853431454,9.71794142969884e-05,0.0923885703086853,0,0,0
16154,566303.7146919168,2010-10-29 02:42:51,4112.073938317807,2,50,0.5501165986061096,4.067392349243164,48.4487425641385,47.82544462156678,193.6287432561628,174.08348853431454,3.23295607813634e-05,0.0923885703086853,0,0,0
16155,566333.7298105528,2010-10-29 02:43:21,4142.08905685362,2,50,0.550297200679779,4.070468425750732,48.453328806189,47.82544462156678,193.64740381543808,174.08348853431454,0.0001295089750783,0.0923885703086853,0,0,0
16156,566363.7449890431,2010-10-29 02:43:51,4172.104235333832,2,50,0.5501165986061096,4.072734832763672,48.45791511998808,47.82544462156678,193.66607683648456,174.08348853431454,9.71794142969884e-05,0.0923885703086853,0,0,0
16157,566393.7600348628,2010-10-29 02:44:21,4202.1192811183255,2,50,0.5499359965324402,4.075486660003662,48.462501360274096,47.82544462156678,193.68476190577024,174.08348853431454,6.47544875391759e-05,0.0923885703086853,0,0,0
16158,566423.7751752681,2010-10-29 02:44:51,4232.134421553719,2,50,0.5499359965324402,4.0782389640808105,48.46708768528152,47.82544462156678,193.70345973939007,174.08348853431454,3.24249267578125e-05,0.0923885703086853,0,0,0
16159,566453.7903348912,2010-10-29 02:45:21,4262.149581151871,2,50,0.5499359965324402,4.08082914352417,48.47167402726469,47.82544462156678,193.72217015614385,174.08348853431454,3.24249267578125e-05,0.0923885703086853,0,0,0
16160,566483.8055831604,2010-10-29 02:45:51,4292.16482942603,2,50,0.5499359965324402,4.08358097076416,48.476260320875504,47.82544462156678,193.74089293332165,174.08348853431454,3.23295607813634e-05,0.0923885703086853,0,0,0
16161,566513.8233015558,2010-10-29 02:46:21,4322.182547936782,2,50,0.5501165986061096,4.0866570472717285,48.48084693460486,47.82544462156678,193.75962981211524,174.08348853431454,0.0001295089750783,0.0923885703086853,0,0,0
16162,566543.8359294091,2010-10-29 02:46:51,4352.195175810096,2,50,0.5501165986061096,4.089408874511719,48.48543281014341,47.82544462156678,193.77837651072977,174.08348853431454,9.70840483205393e-05,0.0923885703086853,0,0,0
16163,566573.851053549,2010-10-29 02:47:21,4382.210299819551,2,50,0.550297200679779,4.092322826385498,48.49001903563423,47.82544462156678,193.797137639122,174.08348853431454,9.70840483205393e-05,0.0923885703086853,0,0,0
16164,566603.8661521149,2010-10-29 02:47:51,4412.225398390604,2,50,0.5501165986061096,4.094913005828857,48.49460533978719,47.82544462156678,193.81591220809892,174.08348853431454,6.47544875391759e-05,0.0923885703086853,0,0,0
16165,566633.8811626867,2010-10-29 02:48:21,4442.240408942287,2,50,0.5501165986061096,4.097989082336426,48.49919161287959,47.82544462156678,193.83469983665185,174.08348853431454,6.47544875391759e-05,0.0923885703086853,0,0,0
16166,566663.8962931272,2010-10-29 02:48:51,4472.255539392794,2,50,0.5501165986061096,4.100903034210205,48.50377789141098,47.82544462156678,193.8535008652572,174.08348853431454,0.0001295089750783,0.0923885703086853,0,0,0
16167,566693.9115805489,2010-10-29 02:49:21,4502.2708268145225,2,50,0.5499359965324402,4.103816986083984,48.50836427916192,47.82544462156678,193.8723157591412,174.08348853431454,6.47544875391759e-05,0.0923885703086853,0,0,0
16168,566723.9266158373,2010-10-29 02:49:51,4532.285862097843,2,50,0.5501165986061096,4.1068925857543945,48.51295051504189,47.82544462156678,193.89114371095343,174.08348853431454,9.70840483205393e-05,0.0923885703086853,0,0,0
16169,566753.9418919006,2010-10-29 02:50:21,4562.301138206376,2,50,0.5501165986061096,4.109806537628174,48.517536870394025,47.82544462156678,193.90998589040936,174.08348853431454,3.23295607813634e-05,0.0923885703086853,0,0,0
16170,566783.9568567534,2010-10-29 02:50:51,4592.31610301405,2,50,0.5501165986061096,4.112882614135742,48.52212317679891,47.82544462156678,193.9288417046818,174.08348853431454,9.71794142969884e-05,0.0923885703086853,0,0,0
16171,566813.9721149021,2010-10-29 02:51:21,4622.331361192896,2,50,0.5499359965324402,4.115958213806152,48.52670951034568,47.82544462156678,193.947711582658,174.08348853431454,9.71794142969884e-05,0.0923885703086853,0,0,0
16172,566843.9874266596,2010-10-29 02:51:51,4652.346673060551,2,50,0.550297200679779,4.1190338134765625,48.53129584301141,47.82544462156678,193.96659563787725,174.08348853431454,6.47544875391759e-05,0.0923885703086853,0,0,0
16173,566874.0022794029,2010-10-29 02:52:21,4682.361525663577,2,50,0.5501165986061096,4.122109889984131,48.5358821201192,47.82544462156678,193.98549369470243,174.08348853431454,9.71794142969884e-05,0.0923885703086853,0,0,0
16174,566904.0174149161,2010-10-29 02:52:51,4712.376661176702,2,50,0.550297200679779,4.12534761428833,48.54046848667033,47.82544462156678,194.0044063910705,174.08348853431454,9.71794142969884e-05,0.0923885703086853,0,0,0
16175,566934.0325859778,2010-10-29 02:53:21,4742.391832238424,2,50,0.5501165986061096,4.12842321395874,48.54505480757575,47.82544462156678,194.0233334253988,174.08348853431454,6.47544875391759e-05,0.0923885703086853,0,0,0
16176,566964.0477444882,2010-10-29 02:53:51,4772.4069907488665,2,50,0.5499359965324402,4.13166093826294,48.54964116588914,47.82544462156678,194.0422753166409,174.08348853431454,9.70840483205393e-05,0.0923885703086853,0,0,0
16177,566994.0628352198,2010-10-29 02:54:21,4802.42208147537,2,50,0.550297200679779,4.135060787200928,48.55422750739872,47.82544462156678,194.0612318972594,174.08348853431454,9.71794142969884e-05,0.0923885703086853,0,0,0
16178,567024.0779729434,2010-10-29 02:54:51,4832.437219199003,2,50,0.5501165986061096,4.138136386871338,48.55881381720828,47.82544462156678,194.08020321862176,174.08348853431454,6.47544875391759e-05,0.0923885703086853,0,0,0
16179,567054.0933280388,2010-10-29 02:55:21,4862.452574389633,2,50,0.5501165986061096,4.141374111175537,48.56340028919224,47.82544462156678,194.09919014047804,174.08348853431454,9.70840483205393e-05,0.0923885703086853,0,0,0
16180,567084.1082628667,2010-10-29 02:55:51,4892.467509137388,2,50,0.5501165986061096,4.144611835479736,48.56798672961863,47.82544462156678,194.1181921019859,174.08348853431454,6.47544875391759e-05,0.0923885703086853,0,0,0
16181,567114.123394074,2010-10-29 02:56:21,4922.482640334757,2,50,0.5501165986061096,4.148173332214356,48.57257300492634,47.82544462156678,194.1372088704184,174.08348853431454,9.70840483205393e-05,0.0923885703086853,0,0,0
16182,567144.1385290258,2010-10-29 02:56:51,4952.497775281471,2,50,0.5499359965324402,4.151411056518555,48.57715933018184,47.82544462156678,194.1562410446076,174.08348853431454,9.70840483205393e-05,0.0923885703086853,0,0,0
16183,567174.1536961979,2010-10-29 02:57:21,4982.512942478562,2,50,0.5501165986061096,4.154810905456543,48.58174566901851,47.82544462156678,194.17528864701984,174.08348853431454,0.0001295089750783,0.0923885703086853,0,0,0
16184,567204.1688137712,2010-10-29 02:57:51,5012.528060067013,2,50,0.5501165986061096,4.158210277557373,48.586331887207706,47.82544462156678,194.19435125052985,174.08348853431454,9.70840483205393e-05,0.0923885703086853,0,0,0
16185,567234.1839759208,2010-10-29 02:58:21,5042.543222206499,2,50,0.550297200679779,4.161610126495361,48.590918201266696,47.82544462156678,194.21342994915096,174.08348853431454,9.71794142969884e-05,0.0923885703086853,0,0,0
16186,567264.199096171,2010-10-29 02:58:51,5072.558342431522,2,50,0.550297200679779,4.1651716232299805,48.595504664101504,47.82544462156678,194.23252502336967,174.08348853431454,0.0001295089750783,0.0923885703086853,0,0,0
16187,567294.2143617732,2010-10-29 02:59:21,5102.573608033869,2,50,0.5501165986061096,4.1687331199646,48.6000909214363,47.82544462156678,194.2516350729932,174.08348853431454,0.0001295089750783,0.0923885703086853,0,0,0
16188,567324.2293714026,2010-10-29 02:59:51,5132.588617663253,2,50,0.5499359965324402,4.17213249206543,48.604677230975966,47.82544462156678,194.2707614381121,174.08348853431454,0.0001295089750783,0.0923885703086853,0,0,0
16189,567354.2445077328,2010-10-29 03:00:21,5162.603753993414,2,50,0.5501165986061096,4.175532341003418,48.60926355210754,47.82544462156678,194.2899039675113,174.08348853431454,6.47544875391759e-05,0.0923885703086853,0,0,0
16190,567384.2596643986,2010-10-29 03:00:51,5192.618910659258,2,50,0.5501165986061096,4.179093837738037,48.61384984455248,47.82544462156678,194.30906261451625,174.08348853431454,9.71794142969884e-05,0.0923885703086853,0,0,0
16191,567414.2749040864,2010-10-29 03:01:21,5222.634150362056,2,50,0.5497553944587708,4.182655334472656,48.61843616514864,47.82544462156678,194.32823767704596,174.08348853431454,9.71794142969884e-05,0.0923885703086853,0,0,0
16192,567444.2900523613,2010-10-29 03:01:51,5252.649298636988,2,50,0.5501165986061096,4.186216831207275,48.62302255444296,47.82544462156678,194.3474293884756,174.08348853431454,6.47544875391759e-05,0.0923885703086853,0,0,0
16193,567474.3050632288,2010-10-29 03:02:21,5282.664309499444,2,50,0.5501165986061096,4.189939975738525,48.62760882431872,47.82544462156678,194.366637226739,174.08348853431454,0.0001295089750783,0.0923885703086853,0,0,0
16194,567504.3201645968,2010-10-29 03:02:51,5312.679410857445,2,50,0.5499359965324402,4.1935014724731445,48.63219482395687,47.82544462156678,194.38586052751253,174.08348853431454,6.47544875391759e-05,0.0923885703086853,0,0,0
16195,567534.3354664595,2010-10-29 03:03:21,5342.694712725176,2,50,0.5499359965324402,4.1972246170043945,48.63678035419278,47.82544462156678,194.40509848614627,174.08348853431454,9.70840483205393e-05,0.0923885703086853,0,0,0
16196,567556.022396858,2010-10-29 03:03:43,5364.381643143681,2,50,0.550297200679779,4.200138568878174,48.64009351113868,47.82544462156678,194.4190089018764,174.08348853431454,0.0001295089750783,0.0923885703086853,0,0,0
16197,567586.0671560529,2010-10-29 03:04:13,30.01524847967241,3,50,0.0,4.109321117401123,48.64009351113868,47.82544462156678,194.4190089018764,174.08348853431454,-0.0003885269106831,0.0923885703086853,0,0,0
16198,567616.082272674,2010-10-29 03:04:43,60.03036507565008,3,50,0.0,4.097826957702637,48.64009351113868,47.82544462156678,194.4190089018764,174.08348853431454,-0.0002590179501567,0.0923885703086853,0,0,0
16199,567646.0974055254,2010-10-29 03:05:13,90.04549794719145,3,50,0.0,4.090866088867188,48.64009351113868,47.82544462156678,194.4190089018764,174.08348853431454,-0.0001295089750783,0.0923885703086853,0,0,0
16200,567676.065688638,2010-10-29 03:05:43,120.0137810396681,3,50,0.0,4.086333274841309,48.64009351113868,47.82544462156678,194.4190089018764,174.08348853431454,-0.0001295089750783,0.0923885703086853,0,0,0
16201,567676.0970552427,2010-10-29 03:05:43,2.626546161e-06,4,50,1.0094059705734253,4.199976921081543,48.640093511875136,47.82544462156678,194.4190089049695,174.08348853431454,0.0,0.0923885703086853,0,0,0
16202,567676.5189398892,2010-10-29 03:05:44,0.421887287933002,4,50,0.9591966271400452,4.199814796447754,48.64020749391735,47.82544462156678,194.4194875992088,174.08348853431454,-3.24249267578125e-05,0.0923885703086853,0,0,0
16203,567678.3158012957,2010-10-29 03:05:46,2.21874871950091,4,50,0.9089872241020204,4.199653148651123,48.640672570119634,47.82544462156678,194.42144077751627,174.08348853431454,-6.47544875391759e-05,0.0923885703086853,0,0,0
16204,567681.253168248,2010-10-29 03:05:49,5.156115641676178,4,50,0.8587778806686401,4.199653148651123,48.64139286182337,47.82544462156678,194.42446580136465,174.08348853431454,-3.23295607813634e-05,0.0923885703086853,0,0,0
16205,567685.3937829889,2010-10-29 03:05:53,9.29673038264598,4,50,0.8087490797042847,4.199653148651123,48.642350778179605,47.82544462156678,194.42848882465145,174.08348853431454,-3.23295607813634e-05,0.0923885703086853,0,0,0
16206,567690.8311880655,2010-10-29 03:05:58,14.734135459144328,4,50,0.758720338344574,4.199653148651123,48.64353306477354,47.82544462156678,194.4334541430504,174.08348853431454,0.0,0.0923885703086853,0,0,0
16207,567697.9717146197,2010-10-29 03:06:05,21.87466201340263,4,50,0.7085109353065491,4.199653148651123,48.64498619829598,47.82544462156678,194.43955698149728,174.08348853431454,0.0,0.0923885703086853,0,0,0
16208,567707.3780206735,2010-10-29 03:06:15,31.28096818763688,4,50,0.6584821939468384,4.199814796447754,48.646769131399374,47.82544462156678,194.44704489729284,174.08348853431454,0.0,0.0923885703086853,0,0,0
16209,567720.2682305828,2010-10-29 03:06:28,44.17117800171196,4,50,0.6084533929824829,4.199653148651123,48.64903311465241,47.82544462156678,194.4565531457382,174.08348853431454,-3.23295607813634e-05,0.0923885703086853,0,0,0
16210,567739.7210153129,2010-10-29 03:06:47,63.62396270666893,4,50,0.5584246516227722,4.199491024017334,48.65217701670811,47.82544462156678,194.46975686746097,174.08348853431454,-6.47544875391759e-05,0.0923885703086853,0,0,0
16211,567772.1737118982,2010-10-29 03:07:19,96.07665929701716,4,50,0.5083958506584167,4.199653148651123,48.656965667103584,47.82544462156678,194.48986816016787,174.08348853431454,-3.23295607813634e-05,0.0923885703086853,0,0,0
16212,567833.2038829731,2010-10-29 03:08:21,157.10683036182485,4,50,0.4581864774227142,4.199814796447754,48.66512283386885,47.82544462156678,194.52412653093057,174.08348853431454,0.0,0.0923885703086853,0,0,0
16213,567933.6085288443,2010-10-29 03:10:01,257.51147623808566,4,50,0.4081577360630035,4.199653148651123,48.67717950516323,47.82544462156678,194.57476186973528,174.08348853431454,-3.23295607813634e-05,0.0923885703086853,0,0,0
16214,568063.731540427,2010-10-29 03:12:11,387.634487865912,4,50,0.3581289649009704,4.199814796447754,48.69101006994712,47.82544462156678,194.6328472377802,174.08348853431454,3.23295607813634e-05,0.0923885703086853,0,0,0
16215,568219.4320076742,2010-10-29 03:14:47,543.3349550680157,4,50,0.3081001937389374,4.199653148651123,48.705395199278186,47.82544462156678,194.69326170600772,174.08348853431454,0.0,0.0923885703086853,0,0,0
16216,568405.4915296822,2010-10-29 03:17:53,729.394477106018,4,50,0.2580714225769043,4.199653148651123,48.71999759583992,47.82544462156678,194.7545886114876,174.08348853431454,-3.23295607813634e-05,0.0923885703086853,0,0,0
16217,568632.3160414527,2010-10-29 03:21:40,956.2189888765076,4,50,0.20804263651371,4.199653148651123,48.73464614648876,47.82544462156678,194.8161093223172,174.08348853431454,-3.23295607813634e-05,0.0923885703086853,0,0,0
16218,568924.7018093913,2010-10-29 03:26:32,1248.604756784987,4,50,0.1580138802528381,4.199814796447754,48.7494689223167,47.82544462156678,194.87836200891567,174.08348853431454,0.0,0.0923885703086853,0,0,0
16219,569345.9764541088,2010-10-29 03:33:33,1669.8794015276535,4,50,0.1079851016402244,4.199653148651123,48.76488832706776,47.82544462156678,194.9431201236953,174.08348853431454,-3.23295607813634e-05,0.0923885703086853,0,0,0
16220,570099.3392486969,2010-10-29 03:46:07,2423.242196120716,4,50,0.0579563342034816,4.199653148651123,48.781684594827375,47.82544462156678,195.01366085402307,174.08348853431454,-3.23295607813634e-05,0.0923885703086853,0,0,0
16221,570300.3670343936,2010-10-29 03:49:28,2624.2699818173755,4,50,0.0498289167881011,4.199653148651123,48.78471374889859,47.82544462156678,195.0263826625101,174.08348853431454,-3.23295607813634e-05,0.0923885703086853,0,0,0
16222,570330.3622475778,2010-10-29 03:49:58,30.015072882029056,5,50,0.0,4.191235065460205,48.78471374889859,47.82544462156678,195.0263826625101,174.08348853431454,-9.71794142969884e-05,0.0923885703086853,0,0,0
16223,570360.3618014617,2010-10-29 03:50:28,60.01462686618958,5,50,0.0,4.1901021003723145,48.78471374889859,47.82544462156678,195.0263826625101,174.08348853431454,0.0,0.0923885703086853,0,0,0
16224,570360.530332881,2010-10-29 03:50:28,0.187472534239181,6,50,-1.9243103452026844e-05,4.189939975738525,48.78471374889859,47.82544462256889,195.0263826625101,174.08348853851328,0.0,0.0978845432400703,0,0,0
16225,570365.3585128862,2010-10-29 03:50:33,5.015652544418396,6,50,0.0007031940040178,4.189939975738525,48.784714781871614,47.82544462273729,195.02638699072511,174.08348853921885,-3.24249267578125e-05,0.0978845432400703,0,0,0
16226,570395.4019866704,2010-10-29 03:51:03,30.01553793107437,7,50,-1.099568486213684,3.99907660484314,48.78471478191863,47.83461172099024,195.02638699092213,174.1203623904443,-0.0010361194144934,0.0978845432400703,0,0,0
16227,570425.4167152744,2010-10-29 03:51:33,60.03026653004411,7,50,-1.099568486213684,3.969289779663086,48.78471478191863,47.8437784811535,195.02638699092213,174.1568751675229,-0.0006475448608398,0.0978845432400703,0,0,0
16228,570455.4318471887,2010-10-29 03:52:03,90.04539844419939,7,50,-1.0993878841400146,3.948244571685791,48.78471478191863,47.85294534678572,195.02638699092213,174.19315864365257,-0.0004856586456298,0.0978845432400703,0,0,0
16229,570485.4470310573,2010-10-29 03:52:33,120.06058231284123,7,50,-1.0997490882873535,3.931732177734375,48.78471478191863,47.86211222384418,195.02638699092213,174.22927360095426,-0.0004209041653666,0.0978845432400703,0,0,0
16230,570515.4621349316,2010-10-29 03:53:03,150.0756862422499,7,50,-1.0993878841400146,3.918457508087158,48.78471478191863,47.87127902418106,195.02638699092213,174.26525336835712,-0.0003237724304199,0.0978845432400703,0,0,0
16231,570545.4772694171,2010-10-29 03:53:33,180.090820677689,7,50,-1.099568486213684,3.90680193901062,48.78471478191863,47.88044590007669,195.02638699092213,174.30111938538536,-0.0003237724304199,0.0978845432400703,0,0,0
16232,570575.4924085994,2010-10-29 03:54:03,210.10595985494612,7,50,-1.0993878841400146,3.896441221237183,48.78471478191863,47.88961273012822,195.02638699092213,174.33688476014513,-0.0002590179501567,0.0978845432400703,0,0,0
16233,570605.5077806871,2010-10-29 03:54:33,240.12133204293772,7,50,-1.0993878841400146,3.886728048324585,48.78471478191863,47.89877963065858,195.02638699092213,174.37255821803095,-0.0002266406954731,0.0978845432400703,0,0,0
16234,570635.5226914751,2010-10-29 03:55:03,270.13624275579133,7,50,-1.0992072820663452,3.877662420272827,48.78471478191863,47.907946374644254,195.02638699092213,174.40814406167803,-0.0001942634553415,0.0978845432400703,0,0,0
16235,570665.5378345571,2010-10-29 03:55:33,300.1513858177304,7,50,-1.0993878841400146,3.8684349060058594,48.78471478191863,47.91711321373804,195.02638699092213,174.44364615077953,-0.0002266406954731,0.0978845432400703,0,0,0
16236,570695.5531383798,2010-10-29 03:56:03,330.1666896403344,7,50,-1.0993878841400146,3.8596930503845215,48.78471478191863,47.92628010613505,195.02638699092213,174.47906776307502,-0.0002266406954731,0.0978845432400703,0,0,0
16237,570725.5681142401,2010-10-29 03:56:33,360.18166549554275,7,50,-1.099568486213684,3.8514368534088135,48.78471478191863,47.93544694587354,195.02638699092213,174.5144110998911,-0.0002266406954731,0.0978845432400703,0,0,0
16238,570755.5832434375,2010-10-29 03:57:03,390.19679469292697,7,50,-1.0993878841400146,3.843342542648315,48.78471478191863,47.944613798907305,195.02638699092213,174.54967879961396,-0.0001942634553415,0.0978845432400703,0,0,0
16239,570785.5983816823,2010-10-29 03:57:33,420.21193293786047,7,50,-1.099568486213684,3.8352482318878174,48.78471478191863,47.95378072204175,195.02638699092213,174.58487250030305,-0.0001942634553415,0.0978845432400703,0,0,0
16240,570815.6136387284,2010-10-29 03:58:03,450.22718998889536,7,50,-1.099568486213684,3.827316045761109,48.78471478191863,47.96294761299704,195.02638699092213,174.6199931831493,-0.0002266406954731,0.0978845432400703,0,0,0
16241,570845.6288884211,2010-10-29 03:58:33,480.24243970164105,7,50,-1.099568486213684,3.8195455074310303,48.78471478191863,47.97211453959662,195.02638699092213,174.65504219651376,-0.0002266406954731,0.0978845432400703,0,0,0
16242,570875.6437969735,2010-10-29 03:59:03,510.2573482591227,7,50,-1.0993878841400146,3.811936855316162,48.78471478191863,47.98128140681934,195.02638699092213,174.69002119479782,-0.0002266406954731,0.0978845432400703,0,0,0
16243,570905.6589627871,2010-10-29 03:59:33,540.2725140677535,7,50,-1.099568486213684,3.804328203201294,48.78471478191863,47.9904482493265,195.02638699092213,174.72493039495214,-0.0002266406954731,0.0978845432400703,0,0,0
16244,570935.6740722052,2010-10-29 04:00:03,570.2876234607792,7,50,-1.099568486213684,3.797205209732056,48.78471478191863,47.99961506329981,195.02638699092213,174.75977187994494,-0.0001942634553415,0.0978845432400703,0,0,0
16245,570965.6892604247,2010-10-29 04:00:33,600.3028117203646,7,50,-1.0993878841400146,3.7900822162628174,48.78471478191863,48.00878192472896,195.02638699092213,174.79454704977567,-0.0001618862152099,0.0978845432400703,0,0,0
16246,570995.7044776817,2010-10-29 04:01:03,630.3180289421327,7,50,-1.0993878841400146,3.783121109008789,48.78471478191863,48.01794885028509,195.02638699092213,174.82925800923198,-0.0001295089750783,0.0978845432400703,0,0,0
16247,571025.7194853661,2010-10-29 04:01:33,660.3330366216571,7,50,-1.0993878841400146,3.7763218879699703,48.78471478191863,48.02711580264132,195.02638699092213,174.86390600539983,-0.0001618862152099,0.0978845432400703,0,0,0
16248,571055.7346356862,2010-10-29 04:02:03,690.3481869667479,7,50,-1.0993878841400146,3.769522666931152,48.78471478191863,48.03628274104711,195.02638699092213,174.8984918471302,-0.0001942634553415,0.0978845432400703,0,0,0
16249,571085.7499119149,2010-10-29 04:02:33,720.3634631705172,7,50,-1.0993878841400146,3.762885332107544,48.78471478191863,48.04544970148446,195.02638699092213,174.93301623479337,-0.0001618862152099,0.0978845432400703,0,0,0
16250,571115.7650616836,2010-10-29 04:03:03,750.378612954209,7,50,-1.099568486213684,3.7564098834991455,48.78471478191863,48.054616612997805,195.02638699092213,174.96748063425397,-0.0001942634553415,0.0978845432400703,0,0,0
16251,571145.7800725811,2010-10-29 04:03:33,780.3936238367162,7,50,-1.099568486213684,3.750096559524536,48.78471478191863,48.06378345505658,195.02638699092213,175.0018863816058,-0.0001618862152099,0.0978845432400703,0,0,0
16252,571175.7951916885,2010-10-29 04:04:03,810.4087429439527,7,50,-1.099568486213684,3.7439448833465576,48.78471478191863,48.07295040451967,195.02638699092213,175.0362356294569,-0.0001295089750783,0.0978845432400703,0,0,0
16253,571205.8104064842,2010-10-29 04:04:33,840.4239578599743,7,50,-1.099568486213684,3.737793207168579,48.78471478191863,48.08211738153066,195.02638699092213,175.07052869187746,-0.0001618862152099,0.0978845432400703,0,0,0
16254,571235.8254613813,2010-10-29 04:05:04,870.4390126368796,7,50,-1.0993878841400146,3.731965303421021,48.78471478191863,48.09128430295666,195.02638699092213,175.1047658740036,-0.0001618862152099,0.0978845432400703,0,0,0
16255,571265.8406080122,2010-10-29 04:05:34,900.4541592927758,7,50,-1.0993878841400146,3.726137399673462,48.78471478191863,48.10045114463769,195.02638699092213,175.13894888556348,-0.0001618862152099,0.0978845432400703,0,0,0
16256,571295.8559066819,2010-10-29 04:06:04,930.4694579825874,7,50,-1.0993878841400146,3.7203094959259033,48.78471478191863,48.109618115454936,195.02638699092213,175.1730794728074,-0.0001618862152099,0.0978845432400703,0,0,0
16257,571325.8708924117,2010-10-29 04:06:34,960.484443667294,7,50,-1.0992072820663452,3.7146434783935542,48.78471478191863,48.11878499450989,195.02638699092213,175.20715732980474,-0.0001618862152099,0.0978845432400703,0,0,0
16258,571355.8859990479,2010-10-29 04:07:04,990.4995503335236,7,50,-1.0992072820663452,3.709301233291626,48.78471478191863,48.127951889373314,195.02638699092213,175.24118393916922,-9.713172767078504e-05,0.0978845432400703,0,0,0
16259,571385.9011862198,2010-10-29 04:07:34,1020.5147374753232,7,50,-1.099568486213684,3.7034733295440674,48.78471478191863,48.13711880148253,195.02638699092213,175.27515935688157,-0.0001618862152099,0.0978845432400703,0,0,0
16260,571415.91632055,2010-10-29 04:08:04,1050.5298718055,7,50,-1.0993878841400146,3.6981310844421382,48.78471478191863,48.14628579591522,195.02638699092213,175.309084405729,-0.0001295089750783,0.0978845432400703,0,0,0
16261,571445.9314725943,2010-10-29 04:08:34,1080.545023874888,7,50,-1.0993878841400146,3.692626953125,48.78471478191863,48.15545276634982,195.02638699092213,175.3429594086127,-0.0001618862152099,0.0978845432400703,0,0,0
16262,571475.946837454,2010-10-29 04:09:04,1110.5603887546654,7,50,-1.099568486213684,3.6872847080230713,48.78471478191863,48.16461977617183,195.02638699092213,175.37678560125357,-0.0001295089750783,0.0978845432400703,0,0,0
16263,571505.9617488486,2010-10-29 04:09:34,1140.5753001091182,7,50,-1.0993878841400146,3.682104349136353,48.78471478191863,48.17378667129403,195.02638699092213,175.4105630899718,-0.0001295089750783,0.0978845432400703,0,0,0
16264,571535.9769138502,2010-10-29 04:10:04,1170.5904651358,7,50,-1.0993878841400146,3.676923990249634,48.78471478191863,48.182953659461226,195.02638699092213,175.444293288402,-0.0001618862152099,0.0978845432400703,0,0,0
16265,571565.9922493917,2010-10-29 04:10:34,1200.6058007676825,7,50,-1.0993878841400146,3.672067642211914,48.78471478191863,48.19212074119479,195.02638699092213,175.4779774838894,-9.70840483205393e-05,0.0978845432400703,0,0,0
16266,571596.007159809,2010-10-29 04:11:04,1230.6207110644991,7,50,-1.099568486213684,3.6668872833251953,48.78471478191863,48.20128768588155,195.02638699092213,175.51161527527609,-0.0001618862152099,0.0978845432400703,0,0,0
16267,571626.0222977983,2010-10-29 04:11:34,1260.6358490537957,7,50,-1.0993878841400146,3.662030696868897,48.78471478191863,48.21045467925914,195.02638699092213,175.54520813743136,-0.0001618862152099,0.0978845432400703,0,0,0
16268,571656.0374452611,2010-10-29 04:12:04,1290.6509965167031,7,50,-1.0993878841400146,3.6571741104125977,48.78471478191863,48.21962172777882,195.02638699092213,175.57875636039816,-0.0001295089750783,0.0978845432400703,0,0,0
16269,571686.05261518,2010-10-29 04:12:34,1320.666166435578,7,50,-1.099568486213684,3.652317523956299,48.78471478191863,48.22878874787831,195.02638699092213,175.61226008125195,-0.0001618862152099,0.0978845432400703,0,0,0
16270,571716.067866156,2010-10-29 04:13:04,1350.681417456584,7,50,-1.099568486213684,3.64762282371521,48.78471478191863,48.23795584565932,195.02638699092213,175.64572014552104,-0.0001618862152099,0.0978845432400703,0,0,0
16271,571746.0828865271,2010-10-29 04:13:34,1380.6964377826275,7,50,-1.0993878841400146,3.643090009689331,48.78471478191863,48.24712266993328,195.02638699092213,175.67913610923213,-0.0001295089750783,0.0978845432400703,0,0,0
16272,571776.0979907722,2010-10-29 04:14:04,1410.7115420278233,7,50,-1.0993878841400146,3.638395309448242,48.78471478191863,48.25628958436256,195.02638699092213,175.71251026851752,-9.713172767078504e-05,0.0978845432400703,0,0,0
16273,571806.113144942,2010-10-29 04:14:34,1440.726696197446,7,50,-1.099568486213684,3.6338624954223633,48.78471478191863,48.26545655095741,195.02638699092213,175.74584306305724,-0.0001295089750783,0.0978845432400703,0,0,0
16274,571836.1282655579,2010-10-29 04:15:04,1470.7418168385052,7,50,-1.099568486213684,3.6294915676116943,48.78471478191863,48.27462346829546,195.02638699092213,175.77913470285267,-0.0001295089750783,0.0978845432400703,0,0,0
16275,571866.143411527,2010-10-29 04:15:34,1500.7569627826274,7,50,-1.0993878841400146,3.6251206398010254,48.78471478191863,48.28379036435208,195.02638699092213,175.81238549414655,-0.0001295089750783,0.0978845432400703,0,0,0
16276,571896.1585483886,2010-10-29 04:16:04,1530.7720996391006,7,50,-1.0993878841400146,3.620749711990357,48.78471478191863,48.29295732797382,195.02638699092213,175.8455967033652,-0.0001295089750783,0.0978845432400703,0,0,0
16277,571926.1737182373,2010-10-29 04:16:34,1560.787269522888,7,50,-1.0993878841400146,3.6165406703948975,48.78471478191863,48.30212428299637,195.02638699092213,175.87876872475852,-0.0001295089750783,0.0978845432400703,0,0,0
16278,571956.1888529585,2010-10-29 04:17:04,1590.8024042089517,7,50,-1.0993878841400146,3.6126554012298575,48.78471478191863,48.31129119002492,195.02638699092213,175.91190240980177,-6.47544875391759e-05,0.0978845432400703,0,0,0
16279,571986.2066796587,2010-10-29 04:17:34,1620.8202309093433,7,50,-1.0993878841400146,3.6082844734191895,48.78471478191863,48.320458975262135,195.02638699092213,175.9450020210184,-0.0001618862152099,0.0978845432400703,0,0,0
16280,572016.2191078545,2010-10-29 04:18:04,1650.8326591451,7,50,-1.099568486213684,3.60456109046936,48.78471478191863,48.329625105388274,195.02638699092213,175.97805887361798,-6.47544875391759e-05,0.0978845432400703,0,0,0
16281,572046.2343875269,2010-10-29 04:18:34,1680.847938792452,7,50,-1.099568486213684,3.6006758213043213,48.78471478191863,48.33879214271666,195.02638699092213,176.01108351395058,-9.713172767078504e-05,0.0978845432400703,0,0,0
16282,572076.2496511292,2010-10-29 04:19:04,1710.8632025151146,7,50,-1.0993878841400146,3.5967905521392822,48.78471478191863,48.34795915753705,195.02638699092213,176.04407324465086,-0.0001295089750783,0.0978845432400703,0,0,0
16283,572106.2645264841,2010-10-29 04:19:34,1740.878077744533,7,50,-1.0993878841400146,3.593229055404663,48.78471478191863,48.35712606045947,195.02638699092213,176.0770281961682,-9.713172767078504e-05,0.0978845432400703,0,0,0
16284,572136.2797283576,2010-10-29 04:20:04,1770.8932796681731,7,50,-1.099568486213684,3.589505910873413,48.78471478191863,48.36629306816802,195.02638699092213,176.1099498401554,-0.0001295089750783,0.0978845432400703,0,0,0
16285,572166.2948546426,2010-10-29 04:20:34,1800.908405903174,7,50,-1.0993878841400146,3.586268186569214,48.78471478191863,48.3754600960013,195.02638699092213,176.14283850721824,-3.237724376958795e-05,0.0978845432400703,0,0,0
16286,572196.3100269224,2010-10-29 04:21:04,1830.9235782079952,7,50,-1.0993878841400146,3.5825448036193848,48.78471478191863,48.38462712780096,195.02638699092213,176.175694600036,-3.237724376958795e-05,0.0978845432400703,0,0,0
16287,572226.3250743609,2010-10-29 04:21:34,1860.9386256415992,7,50,-1.099568486213684,3.5789833068847656,48.78471478191863,48.39379409591712,195.02638699092213,176.20851845195548,-6.47544875391759e-05,0.0978845432400703,0,0,0
16288,572256.3402950414,2010-10-29 04:22:04,1890.953846352062,7,50,-1.099568486213684,3.5754218101501465,48.78471478191863,48.40296113551831,195.02638699092213,176.2413107945059,-0.0001295089750783,0.0978845432400703,0,0,0
16289,572286.3553803394,2010-10-29 04:22:34,1920.9689315898856,7,50,-1.0993878841400146,3.5721840858459477,48.78471478191863,48.41212808508746,195.02638699092213,176.27407229914613,-9.713172767078504e-05,0.0978845432400703,0,0,0
16290,572316.3708383312,2010-10-29 04:23:04,1950.984389757164,7,50,-1.099568486213684,3.568784475326538,48.78471478191863,48.42129515554856,195.02638699092213,176.3068039462555,-0.0001295089750783,0.0978845432400703,0,0,0
16291,572346.3856295111,2010-10-29 04:23:34,1980.9991807616675,7,50,-1.0993878841400146,3.565708637237549,48.78471478191863,48.43046198738288,195.02638699092213,176.3395046973038,-6.47544875391759e-05,0.0978845432400703,0,0,0
16292,572376.4009857794,2010-10-29 04:24:04,2011.014537050032,7,50,-1.099568486213684,3.56263279914856,48.78471478191863,48.43962897449935,195.02638699092213,176.37217606595638,-3.237724376958795e-05,0.0978845432400703,0,0,0
16293,572406.4159007279,2010-10-29 04:24:34,2041.029451983405,7,50,-1.0993878841400146,3.5592331886291504,48.78471478191863,48.44879589189674,195.02638699092213,176.4048183795807,-9.713172767078504e-05,0.0978845432400703,0,0,0
16294,572436.4312070116,2010-10-29 04:25:04,2071.0447582821803,7,50,-1.099568486213684,3.556157350540161,48.78471478191863,48.45796282123833,195.02638699092213,176.43743175107247,-9.713172767078504e-05,0.0978845432400703,0,0,0
16295,572466.4462153027,2010-10-29 04:25:34,2101.0597665581918,7,50,-1.099568486213684,3.552919626235962,48.78471478191863,48.46712983320339,195.02638699092213,176.47001651668205,-9.713172767078504e-05,0.0978845432400703,0,0,0
16296,572496.4613554123,2010-10-29 04:26:04,2131.074906667772,7,50,-1.0993878841400146,3.5500056743621826,48.78471478191863,48.47629685373962,195.02638699092213,176.50257253622584,-3.237724376958795e-05,0.0978845432400703,0,0,0
16297,572526.4767269035,2010-10-29 04:26:34,2161.090278284339,7,50,-1.0993878841400146,3.546606063842773,48.78471478191863,48.48546390886813,195.02638699092213,176.5351001258557,-9.713172767078504e-05,0.0978845432400703,0,0,0
16298,572556.4916478668,2010-10-29 04:27:04,2191.105199212653,7,50,-1.0993878841400146,3.543692111968994,48.78471478191863,48.49463090394011,195.02638699092213,176.56759867996502,-3.237724376958795e-05,0.0978845432400703,0,0,0
16299,572586.5067882171,2010-10-29 04:27:34,2221.1203394726085,7,50,-1.0993878841400146,3.540292501449585,48.78471478191863,48.50379783745942,195.02638699092213,176.60006827168831,-0.0001295089750783,0.0978845432400703,0,0,0
16300,572616.5219059107,2010-10-29 04:28:04,2251.135457166322,7,50,-1.0993878841400146,3.5373785495758057,48.78471478191863,48.51296475653146,195.02638699092213,176.6325089870633,-6.47544875391759e-05,0.0978845432400703,0,0,0
16301,572646.53708,2010-10-29 04:28:34,2281.1506312555907,7,50,-1.0993878841400146,3.5339789390563965,48.78471478191863,48.522131754248186,195.02638699092213,176.66492094921313,-9.713172767078504e-05,0.0978845432400703,0,0,0
16302,572676.5522317637,2010-10-29 04:29:04,2311.165783049292,7,50,-1.0993878841400146,3.5309031009674072,48.78471478191863,48.53129877141186,195.02638699092213,176.69730328839643,-6.47544875391759e-05,0.0978845432400703,0,0,0
16303,572706.567325613,2010-10-29 04:29:34,2341.180876868503,7,50,-1.0993878841400146,3.527341604232788,48.78471478191863,48.540465716206505,195.02638699092213,176.7296550594256,-0.0001295089750783,0.0978845432400703,0,0,0
16304,572736.5825845387,2010-10-29 04:30:04,2371.1961357992227,7,50,-1.0993878841400146,3.524103879928589,48.78471478191863,48.54963277641714,195.02638699092213,176.76197634840338,-6.47544875391759e-05,0.0978845432400703,0,0,0
16305,572766.59781164,2010-10-29 04:30:34,2401.211363025926,7,50,-1.099568486213684,3.5205423831939697,48.78471478191863,48.55879976077798,195.02638699092213,176.79426597739095,-0.0001295089750783,0.0978845432400703,0,0,0
16306,572796.612851224,2010-10-29 04:31:04,2431.226402504704,7,50,-1.099568486213684,3.5171427726745605,48.78471478191863,48.56796672085096,195.02638699092213,176.82652372751892,-6.47544875391759e-05,0.0978845432400703,0,0,0
16307,572826.6278744875,2010-10-29 04:31:34,2461.241425743005,7,50,-1.099568486213684,3.5134193897247314,48.78471478191863,48.57713376492581,195.02638699092213,176.85874914838587,-9.713172767078504e-05,0.0978845432400703,0,0,0
16308,572856.6430138953,2010-10-29 04:32:04,2491.2565651809127,7,50,-1.099568486213684,3.5098581314086914,48.78471478191863,48.58630067767558,195.02638699092213,176.89094034008673,-9.713172767078504e-05,0.0978845432400703,0,0,0
16309,572886.6586631989,2010-10-29 04:32:34,2521.2722145146363,7,50,-1.0997490882873535,3.5058109760284424,48.78471478191863,48.59546786113491,195.02638699092213,176.9230972098414,-9.713172767078504e-05,0.0978845432400703,0,0,0
16310,572916.6732921295,2010-10-29 04:33:04,2551.286843385052,7,50,-1.0993878841400146,3.5017638206481934,48.78471478191863,48.60463474486762,195.02638699092213,176.95521646271928,-0.0001295089750783,0.0978845432400703,0,0,0
16311,572946.6886567086,2010-10-29 04:33:34,2581.3022081144545,7,50,-1.099568486213684,3.4972310066223145,48.78471478191863,48.61380178861218,195.02638699092213,176.98729770276066,-0.0001942634553415,0.0978845432400703,0,0,0
16312,572976.7035663486,2010-10-29 04:34:04,2611.3171176343344,7,50,-1.0993878841400146,3.4930219650268555,48.78471478191863,48.62296872923606,195.02638699092213,177.019337794081,-6.47544875391759e-05,0.0978845432400703,0,0,0
16313,573006.7188688881,2010-10-29 04:34:34,2641.332420148678,7,50,-1.099568486213684,3.4880034923553467,48.78471478191863,48.63213580888512,195.02638699092213,177.05133476729554,-0.0001295089750783,0.0978845432400703,0,0,0
16314,573036.7339764215,2010-10-29 04:35:04,2671.347527692094,7,50,-1.0993878841400146,3.482661247253418,48.78471478191863,48.64130286666334,195.02638699092213,177.08328484642809,-0.0001295089750783,0.0978845432400703,0,0,0
16315,573066.7489754295,2010-10-29 04:35:34,2701.362526694993,7,50,-1.0993878841400146,3.47683334350586,48.78471478191863,48.65046982681821,195.02638699092213,177.11518381512724,-0.0001618862152099,0.0978845432400703,0,0,0
16316,573096.7641148523,2010-10-29 04:36:04,2731.377666107838,7,50,-1.0993878841400146,3.470357894897461,48.78471478191863,48.65963669314964,195.02638699092213,177.14702677864844,-0.0001942634553415,0.0978845432400703,0,0,0
16317,573126.7792720294,2010-10-29 04:36:34,2761.392823310019,7,50,-1.099568486213684,3.4633967876434326,48.78471478191863,48.66880369970352,195.02638699092213,177.1788083830454,-0.0002266406954731,0.0978845432400703,0,0,0
16318,573156.7944001141,2010-10-29 04:37:05,2791.407951399642,7,50,-1.0992072820663452,3.4551405906677246,48.78471478191863,48.67797069038177,195.02638699092213,177.21051932966847,-0.0001942634553415,0.0978845432400703,0,0,0
16319,573186.8095620179,2010-10-29 04:37:35,2821.423113273466,7,50,-1.0993878841400146,3.445751190185547,48.78471478191863,48.68713771987542,195.02638699092213,177.2421501247084,-0.0002590179501567,0.0978845432400703,0,0,0
16320,573216.8247039119,2010-10-29 04:38:05,2851.438255192557,7,50,-1.099568486213684,3.434742927551269,48.78471478191863,48.69630466381268,195.02638699092213,177.27368793129898,-0.0002913951757363,0.0978845432400703,0,0,0
16321,573246.8399583865,2010-10-29 04:38:35,2881.453509677196,7,50,-1.0993878841400146,3.421792268753052,48.78471478191863,48.70547174134446,195.02638699092213,177.30511666612497,-0.0003561496851034,0.0978845432400703,0,0,0
16322,573276.8551182704,2010-10-29 04:39:05,2911.468669746522,7,50,-1.0993878841400146,3.405927419662476,48.78471478191863,48.71463879530421,195.02638699092213,177.3364147951862,-0.0005180359003134,0.0978845432400703,0,0,0
16323,573306.8700913286,2010-10-29 04:39:35,2941.48364258421,7,50,-1.0993878841400146,3.38698673248291,48.78471478191863,48.72380571220318,195.02638699092213,177.36755343611833,-0.0005180359003134,0.0978845432400703,0,0,0
16324,573336.8852331425,2010-10-29 04:40:05,2971.498784428113,7,50,-1.0993878841400146,3.362703800201416,48.78471478191863,48.73297271322695,195.02638699092213,177.39849500522018,-0.0007122993702068,0.0978845432400703,0,0,0
16325,573366.9003847257,2010-10-29 04:40:35,3001.5139359812147,7,50,-1.0997490882873535,3.3314599990844727,48.78471478191863,48.74213977019495,195.02638699092213,177.42918386531446,-0.0009065627818927,0.0978845432400703,0,0,0
16326,573396.9155111512,2010-10-29 04:41:05,3031.52906240669,7,50,-1.099568486213684,3.289207696914673,48.78471478191863,48.75130677563922,195.02638699092213,177.45953952533773,-0.0012627125252038,0.0978845432400703,0,0,0
16327,573426.9306718771,2010-10-29 04:41:35,3061.5442231326538,7,50,-1.0993878841400146,3.231576442718506,48.78471478191863,48.76047379215563,195.02638699092213,177.48944296037646,-0.0017807483673095,0.0978845432400703,0,0,0
16328,573456.9457936761,2010-10-29 04:42:05,3091.559344931599,7,50,-1.099568486213684,3.148043394088745,48.78471478191863,48.76964125297916,195.02638699092213,177.51871059480277,-0.0026549338363111,0.0978845432400703,0,0,0
16329,573486.9611695884,2010-10-29 04:42:35,3121.57472083886,7,50,-1.0997490882873535,3.016754150390625,48.78471478191863,48.77880909225452,195.02638699092213,177.5470238206034,-0.0044356347061693,0.0978845432400703,0,0,0
16330,573511.1480604274,2010-10-29 04:42:59,3145.761611682964,7,50,-1.099568486213684,2.816339492797852,48.78471478191863,48.78619673412797,195.02638699092213,177.56865052773298,-0.0085152145475149,0.0978845432400703,0,0,0
16331,573520.7572518742,2010-10-29 04:43:08,3155.3708031297238,7,50,-1.099568486213684,2.699943780899048,48.78471478191863,48.78913177999472,195.02638699092213,177.57675057220038,-0.0101340292021632,0.0978845432400703,0,0,0
16332,573580.7885392172,2010-10-29 04:44:09,60.01465003894321,8,50,0.0,3.368693590164185,48.78471478191863,48.78913177999472,195.02638699092213,177.57675057220038,0.0012627125252038,0.0978845432400703,0,0,0
16333,573580.9939016047,2010-10-29 04:44:09,0.187756637311453,9,50,-1.9243103452026844e-05,3.3688554763793945,48.78471478191863,48.78913178099834,195.02638699092213,177.57675057558143,0.0,0.0939245000481605,0,0,0
16334,573585.8217787651,2010-10-29 04:44:14,5.015633752583361,9,50,0.0008838032954372,3.3769497871398926,48.78471572015184,48.78913178108062,195.02639015615128,177.57675057585865,0.0011655807029455,0.0939245000481605,0,0,0
