Data_Point,Test_Time(s),Date_Time,Step_Time(s),Step_Index,Cycle_Index,Current(A),Voltage(V),Charge_Capacity(Ah),Discharge_Capacity(Ah),Charge_Energy(Wh),Discharge_Energy(Wh),dV/dt(V/s),Internal_Resistance(Ohm),Is_FC_Data,AC_Impedance(Ohm),ACI_Phase_Angle(Deg)
8875,308861.5140318819,2010-10-26 03:11:40,30.015205156698237,1,28,0.0,3.3573615550994877,26.427283975331463,26.447972948726427,105.56569835409412,96.38990005772524,0.0007446765666827,0.0915781408548355,0,0,0
8876,308891.5293395491,2010-10-26 03:12:10,60.03051283390912,1,28,0.0,3.3809969425201416,26.427283975331463,26.447972948726427,105.56569835409412,96.38990005772524,0.0005827903514727,0.0915781408548355,0,0,0
8877,308921.544434486,2010-10-26 03:12:40,90.04560779095593,1,28,0.0,3.3988044261932373,26.427283975331463,26.447972948726427,105.56569835409412,96.38990005772524,0.0004209041653666,0.0915781408548355,0,0,0
8878,308951.512765117,2010-10-26 03:13:10,120.01393839183812,1,28,0.0,3.412888526916504,26.427283975331463,26.447972948726427,105.56569835409412,96.38990005772524,0.0003237724304199,0.0915781408548355,0,0,0
8879,308981.51744580315,2010-10-26 03:13:40,30.01519581842438,2,28,0.5499359965324402,3.572507858276367,26.431869652255624,26.447972948726427,105.58190774451964,96.38990005772524,0.0017807483673095,0.0915781408548355,0,0,0
8880,309011.5325263894,2010-10-26 03:14:10,60.03027639964218,2,28,0.5501165986061096,3.623987436294556,26.4364552458307,26.447972948726427,105.59841433288356,96.38990005772524,0.0011655807029455,0.0915781408548355,0,0,0
8881,309041.547866312,2010-10-26 03:14:40,90.0456163623184,2,28,0.5499359965324402,3.661706924438477,26.441040964431465,26.447972948726427,105.61512308771098,96.38990005772524,0.0009065627818927,0.0915781408548355,0,0,0
8882,309071.56291907886,2010-10-26 03:15:10,120.06066909412692,2,28,0.5501165986061096,3.6914937496185294,26.44562663401,26.447972948726427,105.6319851102463,96.38990005772524,0.0007446765666827,0.0915781408548355,0,0,0
8883,309101.5781821499,2010-10-26 03:15:40,150.07593216516548,2,28,0.5501165986061096,3.7159385681152335,26.45021223960024,26.447972948726427,105.64897036090451,96.38990005772524,0.0006151676061563,0.0915781408548355,0,0,0
8884,309131.5933471114,2010-10-26 03:16:10,180.09109712668496,2,28,0.5499359965324402,3.73617434501648,26.45479783469772,26.447972948726427,105.66605769033248,96.38990005772524,0.0004856586456298,0.0915781408548355,0,0,0
8885,309161.6086236109,2010-10-26 03:16:40,210.10637363621643,2,28,0.5501165986061096,3.7528486251831055,26.45938339121091,26.447972948726427,105.68322923638732,96.38990005772524,0.0004209041653666,0.0915781408548355,0,0,0
8886,309191.62628489407,2010-10-26 03:17:10,240.1240350145748,2,28,0.5501165986061096,3.7643423080444336,26.46396927197804,26.447972948726427,105.70046735835275,96.38990005772524,0.0002590179501567,0.0915781408548355,0,0,0
8887,309221.6391346253,2010-10-26 03:17:40,270.1368846806657,2,28,0.5501165986061096,3.771303415298462,26.46855449982149,26.447972948726427,105.71774508102509,96.38990005772524,0.0001942634553415,0.0915781408548355,0,0,0
8888,309251.65411073616,2010-10-26 03:18:10,300.15186087171105,2,28,0.5501165986061096,3.775836229324341,26.473140003058013,26.447972948726427,105.73504913873424,96.38990005772524,9.713172767078504e-05,0.0915781408548355,0,0,0
8889,309281.66927057493,2010-10-26 03:18:40,330.1670205901632,2,28,0.5501165986061096,3.77972149848938,26.477725490964573,26.447972948726427,105.75237189767,96.38990005772524,0.0001295089750783,0.0915781408548355,0,0,0
8890,309311.6844950748,2010-10-26 03:19:10,360.18224512014564,2,28,0.5499359965324402,3.783282995223999,26.48231109623501,26.447972948726427,105.76971210800453,96.38990005772524,0.0001295089750783,0.0915781408548355,0,0,0
8891,309341.69976475736,2010-10-26 03:19:40,390.19751491794926,2,28,0.5499359965324402,3.786844491958618,26.48689663984403,26.447972948726427,105.78706850919336,96.38990005772524,0.0001295089750783,0.0915781408548355,0,0,0
8892,309371.71508365753,2010-10-26 03:20:10,420.2128336928191,2,28,0.5497553944587708,3.7902441024780273,26.49148226084233,26.447972948726427,105.80444131336805,96.38990005772524,6.47544875391759e-05,0.0915781408548355,0,0,0
8893,309401.73007578327,2010-10-26 03:20:40,450.2278257935161,2,28,0.5499359965324402,3.7938055992126474,26.49606788732904,26.447972948726427,105.82182985806712,96.38990005772524,9.713172767078504e-05,0.0915781408548355,0,0,0
8894,309431.7453589544,2010-10-26 03:21:10,480.2431090899626,2,28,0.5497553944587708,3.796881437301636,26.500653538051942,26.447972948726427,105.83923385240335,96.38990005772524,9.713172767078504e-05,0.0915781408548355,0,0,0
8895,309461.7604554853,2010-10-26 03:21:40,510.2582055206824,2,28,0.5499359965324402,3.800119161605835,26.50523915081841,26.447972948726427,105.85665269982236,96.38990005772524,6.47544875391759e-05,0.0915781408548355,0,0,0
8896,309491.77566288767,2010-10-26 03:22:10,540.2734129229773,2,28,0.5499359965324402,3.803356885910034,26.50982483453119,26.447972948726427,105.87408650412766,96.38990005772524,6.47544875391759e-05,0.0915781408548355,0,0,0
8897,309521.7908469518,2010-10-26 03:22:40,570.2885969921189,2,28,0.5499359965324402,3.806432723999024,26.514410499393662,26.447972948726427,105.89153468298724,96.38990005772524,6.47544875391759e-05,0.0915781408548355,0,0,0
8898,309551.8060647901,2010-10-26 03:23:10,600.3038148003486,2,28,0.5499359965324402,3.8095085620880127,26.51899618822312,26.447972948726427,105.90899717105032,96.38990005772524,9.713172767078504e-05,0.0915781408548355,0,0,0
8899,309581.82124351594,2010-10-26 03:23:40,630.318993556248,2,28,0.5499359965324402,3.812746286392212,26.523581835223847,26.447972948726427,105.92647354697992,96.38990005772524,0.0001295089750783,0.0915781408548355,0,0,0
8900,309611.8364480962,2010-10-26 03:24:10,660.3341981064345,2,28,0.5501165986061096,3.815660238265991,26.52816747677288,26.447972948726427,105.94396429224258,96.38990005772524,9.713172767078504e-05,0.0915781408548355,0,0,0
8901,309641.8516366916,2010-10-26 03:24:40,690.3493867068695,2,28,0.5497553944587708,3.8188979625701904,26.532753041404725,26.447972948726427,105.96146881014032,96.38990005772524,9.713172767078504e-05,0.0915781408548355,0,0,0
8902,309671.866955672,2010-10-26 03:25:10,720.3647057123137,2,28,0.5499359965324402,3.82197380065918,26.53733866215304,26.447972948726427,105.97898775028294,96.38990005772524,6.47544875391759e-05,0.0915781408548355,0,0,0
8903,309701.88203301514,2010-10-26 03:25:40,750.3797830404238,2,28,0.550297200679779,3.825211524963379,26.5419242333786,26.447972948726427,105.9965209135804,96.38990005772524,0.0001295089750783,0.0915781408548355,0,0,0
8904,309731.897240252,2010-10-26 03:26:10,780.3949902672814,2,28,0.5499359965324402,3.828449249267578,26.546509888712027,26.447972948726427,106.01406925003916,96.38990005772524,9.713172767078504e-05,0.0915781408548355,0,0,0
8905,309761.9125828062,2010-10-26 03:26:40,810.4103328314415,2,28,0.5501165986061096,3.8318488597869873,26.55109552567007,26.447972948726427,106.03163273750724,96.38990005772524,9.713172767078504e-05,0.0915781408548355,0,0,0
8906,309791.9276227511,2010-10-26 03:27:10,840.4253727613436,2,28,0.5499359965324402,3.8352482318878174,26.555681067262768,26.447972948726427,106.04921129568372,96.38990005772524,9.713172767078504e-05,0.0915781408548355,0,0,0
8907,309821.9428330907,2010-10-26 03:27:40,870.4405830959469,2,28,0.5499359965324402,3.8386478424072266,26.56026670138249,26.447972948726427,106.06680587369416,96.38990005772524,0.0001295089750783,0.0915781408548355,0,0,0
8908,309851.9580640718,2010-10-26 03:28:10,900.4558141070823,2,28,0.5501165986061096,3.842047452926636,26.564852306196048,26.447972948726427,106.08441607764068,96.38990005772524,6.47544875391759e-05,0.0915781408548355,0,0,0
8909,309881.9732154946,2010-10-26 03:28:40,930.4709655649466,2,28,0.5499359965324402,3.845285177230835,26.569437847134942,26.447972948726427,106.10204157504717,96.38990005772524,6.47544875391759e-05,0.0915781408548355,0,0,0
8910,309911.9886226347,2010-10-26 03:29:10,960.4863727702118,2,28,0.5501165986061096,3.848684787750244,26.57402353006532,26.447972948726427,106.11968298893068,96.38990005772524,9.713172767078504e-05,0.0915781408548355,0,0,0
8911,309942.00362080045,2010-10-26 03:29:40,990.5013708458004,2,28,0.5499359965324402,3.852084398269653,26.578609133438498,26.447972948726427,106.13733922251444,96.38990005772524,9.713172767078504e-05,0.0915781408548355,0,0,0
8912,309972.0188354408,2010-10-26 03:30:10,1020.5165854560596,2,28,0.5501165986061096,3.855322122573853,26.583194699908717,26.447972948726427,106.15501010562674,96.38990005772524,9.713172767078504e-05,0.0915781408548355,0,0,0
8913,310002.0339840616,2010-10-26 03:30:40,1050.5317340768531,2,28,0.5499359965324402,3.858236074447632,26.58778031800813,26.447972948726427,106.1726957982652,96.38990005772524,9.713172767078504e-05,0.0915781408548355,0,0,0
8914,310032.0491817497,2010-10-26 03:31:10,1080.5469317649372,2,28,0.5499359965324402,3.861311912536621,26.592365912835717,26.447972948726427,106.1903956336802,96.38990005772524,6.47544875391759e-05,0.0915781408548355,0,0,0
8915,310062.0644189613,2010-10-26 03:31:41,1110.5621690066007,2,28,0.5497553944587708,3.8642258644104,26.59695145521892,26.447972948726427,106.20810910513102,96.38990005772524,6.47544875391759e-05,0.0915781408548355,0,0,0
8916,310092.07970294944,2010-10-26 03:32:11,1140.577453079984,2,28,0.5501165986061096,3.8673017024993896,26.60153700359052,26.447972948726427,106.22583594555284,96.38990005772524,9.713172767078504e-05,0.0915781408548355,0,0,0
8917,310122.09494601056,2010-10-26 03:32:41,1170.5926960358895,2,28,0.5497553944587708,3.869891881942749,26.60612256738052,26.447972948726427,106.24357577393054,96.38990005772524,6.47544875391759e-05,0.0915781408548355,0,0,0
8918,310152.11004699767,2010-10-26 03:33:11,1200.60779701294,2,28,0.5499359965324402,3.8726439476013184,26.61070815569914,26.447972948726427,106.26132807252368,96.38990005772524,6.47544875391759e-05,0.0915781408548355,0,0,0
8919,310182.1253236576,2010-10-26 03:33:41,1230.623073682871,2,28,0.5499359965324402,3.875072240829468,26.61529378079973,26.447972948726427,106.27909221925692,96.38990005772524,6.47544875391759e-05,0.0915781408548355,0,0,0
8920,310212.1404021235,2010-10-26 03:34:11,1260.6381521638546,2,28,0.5499359965324402,3.877500534057617,26.619879270962667,26.447972948726427,106.2968669918567,96.38990005772524,6.47544875391759e-05,0.0915781408548355,0,0,0
8921,310242.1555867441,2010-10-26 03:34:41,1290.6533367643203,2,28,0.5499359965324402,3.8797669410705566,26.624464758683324,26.447972948726427,106.31465233039172,96.38990005772524,6.47544875391759e-05,0.0915781408548355,0,0,0
8922,310272.17095946334,2010-10-26 03:35:11,1320.6687094786237,2,28,0.5501165986061096,3.881871461868286,26.629050277433056,26.447972948726427,106.33244769550129,96.38990005772524,6.47544875391759e-05,0.0915781408548355,0,0,0
8923,310302.1860467914,2010-10-26 03:35:41,1350.6837968066566,2,28,0.5501165986061096,3.8838140964508057,26.63363577866957,26.447972948726427,106.35025227299543,96.38990005772524,3.237724376958795e-05,0.0915781408548355,0,0,0
8924,310332.20143807697,2010-10-26 03:36:11,1380.699188212545,2,28,0.5501165986061096,3.8855948448181152,26.638221373034217,26.447972948726427,106.36806581776216,96.38990005772524,3.237724376958795e-05,0.0915781408548355,0,0,0
8925,310362.2164339571,2010-10-26 03:36:41,1410.7141839974242,2,28,0.5501165986061096,3.887213706970215,26.64280689303454,26.447972948726427,106.38588718678052,96.38990005772524,3.237724376958795e-05,0.0915781408548355,0,0,0
8926,310392.2316415449,2010-10-26 03:37:11,1440.7293915551063,2,28,0.5501165986061096,3.888994455337525,26.647392427172544,26.447972948726427,106.40371614670308,96.38990005772524,6.47544875391759e-05,0.0915781408548355,0,0,0
8927,310422.2468853228,2010-10-26 03:37:41,1470.7446354533606,2,28,0.5501165986061096,3.890613317489624,26.65197806950865,26.447972948726427,106.42155263344767,96.38990005772524,6.47544875391759e-05,0.0915781408548355,0,0,0
8928,310452.26204820414,2010-10-26 03:38:11,1500.7597982194084,2,28,0.5499359965324402,3.8917465209960938,26.65656368318311,26.447972948726427,106.43939573607284,96.38990005772524,3.237724376958795e-05,0.0915781408548355,0,0,0
8929,310482.27729277406,2010-10-26 03:38:41,1530.7750427893366,2,28,0.5501165986061096,3.893203496932984,26.661149295684496,26.447972948726427,106.4572453340911,96.38990005772524,3.237724376958795e-05,0.0915781408548355,0,0,0
8930,310512.29241533496,2010-10-26 03:39:11,1560.7901653501804,2,28,0.5501165986061096,3.894498586654663,26.66573488229793,26.447972948726427,106.47510110089364,96.38990005772524,3.237724376958795e-05,0.0915781408548355,0,0,0
8931,310542.30760270223,2010-10-26 03:39:41,1590.8053527225547,2,28,0.5499359965324402,3.895631790161133,26.67032045660924,26.447972948726427,106.4929624791166,96.38990005772524,3.237724376958795e-05,0.0915781408548355,0,0,0
8932,310572.32281679625,2010-10-26 03:40:11,1620.8205668365774,2,28,0.5499359965324402,3.897250652313232,26.674906009494784,26.447972948726427,106.51082988241514,96.38990005772524,6.47544875391759e-05,0.0915781408548355,0,0,0
8933,310602.338148338,2010-10-26 03:40:41,1650.8358983532034,2,28,0.5501165986061096,3.898383855819702,26.67949158196244,26.447972948726427,106.52870325409658,96.38990005772524,3.237724376958795e-05,0.0915781408548355,0,0,0
8934,310632.3532281272,2010-10-26 03:41:11,1680.8509781624973,2,28,0.5499359965324402,3.899678945541382,26.684077076049903,26.447972948726427,106.54658229606272,96.38990005772524,3.237724376958795e-05,0.0915781408548355,0,0,0
8935,310662.3683955298,2010-10-26 03:41:41,1710.8661455450508,2,28,0.5501165986061096,3.9009740352630615,26.688662631221085,26.447972948726427,106.56446740619864,96.38990005772524,0.0,0.0915781408548355,0,0,0
8936,310692.3836057591,2010-10-26 03:42:11,1740.8813557743915,2,28,0.5499359965324402,3.902269124984741,26.69324818235812,26.447972948726427,106.58235842846422,96.38990005772524,3.237724376958795e-05,0.0915781408548355,0,0,0
8937,310722.3987901791,2010-10-26 03:42:41,1770.8965401944076,2,28,0.5499359965324402,3.903564214706421,26.69783366915277,26.447972948726427,106.60025509786452,96.38990005772524,3.237724376958795e-05,0.0915781408548355,0,0,0
8938,310752.4139926541,2010-10-26 03:43:11,1800.9117426994972,2,28,0.5501165986061096,3.9048593044281006,26.70241922367526,26.447972948726427,106.61815804515848,96.38990005772524,3.237724376958795e-05,0.0915781408548355,0,0,0
8939,310782.4292121616,2010-10-26 03:43:41,1830.9269622019497,2,28,0.5501165986061096,3.9063162803649902,26.70700483809945,26.447972948726427,106.63606699854118,96.38990005772524,6.47544875391759e-05,0.0915781408548355,0,0,0
8940,310812.4444955032,2010-10-26 03:44:11,1860.942245613683,2,28,0.5499359965324402,3.90744948387146,26.71159040149409,26.447972948726427,106.65398181759986,96.38990005772524,0.0,0.0915781408548355,0,0,0
8941,310842.45970389794,2010-10-26 03:44:41,1890.9574539132143,2,28,0.5497553944587708,3.90874457359314,26.71617597059757,26.447972948726427,106.67190263781352,96.38990005772524,3.237724376958795e-05,0.0915781408548355,0,0,0
8942,310872.4749023479,2010-10-26 03:45:11,1920.9726524133223,2,28,0.5499359965324402,3.910201549530029,26.720761594632982,26.447972948726427,106.68982977458391,96.38990005772524,6.47544875391759e-05,0.0915781408548355,0,0,0
8943,310902.4899789292,2010-10-26 03:45:41,1950.9877289444464,2,28,0.5501165986061096,3.911496639251709,26.725347201333587,26.447972948726427,106.70776290328688,96.38990005772524,6.47544875391759e-05,0.0915781408548355,0,0,0
8944,310932.5051847074,2010-10-26 03:46:11,1981.0029347427435,2,28,0.5499359965324402,3.9126298427581783,26.72993275039309,26.447972948726427,106.7257019814577,96.38990005772524,0.0,0.0915781408548355,0,0,0
8945,310962.5203725911,2010-10-26 03:46:41,2011.0181226013297,2,28,0.5497553944587708,3.9139246940612793,26.73451827128369,26.447972948726427,106.74364710685524,96.38990005772524,0.0,0.0915781408548355,0,0,0
8946,310992.5355804345,2010-10-26 03:47:11,2041.033330449736,2,28,0.5499359965324402,3.915381669998169,26.73910392919035,26.447972948726427,106.76159910765102,96.38990005772524,0.0,0.0915781408548355,0,0,0
8947,311022.55079643824,2010-10-26 03:47:41,2071.048546473519,2,28,0.5501165986061096,3.9168386459350586,26.74368947558741,26.447972948726427,106.77955671699677,96.38990005772524,6.47544875391759e-05,0.0915781408548355,0,0,0
8948,311052.5659792442,2010-10-26 03:48:11,2101.0637292544498,2,28,0.5497553944587708,3.9181337356567374,26.748275051882416,26.447972948726427,106.79752094751692,96.38990005772524,0.0,0.0915781408548355,0,0,0
8949,311082.5811658998,2010-10-26 03:48:41,2131.078915915049,2,28,0.5497553944587708,3.919590711593628,26.752860624063324,26.447972948726427,106.81549151545698,96.38990005772524,3.237724376958795e-05,0.0915781408548355,0,0,0
8950,311112.5989558837,2010-10-26 03:49:11,2161.09670601422,2,28,0.5499359965324402,3.9210476875305176,26.757446513791617,26.447972948726427,106.83346975785518,96.38990005772524,6.47544875391759e-05,0.0915781408548355,0,0,0
8951,311142.61190469185,2010-10-26 03:49:41,2191.1096547371912,2,28,0.5499359965324402,3.922342777252197,26.76203174715929,26.447972948726427,106.85145189898444,96.38990005772524,0.0,0.0915781408548355,0,0,0
8952,311172.62677337,2010-10-26 03:50:11,2221.124523375181,2,28,0.5501165986061096,3.923961639404297,26.76661724702898,26.447972948726427,106.86944166740942,96.38990005772524,3.237724376958795e-05,0.0915781408548355,0,0,0
8953,311202.6419515544,2010-10-26 03:50:41,2251.1397015696816,2,28,0.5499359965324402,3.9254186153411865,26.771202772389668,26.447972948726427,106.8874381681801,96.38990005772524,6.47544875391759e-05,0.0915781408548355,0,0,0
8954,311232.65716791904,2010-10-26 03:51:11,2281.1549179343133,2,28,0.5499359965324402,3.926713705062866,26.77578839586755,26.447972948726427,106.90544160233968,96.38990005772524,3.237724376958795e-05,0.0915781408548355,0,0,0
8955,311262.6723634317,2010-10-26 03:51:41,2311.17011347705,2,28,0.5499359965324402,3.928332567214966,26.78037396085315,26.447972948726427,106.9234515738343,96.38990005772524,6.47544875391759e-05,0.0915781408548355,0,0,0
8956,311292.6878159299,2010-10-26 03:52:11,2341.185565965174,2,28,0.5501165986061096,3.929789543151856,26.784959585277644,26.447972948726427,106.94146848430724,96.38990005772524,6.47544875391759e-05,0.0915781408548355,0,0,0
8957,311322.7027558906,2010-10-26 03:52:41,2371.2005059058733,2,28,0.5501165986061096,3.931246519088745,26.789545194684017,26.447972948726427,106.95949215301764,96.38990005772524,6.47544875391759e-05,0.0915781408548355,0,0,0
8958,311352.7179432229,2010-10-26 03:53:11,2401.2156932682224,2,28,0.5499359965324402,3.932541608810425,26.794130795041383,26.447972948726427,106.97752258283344,96.38990005772524,0.0,0.0915781408548355,0,0,0
8959,311382.73326235864,2010-10-26 03:53:41,2431.231012373916,2,28,0.5497553944587708,3.9343223571777344,26.79871647189749,26.447972948726427,106.99556020932737,96.38990005772524,6.47544875391759e-05,0.0915781408548355,0,0,0
8960,311412.7483697717,2010-10-26 03:54:11,2461.2461197870075,2,28,0.5499359965324402,3.935617446899414,26.80330203759079,26.447972948726427,107.01360435189798,96.38990005772524,0.0,0.0915781408548355,0,0,0
8961,311442.76359030174,2010-10-26 03:54:41,2491.2613404373205,2,28,0.5499359965324402,3.9372363090515137,26.807887622252,26.447972948726427,107.031655397328,96.38990005772524,3.237724376958795e-05,0.0915781408548355,0,0,0
8962,311472.7787426819,2010-10-26 03:55:11,2521.276492697184,2,28,0.5499359965324402,3.938855171203613,26.81247324375177,26.447972948726427,107.049713797534,96.38990005772524,6.47544875391759e-05,0.0915781408548355,0,0,0
8963,311502.7939314678,2010-10-26 03:55:41,2551.291681483081,2,28,0.5499359965324402,3.940312147140503,26.817058863950702,26.447972948726427,107.06777927407224,96.38990005772524,3.237724376958795e-05,0.0915781408548355,0,0,0
8964,311532.8092231001,2010-10-26 03:56:11,2581.3069732305903,2,28,0.5499359965324402,3.942092895507813,26.821644457214145,26.447972948726427,107.08585178227652,96.38990005772524,6.47544875391759e-05,0.0915781408548355,0,0,0
8965,311562.82432743046,2010-10-26 03:56:41,2611.322077465761,2,28,0.5499359965324402,3.943549871444702,26.82623002871976,26.447972948726427,107.1039314519372,96.38990005772524,6.47544875391759e-05,0.0915781408548355,0,0,0
8966,311592.83964923286,2010-10-26 03:57:11,2641.337399248126,2,28,0.5499359965324402,3.945006847381592,26.830815637080605,26.447972948726427,107.12201851066108,96.38990005772524,0.0,0.0915781408548355,0,0,0
8967,311622.8547223756,2010-10-26 03:57:41,2671.352472390805,2,28,0.5497553944587708,3.9466257095336914,26.835401226853968,26.447972948726427,107.14011290777133,96.38990005772524,3.237724376958795e-05,0.0915781408548355,0,0,0
8968,311652.87000556674,2010-10-26 03:58:11,2701.367755612064,2,28,0.5501165986061096,3.948406457901001,26.839986814390905,26.447972948726427,107.15821455708458,96.38990005772524,3.237724376958795e-05,0.0915781408548355,0,0,0
8969,311682.88512208755,2010-10-26 03:58:41,2731.382872127842,2,28,0.5499359965324402,3.9500253200531006,26.844572394154945,26.447972948726427,107.17632369843442,96.38990005772524,3.237724376958795e-05,0.0915781408548355,0,0,0
8970,311712.9003197054,2010-10-26 03:59:11,2761.3980697206885,2,28,0.5497553944587708,3.9514822959899902,26.84915791634525,26.447972948726427,107.19444013756753,96.38990005772524,3.237724376958795e-05,0.0915781408548355,0,0,0
8971,311742.9155241403,2010-10-26 03:59:41,2791.413274155588,2,28,0.550297200679779,3.9532630443573,26.85374347664291,26.447972948726427,107.21256426752166,96.38990005772524,6.47544875391759e-05,0.0915781408548355,0,0,0
8972,311772.930727277,2010-10-26 04:00:11,2821.4284773223267,2,28,0.5499359965324402,3.9548819065094,26.85832909275742,26.447972948726427,107.23069631767608,96.38990005772524,3.237724376958795e-05,0.0915781408548355,0,0,0
8973,311802.945928559,2010-10-26 04:00:41,2851.443678594343,2,28,0.5501165986061096,3.956662654876709,26.86291463214816,26.447972948726427,107.24883575423588,96.38990005772524,3.237724376958795e-05,0.0915781408548355,0,0,0
8974,311832.9612414843,2010-10-26 04:01:11,2881.458991494571,2,28,0.5501165986061096,3.9582815170288086,26.86750024668289,26.447972948726427,107.26698309400868,96.38990005772524,6.47544875391759e-05,0.0915781408548355,0,0,0
8975,311862.97641856107,2010-10-26 04:01:41,2911.4741686113853,2,28,0.5499359965324402,3.960062265396118,26.87208581377388,26.447972948726427,107.28513810654526,96.38990005772524,6.47544875391759e-05,0.0915781408548355,0,0,0
8976,311892.991568851,2010-10-26 04:02:11,2941.4893189163763,2,28,0.5499359965324402,3.961843013763428,26.876671346858423,26.447972948726427,107.30330101321178,96.38990005772524,6.47544875391759e-05,0.0915781408548355,0,0,0
8977,311923.00669707096,2010-10-26 04:02:41,2971.504447086199,2,28,0.5499359965324402,3.9634618759155273,26.88125693494606,26.447972948726427,107.32147223262604,96.38990005772524,0.0,0.0915781408548355,0,0,0
8978,311953.02189399215,2010-10-26 04:03:11,3001.51964400236,2,28,0.5501165986061096,3.965242624282837,26.885842492401544,26.447972948726427,107.33965164727114,96.38990005772524,3.237724376958795e-05,0.0915781408548355,0,0,0
8979,311983.0370875749,2010-10-26 04:03:42,3031.534837610275,2,28,0.5499359965324402,3.9673471450805664,26.89042805452325,26.447972948726427,107.35783961581016,96.38990005772524,3.237724376958795e-05,0.0915781408548355,0,0,0
8980,312013.0522955988,2010-10-26 04:04:12,3061.5500456090563,2,28,0.5499359965324402,3.969127893447876,26.895013613030283,26.447972948726427,107.37603599482796,96.38990005772524,6.47544875391759e-05,0.0915781408548355,0,0,0
8981,312043.0675993813,2010-10-26 04:04:42,3091.565349396573,2,28,0.5501165986061096,3.971070528030396,26.89959917341406,26.447972948726427,107.39424109115213,96.38990005772524,6.47544875391759e-05,0.0915781408548355,0,0,0
8982,312073.08268262417,2010-10-26 04:05:12,3121.5804326594744,2,28,0.5501165986061096,3.972851276397705,26.904184700287505,26.447972948726427,107.41245485871302,96.38990005772524,6.47544875391759e-05,0.0915781408548355,0,0,0
8983,312103.0978607535,2010-10-26 04:05:42,3151.595610788812,2,28,0.5499359965324402,3.9747939109802246,26.90877020484558,26.447972948726427,107.43067745768532,96.38990005772524,3.237724376958795e-05,0.0915781408548355,0,0,0
8984,312133.1130574241,2010-10-26 04:06:12,3181.610807429285,2,28,0.5501165986061096,3.976898431777954,26.913355736815696,26.447972948726427,107.44890919403412,96.38990005772524,3.237724376958795e-05,0.0915781408548355,0,0,0
8985,312163.1282308918,2010-10-26 04:06:42,3211.6259809371045,2,28,0.5501165986061096,3.979002952575684,26.917941232055213,26.447972948726427,107.46714956987128,96.38990005772524,9.713172767078504e-05,0.0915781408548355,0,0,0
8986,312193.14341449976,2010-10-26 04:07:12,3241.6411645400844,2,28,0.5499359965324402,3.980945587158203,26.922526650588704,26.447972948726427,107.48539931734764,96.38990005772524,6.47544875391759e-05,0.0915781408548355,0,0,0
8987,312223.15862452355,2010-10-26 04:07:42,3271.6563745388503,2,28,0.5501165986061096,3.982888221740722,26.927111965755472,26.447972948726427,107.50365790786792,96.38990005772524,3.237724376958795e-05,0.0915781408548355,0,0,0
8988,312253.1740202252,2010-10-26 04:08:12,3301.6717702955825,2,28,0.5499359965324402,3.985154628753662,26.931697475498904,26.447972948726427,107.521926563956,96.38990005772524,6.47544875391759e-05,0.0915781408548355,0,0,0
8989,312283.1890117595,2010-10-26 04:08:42,3331.6867617747307,2,28,0.5497553944587708,3.986935377120972,26.93628278017909,26.447972948726427,107.54020381699816,96.38990005772524,3.237724376958795e-05,0.0915781408548355,0,0,0
8990,312313.20415694173,2010-10-26 04:09:12,3361.701906956954,2,28,0.5499359965324402,3.989039897918701,26.940868212225872,26.447972948726427,107.55849100719644,96.38990005772524,3.237724376958795e-05,0.0915781408548355,0,0,0
8991,312343.2193307603,2010-10-26 04:09:42,3391.7170807755483,2,28,0.5501165986061096,3.9913063049316406,26.945453592432536,26.447972948726427,107.57678750393524,96.38990005772524,6.47544875391759e-05,0.0915781408548355,0,0,0
8992,312373.23452587693,2010-10-26 04:10:12,3421.732275892224,2,28,0.5497553944587708,3.99324893951416,26.95003898425654,26.447972948726427,107.59509377231986,96.38990005772524,3.237724376958795e-05,0.0915781408548355,0,0,0
8993,312403.24970695865,2010-10-26 04:10:42,3451.74745697392,2,28,0.5499359965324402,3.995353221893311,26.95462437626236,26.447972948726427,107.61340980877652,96.38990005772524,3.237724376958795e-05,0.0915781408548355,0,0,0
8994,312433.2648710781,2010-10-26 04:11:12,3481.762621128428,2,28,0.5499359965324402,3.99761962890625,26.95920971687431,26.447972948726427,107.63173541074065,96.38990005772524,3.237724376958795e-05,0.0915781408548355,0,0,0
8995,312463.280044606,2010-10-26 04:11:42,3511.777794621209,2,28,0.5501165986061096,3.99972414970398,26.96379512191971,26.447972948726427,107.65007106784896,96.38990005772524,3.237724376958795e-05,0.0915781408548355,0,0,0
8996,312493.2952503691,2010-10-26 04:12:12,3541.79300038442,2,28,0.5499359965324402,4.001990795135498,26.96838055762392,26.447972948726427,107.66841695257904,96.38990005772524,6.47544875391759e-05,0.0915781408548355,0,0,0
8997,312523.3104288544,2010-10-26 04:12:42,3571.808178894707,2,28,0.5499359965324402,4.0042572021484375,26.97296599297938,26.447972948726427,107.686773088057,96.38990005772524,3.24249267578125e-05,0.0915781408548355,0,0,0
8998,312553.32568920864,2010-10-26 04:13:12,3601.823439223912,2,28,0.5499359965324402,4.006523609161377,26.977551319686484,26.447972948726427,107.70513912994409,96.38990005772524,6.47544875391759e-05,0.0915781408548355,0,0,0
8999,312583.3409500592,2010-10-26 04:13:42,3631.838700104491,2,28,0.5499359965324402,4.008790016174316,26.98213669507475,26.447972948726427,107.7235156967227,96.38990005772524,3.24249267578125e-05,0.0915781408548355,0,0,0
9000,312613.3559255885,2010-10-26 04:14:12,3661.853675603813,2,28,0.5499359965324402,4.011056423187256,26.986722019012085,26.447972948726427,107.74190234919236,96.38990005772524,6.47544875391759e-05,0.0915781408548355,0,0,0
9001,312643.37108304136,2010-10-26 04:14:42,3691.8688330566174,2,28,0.5499359965324402,4.013322830200195,26.991307317464116,26.447972948726427,107.76029948199368,96.38990005772524,6.47544875391759e-05,0.0915781408548355,0,0,0
9002,312673.38638176123,2010-10-26 04:15:12,3721.8841318065793,2,28,0.5501165986061096,4.015750885009766,26.995892666084643,26.447972948726427,107.77870745960227,96.38990005772524,9.70840483205393e-05,0.0915781408548355,0,0,0
9003,312703.4014449692,2010-10-26 04:15:42,3751.8991949743977,2,28,0.5499359965324402,4.018017292022705,27.00047803096235,26.447972948726427,107.7971262597616,96.38990005772524,6.47544875391759e-05,0.0915781408548355,0,0,0
9004,312733.4166281812,2010-10-26 04:16:12,3781.914378316728,2,28,0.5499359965324402,4.020445823669434,27.00506342673775,26.447972948726427,107.81555590033484,96.38990005772524,6.47544875391759e-05,0.0915781408548355,0,0,0
9005,312763.43176729325,2010-10-26 04:16:42,3811.9295173335854,2,28,0.5499359965324402,4.022873878479004,27.00964870230081,26.447972948726427,107.83399599104912,96.38990005772524,6.47544875391759e-05,0.0915781408548355,0,0,0
9006,312793.4470640332,2010-10-26 04:17:12,3841.944814068525,2,28,0.5497553944587708,4.0249786376953125,27.014234029389723,26.447972948726427,107.85244724260666,96.38990005772524,0.0,0.0915781408548355,0,0,0
9007,312823.4621050959,2010-10-26 04:17:42,3871.9598551362624,2,28,0.5501165986061096,4.027730464935303,27.01881927203552,26.447972948726427,107.87090910623958,96.38990005772524,6.47544875391759e-05,0.0915781408548355,0,0,0
9008,312853.47728496965,2010-10-26 04:18:12,3901.9750350400222,2,28,0.5499359965324402,4.029996871948242,27.02340459281121,26.447972948726427,107.8893823248044,96.38990005772524,6.47544875391759e-05,0.0915781408548355,0,0,0
9009,312883.49244383594,2010-10-26 04:18:42,3931.9901938812886,2,28,0.5501165986061096,4.032587051391602,27.02798984229272,26.447972948726427,107.90786639949556,96.38990005772524,6.47544875391759e-05,0.0915781408548355,0,0,0
9010,312913.50764675206,2010-10-26 04:19:12,3962.005396797402,2,28,0.5497553944587708,4.034691333770752,27.032575107542943,26.447972948726427,107.92636174637964,96.38990005772524,0.0,0.0915781408548355,0,0,0
9011,312943.52306959126,2010-10-26 04:19:42,3992.020819606558,2,28,0.5499359965324402,4.037281513214111,27.037160452697776,26.447972948726427,107.94486875317672,96.38990005772524,6.47544875391759e-05,0.0915781408548355,0,0,0
9012,312973.53790774336,2010-10-26 04:20:12,4022.0356577485422,2,28,0.5499359965324402,4.039871692657471,27.041746067910783,26.447972948726427,107.96338830161892,96.38990005772524,6.47544875391759e-05,0.0915781408548355,0,0,0
9013,313003.55305774754,2010-10-26 04:20:42,4052.050807752784,2,28,0.5499359965324402,4.042300224304199,27.04633240037311,26.447972948726427,107.98192226895058,96.38990005772524,3.24249267578125e-05,0.0915781408548355,0,0,0
9014,313033.5708982824,2010-10-26 04:21:12,4082.068648412968,2,28,0.550297200679779,4.0450520515441895,27.05091889214229,26.447972948726427,108.00046855974188,96.38990005772524,9.70840483205393e-05,0.0915781408548355,0,0,0
9015,313063.5836683752,2010-10-26 04:21:42,4112.0814184105,2,28,0.5499359965324402,4.047480583190918,27.055504846085377,26.447972948726427,108.0190244147293,96.38990005772524,0.0,0.0915781408548355,0,0,0
9016,313093.5986028673,2010-10-26 04:22:12,4142.0963528775565,2,28,0.5501165986061096,4.050232410430908,27.06009106728418,26.447972948726427,108.03759324972984,96.38990005772524,0.0001295089750783,0.0915781408548355,0,0,0
9017,313123.6137584053,2010-10-26 04:22:42,4172.11150841559,2,28,0.5499359965324402,4.052822589874268,27.06467739243197,26.447972948726427,108.0561743034413,96.38990005772524,9.70840483205393e-05,0.0915781408548355,0,0,0
9018,313153.62908596714,2010-10-26 04:23:12,4202.126836022471,2,28,0.5499359965324402,4.055251121520996,27.06926360466412,26.447972948726427,108.0747669242192,96.38990005772524,3.24249267578125e-05,0.0915781408548355,0,0,0
9019,313183.64404047414,2010-10-26 04:23:42,4232.1417905194485,2,28,0.5499359965324402,4.057841300964356,27.07384910441994,26.447972948726427,108.0933687823672,96.38990005772524,3.24249267578125e-05,0.0915781408548355,0,0,0
9020,313213.65922940033,2010-10-26 04:24:12,4262.15697941562,2,28,0.5501165986061096,4.060593128204346,27.078434724349908,26.447972948726427,108.11198345334816,96.38990005772524,6.47544875391759e-05,0.0915781408548355,0,0,0
9021,313243.67439431173,2010-10-26 04:24:42,4292.172144337041,2,28,0.5499359965324402,4.063345432281494,27.083020247856837,26.447972948726427,108.13060962693824,96.38990005772524,6.47544875391759e-05,0.0915781408548355,0,0,0
9022,313273.68955899257,2010-10-26 04:25:12,4322.187309032897,2,28,0.5497553944587708,4.0659356117248535,27.087605763944445,26.447972948726427,108.14924829216976,96.38990005772524,6.47544875391759e-05,0.0915781408548355,0,0,0
9023,313303.704695398,2010-10-26 04:25:42,4352.202445413183,2,28,0.5499359965324402,4.068525791168213,27.092191321016617,26.447972948726427,108.16789959323305,96.38990005772524,3.24249267578125e-05,0.0915781408548355,0,0,0
9024,313333.7198578783,2010-10-26 04:26:12,4382.217607883495,2,28,0.5497553944587708,4.071439743041992,27.09677691525256,26.447972948726427,108.18656370844928,96.38990005772524,9.71794142969884e-05,0.0915781408548355,0,0,0
9025,313363.73501416313,2010-10-26 04:26:42,4412.232764203477,2,28,0.5499359965324402,4.074353694915772,27.10136248938019,26.447972948726427,108.20524050539753,96.38990005772524,6.47544875391759e-05,0.0915781408548355,0,0,0
9026,313393.7501540923,2010-10-26 04:27:12,4442.24790411757,2,28,0.5501165986061096,4.077267646789551,27.10594800723969,26.447972948726427,108.2239299121478,96.38990005772524,6.47544875391759e-05,0.0915781408548355,0,0,0
9027,313423.76531480823,2010-10-26 04:27:42,4472.263064853559,2,28,0.5499359965324402,4.07985782623291,27.110533542360244,26.447972948726427,108.2426323097386,96.38990005772524,3.24249267578125e-05,0.0915781408548355,0,0,0
9028,313453.7805049876,2010-10-26 04:28:12,4502.278255032928,2,28,0.5501165986061096,4.08293342590332,27.115119091893384,26.447972948726427,108.26134785687992,96.38990005772524,6.47544875391759e-05,0.0915781408548355,0,0,0
9029,313483.7956344506,2010-10-26 04:28:42,4532.293384465899,2,28,0.5499359965324402,4.0858473777771,27.11970463028496,26.447972948726427,108.28007663863104,96.38990005772524,9.70840483205393e-05,0.0915781408548355,0,0,0
9030,313513.81091938115,2010-10-26 04:29:12,4562.308669401432,2,28,0.5501165986061096,4.088761329650879,27.12429030735673,26.447972948726427,108.29881942669203,96.38990005772524,0.0001295089750783,0.0915781408548355,0,0,0
9031,313543.8259738974,2010-10-26 04:29:42,4592.323723942749,2,28,0.5499359965324402,4.091675281524658,27.12887594382664,26.447972948726427,108.31757556906484,96.38990005772524,6.47544875391759e-05,0.0915781408548355,0,0,0
9032,313573.8411319517,2010-10-26 04:30:12,4622.338881961967,2,28,0.5499359965324402,4.0945892333984375,27.13346154159809,26.447972948726427,108.33634497983752,96.38990005772524,6.47544875391759e-05,0.0915781408548355,0,0,0
9033,313603.8562546078,2010-10-26 04:30:42,4652.354004643111,2,28,0.5501165986061096,4.097665309906006,27.138047042275502,26.447972948726427,108.35512772991451,96.38990005772524,6.47544875391759e-05,0.0915781408548355,0,0,0
9034,313633.8714822956,2010-10-26 04:31:12,4682.369232391114,2,28,0.5499359965324402,4.100579261779785,27.14263255626595,26.447972948726427,108.37392435721311,96.38990005772524,6.47544875391759e-05,0.0915781408548355,0,0,0
9035,313663.8866394828,2010-10-26 04:31:42,4712.384389498056,2,28,0.5501165986061096,4.103816986083984,27.147218199115937,26.447972948726427,108.39273535639714,96.38990005772524,9.71794142969884e-05,0.0915781408548355,0,0,0
9036,313693.88697844336,2010-10-26 04:32:12,4742.384728488695,2,28,0.5499359965324402,4.106730937957764,27.151801501322325,26.447972948726427,108.4115507766607,96.38990005772524,9.71794142969884e-05,0.0915781408548355,0,0,0
9037,313723.90132640366,2010-10-26 04:32:42,4772.399076418921,2,28,0.5499359965324402,4.109806537628174,27.156386936365948,26.447972948726427,108.43038902818644,96.38990005772524,9.70840483205393e-05,0.0915781408548355,0,0,0
9038,313753.9165928782,2010-10-26 04:33:12,4802.414342923517,2,28,0.5499359965324402,4.113044261932373,27.160972600073755,26.447972948726427,108.44924246774384,96.38990005772524,9.70840483205393e-05,0.0915781408548355,0,0,0
9039,313783.93175596505,2010-10-26 04:33:42,4832.42950598029,2,28,0.5497553944587708,4.115958213806152,27.1655581753022,26.447972948726427,108.46810984026231,96.38990005772524,6.47544875391759e-05,0.0915781408548355,0,0,0
9040,313813.9469273175,2010-10-26 04:34:12,4862.444677337749,2,28,0.5499359965324402,4.119195938110352,27.17014382703884,26.447972948726427,108.48699201603488,96.38990005772524,9.71794142969884e-05,0.0915781408548355,0,0,0
9041,313843.9619794929,2010-10-26 04:34:42,4892.459729508159,2,28,0.5499359965324402,4.122433662414551,27.174729442879052,26.447972948726427,108.50588871025523,96.38990005772524,6.47544875391759e-05,0.0915781408548355,0,0,0
9042,313873.9771223042,2010-10-26 04:35:12,4922.474872439773,2,28,0.5499359965324402,4.12567138671875,27.1793150171228,26.447972948726427,108.52479984661584,96.38990005772524,9.71794142969884e-05,0.0915781408548355,0,0,0
9043,313903.99228731083,2010-10-26 04:35:42,4952.490037326105,2,28,0.5501165986061096,4.12907075881958,27.183900598386963,26.447972948726427,108.54372583604156,96.38990005772524,9.70840483205393e-05,0.0915781408548355,0,0,0
9044,313934.00742777635,2010-10-26 04:36:13,4982.505177791573,2,28,0.550297200679779,4.132308483123779,27.188486206944404,26.447972948726427,108.56266683535006,96.38990005772524,0.0001295089750783,0.0915781408548355,0,0,0
9045,313964.0226307777,2010-10-26 04:36:43,5012.520380817962,2,28,0.5499359965324402,4.1355462074279785,27.193071841437927,26.447972948726427,108.58162287537834,96.38990005772524,9.70840483205393e-05,0.0915781408548355,0,0,0
9046,313994.0377359702,2010-10-26 04:37:13,5042.535485980444,2,28,0.5499359965324402,4.138783931732178,27.19765748832618,26.447972948726427,108.60059415205428,96.38990005772524,6.47544875391759e-05,0.0915781408548355,0,0,0
9047,314024.0528915032,2010-10-26 04:37:43,5072.550641538527,2,28,0.5499359965324402,4.142021656036377,27.202243122315785,26.447972948726427,108.6195806423324,96.38990005772524,6.47544875391759e-05,0.0915781408548355,0,0,0
9048,314054.0680913567,2010-10-26 04:38:13,5102.565841407045,2,28,0.5499359965324402,4.145583152770996,27.206828823051453,26.447972948726427,108.63858286297032,96.38990005772524,6.47544875391759e-05,0.0915781408548355,0,0,0
9049,314084.08322487486,2010-10-26 04:38:43,5132.580974920185,2,28,0.5501165986061096,4.148983001708984,27.211414444077263,26.447972948726427,108.6576005973286,96.38990005772524,0.0001295089750783,0.0915781408548355,0,0,0
9050,314114.0983866835,2010-10-26 04:39:13,5162.596136728847,2,28,0.5501165986061096,4.152544498443604,27.216000022931755,26.447972948726427,108.6766337973107,96.38990005772524,0.0001295089750783,0.0915781408548355,0,0,0
9051,314144.1135202067,2010-10-26 04:39:43,5192.611270221937,2,28,0.5501165986061096,4.155943870544434,27.22058559136056,26.447972948726427,108.6956827201107,96.38990005772524,0.0001295089750783,0.0915781408548355,0,0,0
9052,314174.1288041648,2010-10-26 04:40:13,5222.626554190058,2,28,0.5499359965324402,4.159181594848633,27.22517118214672,26.447972948726427,108.71474756093824,96.38990005772524,6.47544875391759e-05,0.0915781408548355,0,0,0
9053,314204.1440490956,2010-10-26 04:40:43,5252.641799130911,2,28,0.5499359965324402,4.162905216217041,27.229756786404863,26.447972948726427,108.73382842317594,96.38990005772524,0.0001295089750783,0.0915781408548355,0,0,0
9054,314234.1589931967,2010-10-26 04:41:13,5282.656743332228,2,28,0.5499359965324402,4.166304588317871,27.234342322563407,26.447972948726427,108.7529250422362,96.38990005772524,9.70840483205393e-05,0.0915781408548355,0,0,0
9055,314264.1742172655,2010-10-26 04:41:43,5312.671967330886,2,28,0.5499359965324402,4.169704437255859,27.238927934362632,26.447972948726427,108.77203820725808,96.38990005772524,6.47544875391759e-05,0.0915781408548355,0,0,0
9056,314294.1894220212,2010-10-26 04:42:13,5342.68717203646,2,28,0.5499359965324402,4.173427581787109,27.243513502468545,26.447972948726427,108.79116753399678,96.38990005772524,9.70840483205393e-05,0.0915781408548355,0,0,0
9057,314324.20447973546,2010-10-26 04:42:43,5372.702229745674,2,28,0.5499359965324402,4.1769890785217285,27.24809903600232,26.447972948726427,108.81031313610542,96.38990005772524,9.70840483205393e-05,0.0915781408548355,0,0,0
9058,314354.21964825084,2010-10-26 04:43:13,5402.7173982961385,2,28,0.5497553944587708,4.180550575256348,27.25268467894345,26.447972948726427,108.82947576084996,96.38990005772524,6.47544875391759e-05,0.0915781408548355,0,0,0
9059,314384.2347668568,2010-10-26 04:43:43,5432.732516912151,2,28,0.5499359965324402,4.184435844421387,27.257270301491022,26.447972948726427,108.84865493174598,96.38990005772524,0.0001618385285837,0.0915781408548355,0,0,0
9060,314414.25017789664,2010-10-26 04:44:13,5462.747927951973,2,28,0.5501165986061096,4.187997341156006,27.261855950365675,26.447972948726427,108.8678509370509,96.38990005772524,0.0001295089750783,0.0915781408548355,0,0,0
9061,314444.2650979077,2010-10-26 04:44:43,5492.7628479229,2,28,0.5499359965324402,4.191558837890625,27.266441423932356,26.447972948726427,108.88706314924649,96.38990005772524,9.70840483205393e-05,0.0915781408548355,0,0,0
9062,314474.2802316213,2010-10-26 04:45:13,5522.77798163654,2,28,0.5499359965324402,4.195281982421875,27.27102694317273,26.447972948726427,108.90629248926136,96.38990005772524,9.70840483205393e-05,0.0915781408548355,0,0,0
9063,314504.2953837859,2010-10-26 04:45:43,5552.79313381119,2,28,0.5499359965324402,4.199005603790283,27.27561256652048,26.447972948726427,108.92553920930158,96.38990005772524,0.0001295089750783,0.0915781408548355,0,0,0
9064,314511.3735255581,2010-10-26 04:45:50,5559.8712755783645,2,28,0.5501165986061096,4.200138568878174,27.276693943647302,26.447972948726427,108.93008046862056,96.38990005772524,0.0001295089750783,0.0915781408548355,0,0,0
9065,314541.3817816447,2010-10-26 04:46:20,30.0151485957309,3,28,0.0,4.112558841705322,27.276693943647302,26.447972948726427,108.93008046862056,96.38990005772524,-0.0004531860467977,0.0915781408548355,0,0,0
9066,314571.39695822017,2010-10-26 04:46:50,60.03032516618341,3,28,0.0,4.101874351501465,27.276693943647302,26.447972948726427,108.93008046862056,96.38990005772524,-0.0002265930233988,0.0915781408548355,0,0,0
9067,314601.4121032721,2010-10-26 04:47:20,90.04547022309448,3,28,0.0,4.095398902893066,27.276693943647302,26.447972948726427,108.93008046862056,96.38990005772524,-0.0001295089750783,0.0915781408548355,0,0,0
9068,314631.3803710915,2010-10-26 04:47:50,120.01373807258088,3,28,0.0,4.091189861297607,27.276693943647302,26.447972948726427,108.93008046862056,96.38990005772524,-9.70840483205393e-05,0.0915781408548355,0,0,0
9069,314631.3910802828,2010-10-26 04:47:50,0.015593298297295,4,28,0.990261435508728,4.199814796447754,27.27669826971201,26.447972948726427,108.93009863764183,96.38990005772524,-3.24249267578125e-05,0.0915781408548355,0,0,0
9070,314632.344182156,2010-10-26 04:47:51,0.968695186464728,4,28,0.9398714303970336,4.199653148651123,27.27695222349872,26.447972948726427,108.93116517012358,96.38990005772524,-6.47544875391759e-05,0.0915781408548355,0,0,0
9071,314634.516146314,2010-10-26 04:47:53,3.14065931938061,4,28,0.889842689037323,4.199653148651123,27.277503237710697,26.447972948726427,108.93347927062348,96.38990005772524,-6.47544875391759e-05,0.0915781408548355,0,0,0
9072,314637.844097006,2010-10-26 04:47:57,6.468610011490176,4,28,0.8394526839256287,4.199814796447754,27.278301475506563,26.447972948726427,108.93683162813872,96.38990005772524,3.23295607813634e-05,0.0915781408548355,0,0,0
9073,314642.3284019337,2010-10-26 04:48:01,10.952914949181038,4,28,0.7892432808876038,4.199653148651123,27.279314707071936,26.447972948726427,108.9410869389872,96.38990005772524,-3.23295607813634e-05,0.0915781408548355,0,0,0
9074,314648.21895155084,2010-10-26 04:48:07,16.843464556278725,4,28,0.7392145395278931,4.199814796447754,27.280563871072356,26.447972948726427,108.94633310095412,96.38990005772524,0.0,0.0915781408548355,0,0,0
9075,314655.8907597123,2010-10-26 04:48:15,24.515272767898452,4,28,0.6890051364898682,4.199814796447754,27.282083825230227,26.447972948726427,108.9527165035276,96.38990005772524,3.23295607813634e-05,0.0915781408548355,0,0,0
9076,314666.2030341683,2010-10-26 04:48:25,34.82754717372528,4,28,0.6389763951301575,4.199814796447754,27.283982420495725,26.447972948726427,108.96069011273389,96.38990005772524,-3.24249267578125e-05,0.0915781408548355,0,0,0
9077,314680.53095937654,2010-10-26 04:48:39,49.155472371911536,4,28,0.588947594165802,4.199814796447754,27.28642028453523,26.447972948726427,108.9709285317546,96.38990005772524,3.23295607813634e-05,0.0915781408548355,0,0,0
9078,314702.6555860788,2010-10-26 04:49:01,71.28009910430612,4,28,0.5389188528060913,4.199653148651123,27.289874678631037,26.447972948726427,108.98543608983763,96.38990005772524,-3.23295607813634e-05,0.0915781408548355,0,0,0
9079,314741.1706249565,2010-10-26 04:49:40,109.79513796192047,4,28,0.4888900816440582,4.199653148651123,27.295347392901892,26.447972948726427,109.00842007969958,96.38990005772524,-6.47544875391759e-05,0.0915781408548355,0,0,0
9080,314810.9351325404,2010-10-26 04:50:50,179.5596455458219,4,28,0.4388613104820251,4.199653148651123,27.304297090130188,26.447972948726427,109.0460065390098,96.38990005772524,0.0,0.0915781408548355,0,0,0
9081,314916.1836982653,2010-10-26 04:52:35,284.8082113008575,4,28,0.388832539319992,4.199653148651123,27.31636944756197,26.447972948726427,109.09670736110016,96.38990005772524,-3.23295607813634e-05,0.0915781408548355,0,0,0
9082,315046.9001747452,2010-10-26 04:54:46,415.5246877405996,4,28,0.338803768157959,4.199814796447754,27.32955581141286,26.447972948726427,109.15208677877226,96.38990005772524,3.23295607813634e-05,0.0915781408548355,0,0,0
9083,315202.2103549119,2010-10-26 04:57:21,570.8348679273728,4,28,0.2887749969959259,4.199653148651123,27.34307141911788,26.447972948726427,109.20884890246342,96.38990005772524,0.0,0.0915781408548355,0,0,0
9084,315389.8323991811,2010-10-26 05:00:29,758.4569121865264,4,28,0.2387462258338928,4.199653148651123,27.35679264050464,26.447972948726427,109.26647458576592,96.38990005772524,-3.23295607813634e-05,0.0915781408548355,0,0,0
9085,315624.67234882904,2010-10-26 05:04:23,993.2968619547952,4,28,0.1885368376970291,4.199653148651123,27.370687609193748,26.447972948726427,109.32482992879554,96.38990005772524,-3.23295607813634e-05,0.0915781408548355,0,0,0
9086,315939.51111624093,2010-10-26 05:09:38,1308.1356292714147,4,28,0.138508066534996,4.199491024017334,27.384907829550333,26.447972948726427,109.38455134217632,96.38990005772524,-6.47544875391759e-05,0.0915781408548355,0,0,0
9087,316425.1753284429,2010-10-26 05:17:44,1793.7998414382769,4,28,0.0882986932992935,4.199814796447754,27.39998171272864,26.447972948726427,109.44785792090283,96.38990005772524,0.0,0.0915781408548355,0,0,0
9088,317114.8362824386,2010-10-26 05:29:14,2483.46079544403,4,28,0.0498289167881011,4.199653148651123,27.412876867346217,26.447972948726427,109.50201436119224,96.38990005772524,-3.23295607813634e-05,0.0915781408548355,0,0,0
9089,317144.85444679763,2010-10-26 05:29:44,30.015128530722723,5,28,0.0,4.191397190093994,27.412876867346217,26.447972948726427,109.50201436119224,96.38990005772524,-6.47544875391759e-05,0.0915781408548355,0,0,0
9090,317174.85399614525,2010-10-26 05:30:14,60.014677878327525,5,28,0.0,4.190425872802734,27.412876867346217,26.447972948726427,109.50201436119224,96.38990005772524,0.0,0.0915781408548355,0,0,0
9091,317175.0454993288,2010-10-26 05:30:14,0.187522538866097,6,28,-1.9243103452026844e-05,4.1901021003723145,27.412876867346217,26.447972949728797,109.50201436119224,96.38990006192525,0.0,0.0963535830378532,0,0,0
9092,317179.8733904189,2010-10-26 05:30:19,5.015413623955088,6,28,0.0005225847125984,4.1901021003723145,27.41287754919843,26.44797294997972,109.5020172183918,96.38990006297668,-6.47544875391759e-05,0.0963535830378532,0,0,0
9093,317209.89261003,2010-10-26 05:30:49,30.015132510641905,7,28,-1.0997490882873535,4.006685256958008,27.41287754919843,26.457141210364497,109.5020172183918,96.42684004528672,-0.0009389877086505,0.0963535830378532,0,0,0
9094,317239.9095361258,2010-10-26 05:31:19,60.03205870168728,7,28,-1.0993878841400146,3.977869749069214,27.41287754919843,26.46630998934705,109.5020172183918,96.46343539462823,-0.0006799221155233,0.0963535830378532,0,0,0
9095,317269.92315719946,2010-10-26 05:31:49,90.04567973025078,7,28,-1.099568486213684,3.9579577445983887,27.41287754919843,26.475477599955557,109.5020172183918,96.49980769823466,-0.0004532813909463,0.0963535830378532,0,0,0
9096,317299.9380892856,2010-10-26 05:32:19,120.06061179632314,7,28,-1.099568486213684,3.942416667938232,27.41287754919843,26.48464559374084,109.5020172183918,96.53602096347429,-0.0003885269106831,0.0963535830378532,0,0,0
9097,317329.95323569584,2010-10-26 05:32:49,150.07575820159477,7,28,-1.0993878841400146,3.9296276569366455,27.41287754919843,26.493813639047385,109.5020172183918,96.57210531204244,-0.0003237724304199,0.0963535830378532,0,0,0
9098,317359.96836461755,2010-10-26 05:33:19,180.09088709822944,7,28,-1.099568486213684,3.918295621871948,27.41287754919843,26.5029816874233,109.5020172183918,96.6080797887342,-0.0002913951757363,0.0963535830378532,0,0,0
9099,317389.9835040053,2010-10-26 05:33:49,210.1060264809988,7,28,-1.099568486213684,3.9080970287323,27.41287754919843,26.512149812890897,109.5020172183918,96.6439564316835,-0.0002913951757363,0.0963535830378532,0,0,0
9100,317419.9990619312,2010-10-26 05:34:19,240.12158443698132,7,28,-1.0997490882873535,3.898383855819702,27.41287754919843,26.521318072166498,109.5020172183918,96.67974236789688,-0.0002913951757363,0.0963535830378532,0,0,0
9101,317450.01381044986,2010-10-26 05:34:49,270.13633293053454,7,28,-1.099568486213684,3.889318227767944,27.41287754919843,26.53048602961343,109.5020172183918,96.71544109490536,-0.0002266406954731,0.0963535830378532,0,0,0
9102,317480.02948112175,2010-10-26 05:35:19,300.1520036124649,7,28,-1.099568486213684,3.880414485931397,27.41287754919843,26.5396542863297,109.5020172183918,96.75105873342532,-0.0002590179501567,0.0963535830378532,0,0,0
9103,317510.0441246888,2010-10-26 05:35:49,330.16664718953393,7,28,-1.099568486213684,3.8716726303100586,27.41287754919843,26.54882225236004,109.5020172183918,96.78659487101642,-0.0002590179501567,0.0963535830378532,0,0,0
9104,317540.05929544976,2010-10-26 05:36:19,360.1818179304575,7,28,-1.0993878841400146,3.863578319549561,27.41287754919843,26.557990379905203,109.5020172183918,96.82205314234128,-0.0001942634553415,0.0963535830378532,0,0,0
9105,317570.0744074092,2010-10-26 05:36:49,390.19692991494185,7,28,-1.099568486213684,3.8551602363586426,27.41287754919843,26.567158478621216,109.5020172183918,96.85743478687957,-0.0002266406954731,0.0963535830378532,0,0,0
9106,317600.08955718286,2010-10-26 05:37:19,420.2120796635461,7,28,-1.099568486213684,3.846904039382935,27.41287754919843,26.576326541762924,109.5020172183918,96.89274172310752,-0.0002266406954731,0.0963535830378532,0,0,0
9107,317630.10472852027,2010-10-26 05:37:49,450.22725102601873,7,28,-1.099568486213684,3.8389716148376474,27.41287754919843,26.585494683928488,109.5020172183918,96.92797521914972,-0.0001942634553415,0.0963535830378532,0,0,0
9108,317660.1198770358,2010-10-26 05:38:19,480.2423995114748,7,28,-1.0993878841400146,3.831201314926148,27.41287754919843,26.59466276817265,109.5020172183918,96.96313614394624,-0.0001942634553415,0.0963535830378532,0,0,0
9109,317690.1351362121,2010-10-26 05:38:49,510.2576586928191,7,28,-1.0993878841400146,3.823754549026489,27.41287754919843,26.60383094933221,109.5020172183918,96.99822652420808,-0.0001618862152099,0.0963535830378532,0,0,0
9110,317720.1502842314,2010-10-26 05:39:19,540.2728067421882,7,28,-1.099568486213684,3.816145896911621,27.41287754919843,26.612999009577624,109.5020172183918,97.03324722892845,-0.0001942634553415,0.0963535830378532,0,0,0
9111,317750.1655460544,2010-10-26 05:39:49,570.2880685450662,7,28,-1.0993878841400146,3.808699131011963,27.41287754919843,26.622167229544942,109.5020172183918,97.06820037471492,-0.0001618862152099,0.0963535830378532,0,0,0
9112,317780.1804719901,2010-10-26 05:40:19,600.302994470835,7,28,-1.099568486213684,3.801414251327514,27.41287754919843,26.63133530210317,109.5020172183918,97.10308607791218,-0.0002266406954731,0.0963535830378532,0,0,0
9113,317810.19560947816,2010-10-26 05:40:49,630.3181319789321,7,28,-1.0997490882873535,3.7944531440734863,27.41287754919843,26.640503451859846,109.5020172183918,97.13790667750126,-0.0001942634553415,0.0963535830378532,0,0,0
9114,317840.210751683,2010-10-26 05:41:19,660.3332741937597,7,28,-1.099568486213684,3.787330150604248,27.41287754919843,26.64967160229976,109.5020172183918,97.172662486085,-0.0001942634553415,0.0963535830378532,0,0,0
9115,317870.22592232365,2010-10-26 05:41:49,690.3484448244085,7,28,-1.099568486213684,3.7805309295654297,27.41287754919843,26.6588397024864,109.5020172183918,97.20735418153112,-0.0002266406954731,0.0963535830378532,0,0,0
9116,317900.2410838215,2010-10-26 05:42:19,720.3636062922207,7,28,-1.099568486213684,3.773893594741821,27.41287754919843,26.6680078453812,109.5020172183918,97.24198383310032,-0.0001618862152099,0.0963535830378532,0,0,0
9117,317930.25620186114,2010-10-26 05:42:49,750.3787243418211,7,28,-1.099568486213684,3.767256259918213,27.41287754919843,26.677175924969184,109.5020172183918,97.27655174422958,-0.0001618862152099,0.0963535830378532,0,0,0
9118,317960.2714958793,2010-10-26 05:43:19,780.394018395077,7,28,-1.099568486213684,3.7607808113098153,27.41287754919843,26.68634411389903,109.5020172183918,97.31105994104148,-0.0001295089750783,0.0963535830378532,0,0,0
9119,317990.2865718791,2010-10-26 05:43:49,810.409094389864,7,28,-1.099929690361023,3.754305362701416,27.41287754919843,26.69551224529892,109.5020172183918,97.34550908700136,-0.0001295089750783,0.0963535830378532,0,0,0
9120,318020.30178777257,2010-10-26 05:44:19,840.4243102532465,7,28,-1.099568486213684,3.7483158111572266,27.41287754919843,26.70468043136183,109.5020172183918,97.37990070073867,-9.713172767078504e-05,0.0963535830378532,0,0,0
9121,318050.3168127552,2010-10-26 05:44:49,870.4393352509329,7,28,-1.0997490882873535,3.742002248764038,27.41287754919843,26.713848481766664,109.5020172183918,97.41423538875829,-0.0001618862152099,0.0963535830378532,0,0,0
9122,318080.33201094955,2010-10-26 05:45:19,900.4545334502915,7,28,-1.099929690361023,3.7360124588012695,27.41287754919843,26.72301665221299,109.5020172183918,97.44851574761152,-0.0001618862152099,0.0963535830378532,0,0,0
9123,318110.34709482896,2010-10-26 05:45:50,930.4696173096796,7,28,-1.0997490882873535,3.730184555053711,27.41287754919843,26.732184803074205,109.5020172183918,97.48274204302822,-0.0001618862152099,0.0963535830378532,0,0,0
9124,318140.36225651734,2010-10-26 05:46:20,960.4847790180912,7,28,-1.099568486213684,3.724680423736572,27.41287754919843,26.741352864881097,109.5020172183918,97.51691500970612,-9.713172767078504e-05,0.0963535830378532,0,0,0
9125,318170.3774326267,2010-10-26 05:46:50,990.4999552226318,7,28,-1.099568486213684,3.718690633773804,27.41287754919843,26.75052104732753,109.5020172183918,97.55103614413376,-0.0001295089750783,0.0963535830378532,0,0,0
9126,318200.3925408868,2010-10-26 05:47:20,1020.5150633625344,7,28,-1.0997490882873535,3.713024616241455,27.41287754919843,26.75968916154905,109.5020172183918,97.58510544563256,-0.0001942634553415,0.0963535830378532,0,0,0
9127,318230.4076870114,2010-10-26 05:47:50,1050.5302095121688,7,28,-1.099568486213684,3.707844257354736,27.41287754919843,26.768857304937583,109.5020172183918,97.6191237999296,-0.0001295089750783,0.0963535830378532,0,0,0
9128,318260.4228578626,2010-10-26 05:48:20,1080.5453803383048,7,28,-1.0997490882873535,3.7023401260375977,27.41287754919843,26.778025424021703,109.5020172183918,97.65309238847163,-0.0001295089750783,0.0963535830378532,0,0,0
9129,318290.43799329555,2010-10-26 05:48:50,1110.5605157662171,7,28,-1.099568486213684,3.697159767150879,27.41287754919843,26.78719360533449,109.5020172183918,97.68701183669266,-0.0001295089750783,0.0963535830378532,0,0,0
9130,318320.4531353249,2010-10-26 05:49:20,1140.5756577955829,7,28,-1.099929690361023,3.69165563583374,27.41287754919843,26.796361700116027,109.5020172183918,97.72088259590222,-0.0001942634553415,0.0963535830378532,0,0,0
9131,318350.4682636752,2010-10-26 05:49:50,1170.5907861759308,7,28,-1.0997490882873535,3.686637163162232,27.41287754919843,26.805529815590063,109.5020172183918,97.75470571302051,-0.0001295089750783,0.0963535830378532,0,0,0
9132,318380.4836564695,2010-10-26 05:50:20,1200.6061790855672,7,28,-1.099568486213684,3.681618690490722,27.41287754919843,26.814698011308213,109.5020172183918,97.7884821408894,-0.0001295089750783,0.0963535830378532,0,0,0
9133,318410.4986558985,2010-10-26 05:50:50,1230.6211784944785,7,28,-1.099568486213684,3.676762104034424,27.41287754919843,26.82386614243425,109.5020172183918,97.82221209645012,-9.713172767078504e-05,0.0963535830378532,0,0,0
9134,318440.51376296073,2010-10-26 05:51:20,1260.6362854313827,7,28,-1.099568486213684,3.671581983566284,27.41287754919843,26.83303428553814,109.5020172183918,97.8558964341932,-9.713172767078504e-05,0.0963535830378532,0,0,0
9135,318470.52890141617,2010-10-26 05:51:50,1290.6514239269409,7,28,-1.0997490882873535,3.666725397109986,27.41287754919843,26.842202457837107,109.5020172183918,97.88953590448024,-0.0001618862152099,0.0963535830378532,0,0,0
9136,318500.5440671496,2010-10-26 05:52:20,1320.6665896403345,7,28,-1.099568486213684,3.662030696868897,27.41287754919843,26.851370666903485,109.5020172183918,97.92313142550807,-9.713172767078504e-05,0.0963535830378532,0,0,0
9137,318530.5593220302,2010-10-26 05:52:50,1350.6818446161974,7,28,-1.099568486213684,3.657335996627808,27.41287754919843,26.86053885775124,109.5020172183918,97.95668325059307,-9.713172767078504e-05,0.0963535830378532,0,0,0
9138,318560.5743499552,2010-10-26 05:53:20,1380.6968724559672,7,28,-1.0997490882873535,3.652479410171509,27.41287754919843,26.86970700472856,109.5020172183918,97.99019181272426,-0.0001295089750783,0.0963535830378532,0,0,0
9139,318590.5895359592,2010-10-26 05:53:50,1410.712058429856,7,28,-1.099568486213684,3.64810848236084,27.41287754919843,26.87887515956965,109.5020172183918,98.02365823817152,-0.0001295089750783,0.0963535830378532,0,0,0
9140,318620.6047687598,2010-10-26 05:54:20,1440.7272913357135,7,28,-1.099568486213684,3.643575668334961,27.41287754919843,26.88804322827133,109.5020172183918,98.0570821811566,-9.713172767078504e-05,0.0963535830378532,0,0,0
9141,318650.61993134033,2010-10-26 05:54:50,1470.7424538210616,7,28,-1.099568486213684,3.639042854309082,27.41287754919843,26.89721129485028,109.5020172183918,98.09046551022568,-9.713172767078504e-05,0.0963535830378532,0,0,0
9142,318680.634953912,2010-10-26 05:55:20,1500.7574763826767,7,28,-1.099568486213684,3.634510040283203,27.41287754919843,26.90637892451467,109.5020172183918,98.12380688756676,-0.0001618862152099,0.0963535830378532,0,0,0
9143,318710.6501045879,2010-10-26 05:55:50,1530.7726270886672,7,28,-1.0997490882873535,3.630300998687744,27.41287754919843,26.915546350811283,109.5020172183918,98.15710738065324,-0.0001295089750783,0.0963535830378532,0,0,0
9144,318740.66533611534,2010-10-26 05:56:20,1560.7878585910269,7,28,-1.099568486213684,3.625930070877075,27.41287754919843,26.924713876648376,109.5020172183918,98.1903690124786,-0.0001618862152099,0.0963535830378532,0,0,0
9145,318770.6805677831,2010-10-26 05:56:50,1590.803090384111,7,28,-1.099568486213684,3.622044801712036,27.41287754919843,26.9338813350126,109.5020172183918,98.22359179397496,-9.713172767078504e-05,0.0963535830378532,0,0,0
9146,318800.6955595981,2010-10-26 05:57:20,1620.8180821239089,7,28,-1.099568486213684,3.617673873901367,27.41287754919843,26.943049141211805,109.5020172183918,98.2567778275228,-0.0001295089750783,0.0963535830378532,0,0,0
9147,318830.71090447804,2010-10-26 05:57:50,1650.8334270940652,7,28,-1.099568486213684,3.613626718521118,27.41287754919843,26.952217376212456,109.5020172183918,98.28992803373724,-0.0001295089750783,0.0963535830378532,0,0,0
9148,318860.7258788445,2010-10-26 05:58:20,1680.848401315201,7,28,-1.0997490882873535,3.609741449356079,27.41287754919843,26.961385440387307,109.5020172183918,98.3230411162844,-0.0001295089750783,0.0963535830378532,0,0,0
9149,318890.7410151396,2010-10-26 05:58:50,1710.8635376102748,7,28,-1.0997490882873535,3.60601806640625,27.41287754919843,26.970553591114005,109.5020172183918,98.35611916244048,-9.713172767078504e-05,0.0963535830378532,0,0,0
9150,318920.7562664313,2010-10-26 05:59:20,1740.8787889470682,7,28,-1.099568486213684,3.602294683456421,27.41287754919843,26.979721703757733,109.5020172183918,98.38916246509145,-9.713172767078504e-05,0.0963535830378532,0,0,0
9151,318950.77130208054,2010-10-26 05:59:50,1770.8938247115889,7,28,-1.0997490882873535,3.598571300506592,27.41287754919843,26.988889824900063,109.5020172183918,98.42217202864204,-9.713172767078504e-05,0.0963535830378532,0,0,0
9152,318980.7864579243,2010-10-26 06:00:20,1800.908980430072,7,28,-1.099568486213684,3.5951716899871826,27.41287754919843,26.99805797328137,109.5020172183918,98.45514833714824,-3.237724376958795e-05,0.0963535830378532,0,0,0
9153,319010.801888959,2010-10-26 06:00:50,1830.9244114747528,7,28,-1.099568486213684,3.5914485454559326,27.41287754919843,27.00722624833953,109.5020172183918,98.48809241837137,-9.713172767078504e-05,0.0963535830378532,0,0,0
9154,319040.8167417775,2010-10-26 06:01:20,1860.9392643133656,7,28,-1.099568486213684,3.5882108211517334,27.41287754919843,27.016394370320743,109.5020172183918,98.52100418548532,-6.47544875391759e-05,0.0963535830378532,0,0,0
9155,319070.8320923366,2010-10-26 06:01:50,1890.954614827339,7,28,-1.099568486213684,3.5846493244171143,27.41287754919843,27.02556271845516,109.5020172183918,98.55388553591828,-6.47544875391759e-05,0.0963535830378532,0,0,0
9156,319100.8470512245,2010-10-26 06:02:20,1920.96957371526,7,28,-1.099568486213684,3.581573486328125,27.41287754919843,27.03473078345949,109.5020172183918,98.58673518661702,-3.237724376958795e-05,0.0963535830378532,0,0,0
9157,319130.8623051328,2010-10-26 06:02:50,1950.9848276234616,7,28,-1.099568486213684,3.578173875808716,27.41287754919843,27.043898954993647,109.5020172183918,98.61955547041111,-9.713172767078504e-05,0.0963535830378532,0,0,0
9158,319160.8799751877,2010-10-26 06:03:20,1981.002497793732,7,28,-1.099568486213684,3.5749361515045166,27.41287754919843,27.05306790901944,109.5020172183918,98.65234918469784,-9.713172767078504e-05,0.0963535830378532,0,0,0
9159,319190.89275217266,2010-10-26 06:03:50,2011.0152746934668,7,28,-1.099568486213684,3.571860313415528,27.41287754919843,27.06223539109821,109.5020172183918,98.68510828740352,-9.713172767078504e-05,0.0963535830378532,0,0,0
9160,319220.9076717927,2010-10-26 06:04:20,2041.0301942984825,7,28,-1.0997490882873535,3.568622589111328,27.41287754919843,27.07140347674413,109.5020172183918,98.71784005186971,-6.47544875391759e-05,0.0963535830378532,0,0,0
9161,319250.92278422334,2010-10-26 06:04:50,2071.045306724066,7,28,-1.0997490882873535,3.565384864807129,27.41287754919843,27.08057166263288,109.5020172183918,98.75054295822652,-9.713172767078504e-05,0.0963535830378532,0,0,0
9162,319280.93792348576,2010-10-26 06:05:20,2101.060445986536,7,28,-1.099568486213684,3.56230902671814,27.41287754919843,27.08973980943819,109.5020172183918,98.78321688633264,-0.0001295089750783,0.0963535830378532,0,0,0
9163,319310.9531975091,2010-10-26 06:05:50,2131.0757199998457,7,28,-1.0993878841400146,3.5592331886291504,27.41287754919843,27.09890802187304,109.5020172183918,98.81586234074427,-9.713172767078504e-05,0.0963535830378532,0,0,0
9164,319340.9684339588,2010-10-26 06:06:20,2161.090956434498,7,28,-1.0993878841400146,3.555995464324951,27.41287754919843,27.10807625956061,109.5020172183918,98.84847865812836,-6.47544875391759e-05,0.0963535830378532,0,0,0
9165,319370.9833779847,2010-10-26 06:06:50,2191.105900490453,7,28,-1.0997490882873535,3.552595853805542,27.41287754919843,27.11724441620884,109.5020172183918,98.88106542258912,-9.713172767078504e-05,0.0963535830378532,0,0,0
9166,319400.9986606495,2010-10-26 06:07:20,2221.121183140288,7,28,-1.0993878841400146,3.5495200157165527,27.41287754919843,27.126412592328933,109.5020172183918,98.9136229958804,-9.713172767078504e-05,0.0963535830378532,0,0,0
9167,319431.0136910407,2010-10-26 06:07:50,2251.1362135715167,7,28,-1.099568486213684,3.5464441776275635,27.41287754919843,27.135580780923856,109.5020172183918,98.94615100879348,-6.47544875391759e-05,0.0963535830378532,0,0,0
9168,319461.02883984195,2010-10-26 06:08:20,2281.1513623777723,7,28,-1.099568486213684,3.5432064533233643,27.41287754919843,27.14474902450255,109.5020172183918,98.9786497799361,-3.237724376958795e-05,0.0963535830378532,0,0,0
9169,319491.0440434698,2010-10-26 06:08:50,2311.1665660708227,7,28,-1.099568486213684,3.539806842803955,27.41287754919843,27.15391717308678,109.5020172183918,99.01111867929828,-6.47544875391759e-05,0.0963535830378532,0,0,0
9170,319521.05910662765,2010-10-26 06:09:20,2341.1816291333785,7,28,-1.0997490882873535,3.536731004714966,27.41287754919843,27.163085319076696,109.5020172183918,99.04355762995824,-6.47544875391759e-05,0.0963535830378532,0,0,0
9171,319551.0742656092,2010-10-26 06:09:50,2371.1967881400565,7,28,-1.0997490882873535,3.5333313941955566,27.41287754919843,27.172253551464003,109.5020172183918,99.07596687795034,-9.713172767078504e-05,0.0963535830378532,0,0,0
9172,319581.0894397035,2010-10-26 06:10:20,2401.211962184213,7,28,-1.099568486213684,3.5299317836761475,27.41287754919843,27.181421744447817,109.5020172183918,99.10834558683852,-9.713172767078504e-05,0.0963535830378532,0,0,0
9173,319611.1046818724,2010-10-26 06:10:50,2431.227204393257,7,28,-1.099568486213684,3.526694059371948,27.41287754919843,27.190590007699512,109.5020172183918,99.1406936359072,-6.47544875391759e-05,0.0963535830378532,0,0,0
9174,319641.11984687403,2010-10-26 06:11:20,2461.2423693698142,7,28,-1.099568486213684,3.523132562637329,27.41287754919843,27.199758276654688,109.5020172183918,99.17300980696366,-9.713172767078504e-05,0.0963535830378532,0,0,0
9175,319671.13510172965,2010-10-26 06:11:50,2491.257624345677,7,28,-1.0997490882873535,3.51924729347229,27.41287754919843,27.208926471110285,109.5020172183918,99.20529270272776,-9.713172767078504e-05,0.0963535830378532,0,0,0
9176,319701.1500238459,2010-10-26 06:12:20,2521.2725463516763,7,28,-1.099568486213684,3.515523910522461,27.41287754919843,27.21809458259074,109.5020172183918,99.23754141881402,-9.713172767078504e-05,0.0963535830378532,0,0,0
9177,319731.16522827576,2010-10-26 06:12:50,2551.287750766526,7,28,-1.099568486213684,3.511476993560791,27.41287754919843,27.22726282278449,109.5020172183918,99.26975530274308,-0.0001618385285837,0.0963535830378532,0,0,0
9178,319761.18029981945,2010-10-26 06:13:20,2581.302822325257,7,28,-1.099568486213684,3.507591724395752,27.41287754919843,27.236431024907507,109.5020172183918,99.30193260317384,-6.47544875391759e-05,0.0963535830378532,0,0,0
9179,319791.19545387884,2010-10-26 06:13:50,2611.317976409667,7,28,-1.0997490882873535,3.503220796585083,27.41287754919843,27.245599252063567,109.5020172183918,99.33407161565844,-9.713172767078504e-05,0.0963535830378532,0,0,0
9180,319821.2106038781,2010-10-26 06:14:20,2641.3331264038834,7,28,-1.0997490882873535,3.498687982559204,27.41287754919843,27.254767456222964,109.5020172183918,99.36616986033448,-0.0001618862152099,0.0963535830378532,0,0,0
9181,319851.22576994234,2010-10-26 06:14:50,2671.3482924430887,7,28,-1.099568486213684,3.4936695098876958,27.41287754919843,27.263935674589213,109.5020172183918,99.39822476856298,-0.0001295089750783,0.0963535830378532,0,0,0
9182,319881.2410391938,2010-10-26 06:15:20,2701.3635616694683,7,28,-1.0997490882873535,3.488489151000977,27.41287754919843,27.27310391683512,109.5020172183918,99.4302329228925,-0.0001618862152099,0.0963535830378532,0,0,0
9183,319911.2560357105,2010-10-26 06:15:50,2731.3785583064714,7,28,-1.0993878841400146,3.482823133468628,27.41287754919843,27.28227204280859,109.5020172183918,99.4621896210815,-0.0001618862152099,0.0963535830378532,0,0,0
9184,319941.2712009677,2010-10-26 06:16:20,2761.393723473503,7,28,-1.099568486213684,3.476347684860229,27.41287754919843,27.291440115670508,109.5020172183918,99.49408997053354,-0.0001295089750783,0.0963535830378532,0,0,0
9185,319971.2863494331,2010-10-26 06:16:50,2791.408871963972,7,28,-1.099568486213684,3.469062805175781,27.41287754919843,27.30060819966895,109.5020172183918,99.52592834875784,-0.0001942634553415,0.0963535830378532,0,0,0
9186,320001.3014756732,2010-10-26 06:17:20,2821.4239982039853,7,28,-1.0993878841400146,3.461130380630493,27.41287754919843,27.309776311839368,109.5020172183918,99.55769722235586,-0.0001942634553415,0.0963535830378532,0,0,0
9187,320031.3166224644,2010-10-26 06:17:51,2851.439144960132,7,28,-1.099568486213684,3.451579093933105,27.41287754919843,27.31894440707117,109.5020172183918,99.5893859627148,-0.0002913951757363,0.0963535830378532,0,0,0
9188,320061.33186572103,2010-10-26 06:18:21,2881.4543881967365,7,28,-1.0993878841400146,3.440732717514038,27.41287754919843,27.328112562173505,109.5020172183918,99.62098179358276,-0.0002913951757363,0.0963535830378532,0,0,0
9189,320091.3469173802,2010-10-26 06:18:51,2911.469439870909,7,28,-1.099568486213684,3.4277820587158203,27.41287754919843,27.337280596150578,109.5020172183918,99.6524674325391,-0.0003561496851034,0.0963535830378532,0,0,0
9190,320121.3620641313,2010-10-26 06:19:21,2941.484586627055,7,28,-1.0997490882873535,3.412240982055664,27.41287754919843,27.346448751759137,109.5020172183918,99.68382379220344,-0.0004532813909463,0.0963535830378532,0,0,0
9191,320151.37720550405,2010-10-26 06:19:51,2971.499727999784,7,28,-1.0997490882873535,3.3931384086608887,27.41287754919843,27.35561684115057,109.5020172183918,99.71502318012492,-0.0005504131549969,0.0963535830378532,0,0,0
9192,320181.3923796635,2010-10-26 06:20:21,3001.5149021592274,7,28,-1.099568486213684,3.3691792488098145,27.41287754919843,27.36478500054952,109.5020172183918,99.74602738422168,-0.0007446765666827,0.0963535830378532,0,0,0
9193,320211.40749557776,2010-10-26 06:20:51,3031.5300180584686,7,28,-1.0997490882873535,3.338097333908081,27.41287754919843,27.37395308913094,109.5020172183918,99.77678057074844,-0.0009389400365762,0.0963535830378532,0,0,0
9194,320241.4226428201,2010-10-26 06:21:21,3061.5451653459395,7,28,-1.0997490882873535,3.296330690383911,27.41287754919843,27.3831211505129,109.5020172183918,99.80720300563506,-0.0012627125252038,0.0963535830378532,0,0,0
9195,320271.43780714006,2010-10-26 06:21:51,3091.56032966586,7,28,-1.0993878841400146,3.2380518913269043,27.41287754919843,27.39228923255288,109.5020172183918,99.83717239919484,-0.0017807483673095,0.0963535830378532,0,0,0
9196,320301.4531717241,2010-10-26 06:22:21,3121.575694229849,7,28,-1.099568486213684,3.1540331840515137,27.41287754919843,27.401457344877585,109.5020172183918,99.86649981601978,-0.0026225566398352,0.0963535830378532,0,0,0
9197,320331.468090502,2010-10-26 06:22:51,3151.5906129977798,7,28,-1.099568486213684,3.020963191986084,27.41287754919843,27.41062541534568,109.5020172183918,99.8948608409048,-0.004500389099121,0.0963535830378532,0,0,0
9198,320355.0771384689,2010-10-26 06:23:14,3175.19966097466,7,28,-1.0997490882873535,2.8207104206085205,27.41287754919843,27.41783675368815,109.5020172183918,99.91600370287568,-0.0087742330506443,0.0963535830378532,0,0,0
9199,320364.57697036804,2010-10-26 06:23:24,3184.6994928637528,7,28,-1.099568486213684,2.699943780899048,27.41287754919843,27.420738446916825,109.5020172183918,99.92401835495548,-0.0106196878477931,0.0963535830378532,0,0,0
9200,320424.5993754615,2010-10-26 06:24:24,60.014703903189485,8,28,0.0,3.363027572631836,27.41287754919843,27.420738446916825,109.5020172183918,99.92401835495548,0.0013598442310467,0.0963535830378532,0,0,0
9201,320424.7955317937,2010-10-26 06:24:24,0.187491396249113,9,28,-1.9243103452026844e-05,3.363189458847046,27.41287754919843,27.420738447919025,109.5020172183918,99.924018358326,3.237724376958795e-05,0.0931148082017898,0,0,0
9202,320429.6235585218,2010-10-26 06:24:29,5.015518094327401,9,28,0.0001613661734154,3.371283769607544,27.4128781612667,27.420738448085977,109.50201927970492,99.9240183588875,0.0011332035064697,0.0931148082017898,0,0,0
