Data_Point,Test_Time(s),Date_Time,Step_Time(s),Step_Index,Cycle_Index,Current(A),Voltage(V),Charge_Capacity(Ah),Discharge_Capacity(Ah),Charge_Energy(Wh),Discharge_Energy(Wh),dV/dt(V/s),Internal_Resistance(Ohm),Is_FC_Data,AC_Impedance(Ohm),ACI_Phase_Angle(Deg)
16979,575775.8997065555,2010-09-21 05:54:28,30.015313034073515,1,50,0.0,3.454978704452514,50.18725330748947,50.32183168556827,199.8330698906932,184.27201528241224,0.0008741855854168,0.0891468673944473,0,0,0
16980,575805.9175218355,2010-09-21 05:54:58,60.03312841438822,1,50,0.0,3.4805567264556885,50.18725330748947,50.32183168556827,199.8330698906932,184.27201528241224,0.0006151676061563,0.0891468673944473,0,0,0
16981,575835.9301763335,2010-09-21 05:55:28,90.04578281209635,1,50,0.0,3.499335527420044,50.18725330748947,50.32183168556827,199.8330698906932,184.27201528241224,0.0004532813909463,0.0891468673944473,0,0,0
16982,575865.898543248,2010-09-21 05:55:58,120.01414972643252,1,50,0.0,3.5140669345855717,50.18725330748947,50.32183168556827,199.8330698906932,184.27201528241224,0.0003561496851034,0.0891468673944473,0,0,0
16983,575895.8993056384,2010-09-21 05:56:28,30.01528803166365,2,50,0.550297200679779,3.6495654582977295,50.19183982077542,50.32183168556827,199.8496767934761,184.27201528241224,0.0012627125252038,0.0891468673944473,0,0,0
16984,575925.9145518006,2010-09-21 05:56:58,60.03053419381456,2,50,0.5501165986061096,3.687122821807861,50.19642626806633,50.32183168556827,199.8665068634076,184.27201528241224,0.0008741855854168,0.0891468673944473,0,0,0
16985,575955.9299490849,2010-09-21 05:57:28,90.04593148320231,2,50,0.5501165986061096,3.713834047317505,50.20101267957827,50.32183168556827,199.88348162598444,184.27201528241224,0.0006151676061563,0.0891468673944473,0,0,0
16986,575985.9451157837,2010-09-21 05:57:58,120.06109817698794,2,50,0.5501165986061096,3.73439359664917,50.20559912402464,50.32183168556827,199.9005641388696,184.27201528241224,0.0004856586456298,0.0891468673944473,0,0,0
16987,576015.9603490386,2010-09-21 05:58:28,150.07633143693295,2,50,0.5499359965324402,3.750258445739746,50.21018558067918,50.32183168556827,199.91773021635112,184.27201528241224,0.0003561496851034,0.0891468673944473,0,0,0
16988,576045.9756210954,2010-09-21 05:58:58,180.0916035087584,2,50,0.5499359965324402,3.761752128601074,50.21477193271801,50.32183168556827,199.9349589603624,184.27201528241224,0.0002266406954731,0.0891468673944473,0,0,0
16989,576075.9908687714,2010-09-21 05:59:28,210.10685118970045,2,50,0.5501165986061096,3.768875122070313,50.21935824717985,50.32183168556827,199.95222926971636,184.27201528241224,0.0001618862152099,0.0891468673944473,0,0,0
16990,576106.0061275851,2010-09-21 05:59:58,240.1221100034317,2,50,0.5501165986061096,3.773084163665772,50.22394447304559,50.32183168556827,199.96952468636977,184.27201528241224,6.47544875391759e-05,0.0891468673944473,0,0,0
16991,576136.0214299525,2010-09-21 06:00:28,270.1374123708796,2,50,0.5501165986061096,3.7769694328308105,50.228530709336354,50.32183168556827,199.98683866880012,184.27201528241224,9.713172767078504e-05,0.0891468673944473,0,0,0
16992,576166.0366564356,2010-09-21 06:00:58,300.1526388589209,2,50,0.5499359965324402,3.7805309295654297,50.23311688749757,50.32183168556827,200.0041688935187,184.27201528241224,9.713172767078504e-05,0.0891468673944473,0,0,0
16993,576196.0519269033,2010-09-21 06:01:28,330.1679093066925,2,50,0.5499359965324402,3.783930540084839,50.23770290032275,50.32183168556827,200.02151437727608,184.27201528241224,6.47544875391759e-05,0.0891468673944473,0,0,0
16994,576226.0671903236,2010-09-21 06:01:58,360.18317274195977,2,50,0.5497553944587708,3.787492036819458,50.24228832873361,50.32183168556827,200.03887361334336,184.27201528241224,6.47544875391759e-05,0.0891468673944473,0,0,0
16995,576256.0825868511,2010-09-21 06:02:28,390.19856926944567,2,50,0.5501165986061096,3.790891647338867,50.24687403657018,50.32183168556827,200.0562498669053,184.27201528241224,6.47544875391759e-05,0.0891468673944473,0,0,0
16996,576286.0978634292,2010-09-21 06:02:58,420.21384583248187,2,50,0.550297200679779,3.7944531440734863,50.251460421255885,50.32183168556827,200.07364452389191,184.27201528241224,9.713172767078504e-05,0.0891468673944473,0,0,0
16997,576316.11312505,2010-09-21 06:03:28,450.2291074482073,2,50,0.550297200679779,3.797852754592896,50.25604675596736,50.32183168556827,200.0910545946053,184.27201528241224,9.713172767078504e-05,0.0891468673944473,0,0,0
16998,576346.1282651223,2010-09-21 06:03:58,480.24424751552914,2,50,0.5501165986061096,3.801090478897095,50.26063315112799,50.32183168556827,200.10848019041632,184.27201528241224,9.713172767078504e-05,0.0891468673944473,0,0,0
16999,576376.1435918655,2010-09-21 06:04:28,510.25957435907327,2,50,0.5499359965324402,3.804166316986084,50.26521959314668,50.32183168556827,200.12592104581583,184.27201528241224,6.47544875391759e-05,0.0891468673944473,0,0,0
17000,576406.1588511806,2010-09-21 06:04:58,540.2748336690431,2,50,0.5501165986061096,3.807565927505493,50.26980608232586,50.32183168556827,200.14337712877511,184.27201528241224,9.713172767078504e-05,0.0891468673944473,0,0,0
17001,576436.1740727063,2010-09-21 06:05:28,570.2900550994598,2,50,0.5499359965324402,3.8106417655944815,50.274392485406175,50.32183168556827,200.1608477347335,184.27201528241224,3.237724376958795e-05,0.0891468673944473,0,0,0
17002,576466.1893715599,2010-09-21 06:05:58,600.3053539781994,2,50,0.5499359965324402,3.814041376113892,50.27897890233916,50.32183168556827,200.17833331172537,184.27201528241224,6.47544875391759e-05,0.0891468673944473,0,0,0
17003,576496.2046188549,2010-09-21 06:06:28,630.3206012581405,2,50,0.550297200679779,3.817279100418091,50.28356530587133,50.32183168556827,200.19583388669932,184.27201528241224,6.47544875391759e-05,0.0891468673944473,0,0,0
17004,576526.2198595384,2010-09-21 06:06:58,660.3358419315908,2,50,0.5501165986061096,3.82051682472229,50.28815168075104,50.32183168556827,200.21334917353428,184.27201528241224,6.47544875391759e-05,0.0891468673944473,0,0,0
17005,576556.2351873794,2010-09-21 06:07:28,690.3511698678625,2,50,0.5501165986061096,3.823754549026489,50.29273812249046,50.32183168556827,200.23087962082457,184.27201528241224,9.713172767078504e-05,0.0891468673944473,0,0,0
17006,576586.2503838075,2010-09-21 06:07:58,720.3663662006315,2,50,0.5501165986061096,3.827316045761109,50.29732460891632,50.32183168556827,200.2484254958092,184.27201528241224,9.713172767078504e-05,0.0891468673944473,0,0,0
17007,576616.2658700438,2010-09-21 06:08:28,750.3818524721323,2,50,0.5501165986061096,3.830553770065308,50.30191098904504,50.32183168556827,200.26598634856325,184.27201528241224,9.713172767078504e-05,0.0891468673944473,0,0,0
17008,576646.2809058309,2010-09-21 06:08:58,780.3968882290795,2,50,0.550297200679779,3.8339531421661377,50.306497364860974,50.32183168556827,200.28356290521697,184.27201528241224,6.47544875391759e-05,0.0891468673944473,0,0,0
17009,576676.2965825177,2010-09-21 06:09:28,810.4125650361866,2,50,0.5501165986061096,3.837676525115967,50.31108380966772,50.32183168556827,200.30115554809376,184.27201528241224,0.0001295089750783,0.0891468673944473,0,0,0
17010,576706.3114296788,2010-09-21 06:09:58,840.4274120720568,2,50,0.5501165986061096,3.840914249420166,50.31567018934276,50.32183168556827,200.3187637338705,184.27201528241224,9.713172767078504e-05,0.0891468673944473,0,0,0
17011,576736.3267052443,2010-09-21 06:10:28,870.4426876376032,2,50,0.5501165986061096,3.844313859939575,50.320256629316695,50.32183168556827,200.3363878467009,184.27201528241224,6.47544875391759e-05,0.0891468673944473,0,0,0
17012,576766.3420869098,2010-09-21 06:10:58,900.458069313016,2,50,0.550297200679779,3.847713470458984,50.32484305239446,50.32183168556827,200.3540274034123,184.27201528241224,9.713172767078504e-05,0.0891468673944473,0,0,0
17013,576796.3573510216,2010-09-21 06:11:28,930.47333341996,2,50,0.5501165986061096,3.850951194763184,50.32942947620896,50.32183168556827,200.37168210999047,184.27201528241224,6.47544875391759e-05,0.0891468673944473,0,0,0
17014,576826.3724856555,2010-09-21 06:11:58,960.4884680487064,2,50,0.5501165986061096,3.854188919067383,50.33401592978342,50.32183168556827,200.3893517553005,184.27201528241224,0.0001295089750783,0.0891468673944473,0,0,0
17015,576856.3877573563,2010-09-21 06:12:28,990.5037397496058,2,50,0.5499359965324402,3.857264757156372,50.33860229481195,50.32183168556827,200.40703556164124,184.27201528241224,9.713172767078504e-05,0.0891468673944473,0,0,0
17016,576886.4030344356,2010-09-21 06:12:58,1020.5190168539932,2,50,0.5501165986061096,3.860340595245361,50.34318869060614,50.32183168556827,200.42473363175105,184.27201528241224,6.47544875391759e-05,0.0891468673944473,0,0,0
17017,576916.4184016149,2010-09-21 06:13:28,1050.5343841033964,2,50,0.5501165986061096,3.8632545471191406,50.34777512125788,50.32183168556827,200.44244552381832,184.27201528241224,6.47544875391759e-05,0.0891468673944473,0,0,0
17018,576946.4336728897,2010-09-21 06:13:58,1080.5496553080573,2,50,0.550297200679779,3.86616849899292,50.35236151903145,50.32183168556827,200.4601704924605,184.27201528241224,9.713172767078504e-05,0.0891468673944473,0,0,0
17019,576976.4488278592,2010-09-21 06:14:28,1110.5648102525147,2,50,0.5499359965324402,3.8687586784362793,50.35694793654074,50.32183168556827,200.477908358106,184.27201528241224,6.47544875391759e-05,0.0891468673944473,0,0,0
17020,577006.4640653648,2010-09-21 06:14:58,1140.5800477580576,2,50,0.5499359965324402,3.871348857879639,50.36153430687165,50.32183168556827,200.4956581904818,184.27201528241224,3.237724376958795e-05,0.0891468673944473,0,0,0
17021,577036.4793284441,2010-09-21 06:15:28,1170.5953109326742,2,50,0.5501165986061096,3.873777151107788,50.36612072388874,50.32183168556827,200.51341979091487,184.27201528241224,3.237724376958795e-05,0.0891468673944473,0,0,0
17022,577066.4945615287,2010-09-21 06:15:58,1200.610543957031,2,50,0.550297200679779,3.8762054443359375,50.37070706848292,50.32183168556827,200.5311918823424,184.27201528241224,6.47544875391759e-05,0.0891468673944473,0,0,0
17023,577096.5098443874,2010-09-21 06:16:28,1230.6258268157826,2,50,0.5501165986061096,3.878471851348877,50.37529333090891,50.32183168556827,200.5489738869246,184.27201528241224,9.713172767078504e-05,0.0891468673944473,0,0,0
17024,577126.5250820684,2010-09-21 06:16:58,1260.641064496763,2,50,0.5499359965324402,3.880414485931397,50.37987971712767,50.32183168556827,200.5667660548146,184.27201528241224,3.237724376958795e-05,0.0891468673944473,0,0,0
17025,577156.5403882253,2010-09-21 06:17:28,1290.65637065367,2,50,0.5499359965324402,3.882195234298706,50.38446603803411,50.32183168556827,200.58456704364644,184.27201528241224,6.47544875391759e-05,0.0891468673944473,0,0,0
17026,577186.5556592295,2010-09-21 06:17:58,1320.6716416277554,2,50,0.5499359965324402,3.883975982666016,50.38905237984347,50.32183168556827,200.6023765364117,184.27201528241224,6.47544875391759e-05,0.0891468673944473,0,0,0
17027,577216.570996514,2010-09-21 06:18:28,1350.6869789173743,2,50,0.5499359965324402,3.885432958602905,50.39363871506562,50.32183168556827,200.62019370745568,184.27201528241224,0.0,0.0891468673944473,0,0,0
17028,577246.5863483801,2010-09-21 06:18:58,1380.7023307934037,2,50,0.5499359965324402,3.887051820755005,50.39822504373007,50.32183168556827,200.63801812881405,184.27201528241224,3.237724376958795e-05,0.0891468673944473,0,0,0
17029,577276.6015666225,2010-09-21 06:19:28,1410.7175490258376,2,50,0.5501165986061096,3.8888325691223145,50.402811386978165,50.32183168556827,200.65584940742983,184.27201528241224,6.47544875391759e-05,0.0891468673944473,0,0,0
17030,577306.6167237324,2010-09-21 06:19:58,1440.7327061557503,2,50,0.5501165986061096,3.890127658843994,50.407397776589214,50.32183168556827,200.67368723396737,184.27201528241224,9.713172767078504e-05,0.0891468673944473,0,0,0
17031,577336.6319756139,2010-09-21 06:20:28,1470.7479580121149,2,50,0.5501165986061096,3.891260862350464,50.41198417783958,50.32183168556827,200.69153114870787,184.27201528241224,3.237724376958795e-05,0.0891468673944473,0,0,0
17032,577366.647226994,2010-09-21 06:20:58,1500.7632093922907,2,50,0.5501165986061096,3.8923940658569336,50.4165706040656,50.32183168556827,200.70938098694512,184.27201528241224,3.237724376958795e-05,0.0891468673944473,0,0,0
17033,577396.6624880633,2010-09-21 06:21:28,1530.7784704616524,2,50,0.5501165986061096,3.893689155578613,50.42115694915182,50.32183168556827,200.72723611334297,184.27201528241224,3.237724376958795e-05,0.0891468673944473,0,0,0
17034,577426.677751223,2010-09-21 06:21:58,1560.7937336212317,2,50,0.5499359965324402,3.894660472869873,50.42574336344487,50.32183168556827,200.7450970186184,184.27201528241224,-3.237724376958795e-05,0.0891468673944473,0,0,0
17035,577456.6930400968,2010-09-21 06:22:28,1590.8090224949972,2,50,0.5501165986061096,3.8961174488067623,50.43032978850392,50.32183168556827,200.7629627516667,184.27201528241224,6.47544875391759e-05,0.0891468673944473,0,0,0
17036,577486.7082769506,2010-09-21 06:22:58,1620.8242593489133,2,50,0.5501165986061096,3.8970887660980233,50.43491618852156,50.32183168556827,200.78083395742627,184.27201528241224,0.0,0.0891468673944473,0,0,0
17037,577516.7235496792,2010-09-21 06:23:29,1650.839532187653,2,50,0.5499359965324402,3.898221969604492,50.4395024954238,50.32183168556827,200.7987099906118,184.27201528241224,0.0,0.0891468673944473,0,0,0
17038,577546.7387963025,2010-09-21 06:23:59,1680.8547787959176,2,50,0.5501165986061096,3.899355173110962,50.44408883815338,50.32183168556827,200.81659149044893,184.27201528241224,0.0,0.0891468673944473,0,0,0
17039,577576.7566908052,2010-09-21 06:24:29,1710.8726733288092,2,50,0.5501165986061096,3.900488376617432,50.44867565805982,50.32183168556827,200.8344801256592,184.27201528241224,3.237724376958795e-05,0.0891468673944473,0,0,0
17040,577606.7693276491,2010-09-21 06:24:59,1740.8853100473875,2,50,0.550297200679779,3.9017834663391113,50.453261636630856,50.32183168556827,200.8523708251728,184.27201528241224,3.237724376958795e-05,0.0891468673944473,0,0,0
17041,577636.7845817861,2010-09-21 06:25:29,1770.90056421452,2,50,0.5501165986061096,3.902916669845581,50.457848025858,50.32183168556827,200.8702684706378,184.27201528241224,3.237724376958795e-05,0.0891468673944473,0,0,0
17042,577666.7998547051,2010-09-21 06:25:59,1800.91583713346,2,50,0.5499359965324402,3.904049873352051,50.46243442904521,50.32183168556827,200.8881715529898,184.27201528241224,3.237724376958795e-05,0.0891468673944473,0,0,0
17043,577696.815154842,2010-09-21 06:26:29,1830.9311373304904,2,50,0.5501165986061096,3.905183076858521,50.4670208520133,50.32183168556827,200.9060801393349,184.27201528241224,0.0,0.0891468673944473,0,0,0
17044,577726.8303997309,2010-09-21 06:26:59,1860.946382129238,2,50,0.550297200679779,3.9063162803649902,50.47160721322573,50.32183168556827,200.92399377343767,184.27201528241224,0.0,0.0891468673944473,0,0,0
17045,577756.845630605,2010-09-21 06:27:29,1890.9616130032275,2,50,0.5501165986061096,3.90777325630188,50.476193527240056,50.32183168556827,200.94191284001823,184.27201528241224,6.47544875391759e-05,0.0891468673944473,0,0,0
17046,577786.8609088722,2010-09-21 06:27:59,1920.9768912705176,2,50,0.5499359965324402,3.9089064598083496,50.48077987731198,50.32183168556827,200.9598375975201,184.27201528241224,3.237724376958795e-05,0.0891468673944473,0,0,0
17047,577816.8761624078,2010-09-21 06:28:29,1950.9921448060736,2,50,0.550297200679779,3.910201549530029,50.48536623623984,50.32183168556827,200.9777680630664,184.27201528241224,3.237724376958795e-05,0.0891468673944473,0,0,0
17048,577846.8914070963,2010-09-21 06:28:59,1981.007389494546,2,50,0.5501165986061096,3.911496639251709,50.48995262646199,50.32183168556827,200.9957042456164,184.27201528241224,6.47544875391759e-05,0.0891468673944473,0,0,0
17049,577876.9067983306,2010-09-21 06:29:29,2011.0227807588944,2,50,0.5499359965324402,3.9124679565429688,50.4945389847968,50.32183168556827,201.01364601083804,184.27201528241224,0.0,0.0891468673944473,0,0,0
17050,577906.9219355256,2010-09-21 06:29:59,2041.037917923972,2,50,0.5501165986061096,3.9139246940612793,50.499125358350426,50.32183168556827,201.0315935964046,184.27201528241224,3.237724376958795e-05,0.0891468673944473,0,0,0
17051,577936.93723665,2010-09-21 06:30:29,2071.0532190733798,2,50,0.5499359965324402,3.915057897567749,50.50371177242283,50.32183168556827,201.0495471942602,184.27201528241224,0.0,0.0891468673944473,0,0,0
17052,577966.9524828874,2010-09-21 06:30:59,2101.068465285656,2,50,0.550297200679779,3.916514873504639,50.50829827608207,50.32183168556827,201.06750685942737,184.27201528241224,3.237724376958795e-05,0.0891468673944473,0,0,0
17053,577996.9677138616,2010-09-21 06:31:29,2131.083696284957,2,50,0.5501165986061096,3.9178099632263184,50.51288455817586,50.32183168556827,201.08547169448576,184.27201528241224,3.237724376958795e-05,0.0891468673944473,0,0,0
17054,578026.9829759886,2010-09-21 06:31:59,2161.098958386897,2,50,0.5501165986061096,3.919105052947998,50.51747093266064,50.32183168556827,201.10344287348977,184.27201528241224,3.237724376958795e-05,0.0891468673944473,0,0,0
17055,578056.9982525015,2010-09-21 06:32:29,2191.114234899808,2,50,0.5499359965324402,3.9204001426696777,50.52205727158065,50.32183168556827,201.1214200181532,184.27201528241224,6.47544875391759e-05,0.0891468673944473,0,0,0
17056,578087.0135053905,2010-09-21 06:32:59,2221.1294878138124,2,50,0.5501165986061096,3.921695232391357,50.52664365824724,50.32183168556827,201.1394034373248,184.27201528241224,3.237724376958795e-05,0.0891468673944473,0,0,0
17057,578117.0287670363,2010-09-21 06:33:29,2251.1447494345502,2,50,0.5501165986061096,3.923152208328247,50.53122999177928,50.32183168556827,201.15739282707105,184.27201528241224,3.237724376958795e-05,0.0891468673944473,0,0,0
17058,578147.0440397498,2010-09-21 06:33:59,2281.16002217304,2,50,0.550297200679779,3.924447298049927,50.53581632735462,50.32183168556827,201.17538847199444,184.27201528241224,3.237724376958795e-05,0.0891468673944473,0,0,0
17059,578177.0592781524,2010-09-21 06:34:29,2311.175260645997,2,50,0.5497553944587708,3.9257423877716064,50.54040269520003,50.32183168556827,201.19339051506063,184.27201528241224,3.237724376958795e-05,0.0891468673944473,0,0,0
17060,578207.0746423042,2010-09-21 06:34:59,2341.1906247024303,2,50,0.5501165986061096,3.927037477493286,50.54498903382827,50.32183168556827,201.21139854067093,184.27201528241224,0.0,0.0891468673944473,0,0,0
17061,578237.0898244315,2010-09-21 06:35:29,2371.20580682974,2,50,0.5501165986061096,3.928494453430176,50.549575402646354,50.32183168556827,201.2294131396554,184.27201528241224,3.237724376958795e-05,0.0891468673944473,0,0,0
17062,578267.1051264631,2010-09-21 06:35:59,2401.22110886135,2,50,0.5501165986061096,3.9299514293670654,50.55416181259884,50.32183168556827,201.2474344496816,184.27201528241224,6.47544875391759e-05,0.0891468673944473,0,0,0
17063,578297.120355267,2010-09-21 06:36:29,2431.236337675197,2,50,0.5501165986061096,3.931408405303955,50.55874822948008,50.32183168556827,201.2654623166955,184.27201528241224,3.237724376958795e-05,0.0891468673944473,0,0,0
17064,578327.1358192327,2010-09-21 06:36:59,2461.2518017663324,2,50,0.5501165986061096,3.933027267456055,50.56333466995914,50.32183168556827,201.28349689403083,184.27201528241224,6.47544875391759e-05,0.0891468673944473,0,0,0
17065,578357.1508844884,2010-09-21 06:37:29,2491.266866911637,2,50,0.550297200679779,3.934484243392944,50.56792107256116,50.32183168556827,201.30153791312105,184.27201528241224,6.47544875391759e-05,0.0891468673944473,0,0,0
17066,578387.1662450661,2010-09-21 06:37:59,2521.2822274944,2,50,0.5501165986061096,3.935779333114624,50.57250751884935,50.32183168556827,201.31958581287623,184.27201528241224,6.47544875391759e-05,0.0891468673944473,0,0,0
17067,578417.1813932084,2010-09-21 06:38:29,2551.297375606803,2,50,0.5501165986061096,3.9372363090515137,50.57709387199701,50.32183168556827,201.33763996092995,184.27201528241224,6.47544875391759e-05,0.0891468673944473,0,0,0
17068,578447.1966556313,2010-09-21 06:38:59,2581.3126380295425,2,50,0.5501165986061096,3.9386932849884033,50.581680202352224,50.32183168556827,201.35570094802864,184.27201528241224,3.237724376958795e-05,0.0891468673944473,0,0,0
17069,578477.2119051368,2010-09-21 06:39:29,2611.327887530027,2,50,0.5499359965324402,3.940150260925293,50.58626647591658,50.32183168556827,201.3737685929495,184.27201528241224,-3.237724376958795e-05,0.0891468673944473,0,0,0
17070,578507.2271730783,2010-09-21 06:39:59,2641.343155496605,2,50,0.5501165986061096,3.9417691230773926,50.590852866304125,50.32183168556827,201.3918437122681,184.27201528241224,6.47544875391759e-05,0.0891468673944473,0,0,0
17071,578537.2426771994,2010-09-21 06:40:29,2671.358659617661,2,50,0.5501165986061096,3.943387985229492,50.59543926090024,50.32183168556827,201.4099258671669,184.27201528241224,6.47544875391759e-05,0.0891468673944473,0,0,0
17072,578567.2577477582,2010-09-21 06:40:59,2701.373730271717,2,50,0.5499359965324402,3.945006847381592,50.60002556165281,50.32183168556827,201.42801472822504,184.27201528241224,6.47544875391759e-05,0.0891468673944473,0,0,0
17073,578597.2733412924,2010-09-21 06:41:29,2731.389323790924,2,50,0.5501165986061096,3.9464638233184814,50.604611919828265,50.32183168556827,201.44611098334764,184.27201528241224,6.47544875391759e-05,0.0891468673944473,0,0,0
17074,578627.288217842,2010-09-21 06:41:59,2761.4042002352026,2,50,0.5499359965324402,3.947920799255371,50.6091981996354,50.32183168556827,201.46421391961533,184.27201528241224,3.237724376958795e-05,0.0891468673944473,0,0,0
17075,578657.3034861744,2010-09-21 06:42:29,2791.419468567694,2,50,0.5501165986061096,3.949539661407471,50.61378448983931,50.32183168556827,201.4823242051355,184.27201528241224,3.237724376958795e-05,0.0891468673944473,0,0,0
17076,578687.318866286,2010-09-21 06:42:59,2821.4348486842155,2,50,0.550297200679779,3.95132040977478,50.618370826693045,50.32183168556827,201.50044201122395,184.27201528241224,3.237724376958795e-05,0.0891468673944473,0,0,0
17077,578717.3339840325,2010-09-21 06:43:29,2851.4499664308214,2,50,0.5499359965324402,3.95277738571167,50.62295719705842,50.32183168556827,201.51856731122143,184.27201528241224,3.237724376958795e-05,0.0891468673944473,0,0,0
17078,578747.3492433826,2010-09-21 06:43:59,2881.4652257859043,2,50,0.5499359965324402,3.9543962478637695,50.62754356488917,50.32183168556827,201.536700034002,184.27201528241224,3.237724376958795e-05,0.0891468673944473,0,0,0
17079,578777.3646632333,2010-09-21 06:44:29,2911.4806456265837,2,50,0.5499359965324402,3.956015110015869,50.63212995389038,50.32183168556827,201.55484030079216,184.27201528241224,3.237724376958795e-05,0.0891468673944473,0,0,0
17080,578807.3797733308,2010-09-21 06:44:59,2941.495755724096,2,50,0.5501165986061096,3.9577958583831783,50.63671631688998,50.32183168556827,201.57298801179323,184.27201528241224,3.237724376958795e-05,0.0891468673944473,0,0,0
17081,578837.3951783244,2010-09-21 06:45:29,2971.511160732752,2,50,0.5499359965324402,3.959252834320069,50.64130267733039,50.32183168556827,201.59114341680583,184.27201528241224,3.237724376958795e-05,0.0891468673944473,0,0,0
17082,578867.4102913593,2010-09-21 06:45:59,3001.5262737525595,2,50,0.5501165986061096,3.961033582687378,50.64588896019814,50.32183168556827,201.60930617617635,184.27201528241224,3.237724376958795e-05,0.0891468673944473,0,0,0
17083,578897.4255648296,2010-09-21 06:46:29,3031.5415472529507,2,50,0.5501165986061096,3.962814331054688,50.6504753127415,50.32183168556827,201.62747700734707,184.27201528241224,6.47544875391759e-05,0.0891468673944473,0,0,0
17084,578927.4408235281,2010-09-21 06:46:59,3061.5568059213188,2,50,0.5499359965324402,3.964433193206787,50.65506154115565,50.32183168556827,201.64565520297143,184.27201528241224,3.237724376958795e-05,0.0891468673944473,0,0,0
17085,578957.4560919658,2010-09-21 06:47:29,3091.572074359073,2,50,0.5499359965324402,3.9662139415740967,50.659647772110425,50.32183168556827,201.6638413555401,184.27201528241224,6.47544875391759e-05,0.0891468673944473,0,0,0
17086,578987.4713475564,2010-09-21 06:47:59,3121.5873299748214,2,50,0.5501165986061096,3.9679946899414062,50.66423416028525,50.32183168556827,201.68203609857912,184.27201528241224,9.713172767078504e-05,0.0891468673944473,0,0,0
17087,579017.4865945758,2010-09-21 06:48:29,3151.60257696905,2,50,0.5499359965324402,3.969613552093506,50.66882042453442,50.32183168556827,201.7002383476296,184.27201528241224,3.237724376958795e-05,0.0891468673944473,0,0,0
17088,579047.5018574947,2010-09-21 06:48:59,3181.617839913091,2,50,0.5501165986061096,3.9715561866760254,50.67340675121198,50.32183168556827,201.7184489801137,184.27201528241224,6.47544875391759e-05,0.0891468673944473,0,0,0
17089,579077.5171038073,2010-09-21 06:49:29,3211.6330862005543,2,50,0.5501165986061096,3.973175048828125,50.677993137868754,50.32183168556827,201.73666807768456,184.27201528241224,0.0,0.0891468673944473,0,0,0
17090,579107.5323643252,2010-09-21 06:49:59,3241.64834671854,2,50,0.5501165986061096,3.9749557971954346,50.68257942190951,50.32183168556827,201.7548950763108,184.27201528241224,3.237724376958795e-05,0.0891468673944473,0,0,0
17091,579137.5476691037,2010-09-21 06:50:29,3271.663651497006,2,50,0.5501165986061096,3.977060317993164,50.68716578865962,50.32183168556827,201.773130797374,184.27201528241224,6.47544875391759e-05,0.0891468673944473,0,0,0
17092,579167.5628918123,2010-09-21 06:50:59,3301.678874205613,2,50,0.5501165986061096,3.978679180145264,50.69175212827725,50.32183168556827,201.79137447150364,184.27201528241224,3.237724376958795e-05,0.0891468673944473,0,0,0
17093,579197.5781641147,2010-09-21 06:51:29,3331.6941465330765,2,50,0.5501165986061096,3.980621814727783,50.696338376794365,50.32183168556827,201.80962688,184.27201528241224,3.237724376958795e-05,0.0891468673944473,0,0,0
17094,579227.5934033346,2010-09-21 06:51:59,3361.709385727836,2,50,0.5501165986061096,3.9827263355255127,50.70092469229509,50.32183168556827,201.82788829351705,184.27201528241224,6.47544875391759e-05,0.0891468673944473,0,0,0
17095,579257.6086758876,2010-09-21 06:52:29,3391.7246582808625,2,50,0.5499359965324402,3.9845070838928223,50.705510963559625,50.32183168556827,201.8461582375668,184.27201528241224,6.47544875391759e-05,0.0891468673944473,0,0,0
17096,579287.6239227866,2010-09-21 06:52:59,3421.7399051798525,2,50,0.5501165986061096,3.986449718475342,50.71009720722791,50.32183168556827,201.86443703971807,184.27201528241224,0.0,0.0891468673944473,0,0,0
17097,579317.639179866,2010-09-21 06:53:29,3451.7551622592546,2,50,0.5501165986061096,3.9885542392730713,50.714683441680855,50.32183168556827,201.88272480490457,184.27201528241224,6.47544875391759e-05,0.0891468673944473,0,0,0
17098,579347.6545724636,2010-09-21 06:53:59,3481.770554861944,2,50,0.5499359965324402,3.990334987640381,50.71926966513615,50.32183168556827,201.9010215878746,184.27201528241224,0.0,0.0891468673944473,0,0,0
17099,579377.6697175887,2010-09-21 06:54:29,3511.785699981878,2,50,0.5501165986061096,3.99260139465332,50.72385588068156,50.32183168556827,201.9193275141282,184.27201528241224,6.47544875391759e-05,0.0891468673944473,0,0,0
17100,579407.6849752294,2010-09-21 06:54:59,3541.8009576477434,2,50,0.5501165986061096,3.9945437908172607,50.72844216037229,50.32183168556827,201.93764297763715,184.27201528241224,6.47544875391759e-05,0.0891468673944473,0,0,0
17101,579437.7003452006,2010-09-21 06:55:30,3571.816327593878,2,50,0.5501165986061096,3.9966483116149902,50.7330284114317,50.32183168556827,201.95596771639876,184.27201528241224,3.237724376958795e-05,0.0891468673944473,0,0,0
17102,579467.7154901602,2010-09-21 06:56:00,3601.8314726536623,2,50,0.5501165986061096,3.99875283241272,50.737614624811215,50.32183168556827,201.97430182744787,184.27201528241224,6.47544875391759e-05,0.0891468673944473,0,0,0
17103,579497.7333544627,2010-09-21 06:56:30,3631.849336976145,2,50,0.5501165986061096,4.000695705413818,50.74220115439983,50.32183168556827,201.99264684379105,184.27201528241224,3.24249267578125e-05,0.0891468673944473,0,0,0
17104,579527.7459992513,2010-09-21 06:57:00,3661.861981664617,2,50,0.5499359965324402,4.002962112426758,50.74678688791253,50.32183168556827,202.01099842382857,184.27201528241224,6.47544875391759e-05,0.0891468673944473,0,0,0
17105,579557.761294917,2010-09-21 06:57:30,3691.877277325323,2,50,0.5499359965324402,4.005066394805908,50.75137301266776,50.32183168556827,202.02936128460013,184.27201528241224,3.23295607813634e-05,0.0891468673944473,0,0,0
17106,579587.7765461167,2010-09-21 06:58:00,3721.8925285200366,2,50,0.5501165986061096,4.007332801818848,50.75595921371372,50.32183168556827,202.047734352961,184.27201528241224,3.23295607813634e-05,0.0891468673944473,0,0,0
17107,579617.7918399078,2010-09-21 06:58:30,3751.9078223160886,2,50,0.5501165986061096,4.009761333465576,50.76054539657766,50.32183168556827,202.06611726388863,184.27201528241224,0.0001619339018361,0.0891468673944473,0,0,0
17108,579647.7918583592,2010-09-21 06:59:00,3781.9078407575066,2,50,0.5501165986061096,4.011541843414307,50.765129274612256,50.32183168556827,202.0845009047824,184.27201528241224,3.23295607813634e-05,0.0891468673944473,0,0,0
17109,579677.8067176808,2010-09-21 06:59:30,3811.9227000790434,2,50,0.5499359965324402,4.013808250427246,50.769715426516285,50.32183168556827,202.1029038379509,184.27201528241224,6.47544875391759e-05,0.0891468673944473,0,0,0
17110,579707.8219592816,2010-09-21 07:00:00,3841.937941679808,2,50,0.5501165986061096,4.0160746574401855,50.77430165833949,50.32183168556827,202.12131728902224,184.27201528241224,6.47544875391759e-05,0.0891468673944473,0,0,0
17111,579737.8372910273,2010-09-21 07:00:30,3871.953273525839,2,50,0.550297200679779,4.018341064453125,50.77888791431143,50.32183168556827,202.1397410931975,184.27201528241224,6.47544875391759e-05,0.0891468673944473,0,0,0
17112,579767.8526346327,2010-09-21 07:01:00,3901.968617040998,2,50,0.5501165986061096,4.0207695960998535,50.783474140592354,50.32183168556827,202.15817499713503,184.27201528241224,9.71794142969884e-05,0.0891468673944473,0,0,0
17113,579797.867737808,2010-09-21 07:01:30,3931.983720206207,2,50,0.5499359965324402,4.022712230682373,50.78806029040815,50.32183168556827,202.17661910005583,184.27201528241224,3.24249267578125e-05,0.0891468673944473,0,0,0
17114,579827.8831246963,2010-09-21 07:02:00,3961.999107099645,2,50,0.5501165986061096,4.025140285491943,50.792646540636525,50.32183168556827,202.19507412274675,184.27201528241224,6.47544875391759e-05,0.0891468673944473,0,0,0
17115,579857.8982688289,2010-09-21 07:02:30,3992.014251227102,2,50,0.5499359965324402,4.027406692504883,50.797232718798085,50.32183168556827,202.2135394152592,184.27201528241224,6.47544875391759e-05,0.0891468673944473,0,0,0
17116,579887.9135307403,2010-09-21 07:03:00,4022.0295131385647,2,50,0.5501165986061096,4.029673099517822,50.80181896767802,50.32183168556827,202.23201569572987,184.27201528241224,3.23295607813634e-05,0.0891468673944473,0,0,0
17117,579917.9289094583,2010-09-21 07:03:30,4052.044891886672,2,50,0.5501165986061096,4.032101631164551,50.80640514653392,50.32183168556827,202.250502406927,184.27201528241224,6.47544875391759e-05,0.0891468673944473,0,0,0
17118,579947.9440437612,2010-09-21 07:04:00,4082.060026169554,2,50,0.5501165986061096,4.034529685974121,50.81099135703903,50.32183168556827,202.26900015830492,184.27201528241224,6.47544875391759e-05,0.0891468673944473,0,0,0
17119,579977.9593202892,2010-09-21 07:04:30,4112.075302707528,2,50,0.5501165986061096,4.036957740783691,50.815577600019786,50.32183168556827,202.28750893324715,184.27201528241224,6.47544875391759e-05,0.0891468673944473,0,0,0
17120,580007.9738807296,2010-09-21 07:05:00,4142.089863122949,2,50,0.5501165986061096,4.03938627243042,50.82016147343237,50.32183168556827,202.30601923364017,184.27201528241224,3.24249267578125e-05,0.0891468673944473,0,0,0
17121,580037.9741853204,2010-09-21 07:05:30,4172.090167718652,2,50,0.5499359965324402,4.04181432723999,50.82474772263401,50.32183168556827,202.32455015113533,184.27201528241224,9.70840483205393e-05,0.0891468673944473,0,0,0
17122,580067.9894563346,2010-09-21 07:06:00,4202.105438732838,2,50,0.5501165986061096,4.04408073425293,50.829333885492375,50.32183168556827,202.3430920112917,184.27201528241224,3.23295607813634e-05,0.0891468673944473,0,0,0
17123,580098.0047149928,2010-09-21 07:06:30,4232.12069739118,2,50,0.5501165986061096,4.046833038330078,50.83392014921546,50.32183168556827,202.3616456262893,184.27201528241224,0.0001295089750783,0.0891468673944473,0,0,0
17124,580128.019969496,2010-09-21 07:07:00,4262.135951894151,2,50,0.5501165986061096,4.049261093139648,50.83850636369032,50.32183168556827,202.3802105196952,184.27201528241224,9.70840483205393e-05,0.0891468673944473,0,0,0
17125,580158.0352244801,2010-09-21 07:07:30,4292.151206903386,2,50,0.5499359965324402,4.051689624786377,50.84309250332774,50.32183168556827,202.3987865718995,184.27201528241224,6.47544875391759e-05,0.0891468673944473,0,0,0
17126,580188.050468126,2010-09-21 07:08:00,4322.166450544243,2,50,0.5499359965324402,4.054279804229736,50.847678646013016,50.32183168556827,202.41737427541307,184.27201528241224,6.47544875391759e-05,0.0891468673944473,0,0,0
17127,580218.0657239521,2010-09-21 07:08:30,4352.18170637553,2,50,0.5501165986061096,4.056869983673096,50.85226481145437,50.32183168556827,202.43597381542887,184.27201528241224,6.47544875391759e-05,0.0891468673944473,0,0,0
17128,580248.0809838435,2010-09-21 07:09:00,4382.196966241889,2,50,0.5499359965324402,4.059298038482666,50.85685094665281,50.32183168556827,202.4545850695039,184.27201528241224,0.0,0.0891468673944473,0,0,0
17129,580278.0962639054,2010-09-21 07:09:30,4412.212246303658,2,50,0.5497553944587708,4.061888217926025,50.86143725071742,50.32183168556827,202.47320879303737,184.27201528241224,3.23295607813634e-05,0.0891468673944473,0,0,0
17130,580308.1116409993,2010-09-21 07:10:00,4442.227623402648,2,50,0.5501165986061096,4.064640522003174,50.86602345391788,50.32183168556827,202.49184410473043,184.27201528241224,6.47544875391759e-05,0.0891468673944473,0,0,0
17131,580338.1268688006,2010-09-21 07:10:30,4472.242851219004,2,50,0.5501165986061096,4.067392349243164,50.87060966658484,50.32183168556827,202.5104915940468,184.27201528241224,9.70840483205393e-05,0.0891468673944473,0,0,0
17132,580368.1420177954,2010-09-21 07:11:00,4502.258000188547,2,50,0.5499359965324402,4.069982528686523,50.875195800844445,50.32183168556827,202.5291509885386,184.27201528241224,9.70840483205393e-05,0.0891468673944473,0,0,0
17133,580398.1572930901,2010-09-21 07:11:30,4532.273275613744,2,50,0.550297200679779,4.072896480560303,50.87978206324643,50.32183168556827,202.5478231434524,184.27201528241224,0.0001295089750783,0.0891468673944473,0,0,0
17134,580428.1725408263,2010-09-21 07:12:00,4562.288523339797,2,50,0.5501165986061096,4.075325012207031,50.884368304638215,50.32183168556827,202.5665075530326,184.27201528241224,6.47544875391759e-05,0.0891468673944473,0,0,0
17135,580458.1878290934,2010-09-21 07:12:30,4592.303811506799,2,50,0.5499359965324402,4.0780768394470215,50.88895456137059,50.32183168556827,202.5852046001548,184.27201528241224,6.47544875391759e-05,0.0891468673944473,0,0,0
17136,580488.2031609345,2010-09-21 07:13:00,4622.319143362855,2,50,0.5501165986061096,4.080990791320801,50.89354081947195,50.32183168556827,202.60391420148568,184.27201528241224,9.70840483205393e-05,0.0891468673944473,0,0,0
17137,580518.2185577075,2010-09-21 07:13:30,4652.33454010588,2,50,0.5499359965324402,4.08358097076416,50.89812713624116,50.32183168556827,202.6226367264873,184.27201528241224,3.23295607813634e-05,0.0891468673944473,0,0,0
17138,580548.2335821965,2010-09-21 07:14:00,4682.3495645947,2,50,0.550297200679779,4.08649492263794,50.90271341671252,50.32183168556827,202.64137214023955,184.27201528241224,9.70840483205393e-05,0.0891468673944473,0,0,0
17139,580578.2492769333,2010-09-21 07:14:30,4712.365259341587,2,50,0.5499359965324402,4.089247226715088,50.907299839706994,50.32183168556827,202.660121171245,184.27201528241224,6.47544875391759e-05,0.0891468673944473,0,0,0
17140,580608.2640780996,2010-09-21 07:15:00,4742.380060497935,2,50,0.5501165986061096,4.092161178588867,50.91188614710228,50.32183168556827,202.6788829522772,184.27201528241224,6.47544875391759e-05,0.0891468673944473,0,0,0
17141,580638.2793507479,2010-09-21 07:15:30,4772.3953331462,2,50,0.550297200679779,4.095236778259277,50.91647245939237,50.32183168556827,202.69765808777825,184.27201528241224,9.70840483205393e-05,0.0891468673944473,0,0,0
17142,580668.294593662,2010-09-21 07:16:00,4802.410576060243,2,50,0.5501165986061096,4.098150730133057,50.92105882099445,50.32183168556827,202.7164469177025,184.27201528241224,6.47544875391759e-05,0.0891468673944473,0,0,0
17143,580698.309857403,2010-09-21 07:16:30,4832.425839796261,2,50,0.550297200679779,4.101226806640625,50.92564521775611,50.32183168556827,202.7352494787793,184.27201528241224,9.71794142969884e-05,0.0891468673944473,0,0,0
17144,580728.3251108082,2010-09-21 07:17:00,4862.441093206505,2,50,0.5501165986061096,4.104140758514404,50.93023158147663,50.32183168556827,202.7540655132657,184.27201528241224,9.71794142969884e-05,0.0891468673944473,0,0,0
17145,580758.3403971056,2010-09-21 07:17:30,4892.456379518876,2,50,0.5499359965324402,4.107054710388184,50.93481791538127,50.32183168556827,202.77289527383297,184.27201528241224,6.47544875391759e-05,0.0891468673944473,0,0,0
17146,580788.3556238693,2010-09-21 07:18:00,4922.471606267568,2,50,0.5499359965324402,4.109968662261963,50.93940422379613,50.32183168556827,202.7917387782595,184.27201528241224,3.24249267578125e-05,0.0891468673944473,0,0,0
17147,580818.3710132439,2010-09-21 07:18:30,4952.486995642199,2,50,0.5501165986061096,4.113206386566162,50.94399061233703,50.32183168556827,202.8105966251482,184.27201528241224,6.47544875391759e-05,0.0891468673944473,0,0,0
17148,580848.3861659428,2010-09-21 07:19:00,4982.502148441302,2,50,0.5501165986061096,4.116281986236572,50.94857693196204,50.32183168556827,202.82946817991092,184.27201528241224,9.71794142969884e-05,0.0891468673944473,0,0,0
17149,580878.4014283605,2010-09-21 07:19:30,5012.517410753766,2,50,0.5501165986061096,4.119357585906982,50.9531633336652,50.32183168556827,202.8483541391504,184.27201528241224,6.47544875391759e-05,0.0891468673944473,0,0,0
17150,580908.4167905824,2010-09-21 07:20:00,5042.532772980632,2,50,0.5499359965324402,4.122433662414551,50.95774974113107,50.32183168556827,202.86725437035503,184.27201528241224,6.47544875391759e-05,0.0891468673944473,0,0,0
17151,580938.4319241535,2010-09-21 07:20:30,5072.547906581814,2,50,0.5501165986061096,4.12567138671875,50.962336027782605,50.32183168556827,202.8861683745841,184.27201528241224,9.71794142969884e-05,0.0891468673944473,0,0,0
17152,580968.4472165761,2010-09-21 07:21:00,5102.563198994413,2,50,0.550297200679779,4.12874698638916,50.96692239046859,50.32183168556827,202.90509722700577,184.27201528241224,3.23295607813634e-05,0.0891468673944473,0,0,0
17153,580998.4624792043,2010-09-21 07:21:30,5132.578461602616,2,50,0.5501165986061096,4.131984710693359,50.97150875984832,50.32183168556827,202.92404075086185,184.27201528241224,9.70840483205393e-05,0.0891468673944473,0,0,0
17154,581028.4778619073,2010-09-21 07:22:00,5162.593844305594,2,50,0.5501165986061096,4.135060787200928,50.97609515555379,50.32183168556827,202.94299915066824,184.27201528241224,3.24249267578125e-05,0.0891468673944473,0,0,0
17155,581058.4929799797,2010-09-21 07:22:30,5192.608962378013,2,50,0.5501165986061096,4.138460159301758,50.980681493434645,50.32183168556827,202.96197224345744,184.27201528241224,9.70840483205393e-05,0.0891468673944473,0,0,0
17156,581088.5082551092,2010-09-21 07:23:00,5222.624237507471,2,50,0.5501165986061096,4.141860008239746,50.9852678497929,50.32183168556827,202.9809605265692,184.27201528241224,6.47544875391759e-05,0.0891468673944473,0,0,0
17157,581118.5247092716,2010-09-21 07:23:30,5252.640691669976,2,50,0.5499359965324402,4.145097732543945,50.98985441799727,50.32183168556827,202.99996502095627,184.27201528241224,6.47544875391759e-05,0.0891468673944473,0,0,0
17158,581148.5387570525,2010-09-21 07:24:00,5282.654739450783,2,50,0.550297200679779,4.1486592292785645,50.99444053141064,50.32183168556827,203.0189833346797,184.27201528241224,9.71794142969884e-05,0.0891468673944473,0,0,0
17159,581178.5543720453,2010-09-21 07:24:30,5312.670354453617,2,50,0.5501165986061096,4.1520586013793945,50.99902695551654,50.32183168556827,203.03801852799967,184.27201528241224,9.70840483205393e-05,0.0891468673944473,0,0,0
17160,581208.5693991658,2010-09-21 07:25:00,5342.685381568994,2,50,0.5501165986061096,4.155620098114014,51.0036131927257,50.32183168556827,203.05706860008584,184.27201528241224,0.0001295089750783,0.0891468673944473,0,0,0
17161,581238.5845423057,2010-09-21 07:25:30,5372.700524713998,2,50,0.5499359965324402,4.159019947052002,51.00819951819745,50.32183168556827,203.07613494838407,184.27201528241224,0.0001295089750783,0.0891468673944473,0,0,0
17162,581268.5998001922,2010-09-21 07:26:00,5402.71578259039,2,50,0.5501165986061096,4.162581443786621,51.01278582654036,50.32183168556827,203.09521719782344,184.27201528241224,0.0001619339018361,0.0891468673944473,0,0,0
17163,581298.6150634821,2010-09-21 07:26:30,5432.731045875281,2,50,0.5501165986061096,4.16581916809082,51.017372144295486,50.32183168556827,203.1143155430397,184.27201528241224,6.47544875391759e-05,0.0891468673944473,0,0,0
17164,581328.630358446,2010-09-21 07:27:00,5462.746341029724,2,50,0.5501165986061096,4.16954231262207,51.02195852783058,50.32183168556827,203.13343043829724,184.27201528241224,9.70840483205393e-05,0.0891468673944473,0,0,0
17165,581358.6455983776,2010-09-21 07:27:30,5492.761580775859,2,50,0.550297200679779,4.1731038093566895,51.02654486504186,50.32183168556827,203.15256151346355,184.27201528241224,9.70840483205393e-05,0.0891468673944473,0,0,0
17166,581388.6608598179,2010-09-21 07:28:00,5522.776842236198,2,50,0.550297200679779,4.176665306091309,51.031131258194975,50.32183168556827,203.17170931297332,184.27201528241224,9.70840483205393e-05,0.0891468673944473,0,0,0
17167,581418.6761761953,2010-09-21 07:28:31,5552.792158784042,2,50,0.550297200679779,4.180388927459717,51.035717631299725,50.32183168556827,203.1908736756457,184.27201528241224,0.0001295089750783,0.0891468673944473,0,0,0
17168,581448.6913615206,2010-09-21 07:29:01,5582.807343913847,2,50,0.5501165986061096,4.184112071990967,51.0403039984874,50.32183168556827,203.21005479266276,184.27201528241224,0.0001295089750783,0.0891468673944473,0,0,0
17169,581478.70844738,2010-09-21 07:29:31,5612.824429868402,2,50,0.5501165986061096,4.187673568725586,51.0448906667223,50.32183168556827,203.22925395900828,184.27201528241224,9.70840483205393e-05,0.0891468673944473,0,0,0
17170,581508.7220493478,2010-09-21 07:30:01,5642.838031841404,2,50,0.5501165986061096,4.191235065460205,51.04947677548861,50.32183168556827,203.2484677844677,184.27201528241224,3.23295607813634e-05,0.0891468673944473,0,0,0
17171,581538.7371443176,2010-09-21 07:30:31,5672.853126715918,2,50,0.5501165986061096,4.195120334625244,51.05406309928983,50.32183168556827,203.26769953720185,184.27201528241224,9.70840483205393e-05,0.0891468673944473,0,0,0
17172,581568.7523780587,2010-09-21 07:31:01,5702.8683604871385,2,50,0.5499359965324402,4.198843479156494,51.05864941338052,50.32183168556827,203.2869482100786,184.27201528241224,9.70840483205393e-05,0.0891468673944473,0,0,0
17173,581576.6585368975,2010-09-21 07:31:08,5710.774519295857,2,50,0.550297200679779,4.200138568878174,51.05985751944228,50.32183168556827,203.29202152285777,184.27201528241224,0.0001618385285837,0.0891468673944473,0,0,0
17174,581606.6973907846,2010-09-21 07:31:39,30.015401585110524,3,50,0.0,4.115958213806152,51.05985751944228,50.32183168556827,203.29202152285777,184.27201528241224,-0.0003561019839253,0.0891468673944473,0,0,0
17175,581636.7125043208,2010-09-21 07:32:09,60.03051511619388,3,50,0.0,4.105273723602295,51.05985751944228,50.32183168556827,203.29202152285777,184.27201528241224,-0.0002266883820993,0.0891468673944473,0,0,0
17176,581666.7277892546,2010-09-21 07:32:39,90.04580006516265,3,50,0.0,4.0989603996276855,51.05985751944228,50.32183168556827,203.29202152285777,184.27201528241224,-0.0001618385285837,0.0891468673944473,0,0,0
17177,581696.696183432,2010-09-21 07:33:09,120.0141942425516,3,50,0.0,4.095075130462647,51.05985751944228,50.32183168556827,203.29202152285777,184.27201528241224,-6.47544875391759e-05,0.0891468673944473,0,0,0
17178,581696.7054509055,2010-09-21 07:33:09,0.031259834355757,4,50,0.9991112947463988,4.199653148651123,51.05986621307244,50.32183168556827,203.29205803308892,184.27201528241224,0.0,0.0891468673944473,0,0,0
17179,581697.7210963378,2010-09-21 07:33:10,1.046905291670362,4,50,0.9485406875610352,4.199653148651123,51.06013932957532,50.32183168556827,203.29320505074023,184.27201528241224,0.0,0.0891468673944473,0,0,0
17180,581699.8929161541,2010-09-21 07:33:12,3.218725082995631,4,50,0.8985118865966797,4.199814796447754,51.06069541092595,50.32183168556827,203.2955404444604,184.27201528241224,3.23295607813634e-05,0.0891468673944473,0,0,0
17181,581703.0959897336,2010-09-21 07:33:15,6.421798662430451,4,50,0.848483145236969,4.199653148651123,51.06147162622926,50.32183168556827,203.29880035500327,184.27201528241224,-3.23295607813634e-05,0.0891468673944473,0,0,0
17182,581707.408445662,2010-09-21 07:33:19,10.734254585870117,4,50,0.7984543442726135,4.199653148651123,51.06245691989232,50.32183168556827,203.30293832842383,184.27201528241224,-3.23295607813634e-05,0.0891468673944473,0,0,0
17183,581713.017757412,2010-09-21 07:33:25,16.343566335969403,4,50,0.7484256029129028,4.199814796447754,51.06366044362967,50.32183168556827,203.3079928267072,184.27201528241224,3.23295607813634e-05,0.0891468673944473,0,0,0
17184,581720.1739057644,2010-09-21 07:33:32,23.499714688202477,4,50,0.6982161998748779,4.199653148651123,51.06509614389323,50.32183168556827,203.31402240953423,184.27201528241224,0.0,0.0891468673944473,0,0,0
17185,581729.6895679311,2010-09-21 07:33:42,33.01537685993114,4,50,0.6481874585151672,4.199814796447754,51.06687271729972,50.32183168556827,203.3214836052035,184.27201528241224,0.0,0.0891468673944473,0,0,0
17186,581742.736135957,2010-09-21 07:33:55,46.06194488087572,4,50,0.5981586575508118,4.199814796447754,51.06912630245249,50.32183168556827,203.33094814948063,184.27201528241224,-3.24249267578125e-05,0.0891468673944473,0,0,0
17187,581762.2671721731,2010-09-21 07:34:14,65.59298111208362,4,50,0.5481299161911011,4.199653148651123,51.07222673742522,50.32183168556827,203.34396925971512,184.27201528241224,0.0,0.0891468673944473,0,0,0
17188,581794.5792621659,2010-09-21 07:34:47,97.90507109477116,4,50,0.498101145029068,4.199814796447754,51.076903637688645,50.32183168556827,203.36361116539217,184.27201528241224,0.0,0.0891468673944473,0,0,0
17189,581852.8285581451,2010-09-21 07:35:45,156.1543670739654,4,50,0.4478917717933655,4.199814796447754,51.08452659019198,50.32183168556827,203.39562583807933,184.27201528241224,3.23295607813634e-05,0.0891468673944473,0,0,0
17190,581945.1244308075,2010-09-21 07:37:17,248.45023976155863,4,50,0.3978630006313324,4.199653148651123,51.095339498099904,50.32183168556827,203.44103756205035,184.27201528241224,-3.23295607813634e-05,0.0891468673944473,0,0,0
17191,582062.9828057886,2010-09-21 07:39:15,366.30861481274417,4,50,0.3476536273956299,4.199653148651123,51.10752655958167,50.32183168556827,203.49222043427795,184.27201528241224,-3.23295607813634e-05,0.0891468673944473,0,0,0
17192,582205.1212289252,2010-09-21 07:41:37,508.44703785410513,4,50,0.2976248562335968,4.199653148651123,51.12024857663501,50.32183168556827,203.5456499646164,184.27201528241224,-3.23295607813634e-05,0.0891468673944473,0,0,0
17193,582374.6348137921,2010-09-21 07:44:27,677.9606227409959,4,50,0.2475960701704025,4.199653148651123,51.13306348180197,50.32183168556827,203.5994696726998,184.27201528241224,-3.23295607813634e-05,0.0891468673944473,0,0,0
17194,582588.4134146989,2010-09-21 07:48:01,891.7392236278248,4,50,0.1975672990083694,4.199653148651123,51.14624237322628,50.32183168556827,203.6548179967654,184.27201528241224,0.0,0.0891468673944473,0,0,0
17195,582867.5037578725,2010-09-21 07:52:40,1170.8295669166496,4,50,0.1475385427474975,4.199814796447754,51.159566045208656,50.32183168556827,203.7107746796817,184.27201528241224,0.0,0.0891468673944473,0,0,0
17196,583281.389355539,2010-09-21 07:59:33,1584.7151644678447,4,50,0.0975097641348838,4.199814796447754,51.17348989366141,50.32183168556827,203.76925168392324,184.27201528241224,0.0,0.0891468673944473,0,0,0
17197,583998.9431964138,2010-09-21 08:11:31,2302.2690053475794,4,50,0.0498289167881011,4.199814796447754,51.187665289819634,50.32183168556827,203.82878496192345,184.27201528241224,0.0,0.0891468673944473,0,0,0
17198,584028.9483307311,2010-09-21 08:12:01,30.014851918057,5,50,0.0,4.191720962524414,51.187665289819634,50.32183168556827,203.82878496192345,184.27201528241224,-6.47544875391759e-05,0.0891468673944473,0,0,0
17199,584058.9479756152,2010-09-21 08:12:31,60.01449680201734,5,50,0.0,4.190749645233154,51.187665289819634,50.32183168556827,203.82878496192345,184.27201528241224,0.0,0.0891468673944473,0,0,0
17200,584059.1421027881,2010-09-21 08:12:31,0.187464775921435,6,50,-1.9243103452026844e-05,4.190587520599365,51.187665289819634,50.32183168657033,203.82878496192345,184.27201528661143,0.0,0.0931148082017898,0,0,0
17201,584063.9702740313,2010-09-21 08:12:36,5.015636114377812,6,50,0.0010644125286489,4.190587520599365,51.1876662551433,50.32183168665474,203.82878900737452,184.2720152869652,-3.24249267578125e-05,0.0931148082017898,0,0,0
17202,584093.9764774601,2010-09-21 08:13:06,30.015254833796668,7,50,-1.0993878841400146,4.014941692352295,51.1876662551433,50.33099919521453,203.82878900737452,184.309022983902,-0.0009065627818927,0.0931148082017898,0,0,0
17203,584123.991747933,2010-09-21 08:13:36,60.03052530663079,7,50,-1.0993878841400146,3.9874210357666016,51.1876662551433,50.34016676651321,203.82878900737452,184.3456935726553,-0.0005504131549969,0.0931148082017898,0,0,0
17204,584154.0069942155,2010-09-21 08:14:06,90.04577158908198,7,50,-1.0993878841400146,3.968318462371826,51.1876662551433,50.34933411225662,203.82878900737452,184.38215403631352,-0.0003885269106831,0.0931148082017898,0,0,0
17205,584184.0222706733,2010-09-21 08:14:36,120.06104804685542,7,50,-1.099568486213684,3.9537487030029297,51.1876662551433,50.35850144560678,203.82878900737452,184.41846290079692,-0.0003561496851034,0.0931148082017898,0,0,0
17206,584214.0375250359,2010-09-21 08:15:06,150.07630240947597,7,50,-1.0993878841400146,3.9417691230773926,51.1876662551433,50.36766880128083,203.82878900737452,184.45465111351265,-0.0002590179501567,0.0931148082017898,0,0,0
17207,584244.0528752026,2010-09-21 08:15:36,180.0916525962884,7,50,-1.099568486213684,3.930922746658325,51.1876662551433,50.37683617912992,203.82878900737452,184.49073616437545,-0.0002913951757363,0.0931148082017898,0,0,0
17208,584274.0680358564,2010-09-21 08:16:06,210.10681323997207,7,50,-1.099568486213684,3.921209573745728,51.1876662551433,50.38600355146093,203.82878900737452,184.5267280836668,-0.0002913951757363,0.0931148082017898,0,0,0
17209,584304.083418444,2010-09-21 08:16:37,240.1221959128748,7,50,-1.0993878841400146,3.912144184112549,51.1876662551433,50.395170953342166,203.82878900737452,184.5626334294326,-0.0002266406954731,0.0931148082017898,0,0,0
17210,584334.0986839845,2010-09-21 08:17:07,270.13746135815944,7,50,-1.0993878841400146,3.903240442276001,51.1876662551433,50.4043383557325,203.82878900737452,184.598456219515,-0.0002590179501567,0.0931148082017898,0,0,0
17211,584364.1164275456,2010-09-21 08:17:37,300.1552050144399,7,50,-1.0993878841400146,3.894822359085083,51.1876662551433,50.41350647320015,203.82878900737452,184.63420237121773,-0.0001942634553415,0.0931148082017898,0,0,0
17212,584394.129248063,2010-09-21 08:18:07,330.16802544659555,7,50,-1.099568486213684,3.886404275894165,51.1876662551433,50.42267312724033,203.82878900737452,184.66986617483985,-0.0001942634553415,0.0931148082017898,0,0,0
17213,584424.144345955,2010-09-21 08:18:37,360.18312342385417,7,50,-1.099568486213684,3.878309965133667,51.1876662551433,50.4318404872504,203.82878900737452,184.7054573344571,-0.0002266406954731,0.0931148082017898,0,0,0
17214,584454.1596208037,2010-09-21 08:19:07,390.1983981773735,7,50,-1.099568486213684,3.870377540588379,51.1876662551433,50.441007945582655,203.82878900737452,184.74097520556865,-0.0002266406954731,0.0931148082017898,0,0,0
17215,584484.1750517623,2010-09-21 08:19:37,420.2138291358043,7,50,-1.0997490882873535,3.862445116043091,51.1876662551433,50.45017541575325,203.82878900737452,184.77642086846447,-0.0001942634553415,0.0931148082017898,0,0,0
17216,584514.1901254589,2010-09-21 08:20:07,450.2289028324549,7,50,-1.0993878841400146,3.854836463928223,51.1876662551433,50.459342857356816,203.82878900737452,184.8117950151289,-0.0001942634553415,0.0931148082017898,0,0,0
17217,584544.2054031497,2010-09-21 08:20:37,480.244180618544,7,50,-1.0993878841400146,3.8472278118133545,51.1876662551433,50.46851027630712,203.82878900737452,184.8470988430282,-0.0001942634553415,0.0931148082017898,0,0,0
17218,584574.2206396527,2010-09-21 08:21:07,510.25941702634657,7,50,-1.099568486213684,3.8396191596984863,51.1876662551433,50.47767769310649,203.82878900737452,184.88233361694617,-0.0002266406954731,0.0931148082017898,0,0,0
17219,584604.2359270126,2010-09-21 08:21:37,540.2747044113962,7,50,-1.099568486213684,3.832334518432617,51.1876662551433,50.48684511715475,203.82878900737452,184.9175005103516,-0.0001942157687153,0.0931148082017898,0,0,0
17220,584634.2513927078,2010-09-21 08:22:07,570.2901703020232,7,50,-1.0993878841400146,3.825211524963379,51.1876662551433,50.4960126062078,203.82878900737452,184.9526009040384,-0.0001942634553415,0.0931148082017898,0,0,0
17221,584664.266575567,2010-09-21 08:22:37,600.3053529606595,7,50,-1.0993878841400146,3.818250417709351,51.1876662551433,50.50517997254274,203.82878900737452,184.9876353925334,-0.0001295089750783,0.0931148082017898,0,0,0
17222,584694.2816759953,2010-09-21 08:23:07,630.3204533689864,7,50,-1.099568486213684,3.811127424240112,51.1876662551433,50.51434733192105,203.82878900737452,185.02260545388305,-0.0001618862152099,0.0931148082017898,0,0,0
17223,584724.2969546035,2010-09-21 08:23:37,660.3357319771275,7,50,-1.099568486213684,3.804166316986084,51.1876662551433,50.52351470158388,203.82878900737452,185.05751149595176,-0.0001942634553415,0.0931148082017898,0,0,0
17224,584754.3121956429,2010-09-21 08:24:07,690.3509730164911,7,50,-1.0993878841400146,3.7973670959472656,51.1876662551433,50.53268204621789,203.82878900737452,185.09235487423496,-0.0001942634553415,0.0931148082017898,0,0,0
17225,584784.3274576997,2010-09-21 08:24:37,720.3662350733176,7,50,-1.0993878841400146,3.790891647338867,51.1876662551433,50.54184940382212,203.82878900737452,185.12713718178293,-0.0001295089750783,0.0931148082017898,0,0,0
17226,584814.3427455759,2010-09-21 08:25:07,750.3815230448312,7,50,-1.099568486213684,3.784254312515259,51.1876662551433,50.5510167646775,203.82878900737452,185.16185998057773,-0.0002266406954731,0.0931148082017898,0,0,0
17227,584844.3579888158,2010-09-21 08:25:37,780.3967661894499,7,50,-1.099568486213684,3.77810263633728,51.1876662551433,50.56018413943486,203.82878900737452,185.19652395415636,-0.0001942634553415,0.0931148082017898,0,0,0
17228,584874.3732320957,2010-09-21 08:26:07,810.4120094694064,7,50,-1.0993878841400146,3.771789073944092,51.1876662551433,50.569351507090765,203.82878900737452,185.2311299619994,-0.0001942634553415,0.0931148082017898,0,0,0
17229,584904.3884925336,2010-09-21 08:26:37,840.4272699071913,7,50,-1.099568486213684,3.7654755115509033,51.1876662551433,50.57851886383312,203.82878900737452,185.2656789040796,-0.0001942634553415,0.0931148082017898,0,0,0
17230,584934.4037512921,2010-09-21 08:27:07,870.442528665785,7,50,-1.0993878841400146,3.7596476078033447,51.1876662551433,50.58768629004657,203.82878900737452,185.3001724154336,-0.0001618862152099,0.0931148082017898,0,0,0
17231,584964.4190278903,2010-09-21 08:27:37,900.4578052639088,7,50,-1.0993878841400146,3.753657817840576,51.1876662551433,50.59685378875847,203.82878900737452,185.33461179264785,-0.0001618862152099,0.0931148082017898,0,0,0
17232,584994.4342711703,2010-09-21 08:28:07,930.4730485438652,7,50,-1.099568486213684,3.747992038726807,51.1876662551433,50.606021206388434,203.82878900737452,185.3689973080064,-0.0001295089750783,0.0931148082017898,0,0,0
17233,585024.4495459839,2010-09-21 08:28:37,960.4883233825972,7,50,-1.0993878841400146,3.742326021194458,51.1876662551433,50.61518865737347,203.82878900737452,185.4033304600568,-0.0001295089750783,0.0931148082017898,0,0,0
17234,585054.4649214138,2010-09-21 08:29:07,990.5036987873576,7,50,-1.099568486213684,3.736660003662109,51.1876662551433,50.62435609894218,203.82878900737452,185.43761211241377,-0.0001295089750783,0.0931148082017898,0,0,0
17235,585084.48005703,2010-09-21 08:29:37,1020.5188344085814,7,50,-1.099568486213684,3.7313177585601807,51.1876662551433,50.633523476180486,203.82878900737452,185.4718431266768,-0.0001618862152099,0.0931148082017898,0,0,0
17236,585114.4953186908,2010-09-21 08:30:07,1050.5340960644069,7,50,-1.099568486213684,3.725975513458252,51.1876662551433,50.64269091852199,203.82878900737452,185.5060252123448,-0.0001618862152099,0.0931148082017898,0,0,0
17237,585144.5105816197,2010-09-21 08:30:37,1080.5493589934104,7,50,-1.0993878841400146,3.7206332683563232,51.1876662551433,50.651858326173056,203.82878900737452,185.54015859706635,-0.0001295089750783,0.0931148082017898,0,0,0
17238,585174.5258531903,2010-09-21 08:31:07,1110.5646305639846,7,50,-1.099568486213684,3.715452909469605,51.1876662551433,50.661025800933146,203.82878900737452,185.5742438671019,-0.0001295089750783,0.0931148082017898,0,0,0
17239,585204.5410604152,2010-09-21 08:31:37,1140.5798377889423,7,50,-1.099568486213684,3.7102725505828857,51.1876662551433,50.67019326990636,203.82878900737452,185.60828185854425,-0.0001295089750783,0.0931148082017898,0,0,0
17240,585234.5563733892,2010-09-21 08:32:07,1170.5951507829157,7,50,-1.0993878841400146,3.705577850341797,51.1876662551433,50.67936036066988,203.82878900737452,185.6422721530949,-9.713172767078504e-05,0.0931148082017898,0,0,0
17241,585264.5715892056,2010-09-21 08:32:37,1200.610366584281,7,50,-1.099568486213684,3.700559377670288,51.1876662551433,50.68852746288922,203.82878900737452,185.67621727137944,-0.0001295089750783,0.0931148082017898,0,0,0
17242,585294.586846245,2010-09-21 08:33:07,1230.6256236436334,7,50,-1.0993878841400146,3.6955409049987793,51.1876662551433,50.69769453147418,203.82878900737452,185.7101178463236,-0.0001295089750783,0.0931148082017898,0,0,0
17243,585324.6023110378,2010-09-21 08:33:37,1260.6410884315078,7,50,-1.0993878841400146,3.6908462047576895,51.1876662551433,50.7068616386049,203.82878900737452,185.74397441651337,-9.713172767078504e-05,0.0931148082017898,0,0,0
17244,585354.6175038418,2010-09-21 08:34:07,1290.6562812204313,7,50,-1.0993878841400146,3.686313390731812,51.1876662551433,50.71602899316815,203.82878900737452,185.7777883431668,-9.713172767078504e-05,0.0931148082017898,0,0,0
17245,585384.6329737173,2010-09-21 08:34:37,1320.6717511962552,7,50,-1.0993878841400146,3.6817805767059326,51.1876662551433,50.72519645847004,203.82878900737452,185.8115602462429,-9.713172767078504e-05,0.0931148082017898,0,0,0
17246,585414.6478898558,2010-09-21 08:35:07,1350.6866672293531,7,50,-1.099568486213684,3.677085876464844,51.1876662551433,50.73436382625055,203.82878900737452,185.8452893870326,-0.0001295089750783,0.0931148082017898,0,0,0
17247,585444.6632764885,2010-09-21 08:35:37,1380.7020538872032,7,50,-1.099568486213684,3.672391414642334,51.1876662551433,50.74353134798284,203.82878900737452,185.8789775163212,-0.0001294612884521,0.0931148082017898,0,0,0
17248,585474.6784081198,2010-09-21 08:36:07,1410.7171854934047,7,50,-1.0993878841400146,3.668182373046875,51.1876662551433,50.75269873828224,203.82878900737452,185.91262431775388,-9.713172767078504e-05,0.0931148082017898,0,0,0
17249,585504.6937924469,2010-09-21 08:36:37,1440.7325698104114,7,50,-1.099568486213684,3.663649559020996,51.1876662551433,50.76186617229692,203.82878900737452,185.94623111117596,-0.0001295089750783,0.0931148082017898,0,0,0
17250,585534.7089478323,2010-09-21 08:37:07,1470.7477252059948,7,50,-1.099568486213684,3.659440517425537,51.1876662551433,50.771033567433534,203.82878900737452,185.97979789159493,-0.0001295089750783,0.0931148082017898,0,0,0
17251,585564.7242097239,2010-09-21 08:37:37,1500.7629870974083,7,50,-1.099568486213684,3.655231475830078,51.1876662551433,50.780201039628,203.82878900737452,186.0133258289692,-9.713172767078504e-05,0.0931148082017898,0,0,0
17252,585594.7394573145,2010-09-21 08:38:07,1530.7782346881254,7,50,-1.099568486213684,3.650860548019409,51.1876662551433,50.78936849724356,203.82878900737452,186.04681524248903,-0.0001295089750783,0.0931148082017898,0,0,0
17253,585624.7549188542,2010-09-21 08:38:37,1560.7936962329045,7,50,-1.099568486213684,3.64665150642395,51.1876662551433,50.798535994053445,203.82878900737452,186.0802668392733,-0.0001295089750783,0.0931148082017898,0,0,0
17254,585654.7699951975,2010-09-21 08:39:07,1590.8087725911987,7,50,-1.0993878841400146,3.642928123474121,51.1876662551433,50.80770322232532,203.82878900737452,186.1136798757724,-9.713172767078504e-05,0.0931148082017898,0,0,0
17255,585684.7852410689,2010-09-21 08:39:37,1620.8240184475865,7,50,-1.0997490882873535,3.638880968093872,51.1876662551433,50.81687059122646,203.82878900737452,186.14705729434667,-9.713172767078504e-05,0.0931148082017898,0,0,0
17256,585714.8004859078,2010-09-21 08:40:07,1650.8392632814218,7,50,-1.0993878841400146,3.635157585144043,51.1876662551433,50.82603791513575,203.82878900737452,186.1803990089145,-6.47544875391759e-05,0.0931148082017898,0,0,0
17257,585744.8157483606,2010-09-21 08:40:37,1680.8545257342366,7,50,-1.0997490882873535,3.631434202194214,51.1876662551433,50.83520529892724,203.82878900737452,186.21370652108143,-9.713172767078504e-05,0.0931148082017898,0,0,0
17258,585774.8310111694,2010-09-21 08:41:07,1710.86978854294,7,50,-1.099568486213684,3.6277108192443848,51.1876662551433,50.84437271560002,203.82878900737452,186.24697976138384,-6.47544875391759e-05,0.0931148082017898,0,0,0
17259,585804.8462803941,2010-09-21 08:41:37,1740.8850577676585,7,50,-1.099568486213684,3.623987436294556,51.1876662551433,50.85354008902708,203.82878900737452,186.280219268422,-0.0001295089750783,0.0931148082017898,0,0,0
17260,585834.8615661049,2010-09-21 08:42:07,1770.9003434785293,7,50,-1.0993878841400146,3.6205878257751465,51.1876662551433,50.862707449940864,203.82878900737452,186.313425841905,-6.47544875391759e-05,0.0931148082017898,0,0,0
17261,585864.8768146781,2010-09-21 08:42:37,1800.915592076761,7,50,-1.0993878841400146,3.617188215255737,51.1876662551433,50.87187480409852,203.82878900737452,186.3466001289252,-3.237724376958795e-05,0.0931148082017898,0,0,0
17262,585894.8920495721,2010-09-21 08:43:07,1830.9308269457224,7,50,-1.0993878841400146,3.613788604736328,51.1876662551433,50.88104226910124,203.82878900737452,186.37974346061395,-6.47544875391759e-05,0.0931148082017898,0,0,0
17263,585924.9073483205,2010-09-21 08:43:37,1860.9461256941363,7,50,-1.0993878841400146,3.610227108001709,51.1876662551433,50.89020965228227,203.82878900737452,186.412855728695,-9.713172767078504e-05,0.0931148082017898,0,0,0
17264,585954.9225702622,2010-09-21 08:44:07,1890.9613476358293,7,50,-1.0992072820663452,3.60715126991272,51.1876662551433,50.89937703466281,203.82878900737452,186.4459378698793,-6.47544875391759e-05,0.0931148082017898,0,0,0
17265,585984.9379500629,2010-09-21 08:44:37,1920.976727436563,7,50,-1.099568486213684,3.603751659393311,51.1876662551433,50.908544433868414,203.82878900737452,186.4789900881117,-9.713172767078504e-05,0.0931148082017898,0,0,0
17266,586014.9532152876,2010-09-21 08:45:07,1950.9919926813468,7,50,-1.099568486213684,3.6005139350891118,51.1876662551433,50.917711940703455,203.82878900737452,186.5120135299648,-9.713172767078504e-05,0.0931148082017898,0,0,0
17267,586044.9683589389,2010-09-21 08:45:37,1981.0071363125649,7,50,-1.099568486213684,3.597438097000122,51.1876662551433,50.9268793984833,203.82878900737452,186.5450076549738,-6.47544875391759e-05,0.0931148082017898,0,0,0
17268,586074.9837531456,2010-09-21 08:46:07,2011.022530539308,7,50,-1.099568486213684,3.594362258911133,51.1876662551433,50.93604702845493,203.82878900737452,186.57797344917373,-9.713172767078504e-05,0.0931148082017898,0,0,0
17269,586104.9989951423,2010-09-21 08:46:37,2041.037772516011,7,50,-1.0993878841400146,3.5914485454559326,51.1876662551433,50.94521453072995,203.82878900737452,186.61091072922807,-3.237724376958795e-05,0.0931148082017898,0,0,0
17270,586135.0141388788,2010-09-21 08:47:07,2071.052916252492,7,50,-1.099568486213684,3.5882108211517334,51.1876662551433,50.95438194213373,203.82878900737452,186.64381953551427,-9.713172767078504e-05,0.0931148082017898,0,0,0
17271,586165.0294173817,2010-09-21 08:47:37,2101.0681947553703,7,50,-1.099568486213684,3.585134983062744,51.1876662551433,50.96354943507253,203.82878900737452,186.67670052334896,-9.713172767078504e-05,0.0931148082017898,0,0,0
17272,586195.0446627019,2010-09-21 08:48:07,2131.083440080432,7,50,-1.099568486213684,3.582059144973755,51.1876662551433,50.97271687287004,203.82878900737452,186.70955350767883,-9.713172767078504e-05,0.0931148082017898,0,0,0
17273,586225.0600613647,2010-09-21 08:48:38,2161.09883874826,7,50,-1.099568486213684,3.5789833068847656,51.1876662551433,50.98188430083909,203.82878900737452,186.7423787181074,-9.713172767078504e-05,0.0931148082017898,0,0,0
17274,586255.0752946646,2010-09-21 08:49:08,2191.1140720382805,7,50,-1.099568486213684,3.5759074687957764,51.1876662551433,50.99105173527755,203.82878900737452,186.7751759137165,-9.713172767078504e-05,0.0931148082017898,0,0,0
17275,586285.0930925914,2010-09-21 08:49:38,2221.1318700552533,7,50,-1.099568486213684,3.572993516921997,51.1876662551433,51.00021994747582,203.82878900737452,186.80794750631287,-3.237724376958795e-05,0.0931148082017898,0,0,0
17276,586315.105882352,2010-09-21 08:50:08,2251.144659745673,7,50,-1.099568486213684,3.569755792617798,51.1876662551433,51.00938666225134,203.82878900737452,186.84068571092808,-9.713172767078504e-05,0.0931148082017898,0,0,0
17277,586345.1209502743,2010-09-21 08:50:38,2281.15972764786,7,50,-1.099568486213684,3.5666799545288086,51.1876662551433,51.01855405604794,203.82878900737452,186.87339775091223,-9.713172767078504e-05,0.0931148082017898,0,0,0
17278,586375.1362102109,2010-09-21 08:51:08,2311.1749875843934,7,50,-1.0993878841400146,3.5634422302246094,51.1876662551433,51.02772153877666,203.82878900737452,186.9060812836217,-9.713172767078504e-05,0.0931148082017898,0,0,0
17279,586405.1516210639,2010-09-21 08:51:38,2341.1903984376386,7,50,-1.0993878841400146,3.56052827835083,51.1876662551433,51.03688894734763,203.82878900737452,186.9387363830277,-9.713172767078504e-05,0.0931148082017898,0,0,0
17280,586435.1667699884,2010-09-21 08:52:08,2371.205547362069,7,50,-1.0993878841400146,3.557452440261841,51.1876662551433,51.04605630212235,203.82878900737452,186.97136223891903,-6.47544875391759e-05,0.0931148082017898,0,0,0
17281,586465.1821784808,2010-09-21 08:52:38,2401.2209558644463,7,50,-1.099568486213684,3.5538909435272217,51.1876662551433,51.05522385866851,203.82878900737452,187.00395918608527,-0.0001295089750783,0.0931148082017898,0,0,0
17282,586495.1974196204,2010-09-21 08:53:08,2431.2361969940357,7,50,-1.099929690361023,3.5506532192230225,51.1876662551433,51.064391207075374,203.82878900737452,187.03652527348927,-9.713172767078504e-05,0.0931148082017898,0,0,0
17283,586525.2125407855,2010-09-21 08:53:38,2461.251318254412,7,50,-1.099568486213684,3.547577381134033,51.1876662551433,51.07355863330898,203.82878900737452,187.06906090182613,-3.237724376958795e-05,0.0931148082017898,0,0,0
17284,586555.2277925266,2010-09-21 08:54:08,2491.266569905263,7,50,-1.099568486213684,3.544015884399414,51.1876662551433,51.08272612114994,203.82878900737452,187.10156571326425,-6.47544875391759e-05,0.0931148082017898,0,0,0
17285,586585.2431923122,2010-09-21 08:54:38,2521.2819696858696,7,50,-1.099568486213684,3.540292501449585,51.1876662551433,51.0918936633753,203.82878900737452,187.1340384427322,-9.713172767078504e-05,0.0931148082017898,0,0,0
17286,586615.2582970163,2010-09-21 08:55:08,2551.2970743899195,7,50,-1.0993878841400146,3.536731004714966,51.1876662551433,51.10106113703267,203.82878900737452,187.16647818119145,-9.713172767078504e-05,0.0931148082017898,0,0,0
17287,586645.2735878399,2010-09-21 08:55:38,2581.3123652135523,7,50,-1.099568486213684,3.5330076217651367,51.1876662551433,51.11022869071953,203.82878900737452,187.19888463251905,-9.713172767078504e-05,0.0931148082017898,0,0,0
17288,586675.2888208793,2010-09-21 08:56:08,2611.327598252947,7,50,-1.0993878841400146,3.5291223526000977,51.1876662551433,51.11939617512076,203.82878900737452,187.2312558479612,-0.0001295089750783,0.0931148082017898,0,0,0
17289,586705.3042287551,2010-09-21 08:56:38,2641.34300612876,7,50,-1.099568486213684,3.5252370834350586,51.1876662551433,51.12856371357607,203.82878900737452,187.26359142836972,-9.713172767078504e-05,0.0931148082017898,0,0,0
17290,586735.3194605715,2010-09-21 08:57:08,2671.358237950114,7,50,-1.0997490882873535,3.5208661556243896,51.1876662551433,51.13773116214406,203.82878900737452,187.29588907649716,-0.0001295089750783,0.0931148082017898,0,0,0
17291,586765.3346098367,2010-09-21 08:57:38,2701.3733872103826,7,50,-1.099568486213684,3.5164952278137207,51.1876662551433,51.146898627318805,203.82878900737452,187.3281475057127,-9.713172767078504e-05,0.0931148082017898,0,0,0
17292,586795.3498641592,2010-09-21 08:58:08,2731.388641532903,7,50,-1.0993878841400146,3.511800527572632,51.1876662551433,51.15606609156545,203.82878900737452,187.36036380097272,-0.0001295089750783,0.0931148082017898,0,0,0
17293,586825.3651258652,2010-09-21 08:58:38,2761.403903238854,7,50,-1.0997490882873535,3.506782293319702,51.1876662551433,51.16523361771946,203.82878900737452,187.3925360279802,-0.0001618862152099,0.0931148082017898,0,0,0
17294,586855.3803781376,2010-09-21 08:59:08,2791.4191555112566,7,50,-1.099568486213684,3.5016019344329834,51.1876662551433,51.17440112087993,203.82878900737452,187.42466168419136,-0.0001618862152099,0.0931148082017898,0,0,0
17295,586885.3956450516,2010-09-21 08:59:38,2821.434422425208,7,50,-1.0993878841400146,3.4959359169006348,51.1876662551433,51.18356861121238,203.82878900737452,187.45673675506453,-0.0001295089750783,0.0931148082017898,0,0,0
17296,586915.4109138753,2010-09-21 09:00:08,2851.449691268976,7,50,-1.099568486213684,3.4896223545074463,51.1876662551433,51.1927361025336,203.82878900737452,187.48875644876009,-0.0001618862152099,0.0931148082017898,0,0,0
17297,586945.426156649,2010-09-21 09:00:38,2881.464934022618,7,50,-1.099568486213684,3.482499361038208,51.1876662551433,51.201903632609216,203.82878900737452,187.5207154954058,-0.0001942634553415,0.0931148082017898,0,0,0
17298,586975.441415177,2010-09-21 09:01:08,2911.480192550636,7,50,-1.099568486213684,3.47472882270813,51.1876662551433,51.21107110229748,203.82878900737452,187.5526063390293,-0.0002266406954731,0.0931148082017898,0,0,0
17299,587005.456683725,2010-09-21 09:01:38,2941.4954611086905,7,50,-1.099568486213684,3.465825080871582,51.1876662551433,51.22023855617454,203.82878900737452,187.5844208456249,-0.0002590179501567,0.0931148082017898,0,0,0
17300,587035.4720747037,2010-09-21 09:02:08,2971.510852077301,7,50,-1.099568486213684,3.4557881355285645,51.1876662551433,51.229406115401936,203.82878900737452,187.61614932328297,-0.0002913951757363,0.0931148082017898,0,0,0
17301,587065.4873490913,2010-09-21 09:02:38,3001.5261264649066,7,50,-1.099568486213684,3.443808555603028,51.1876662551433,51.23857362797496,203.82878900737452,187.6477776847761,-0.0003237724304199,0.0931148082017898,0,0,0
17302,587095.5024591186,2010-09-21 09:03:08,3031.541236492244,7,50,-1.0993878841400146,3.43004846572876,51.1876662551433,51.247741094470605,203.82878900737452,187.6792877496843,-0.0003561019839253,0.0931148082017898,0,0,0
17303,587125.5177548545,2010-09-21 09:03:38,3061.5565322281386,7,50,-1.0993878841400146,3.413050413131714,51.1876662551433,51.25690867187132,203.82878900737452,187.7106575056064,-0.0004856586456298,0.0931148082017898,0,0,0
17304,587155.5329811871,2010-09-21 09:04:08,3091.5717585858547,7,50,-1.099568486213684,3.391681432723999,51.1876662551433,51.2660762392062,203.82878900737452,187.74185310281376,-0.0006475448608398,0.0931148082017898,0,0,0
17305,587185.5482589983,2010-09-21 09:04:38,3121.587036402019,7,50,-1.0997490882873535,3.363351345062256,51.1876662551433,51.27524379577115,203.82878900737452,187.77282379461275,-0.0008741855854168,0.0931148082017898,0,0,0
17306,587215.5635185438,2010-09-21 09:05:08,3151.602295927527,7,50,-1.099568486213684,3.3240132331848145,51.1876662551433,51.28441138838162,203.82878900737452,187.80348770209,-0.0011979580158367,0.0931148082017898,0,0,0
17307,587245.5787680143,2010-09-21 09:05:38,3181.6175453979354,7,50,-1.0993878841400146,3.267515182495117,51.1876662551433,51.29357893083743,203.82878900737452,187.83371656607028,-0.0017159462440758,0.0931148082017898,0,0,0
17308,587275.5941555093,2010-09-21 09:06:08,3211.632932892875,7,50,-1.099568486213684,3.1847915649414062,51.1876662551433,51.30274651379575,203.82878900737452,187.8633175277884,-0.0025901317130774,0.0931148082017898,0,0,0
17309,587305.6096724673,2010-09-21 09:06:38,3241.648449840949,7,50,-1.099568486213684,3.053178310394287,51.1876662551433,51.31191415432976,203.82878900737452,187.89196383565871,-0.0044033052399754,0.0931148082017898,0,0,0
17310,587328.3121333724,2010-09-21 09:07:01,3264.3509107460545,7,50,-1.099568486213684,2.8529257774353027,51.1876662551433,51.31884814083912,203.82878900737452,187.9125370493921,-0.0097778793424367,0.0931148082017898,0,0,0
17311,587338.3902729894,2010-09-21 09:07:11,3274.4290503680345,7,50,-1.099568486213684,2.699781894683838,51.1876662551433,51.32192629336283,203.82878900737452,187.9210923448293,-0.0128860948607325,0.0931148082017898,0,0,0
17312,587398.3891558269,2010-09-21 09:08:11,60.01494419878851,8,50,0.0,3.406898736953736,51.1876662551433,51.32192629336283,203.82878900737452,187.9210923448293,0.0014893531333655,0.0931148082017898,0,0,0
17313,587398.561365198,2010-09-21 09:08:11,0.187457141865657,9,50,-1.9243103452026844e-05,3.4070606231689453,51.1876662551433,51.32192629436484,203.82878900737452,187.92109234824323,0.0,0.0891468673944473,0,0,0
17314,587403.3895235792,2010-09-21 09:08:16,5.015615507940976,9,50,0.0008838032954372,3.416126251220703,51.18766718272023,51.3219262944493,203.8287921724736,187.92109234853092,0.0013274669181555,0.0891468673944473,0,0,0
