Data_Point,Test_Time(s),Date_Time,Step_Time(s),Step_Index,Cycle_Index,Current(A),Voltage(V),Charge_Capacity(Ah),Discharge_Capacity(Ah),Charge_Energy(Wh),Discharge_Energy(Wh),dV/dt(V/s),Internal_Resistance(Ohm),Is_FC_Data,AC_Impedance(Ohm),ACI_Phase_Angle(Deg)
6319,215544.3481814244,2010-09-17 01:49:59,30.01529171084746,1,19,0.0,3.3688554763793945,18.691653302582267,18.82245756101748,74.4512311376674,68.91824344069546,0.0006799221155233,0.0867155864834785,0,0,0
6320,215574.3636702172,2010-09-17 01:50:29,60.030780508654296,1,19,0.0,3.3897387981414795,18.691653302582267,18.82245756101748,74.4512311376674,68.91824344069546,0.0005180359003134,0.0867155864834785,0,0,0
6321,215604.378837718,2010-09-17 01:50:59,90.04594801446687,1,19,0.0,3.404956102371216,18.691653302582267,18.82245756101748,74.4512311376674,68.91824344069546,0.0003561496851034,0.0867155864834785,0,0,0
6322,215634.34729066712,2010-09-17 01:51:29,120.01440096355904,1,19,0.0,3.417259454727173,18.691653302582267,18.82245756101748,74.4512311376674,68.91824344069546,0.0002590179501567,0.0867155864834785,0,0,0
6323,215664.36362823332,2010-09-17 01:51:59,30.015339033973262,2,19,0.5499359965324402,3.56101393699646,18.696238249937785,18.82245756101748,74.46739855133157,68.91824344069546,0.0015864849556237,0.0867155864834785,0,0,0
6324,215694.3789396083,2010-09-17 01:52:29,60.03065041391782,2,19,0.5501165986061096,3.609741449356079,18.70082397573378,18.82245756101748,74.4838461660253,68.91824344069546,0.0011332035064697,0.0867155864834785,0,0,0
6325,215724.39450775416,2010-09-17 01:52:59,90.04621855477713,2,19,0.5499359965324402,3.6460039615631104,18.705409814806742,18.82245756101748,74.50048656122489,68.91824344069546,0.0008418083307333,0.0867155864834785,0,0,0
6326,215754.40974527973,2010-09-17 01:53:29,120.06145609039488,2,19,0.5499359965324402,3.675467014312744,18.70999550969753,18.82245756101748,74.51727567437356,68.91824344069546,0.0007446288946084,0.0867155864834785,0,0,0
6327,215784.42496116128,2010-09-17 01:53:59,150.0766719719608,2,19,0.5495747923851013,3.699264287948608,18.71458127021928,18.82245756101748,74.5341866339389,68.91824344069546,0.0005504131549969,0.0867155864834785,0,0,0
6328,215814.4402490426,2010-09-17 01:54:29,180.09195984823654,2,19,0.5501165986061096,3.719661951065064,18.71916701924129,18.82245756101748,74.55119892052798,68.91824344069546,0.0005180359003134,0.0867155864834785,0,0,0
6329,215844.45558383092,2010-09-17 01:54:59,210.10729463661212,2,19,0.5499359965324402,3.7364981174468994,18.723752751512016,18.82245756101748,74.56829587483239,68.91824344069546,0.0004209041653666,0.0867155864834785,0,0,0
6330,215874.47090908053,2010-09-17 01:55:29,240.1226198811649,2,19,0.5501165986061096,3.7492871284484863,18.728338425180127,18.82245756101748,74.58546116955982,68.91824344069546,0.0002913951757363,0.0867155864834785,0,0,0
6331,215904.48628560308,2010-09-17 01:55:59,270.1379964037155,2,19,0.5497553944587708,3.7572193145751953,18.732924155409687,18.82245756101748,74.60267458294145,68.91824344069546,0.0001942634553415,0.0867155864834785,0,0,0
6332,215934.50157449188,2010-09-17 01:56:29,300.1532852925186,2,19,0.5499359965324402,3.761752128601074,18.73750989616625,18.82245756101748,74.6199153533576,68.91824344069546,0.0001295089750783,0.0867155864834785,0,0,0
6333,215964.51688707483,2010-09-17 01:56:59,330.1685978804786,2,19,0.5499359965324402,3.7649898529052734,18.74209564971161,18.82245756101748,74.63717336582471,68.91824344069546,9.713172767078504e-05,0.0867155864834785,0,0,0
6334,215994.53236639893,2010-09-17 01:57:29,360.1840771996252,2,19,0.5499359965324402,3.768065690994263,18.746681334135108,18.82245756101748,74.65444520506321,68.91824344069546,6.47544875391759e-05,0.0867155864834785,0,0,0
6335,216024.54757071167,2010-09-17 01:57:59,390.1992815223385,2,19,0.5499359965324402,3.770655870437622,18.751267083163,18.82245756101748,74.67173072074276,68.91824344069546,3.237724376958795e-05,0.0867155864834785,0,0,0
6336,216054.56286344008,2010-09-17 01:58:29,420.2145742457134,2,19,0.5499359965324402,3.7737317085266113,18.755852798885787,18.82245756101748,74.68902953375228,68.91824344069546,6.47544875391759e-05,0.0867155864834785,0,0,0
6337,216084.57820186752,2010-09-17 01:58:59,450.2299126681602,2,19,0.5497553944587708,3.7764837741851807,18.76043853643487,18.82245756101748,74.70634189128067,68.91824344069546,3.237724376958795e-05,0.0867155864834785,0,0,0
6338,216114.59353587896,2010-09-17 01:59:29,480.2452466795964,2,19,0.5501165986061096,3.77972149848938,18.765024220499157,18.82245756101748,74.72366733070163,68.91824344069546,6.47544875391759e-05,0.0867155864834785,0,0,0
6339,216144.6090409925,2010-09-17 01:59:59,510.26075179312977,2,19,0.5499359965324402,3.7823116779327393,18.76960999697751,18.82245756101748,74.74100620415129,68.91824344069546,6.47544875391759e-05,0.0867155864834785,0,0,0
6340,216174.6241717716,2010-09-17 02:00:29,540.2758825722669,2,19,0.5501165986061096,3.785225629806519,18.77419569194468,18.82245756101748,74.7583578192158,68.91824344069546,6.47544875391759e-05,0.0867155864834785,0,0,0
6341,216204.6394950663,2010-09-17 02:00:59,570.2912058719651,2,19,0.5499359965324402,3.788139581680298,18.778781310916827,18.82245756101748,74.7757221495732,68.91824344069546,6.47544875391759e-05,0.0867155864834785,0,0,0
6342,216234.6547977696,2010-09-17 02:01:29,600.3065085702389,2,19,0.5501165986061096,3.790891647338867,18.78336691227449,18.82245756101748,74.79309924708409,68.91824344069546,6.47544875391759e-05,0.0867155864834785,0,0,0
6343,216264.6701463324,2010-09-17 02:01:59,630.3218571430224,2,19,0.5499359965324402,3.793643712997437,18.78795243429537,18.82245756101748,74.81048873354631,68.91824344069546,6.47544875391759e-05,0.0867155864834785,0,0,0
6344,216294.68552458423,2010-09-17 02:02:29,660.3372353848645,2,19,0.5499359965324402,3.796395778656006,18.79253801527825,18.82245756101748,74.82789123563886,68.91824344069546,6.47544875391759e-05,0.0867155864834785,0,0,0
6345,216324.7009150165,2010-09-17 02:03:00,690.3526258221484,2,19,0.5501165986061096,3.799471616744995,18.79712375617822,18.82245756101748,74.84530706396235,68.91824344069546,9.713172767078504e-05,0.0867155864834785,0,0,0
6346,216354.7161078405,2010-09-17 02:03:30,720.3678186411465,2,19,0.5499359965324402,3.8020617961883545,18.801709584213587,18.82245756101748,74.8627362145568,68.91824344069546,6.47544875391759e-05,0.0867155864834785,0,0,0
6347,216384.73145239823,2010-09-17 02:04:00,750.3831632089331,2,19,0.5501165986061096,3.805137634277344,18.806295415263115,18.82245756101748,74.88017862748663,68.91824344069546,6.47544875391759e-05,0.0867155864834785,0,0,0
6348,216414.7467874573,2010-09-17 02:04:30,780.3984982579593,2,19,0.5499359965324402,3.808051586151123,18.81088119633658,18.82245756101748,74.89763450325323,68.91824344069546,0.0001295089750783,0.0867155864834785,0,0,0
6349,216444.7620869626,2010-09-17 02:05:00,810.4137977632629,2,19,0.5501165986061096,3.811289310455322,18.815467020484828,18.82245756101748,74.9151046627805,68.91824344069546,9.713172767078504e-05,0.0867155864834785,0,0,0
6350,216474.77741500412,2010-09-17 02:05:30,840.4291258047974,2,19,0.5499359965324402,3.8145270347595215,18.820052877678023,18.82245756101748,74.93258973057047,68.91824344069546,9.713172767078504e-05,0.0867155864834785,0,0,0
6351,216504.7927579379,2010-09-17 02:06:00,870.444468738505,2,19,0.5499359965324402,3.8177647590637207,18.824638649411103,18.82245756101748,74.95008976165944,68.91824344069546,9.713172767078504e-05,0.0867155864834785,0,0,0
6352,216534.8080721599,2010-09-17 02:06:30,900.4597829605439,2,19,0.5499359965324402,3.82116436958313,18.829224383870315,18.82245756101748,74.96760513459422,68.91824344069546,9.713172767078504e-05,0.0867155864834785,0,0,0
6353,216564.8233936852,2010-09-17 02:07:00,930.4751044958376,2,19,0.5501165986061096,3.824725866317749,18.83381028970277,18.82245756101748,74.98513689792516,68.91824344069546,9.713172767078504e-05,0.0867155864834785,0,0,0
6354,216594.83884753572,2010-09-17 02:07:30,960.4905583413984,2,19,0.5501165986061096,3.828125476837158,18.83839614248352,18.82245756101748,75.00268421071327,68.91824344069546,9.713172767078504e-05,0.0867155864834785,0,0,0
6355,216624.85407100123,2010-09-17 02:08:00,990.5057818119076,2,19,0.5501165986061096,3.831525087356568,18.842981880419693,18.82245756101748,75.02024678527755,68.91824344069546,6.47544875391759e-05,0.0867155864834785,0,0,0
6356,216654.86951500725,2010-09-17 02:08:30,1020.5212258179072,2,19,0.5501165986061096,3.8349244594573975,18.847567738774103,18.82245756101748,75.03782519660223,68.91824344069546,9.713172767078504e-05,0.0867155864834785,0,0,0
6357,216684.88483414656,2010-09-17 02:09:00,1050.5365449522078,2,19,0.5499359965324402,3.8380002975463863,18.85215349932827,18.82245756101748,75.05541835330553,68.91824344069546,6.47544875391759e-05,0.0867155864834785,0,0,0
6358,216714.9000441785,2010-09-17 02:09:30,1080.551754979159,2,19,0.5501165986061096,3.841399908065796,18.85673928835672,18.82245756101748,75.0730264646712,68.91824344069546,6.47544875391759e-05,0.0867155864834785,0,0,0
6359,216744.9154012676,2010-09-17 02:10:00,1110.567112078226,2,19,0.5499359965324402,3.844313859939575,18.86132507513801,18.82245756101748,75.09064907742555,68.91824344069546,6.47544875391759e-05,0.0867155864834785,0,0,0
6360,216774.93069416136,2010-09-17 02:10:30,1140.582404987064,2,19,0.5501165986061096,3.847713470458984,18.86591089455477,18.82245756101748,75.10828614908574,68.91824344069546,0.0001295089750783,0.0867155864834785,0,0,0
6361,216804.9460188145,2010-09-17 02:11:00,1170.5977296150777,2,19,0.5499359965324402,3.850627422332764,18.870496701543196,18.82245756101748,75.12593717041663,68.91824344069546,9.713172767078504e-05,0.0867155864834785,0,0,0
6362,216834.9613739085,2010-09-17 02:11:30,1200.6130847191644,2,19,0.5501165986061096,3.853541374206543,18.875082537810457,18.82245756101748,75.14360202988586,68.91824344069546,6.47544875391759e-05,0.0867155864834785,0,0,0
6363,216864.97668200525,2010-09-17 02:12:00,1230.6283928109012,2,19,0.5501165986061096,3.856293439865112,18.879668366371124,18.82245756101748,75.16128001462376,68.91824344069546,9.713172767078504e-05,0.0867155864834785,0,0,0
6364,216894.9921265877,2010-09-17 02:12:30,1260.6438373933397,2,19,0.5499359965324402,3.858883619308472,18.88425420712768,18.82245756101748,75.17897076963511,68.91824344069546,6.47544875391759e-05,0.0867155864834785,0,0,0
6365,216925.00769745035,2010-09-17 02:13:00,1290.6594082960928,2,19,0.5501165986061096,3.861473798751831,18.888840038617012,18.82245756101748,75.19667353331351,68.91824344069546,6.47544875391759e-05,0.0867155864834785,0,0,0
6366,216955.0226718391,2010-09-17 02:13:30,1320.6743827349806,2,19,0.5501165986061096,3.863902091979981,18.893425778870142,18.82245756101748,75.21438729958527,68.91824344069546,3.237724376958795e-05,0.0867155864834785,0,0,0
6367,216985.03806114857,2010-09-17 02:14:00,1350.689772039437,2,19,0.5499359965324402,3.86616849899292,18.898011576888905,18.82245756101748,75.23211196028815,68.91824344069546,6.47544875391759e-05,0.0867155864834785,0,0,0
6368,217015.05335591707,2010-09-17 02:14:30,1380.7050668179415,2,19,0.5499359965324402,3.8682730197906494,18.90259729416788,18.82245756101748,75.24984629479012,68.91824344069546,0.0,0.0867155864834785,0,0,0
6369,217045.06869340217,2010-09-17 02:15:00,1410.7204042027986,2,19,0.5501165986061096,3.870377540588379,18.90718316326365,18.82245756101748,75.26759056194093,68.91824344069546,6.47544875391759e-05,0.0867155864834785,0,0,0
6370,217075.08402499257,2010-09-17 02:15:30,1440.7357367455686,2,19,0.5499359965324402,3.872158288955689,18.91176902466113,18.82245756101748,75.28534344476681,68.91824344069546,6.47544875391759e-05,0.0867155864834785,0,0,0
6371,217105.09956973503,2010-09-17 02:16:00,1470.7512806308823,2,19,0.5499359965324402,3.873777151107788,18.91635482879825,18.82245756101748,75.3031040440798,68.91824344069546,6.47544875391759e-05,0.0867155864834785,0,0,0
6372,217135.10176136103,2010-09-17 02:16:30,1500.7534722769528,2,19,0.5499359965324402,3.8752341270446777,18.920938640763943,18.82245756101748,75.32086412722961,68.91824344069546,0.0,0.0867155864834785,0,0,0
6373,217165.114418671,2010-09-17 02:17:00,1530.7661295668804,2,19,0.5501165986061096,3.876691102981568,18.925524067352136,18.82245756101748,75.3386372485852,68.91824344069546,3.237724376958795e-05,0.0867155864834785,0,0,0
6374,217195.1297136149,2010-09-17 02:17:30,1560.7814244155604,2,19,0.5501165986061096,3.877986192703247,18.930109836895543,18.82245756101748,75.35641792786696,68.91824344069546,3.237724376958795e-05,0.0867155864834785,0,0,0
6375,217225.14498519053,2010-09-17 02:18:00,1590.7966959961598,2,19,0.5501165986061096,3.879281282424927,18.934695709206604,18.82245756101748,75.37420496475929,68.91824344069546,0.0,0.0867155864834785,0,0,0
6376,217255.1604721387,2010-09-17 02:18:30,1620.8121829543743,2,19,0.5501165986061096,3.8805763721466064,18.939281552075837,18.82245756101748,75.39199737324041,68.91824344069546,9.713172767078504e-05,0.0867155864834785,0,0,0
6377,217285.160581868,2010-09-17 02:19:00,1650.8122926686228,2,19,0.5497553944587708,3.881547689437866,18.943865007497063,18.82245756101748,75.40978593398104,68.91824344069546,3.237724376958795e-05,0.0867155864834785,0,0,0
6378,217315.17538147044,2010-09-17 02:19:30,1680.8270922761044,2,19,0.5499359965324402,3.882842779159546,18.948450822785126,18.82245756101748,75.42758886346827,68.91824344069546,6.47544875391759e-05,0.0867155864834785,0,0,0
6379,217345.19069771253,2010-09-17 02:20:00,1710.8424085231982,2,19,0.5499359965324402,3.883975982666016,18.953036556718075,18.82245756101748,75.44539662076266,68.91824344069546,6.47544875391759e-05,0.0867155864834785,0,0,0
6380,217375.2061354128,2010-09-17 02:20:30,1740.8578462234575,2,19,0.5499359965324402,3.8849472999572754,18.957622366295983,18.82245756101748,75.46320960679776,68.91824344069546,6.47544875391759e-05,0.0867155864834785,0,0,0
6381,217405.22134179567,2010-09-17 02:21:00,1770.873052601301,2,19,0.5499359965324402,3.886080503463745,18.962208176726044,18.82245756101748,75.48102760127728,68.91824344069546,3.237724376958795e-05,0.0867155864834785,0,0,0
6382,217435.2366607796,2010-09-17 02:21:30,1800.8883715802135,2,19,0.5501165986061096,3.887213706970215,18.9667939786889,18.82245756101748,75.49885055199272,68.91824344069546,3.237724376958795e-05,0.0867155864834785,0,0,0
6383,217465.2523895113,2010-09-17 02:22:00,1830.90410034702,2,19,0.5497553944587708,3.8880231380462646,18.971379841811384,18.82245756101748,75.51667863783979,68.91824344069546,-3.237724376958795e-05,0.0867155864834785,0,0,0
6384,217495.2673205268,2010-09-17 02:22:30,1860.919031327429,2,19,0.5497553944587708,3.8891563415527344,18.97596555912792,18.82245756101748,75.53451112615089,68.91824344069546,0.0,0.0867155864834785,0,0,0
6385,217525.28266403195,2010-09-17 02:23:00,1890.9343748375752,2,19,0.5499359965324402,3.890451431274414,18.980551407278583,18.82245756101748,75.55234900189583,68.91824344069546,6.47544875391759e-05,0.0867155864834785,0,0,0
6386,217555.2981770853,2010-09-17 02:23:30,1920.9498878959405,2,19,0.5501165986061096,3.891584634780884,18.98513724220116,18.82245756101748,75.5701917452171,68.91824344069546,9.713172767078504e-05,0.0867155864834785,0,0,0
6387,217585.3133012479,2010-09-17 02:24:00,1950.9650120485364,2,19,0.5497553944587708,3.892232179641724,18.98972308815576,18.82245756101748,75.58803948016147,68.91824344069546,-3.237724376958795e-05,0.0867155864834785,0,0,0
6388,217615.3287604318,2010-09-17 02:24:30,1980.980471237435,2,19,0.5501165986061096,3.893689155578613,18.99430899121935,18.82245756101748,75.60589244572938,68.91824344069546,3.237724376958795e-05,0.0867155864834785,0,0,0
6389,217645.34396732596,2010-09-17 02:25:00,2010.9956781265544,2,19,0.5501165986061096,3.894660472869873,18.998894882981723,18.82245756101748,75.62375043133635,68.91824344069546,0.0,0.0867155864834785,0,0,0
6390,217675.35929249023,2010-09-17 02:25:30,2041.011003290907,2,19,0.5501165986061096,3.895793676376343,19.003480817360337,18.82245756101748,75.64161306163426,68.91824344069546,6.47544875391759e-05,0.0867155864834785,0,0,0
6391,217705.374753218,2010-09-17 02:26:00,2071.0264640286714,2,19,0.5499359965324402,3.8967649936676025,19.008066695805496,18.82245756101748,75.65948073399734,68.91824344069546,3.237724376958795e-05,0.0867155864834785,0,0,0
6392,217735.3899464731,2010-09-17 02:26:30,2101.041657273733,2,19,0.5499359965324402,3.897898197174072,19.01265247132309,18.82245756101748,75.67735312197354,68.91824344069546,3.237724376958795e-05,0.0867155864834785,0,0,0
6393,217765.40542804287,2010-09-17 02:27:00,2131.05713884851,2,19,0.5501165986061096,3.899031400680542,19.01723837187088,18.82245756101748,75.6952312472559,68.91824344069546,3.237724376958795e-05,0.0867155864834785,0,0,0
6394,217795.4205956539,2010-09-17 02:27:30,2161.072306454573,2,19,0.5501165986061096,3.900164604187012,19.021824220221472,18.82245756101748,75.71311440404024,68.91824344069546,0.0,0.0867155864834785,0,0,0
6395,217825.4359319661,2010-09-17 02:28:00,2191.087642766752,2,19,0.5501165986061096,3.9014596939086914,19.026410060349317,18.82245756101748,75.73100279450253,68.91824344069546,3.237724376958795e-05,0.0867155864834785,0,0,0
6396,217855.4512690452,2010-09-17 02:28:30,2221.102979845846,2,19,0.5501165986061096,3.902592897415161,19.03099592492968,18.82245756101748,75.74889665643144,68.91824344069546,3.237724376958795e-05,0.0867155864834785,0,0,0
6397,217885.4666011569,2010-09-17 02:29:00,2251.11831195754,2,19,0.5501165986061096,3.903726100921631,19.035581810178087,18.82245756101748,75.76679599185475,68.91824344069546,3.237724376958795e-05,0.0867155864834785,0,0,0
6398,217915.48192094784,2010-09-17 02:29:30,2281.13363174848,2,19,0.5501165986061096,3.905021190643311,19.04016765669208,18.82245756101748,75.78470073613555,68.91824344069546,6.47544875391759e-05,0.0867155864834785,0,0,0
6399,217945.49724407712,2010-09-17 02:30:00,2311.148954877752,2,19,0.5499359965324402,3.90615439414978,19.044753523804644,18.82245756101748,75.80261094480127,68.91824344069546,6.47544875391759e-05,0.0867155864834785,0,0,0
6400,217975.51258692052,2010-09-17 02:30:30,2341.164297721235,2,19,0.5499359965324402,3.90728759765625,19.04933934545484,18.82245756101748,75.82052660998461,68.91824344069546,0.0,0.0867155864834785,0,0,0
6401,218005.5279101351,2010-09-17 02:31:00,2371.1796209407325,2,19,0.5501165986061096,3.9085826873779297,19.053925216442327,18.82245756101748,75.83844811164201,68.91824344069546,3.237724376958795e-05,0.0867155864834785,0,0,0
6402,218035.54330973525,2010-09-17 02:31:30,2401.195020631114,2,19,0.5501165986061096,3.90987777709961,19.05851108994495,18.82245756101748,75.85637541002691,68.91824344069546,0.0,0.0867155864834785,0,0,0
6403,218065.5585595716,2010-09-17 02:32:00,2431.2102703721985,2,19,0.550297200679779,3.911172866821289,19.06309699619792,18.82245756101748,75.87430858818598,68.91824344069546,3.237724376958795e-05,0.0867155864834785,0,0,0
6404,218095.5740066753,2010-09-17 02:32:30,2461.22571747593,2,19,0.5499359965324402,3.9124679565429688,19.06768286944151,18.82245756101748,75.892247530139,68.91824344069546,3.237724376958795e-05,0.0867155864834785,0,0,0
6405,218125.58942200977,2010-09-17 02:33:00,2491.2411328103613,2,19,0.5499359965324402,3.913762807846069,19.072268755515463,18.82245756101748,75.91019242339176,68.91824344069546,6.470680091297254e-05,0.0867155864834785,0,0,0
6406,218155.6046726681,2010-09-17 02:33:30,2521.25638347876,2,19,0.550297200679779,3.915219783782959,19.076854619803683,18.82245756101748,75.92814328056437,68.91824344069546,9.713172767078504e-05,0.0867155864834785,0,0,0
6407,218185.6198986449,2010-09-17 02:34:00,2551.271609445501,2,19,0.5499359965324402,3.9163529872894287,19.08144053498976,18.82245756101748,75.9461002380114,68.91824344069546,3.237724376958795e-05,0.0867155864834785,0,0,0
6408,218215.6352087767,2010-09-17 02:34:30,2581.2869195773296,2,19,0.5499359965324402,3.917648077011109,19.08602639570918,18.82245756101748,75.96406316855484,68.91824344069546,3.237724376958795e-05,0.0867155864834785,0,0,0
6409,218245.6505812291,2010-09-17 02:35:00,2611.3022920297203,2,19,0.5501165986061096,3.919105052947998,19.090612245148595,18.82245756101748,75.9820322071596,68.91824344069546,6.47544875391759e-05,0.0867155864834785,0,0,0
6410,218275.66586644872,2010-09-17 02:35:30,2641.3175773446023,2,19,0.5501165986061096,3.9204001426696777,19.095198099045778,18.82245756101748,76.00000757086079,68.91824344069546,0.0,0.0867155864834785,0,0,0
6411,218305.6811882096,2010-09-17 02:36:01,2671.332899010222,2,19,0.5499359965324402,3.921695232391357,19.099783994076898,18.82245756101748,76.01798932794581,68.91824344069546,3.237724376958795e-05,0.0867155864834785,0,0,0
6412,218335.69652905304,2010-09-17 02:36:31,2701.348239853712,2,19,0.5499359965324402,3.923152208328247,19.10436983633003,18.82245756101748,76.03597731528556,68.91824344069546,3.237724376958795e-05,0.0867155864834785,0,0,0
6413,218365.7118872649,2010-09-17 02:37:01,2731.363598085606,2,19,0.5501165986061096,3.9246091842651367,19.10895570256276,18.82245756101748,76.05397176257343,68.91824344069546,3.237724376958795e-05,0.0867155864834785,0,0,0
6414,218395.7272056674,2010-09-17 02:37:31,2761.3789164680297,2,19,0.5501165986061096,3.9260661602020255,19.113541566792257,18.82245756101748,76.07197272695024,68.91824344069546,3.237724376958795e-05,0.0867155864834785,0,0,0
6415,218425.7425139396,2010-09-17 02:38:01,2791.394224740217,2,19,0.550297200679779,3.927523136138916,19.118127428838665,18.82245756101748,76.0899801117104,68.91824344069546,6.47544875391759e-05,0.0867155864834785,0,0,0
6416,218455.75784647232,2010-09-17 02:38:31,2821.409557282987,2,19,0.5499359965324402,3.928818225860596,19.122713316584573,18.82245756101748,76.10799426738033,68.91824344069546,3.237724376958795e-05,0.0867155864834785,0,0,0
6417,218485.7733064833,2010-09-17 02:39:01,2851.425017283913,2,19,0.5497553944587708,3.930275201797485,19.12729920074574,18.82245756101748,76.1260150840991,68.91824344069546,0.0,0.0867155864834785,0,0,0
6418,218515.78850012436,2010-09-17 02:39:31,2881.440210934988,2,19,0.5501165986061096,3.931894063949585,19.131885048980507,18.82245756101748,76.14404245482162,68.91824344069546,3.237724376958795e-05,0.0867155864834785,0,0,0
6419,218545.8038263112,2010-09-17 02:40:01,2911.45553711688,2,19,0.5499359965324402,3.9331891536712646,19.136470968039507,18.82245756101748,76.16207691317256,68.91824344069546,3.237724376958795e-05,0.0867155864834785,0,0,0
6420,218575.81917181137,2010-09-17 02:40:31,2941.470882616994,2,19,0.5499359965324402,3.9346461296081534,19.1410568472028,18.82245756101748,76.18011806901403,68.91824344069546,0.0,0.0867155864834785,0,0,0
6421,218605.83451889543,2010-09-17 02:41:01,2971.4862296960487,2,19,0.5501165986061096,3.936426877975464,19.14564278607389,18.82245756101748,76.19816641221685,68.91824344069546,3.237724376958795e-05,0.0867155864834785,0,0,0
6422,218635.84981689692,2010-09-17 02:41:31,3001.501527697599,2,19,0.5499359965324402,3.9378838539123535,19.150228637785062,18.82245756101748,76.21622123177923,68.91824344069546,3.237724376958795e-05,0.0867155864834785,0,0,0
6423,218665.86543575945,2010-09-17 02:42:01,3031.51714656508,2,19,0.5501165986061096,3.939340829849243,19.15481462643932,18.82245756101748,76.23428377328996,68.91824344069546,0.0,0.0867155864834785,0,0,0
6424,218695.8804713309,2010-09-17 02:42:31,3061.5321821315515,2,19,0.5501165986061096,3.940959692001343,19.159400858349265,18.82245756101748,76.25235438720611,68.91824344069546,6.47544875391759e-05,0.0867155864834785,0,0,0
6425,218725.89592680053,2010-09-17 02:43:01,3091.547637601166,2,19,0.550297200679779,3.942740440368652,19.163987616400597,18.82245756101748,76.27043418505815,68.91824344069546,6.47544875391759e-05,0.0867155864834785,0,0,0
6426,218755.9111291433,2010-09-17 02:43:31,3121.562839943937,2,19,0.5501165986061096,3.944035530090332,19.16857424405441,18.82245756101748,76.28852073521546,68.91824344069546,3.237724376958795e-05,0.0867155864834785,0,0,0
6427,218785.9264547688,2010-09-17 02:44:01,3151.5781655694404,2,19,0.5499359965324402,3.945654392242432,19.173160891018853,18.82245756101748,76.30661463074458,68.91824344069546,3.237724376958795e-05,0.0867155864834785,0,0,0
6428,218815.94193942627,2010-09-17 02:44:31,3181.593650332175,2,19,0.5501165986061096,3.9472732543945312,19.177747300188432,18.82245756101748,76.32471490326013,68.91824344069546,3.237724376958795e-05,0.0867155864834785,0,0,0
6429,218845.95714848585,2010-09-17 02:45:01,3211.608859301487,2,19,0.5499359965324402,3.949054002761841,19.18233319208442,18.82245756101748,76.34282061875759,68.91824344069546,9.713172767078504e-05,0.0867155864834785,0,0,0
6430,218875.9725740207,2010-09-17 02:45:31,3241.624284821343,2,19,0.5499359965324402,3.950672864913941,19.186919022552217,18.82245756101748,76.36093360501584,68.91824344069546,6.47544875391759e-05,0.0867155864834785,0,0,0
6431,218905.98781642847,2010-09-17 02:46:01,3271.639527319347,2,19,0.5499359965324402,3.95229172706604,19.19150490877205,18.82245756101748,76.3790544135353,68.91824344069546,9.713172767078504e-05,0.0867155864834785,0,0,0
6432,218936.00311093632,2010-09-17 02:46:31,3301.654821736951,2,19,0.5501165986061096,3.95391058921814,19.196090732859123,18.82245756101748,76.39718265941138,68.91824344069546,6.47544875391759e-05,0.0867155864834785,0,0,0
6433,218966.01845527856,2010-09-17 02:47:01,3331.6701660791746,2,19,0.5501165986061096,3.955691337585449,19.20067658070288,18.82245756101748,76.41531875895939,68.91824344069546,3.237724376958795e-05,0.0867155864834785,0,0,0
6434,218996.03381249792,2010-09-17 02:47:31,3361.685523308566,2,19,0.5499359965324402,3.957148313522339,19.205262461420915,18.82245756101748,76.43346280089507,68.91824344069546,3.237724376958795e-05,0.0867155864834785,0,0,0
6435,219026.0491228753,2010-09-17 02:48:01,3391.7008336860085,2,19,0.5499359965324402,3.9590909481048575,19.209848343242403,18.82245756101748,76.45161476742373,68.91824344069546,6.47544875391759e-05,0.0867155864834785,0,0,0
6436,219056.06443361368,2010-09-17 02:48:31,3421.716144424352,2,19,0.5499359965324402,3.960871696472168,19.21443415935388,18.82245756101748,76.46977446280796,68.91824344069546,6.47544875391759e-05,0.0867155864834785,0,0,0
6437,219086.079968672,2010-09-17 02:49:01,3451.731679472606,2,19,0.5499359965324402,3.962490558624268,19.219019997839148,18.82245756101748,76.48794234723533,68.91824344069546,0.0,0.0867155864834785,0,0,0
6438,219116.09513732564,2010-09-17 02:49:31,3481.7468481363094,2,19,0.5501165986061096,3.964433193206787,19.223605797229123,18.82245756101748,76.50611830441557,68.91824344069546,3.237724376958795e-05,0.0867155864834785,0,0,0
6439,219146.11042376337,2010-09-17 02:50:01,3511.762134563969,2,19,0.5501165986061096,3.966375827789306,19.228191596450586,18.82245756101748,76.52430260335697,68.91824344069546,6.47544875391759e-05,0.0867155864834785,0,0,0
6440,219176.12575051165,2010-09-17 02:50:31,3541.777461312276,2,19,0.5501165986061096,3.968156576156616,19.232777429984868,18.82245756101748,76.5424954351812,68.91824344069546,6.47544875391759e-05,0.0867155864834785,0,0,0
6441,219206.1411155756,2010-09-17 02:51:01,3571.792826376224,2,19,0.5499359965324402,3.969937324523926,19.237363225818168,18.82245756101748,76.5606966208495,68.91824344069546,6.47544875391759e-05,0.0867155864834785,0,0,0
6442,219236.1564745293,2010-09-17 02:51:31,3601.808185344957,2,19,0.5499359965324402,3.9717180728912354,19.24194899741456,18.82245756101748,76.57890630536274,68.91824344069546,3.237724376958795e-05,0.0867155864834785,0,0,0
6443,219266.1717387465,2010-09-17 02:52:01,3631.8234495471393,2,19,0.5501165986061096,3.973822593688965,19.24653481755796,18.82245756101748,76.5971249219665,68.91824344069546,6.47544875391759e-05,0.0867155864834785,0,0,0
6444,219296.18719491785,2010-09-17 02:52:31,3661.838905718505,2,19,0.5501165986061096,3.975765228271485,19.25112072652872,18.82245756101748,76.61535273046125,68.91824344069546,6.47544875391759e-05,0.0867155864834785,0,0,0
6445,219326.2024149749,2010-09-17 02:53:01,3691.854125775493,2,19,0.550297200679779,3.977707862854004,19.255706536206628,18.82245756101748,76.63358913329337,68.91824344069546,6.47544875391759e-05,0.0867155864834785,0,0,0
6446,219356.2177306405,2010-09-17 02:53:31,3721.869441441136,2,19,0.5499359965324402,3.9794886112213135,19.26029228274376,18.82245756101748,76.65183393554722,68.91824344069546,0.0,0.0867155864834785,0,0,0
6447,219386.2336126147,2010-09-17 02:54:01,3751.8853234404346,2,19,0.5497553944587708,3.981593132019043,19.264878101507563,18.82245756101748,76.67008862654333,68.91824344069546,3.237724376958795e-05,0.0867155864834785,0,0,0
6448,219416.2483920068,2010-09-17 02:54:31,3781.9001029076426,2,19,0.5499359965324402,3.983697652816773,19.269463745036564,18.82245756101748,76.6883518658856,68.91824344069546,6.47544875391759e-05,0.0867155864834785,0,0,0
6449,219446.2638986441,2010-09-17 02:55:01,3811.9156094547534,2,19,0.5499359965324402,3.985802173614502,19.274049495185224,18.82245756101748,76.70662485813743,68.91824344069546,9.713172767078504e-05,0.0867155864834785,0,0,0
6450,219476.2790514833,2010-09-17 02:55:31,3841.930762293957,2,19,0.5499359965324402,3.9877448081970215,19.278635181273597,18.82245756101748,76.72490698895612,68.91824344069546,3.237724376958795e-05,0.0867155864834785,0,0,0
6451,219506.29440348965,2010-09-17 02:56:01,3871.946114300312,2,19,0.5501165986061096,3.989849328994751,19.283220925657364,18.82245756101748,76.74319873125859,68.91824344069546,3.237724376958795e-05,0.0867155864834785,0,0,0
6452,219536.3098582124,2010-09-17 02:56:31,3901.9615690230617,2,19,0.5501165986061096,3.991953849792481,19.287806662685902,18.82245756101748,76.76150001907462,68.91824344069546,6.47544875391759e-05,0.0867155864834785,0,0,0
6453,219566.3250523547,2010-09-17 02:57:01,3931.9767631653626,2,19,0.5501165986061096,3.994058132171631,19.29239239342857,18.82245756101748,76.7798108787902,68.91824344069546,3.23295607813634e-05,0.0867155864834785,0,0,0
6454,219596.34037860177,2010-09-17 02:57:31,3961.992089402393,2,19,0.5501165986061096,3.99616265296936,19.29697812536765,18.82245756101748,76.79813139987368,68.91824344069546,6.47544875391759e-05,0.0867155864834785,0,0,0
6455,219626.35583186083,2010-09-17 02:58:01,3992.007542686552,2,19,0.5499359965324402,3.99826717376709,19.30156391003786,18.82245756101748,76.81646199201282,68.91824344069546,3.237724376958795e-05,0.0867155864834785,0,0,0
6456,219656.3710609504,2010-09-17 02:58:31,4022.0227717811,2,19,0.5499359965324402,4.000371932983398,19.306149516898376,18.82245756101748,76.83480153333682,68.91824344069546,6.47544875391759e-05,0.0867155864834785,0,0,0
6457,219686.38648047028,2010-09-17 02:59:01,4052.0381912959656,2,19,0.5497553944587708,4.002638339996338,19.310735209664948,18.82245756101748,76.85315134699512,68.91824344069546,6.47544875391759e-05,0.0867155864834785,0,0,0
6458,219716.4019077044,2010-09-17 02:59:31,4082.0536186103,2,19,0.5499359965324402,4.004742622375488,19.31532095701955,18.82245756101748,76.87151137295696,68.91824344069546,6.47544875391759e-05,0.0867155864834785,0,0,0
6459,219746.41705536068,2010-09-17 03:00:01,4112.068766171328,2,19,0.5501165986061096,4.006847381591797,19.31990667598504,18.82245756101748,76.88988125021226,68.91824344069546,3.24249267578125e-05,0.0867155864834785,0,0,0
6460,219776.43252508587,2010-09-17 03:00:31,4142.084235906551,2,19,0.5501165986061096,4.009113788604736,19.32449238703351,18.82245756101748,76.90826115208651,68.91824344069546,6.47544875391759e-05,0.0867155864834785,0,0,0
6461,219806.44772098755,2010-09-17 03:01:01,4172.09943179822,2,19,0.5501165986061096,4.011380195617676,19.32907804126454,18.82245756101748,76.92665096240432,68.91824344069546,6.47544875391759e-05,0.0867155864834785,0,0,0
6462,219836.4631965724,2010-09-17 03:01:31,4202.114907383044,2,19,0.5501165986061096,4.013646602630615,19.333663840979813,18.82245756101748,76.94505165068567,68.91824344069546,6.47544875391759e-05,0.0867155864834785,0,0,0
6463,219866.47839377733,2010-09-17 03:02:01,4232.130104582979,2,19,0.5501165986061096,4.015913009643555,19.338249564971957,18.82245756101748,76.9634623066816,68.91824344069546,6.47544875391759e-05,0.0867155864834785,0,0,0
6464,219896.49370314725,2010-09-17 03:02:31,4262.145413957918,2,19,0.5499359965324402,4.018017292022705,19.34283532939965,18.82245756101748,76.9818835648873,68.91824344069546,3.23295607813634e-05,0.0867155864834785,0,0,0
6465,219926.50904823636,2010-09-17 03:03:01,4292.160759072068,2,19,0.5501165986061096,4.020445823669434,19.34742101552868,18.82245756101748,77.0003149482804,68.91824344069546,6.47544875391759e-05,0.0867155864834785,0,0,0
6466,219956.5243039674,2010-09-17 03:03:31,4322.176014768017,2,19,0.5501165986061096,4.022873878479004,19.3520066993288,18.82245756101748,77.01875701062937,68.91824344069546,9.70840483205393e-05,0.0867155864834785,0,0,0
6467,219986.53966941728,2010-09-17 03:04:01,4352.191380217929,2,19,0.5499359965324402,4.025140285491943,19.35659242701332,18.82245756101748,77.03720988123223,68.91824344069546,6.47544875391759e-05,0.0867155864834785,0,0,0
6468,220016.55500155405,2010-09-17 03:04:31,4382.206712354685,2,19,0.5501165986061096,4.027568817138672,19.36117806736345,18.82245756101748,77.05567312745895,68.91824344069546,6.47544875391759e-05,0.0867155864834785,0,0,0
6469,220046.5705923966,2010-09-17 03:05:01,4412.222303207236,2,19,0.5501165986061096,4.029835224151611,19.36576374201183,18.82245756101748,77.07414742446711,68.91824344069546,6.47544875391759e-05,0.0867155864834785,0,0,0
6470,220076.585679221,2010-09-17 03:05:31,4442.237390026644,2,19,0.5499359965324402,4.032263278961182,19.37034927002211,18.82245756101748,77.09263204174674,68.91824344069546,6.47544875391759e-05,0.0867155864834785,0,0,0
6471,220106.60112156783,2010-09-17 03:06:01,4472.252832483777,2,19,0.5501165986061096,4.034853458404541,19.374934954616243,18.82245756101748,77.11112859423618,68.91824344069546,6.47544875391759e-05,0.0867155864834785,0,0,0
6472,220136.6163154545,2010-09-17 03:06:31,4502.268026280215,2,19,0.5501165986061096,4.037281513214111,19.37952062257278,18.82245756101748,77.12963630266496,68.91824344069546,9.70840483205393e-05,0.0867155864834785,0,0,0
6473,220166.631677536,2010-09-17 03:07:01,4532.283388336656,2,19,0.550297200679779,4.039871692657471,19.384106285401117,18.82245756101748,77.14815536306075,68.91824344069546,6.47544875391759e-05,0.0867155864834785,0,0,0
6474,220196.64699138716,2010-09-17 03:07:31,4562.298702187769,2,19,0.5499359965324402,4.04213809967041,19.38869197033601,18.82245756101748,77.16668591936231,68.91824344069546,3.23295607813634e-05,0.0867155864834785,0,0,0
6475,220226.6623348271,2010-09-17 03:08:02,4592.314045627741,2,19,0.5501165986061096,4.044890403747559,19.393277669418715,18.82245756101748,77.18522819205835,68.91824344069546,9.71794142969884e-05,0.0867155864834785,0,0,0
6476,220256.67764102912,2010-09-17 03:08:32,4622.329351854823,2,19,0.5497553944587708,4.047156810760498,19.397863368979557,18.82245756101748,77.20378209204118,68.91824344069546,0.0,0.0867155864834785,0,0,0
6477,220286.692995642,2010-09-17 03:09:02,4652.344706442621,2,19,0.5501165986061096,4.049908638000488,19.40244908964856,18.82245756101748,77.22234790135975,68.91824344069546,6.47544875391759e-05,0.0867155864834785,0,0,0
6478,220316.7083030069,2010-09-17 03:09:32,4682.360013837618,2,19,0.5499359965324402,4.052498817443848,19.40703484207522,18.82245756101748,77.24092566319649,68.91824344069546,6.47544875391759e-05,0.0867155864834785,0,0,0
6479,220346.7236371637,2010-09-17 03:10:02,4712.375347964342,2,19,0.5501165986061096,4.055088996887207,19.41162061189943,18.82245756101748,77.2595155555153,68.91824344069546,6.47544875391759e-05,0.0867155864834785,0,0,0
6480,220376.7389657967,2010-09-17 03:10:32,4742.390676597353,2,19,0.5501165986061096,4.057841300964356,19.41620638360327,18.82245756101748,77.27811759128025,68.91824344069546,6.47544875391759e-05,0.0867155864834785,0,0,0
6481,220406.7543544997,2010-09-17 03:11:02,4772.406065300307,2,19,0.5501165986061096,4.060431480407715,19.42079218095705,18.82245756101748,77.29673203293014,68.91824344069546,9.71794142969884e-05,0.0867155864834785,0,0,0
6482,220436.76963549372,2010-09-17 03:11:32,4802.421346294404,2,19,0.5501165986061096,4.063183307647705,19.42537787393547,18.82245756101748,77.31535792921258,68.91824344069546,9.70840483205393e-05,0.0867155864834785,0,0,0
6483,220466.78496058297,2010-09-17 03:12:02,4832.436671383569,2,19,0.5499359965324402,4.0657734870910645,19.42996364247975,18.82245756101748,77.33399670738261,68.91824344069546,3.23295607813634e-05,0.0867155864834785,0,0,0
6484,220496.80047548588,2010-09-17 03:12:32,4862.452186311601,2,19,0.5501165986061096,4.068687438964844,19.43454940617937,18.82245756101748,77.35264803097814,68.91824344069546,9.70840483205393e-05,0.0867155864834785,0,0,0
6485,220526.81563474613,2010-09-17 03:13:02,4892.467345546769,2,19,0.5495747923851013,4.071277618408203,19.43913509911706,18.82245756101748,77.37131178458273,68.91824344069546,6.47544875391759e-05,0.0867155864834785,0,0,0
6486,220556.8309537752,2010-09-17 03:13:32,4922.482664575807,2,19,0.5499359965324402,4.074191570281982,19.44372081492518,18.82245756101748,77.38998845896234,68.91824344069546,6.47544875391759e-05,0.0867155864834785,0,0,0
6487,220586.84641883377,2010-09-17 03:14:02,4952.498129629344,2,19,0.5499359965324402,4.076943874359131,19.44830658530605,18.82245756101748,77.40867828956006,68.91824344069546,6.47544875391759e-05,0.0867155864834785,0,0,0
6488,220616.86161386324,2010-09-17 03:14:32,4982.5133246638725,2,19,0.5497553944587708,4.079695701599121,19.45289232699236,18.82245756101748,77.42738106569983,68.91824344069546,3.23295607813634e-05,0.0867155864834785,0,0,0
6489,220646.8769843457,2010-09-17 03:15:02,5012.528695146347,2,19,0.5499359965324402,4.08293342590332,19.4574780397013,18.82245756101748,77.4460968569328,68.91824344069546,6.47544875391759e-05,0.0867155864834785,0,0,0
6490,220676.8922763874,2010-09-17 03:15:32,5042.54398718802,2,19,0.5501165986061096,4.0858473777771,19.462063729621665,18.82245756101748,77.46482584954227,68.91824344069546,0.0001295089750783,0.0867155864834785,0,0,0
6491,220706.90762524583,2010-09-17 03:16:02,5072.559336056541,2,19,0.5497553944587708,4.088437557220459,19.466649459032645,18.82245756101748,77.48356843657695,68.91824344069546,3.23295607813634e-05,0.0867155864834785,0,0,0
6492,220736.92306520176,2010-09-17 03:16:32,5102.574776117694,2,19,0.5501165986061096,4.091513633728027,19.471235167105547,18.82245756101748,77.50232445110964,68.91824344069546,6.47544875391759e-05,0.0867155864834785,0,0,0
6493,220766.93827667733,2010-09-17 03:17:02,5132.5899875080495,2,19,0.5499359965324402,4.0945892333984375,19.47582086972848,18.82245756101748,77.52109400720285,68.91824344069546,9.70840483205393e-05,0.0867155864834785,0,0,0
6494,220796.95360291936,2010-09-17 03:17:32,5162.605313720017,2,19,0.5499359965324402,4.097503185272217,19.48040659137932,18.82245756101748,77.53987744962693,68.91824344069546,6.47544875391759e-05,0.0867155864834785,0,0,0
6495,220826.96893759747,2010-09-17 03:18:02,5192.620648398117,2,19,0.5499359965324402,4.100740909576416,19.484992337430164,18.82245756101748,77.55867489798217,68.91824344069546,0.0001295089750783,0.0867155864834785,0,0,0
6496,220856.98426169416,2010-09-17 03:18:32,5222.635972494804,2,19,0.5501165986061096,4.103816986083984,19.489578067997765,18.82245756101748,77.57748625838018,68.91824344069546,9.71794142969884e-05,0.0867155864834785,0,0,0
6497,220886.9996167732,2010-09-17 03:19:02,5252.651327573828,2,19,0.5499359965324402,4.1068925857543945,19.494163765192667,18.82245756101748,77.59631163556047,68.91824344069546,9.70840483205393e-05,0.0867155864834785,0,0,0
6498,220917.01494985228,2010-09-17 03:19:32,5282.666660652937,2,19,0.5501165986061096,4.109968662261963,19.498749457417684,18.82245756101748,77.61515123092511,68.91824344069546,9.71794142969884e-05,0.0867155864834785,0,0,0
6499,220947.03029303663,2010-09-17 03:20:02,5312.682003837271,2,19,0.5501165986061096,4.113044261932373,19.50333524483141,18.82245756101748,77.63400559767618,68.91824344069546,9.70840483205393e-05,0.0867155864834785,0,0,0
6500,220977.0457162457,2010-09-17 03:20:32,5342.697427041346,2,19,0.5499359965324402,4.116281986236572,19.507920992233352,18.82245756101748,77.65287430221723,68.91824344069546,0.0001295089750783,0.0867155864834785,0,0,0
6501,221007.0611322268,2010-09-17 03:21:02,5372.712843027402,2,19,0.5497553944587708,4.119357585906982,19.512506730720517,18.82245756101748,77.67175759216737,68.91824344069546,3.23295607813634e-05,0.0867155864834785,0,0,0
6502,221037.0764400428,2010-09-17 03:21:32,5402.728150848464,2,19,0.5501165986061096,4.122757434844971,19.51709257533404,18.82245756101748,77.69065618005949,68.91824344069546,9.71794142969884e-05,0.0867155864834785,0,0,0
6503,221067.091721879,2010-09-17 03:22:02,5432.74343267965,2,19,0.550297200679779,4.12599515914917,19.521678286588585,18.82245756101748,77.70956891728514,68.91824344069546,0.0001295089750783,0.0867155864834785,0,0,0
6504,221097.10691587595,2010-09-17 03:22:32,5462.758626676589,2,19,0.5501165986061096,4.129232883453369,19.52626399112539,18.82245756101748,77.72849669164209,68.91824344069546,9.71794142969884e-05,0.0867155864834785,0,0,0
6505,221127.1222875013,2010-09-17 03:23:02,5492.773998311941,2,19,0.5501165986061096,4.132632255554199,19.530849784359937,18.82245756101748,77.74743991890865,68.91824344069546,9.70840483205393e-05,0.0867155864834785,0,0,0
6506,221157.1375771971,2010-09-17 03:23:32,5522.789288002745,2,19,0.5501165986061096,4.135708332061768,19.53543549606064,18.82245756101748,77.766397917179,68.91824344069546,3.24249267578125e-05,0.0867155864834785,0,0,0
6507,221187.15292047168,2010-09-17 03:24:02,5552.804631272291,2,19,0.5499359965324402,4.139269828796387,19.54002120112219,18.82245756101748,77.78537120301138,68.91824344069546,0.0001295089750783,0.0867155864834785,0,0,0
6508,221217.16827018728,2010-09-17 03:24:32,5582.819980987928,2,19,0.5499359965324402,4.142507553100586,19.54460699320267,18.82245756101748,77.80436037091428,68.91824344069546,9.71794142969884e-05,0.0867155864834785,0,0,0
6509,221247.1835833066,2010-09-17 03:25:02,5612.835294137289,2,19,0.5499359965324402,4.146069049835205,19.549192757010932,18.82245756101748,77.82336519425675,68.91824344069546,9.71794142969884e-05,0.0867155864834785,0,0,0
6510,221277.1989184208,2010-09-17 03:25:32,5642.850629246465,2,19,0.5501165986061096,4.149630546569824,19.55377852009138,18.82245756101748,77.8423860248275,68.91824344069546,0.0001295089750783,0.0867155864834785,0,0,0
6511,221307.21475866585,2010-09-17 03:26:02,5672.866469491539,2,19,0.5499359965324402,4.153029918670654,19.55836432729661,18.82245756101748,77.8614228878844,68.91824344069546,9.70840483205393e-05,0.0867155864834785,0,0,0
6512,221337.2295949298,2010-09-17 03:26:32,5702.881305730459,2,19,0.5499359965324402,4.156429767608643,19.56295026554457,18.82245756101748,77.88047626666715,68.91824344069546,6.47544875391759e-05,0.0867155864834785,0,0,0
6513,221367.244924831,2010-09-17 03:27:02,5732.896635631634,2,19,0.550297200679779,4.159991264343262,19.56753696551715,18.82245756101748,77.89954893772897,68.91824344069546,6.47544875391759e-05,0.0867155864834785,0,0,0
6514,221397.26025629608,2010-09-17 03:27:32,5762.911967096714,2,19,0.5501165986061096,4.163552761077881,19.572123348995667,18.82245756101748,77.91863648422292,68.91824344069546,9.71794142969884e-05,0.0867155864834785,0,0,0
6515,221427.2755928489,2010-09-17 03:28:02,5792.927303649494,2,19,0.5501165986061096,4.1671142578125,19.57670906446159,18.82245756101748,77.93773749350113,68.91824344069546,9.71794142969884e-05,0.0867155864834785,0,0,0
6516,221457.29094170235,2010-09-17 03:28:32,5822.9426525029785,2,19,0.5501165986061096,4.17083740234375,19.58129473891213,18.82245756101748,77.95685478078364,68.91824344069546,9.70840483205393e-05,0.0867155864834785,0,0,0
6517,221487.3062618993,2010-09-17 03:29:02,5852.957972709956,2,19,0.5501165986061096,4.174398899078369,19.585880352740208,18.82245756101748,77.975988383744,68.91824344069546,9.70840483205393e-05,0.0867155864834785,0,0,0
6518,221517.32158124915,2010-09-17 03:29:32,5882.97329204977,2,19,0.5501165986061096,4.177960395812988,19.590466047174708,18.82245756101748,77.99513891505715,68.91824344069546,9.70840483205393e-05,0.0867155864834785,0,0,0
6519,221547.33708468848,2010-09-17 03:30:02,5912.98879549915,2,19,0.5501165986061096,4.1816840171813965,19.59505175014952,18.82245756101748,78.01430635104154,68.91824344069546,9.71794142969884e-05,0.0867155864834785,0,0,0
6520,221577.3522453522,2010-09-17 03:30:32,5943.003956157871,2,19,0.5501165986061096,4.185407161712647,19.59963746463782,18.82245756101748,78.03349073093901,68.91824344069546,9.70840483205393e-05,0.0867155864834785,0,0,0
6521,221607.3675903862,2010-09-17 03:31:02,5973.019301186809,2,19,0.5499359965324402,4.189130783081055,19.604223165728463,18.82245756101748,78.05269214295222,68.91824344069546,9.71794142969884e-05,0.0867155864834785,0,0,0
6522,221637.38290470344,2010-09-17 03:31:32,6003.034615504085,2,19,0.5501165986061096,4.193016052246094,19.60880885189224,18.82245756101748,78.07191070295502,68.91824344069546,0.0001295089750783,0.0867155864834785,0,0,0
6523,221667.3982445344,2010-09-17 03:32:02,6033.049955350085,2,19,0.5501165986061096,4.196739196777344,19.61339460190375,18.82245756101748,78.09114687834725,68.91824344069546,9.71794142969884e-05,0.0867155864834785,0,0,0
6524,221693.4292398535,2010-09-17 03:32:28,6059.080950684208,2,19,0.550297200679779,4.200138568878174,19.61737153992568,18.82245756101748,78.10784333167324,68.91824344069546,0.0001295089750783,0.0867155864834785,0,0,0
6525,221723.4428675296,2010-09-17 03:32:58,30.01545859742203,3,19,0.0,4.122109889984131,19.61737153992568,18.82245756101748,78.10784333167324,68.91824344069546,-0.0003885269106831,0.0867155864834785,0,0,0
6526,221753.4582385283,2010-09-17 03:33:28,60.03082959117181,3,19,0.0,4.112558841705322,19.61737153992568,18.82245756101748,78.10784333167324,68.91824344069546,-0.0002265930233988,0.0867155864834785,0,0,0
6527,221783.47337145283,2010-09-17 03:33:58,90.0459625156641,3,19,0.0,4.107054710388184,19.61737153992568,18.82245756101748,78.10784333167324,68.91824344069546,-9.70840483205393e-05,0.0867155864834785,0,0,0
6528,221813.4418197604,2010-09-17 03:34:28,120.01441082317014,3,19,0.0,4.103331089019775,19.61737153992568,18.82245756101748,78.10784333167324,68.91824344069546,-0.0001295089750783,0.0867155864834785,0,0,0
6529,221813.45680019064,2010-09-17 03:34:29,0.01562717784007,4,19,0.9888165593147278,4.199653148651123,19.617375847553166,18.82245756101748,78.10786142186534,68.91824344069546,3.24249267578125e-05,0.0867155864834785,0,0,0
6530,221814.51931491087,2010-09-17 03:34:30,1.078141898045506,4,19,0.9380653500556946,4.199491024017334,19.6176586764126,18.82245756101748,78.10904917492846,68.91824344069546,0.0,0.0867155864834785,0,0,0
6531,221816.7223883812,2010-09-17 03:34:32,3.281215368361795,4,19,0.8878559470176697,4.199814796447754,19.618216193697865,18.82245756101748,78.11139051625821,68.91824344069546,6.47544875391759e-05,0.0867155864834785,0,0,0
6532,221819.9571347257,2010-09-17 03:34:35,6.515961737953584,4,19,0.837827205657959,4.199653148651123,19.61899033584261,18.82245756101748,78.11464159362247,68.91824344069546,3.24249267578125e-05,0.0867155864834785,0,0,0
6533,221824.3316933069,2010-09-17 03:34:39,10.89052029411878,4,19,0.7876178026199341,4.199653148651123,19.619976728601618,18.82245756101748,78.11878404397024,68.91824344069546,0.0,0.0867155864834785,0,0,0
6534,221829.97226461067,2010-09-17 03:34:45,16.531091597873154,4,19,0.7372277975082397,4.199491024017334,19.62116997907812,18.82245756101748,78.12379520149089,68.91824344069546,-3.24249267578125e-05,0.0867155864834785,0,0,0
6535,221837.26906825515,2010-09-17 03:34:52,23.827895242354955,4,19,0.6870184540748596,4.199491024017334,19.622611546752623,18.82245756101748,78.12984921445396,68.91824344069546,-3.24249267578125e-05,0.0867155864834785,0,0,0
6536,221846.9568637281,2010-09-17 03:35:02,33.51569072029797,4,19,0.6368090510368347,4.199491024017334,19.62438983222179,18.82245756101748,78.1373173311908,68.91824344069546,-3.24249267578125e-05,0.0867155864834785,0,0,0
6537,221860.33137010364,2010-09-17 03:35:15,46.89019712089022,4,19,0.5864191055297852,4.199491024017334,19.62665771740704,18.82245756101748,78.14684157860694,68.91824344069546,-3.24249267578125e-05,0.0867155864834785,0,0,0
6538,221880.40928785523,2010-09-17 03:35:36,66.96811484243361,4,19,0.5363903045654297,4.199491024017334,19.62978073796167,18.82245756101748,78.15995704180717,68.91824344069546,-3.24249267578125e-05,0.0867155864834785,0,0,0
6539,221913.42457904635,2010-09-17 03:36:09,99.98340604354716,4,19,0.4863615334033966,4.199653148651123,19.634452488148305,18.82245756101748,78.17957657475176,68.91824344069546,0.0,0.0867155864834785,0,0,0
6540,221970.45532806485,2010-09-17 03:37:06,157.01415505203371,4,19,0.4361521601676941,4.199491024017334,19.64172951171097,18.82245756101748,78.2101372450003,68.91824344069546,-6.47544875391759e-05,0.0867155864834785,0,0,0
6541,222056.47004765293,2010-09-17 03:38:32,243.028874645172,4,19,0.386123389005661,4.199329376220703,19.651528036257016,18.82245756101748,78.25128713936539,68.91824344069546,-6.47544875391759e-05,0.0867155864834785,0,0,0
6542,222169.1408233631,2010-09-17 03:40:24,355.6996503502975,4,19,0.3360946178436279,4.199814796447754,19.66280825585881,18.82245756101748,78.29865952224127,68.91824344069546,3.23295607813634e-05,0.0867155864834785,0,0,0
6543,222302.18642969508,2010-09-17 03:42:37,488.7452567073194,4,19,0.2860658466815948,4.199653148651123,19.674285439869784,18.82245756101748,78.34685925069465,68.91824344069546,0.0,0.0867155864834785,0,0,0
6544,222464.7473179716,2010-09-17 03:45:20,651.306144963775,4,19,0.2360370755195617,4.199491024017334,19.68604662395055,18.82245756101748,78.3962516504271,68.91824344069546,-3.24249267578125e-05,0.0867155864834785,0,0,0
6545,222667.54222661772,2010-09-17 03:48:43,854.10105360496,4,19,0.1860083192586898,4.199653148651123,19.697888717172237,18.82245756101748,78.44598383579536,68.91824344069546,0.0,0.0867155864834785,0,0,0
6546,222942.13328730504,2010-09-17 03:53:17,1128.692114292214,4,19,0.1359795480966568,4.199491024017334,19.71008072769354,18.82245756101748,78.49718554682858,68.91824344069546,0.0,0.0867155864834785,0,0,0
6547,223359.3479758094,2010-09-17 04:00:14,1545.9068028066213,4,19,0.085770159959793,4.199491024017334,19.722726274657717,18.82245756101748,78.55029186439324,68.91824344069546,0.0,0.0867155864834785,0,0,0
6548,223873.98340439383,2010-09-17 04:08:49,2060.542231381024,4,19,0.0496483072638511,4.199491024017334,19.73227738859553,18.82245756101748,78.5904031851149,68.91824344069546,-3.24249267578125e-05,0.0867155864834785,0,0,0
6549,223904.00270221685,2010-09-17 04:09:19,30.015301660683782,5,19,0.0,4.192368507385254,19.73227738859553,18.82245756101748,78.5904031851149,68.91824344069546,-3.23295607813634e-05,0.0867155864834785,0,0,0
6550,223934.0023791809,2010-09-17 04:09:49,60.01497862472094,5,19,0.0,4.191235065460205,19.73227738859553,18.82245756101748,78.5904031851149,68.91824344069546,-6.47544875391759e-05,0.0867155864834785,0,0,0
6551,223934.1945134943,2010-09-17 04:09:50,0.187502464999171,6,19,-1.9243103452026844e-05,4.191235065460205,19.73227738859553,18.822457562019736,78.5904031851149,68.91824344489616,0.0,0.0898760333657264,0,0,0
6552,223939.00708433148,2010-09-17 04:09:54,5.000073327266908,6,19,0.0005225847125984,4.191235065460205,19.732277903926622,18.822457562104287,78.59040534503106,68.91824344525054,-3.24249267578125e-05,0.0898760333657264,0,0,0
6553,223969.02696786137,2010-09-17 04:10:24,30.01533158036792,7,19,-1.099929690361023,4.027730464935303,19.732277903926622,18.83162678543633,78.59040534503106,68.95536055558196,-0.0009389877086505,0.0898760333657264,0,0,0
6554,223999.04226958723,2010-09-17 04:10:54,60.03063330621436,7,19,-1.1002910137176514,4.002799987792969,19.732277903926622,18.840795971439903,78.59040534503106,68.9921695792752,-0.0005504608270712,0.0898760333657264,0,0,0
6555,224029.05755392465,2010-09-17 04:11:25,90.04591764365667,7,19,-1.0997490882873535,3.985964059829712,19.732277903926622,18.849965101576192,78.59040534503106,69.02879079183165,-0.0003885269106831,0.0898760333657264,0,0,0
6556,224059.07300286292,2010-09-17 04:11:55,120.06136658196806,7,19,-1.099929690361023,3.972527503967285,19.732277903926622,18.85913411961796,78.59040534503106,69.06527411564967,-0.0003237724304199,0.0898760333657264,0,0,0
6557,224089.08818441888,2010-09-17 04:12:25,150.0765481478768,7,19,-1.099929690361023,3.961033582687378,19.732277903926622,18.868303068932068,78.59040534503106,69.1016447560723,-0.0003237724304199,0.0898760333657264,0,0,0
6558,224119.10346077132,2010-09-17 04:12:55,180.09182449036248,7,19,-1.0997490882873535,3.95099663734436,19.732277903926622,18.87747214950381,78.59040534503106,69.13791743126569,-0.0002913951757363,0.0898760333657264,0,0,0
6559,224149.1187626125,2010-09-17 04:13:25,210.10712636157177,7,19,-1.0997490882873535,3.9412834644317623,19.732277903926622,18.88664114112257,78.59040534503106,69.17409924119772,-0.0002590179501567,0.0898760333657264,0,0,0
6560,224179.13405683465,2010-09-17 04:13:55,240.12242055361267,7,19,-1.0997490882873535,3.932379722595215,19.732277903926622,18.89581009491125,78.59040534503106,69.21019554878788,-0.0001942634553415,0.0898760333657264,0,0,0
6561,224209.14952021893,2010-09-17 04:14:25,270.13788404825897,7,19,-1.0997490882873535,3.923475980758667,19.732277903926622,18.904979102841207,78.59040534503106,69.24620999945968,-0.0002266406954731,0.0898760333657264,0,0,0
6562,224239.16466985017,2010-09-17 04:14:55,300.15303357920345,7,19,-1.099568486213684,3.915057897567749,19.732277903926622,18.914147989662865,78.59040534503106,69.28214474552004,-0.0001942634553415,0.0898760333657264,0,0,0
6563,224269.179957932,2010-09-17 04:15:25,330.16832165096724,7,19,-1.099929690361023,3.9064781665802,19.732277903926622,18.92331694793627,78.59040534503106,69.31800260849089,-0.0002590179501567,0.0898760333657264,0,0,0
6564,224299.1952532368,2010-09-17 04:15:55,360.1836169557858,7,19,-1.0997490882873535,3.898383855819702,19.732277903926622,18.932485894115317,78.59040534503106,69.35378484017227,-0.0002590179501567,0.0898760333657264,0,0,0
6565,224329.21047713337,2010-09-17 04:16:25,390.1988408573709,7,19,-1.0997490882873535,3.890451431274414,19.732277903926622,18.941654829694595,78.59040534503106,69.3894927104958,-0.0002266406954731,0.0898760333657264,0,0,0
6566,224359.22594274327,2010-09-17 04:16:55,420.2143064622847,7,19,-1.0997490882873535,3.882519006729126,19.732277903926622,18.95082390523823,78.59040534503106,69.42512791971662,-0.0001942634553415,0.0898760333657264,0,0,0
6567,224389.2411735321,2010-09-17 04:17:25,450.2295372761239,7,19,-1.0997490882873535,3.874748468399048,19.732277903926622,18.95999284364019,78.59040534503106,69.46069056115995,-0.0002266406954731,0.0898760333657264,0,0,0
6568,224419.25649674152,2010-09-17 04:17:55,480.2448605607844,7,19,-1.099568486213684,3.8669779300689697,19.732277903926622,18.969161834951752,78.59040534503106,69.49618216082911,-0.0001942634553415,0.0898760333657264,0,0,0
6569,224449.2731512591,2010-09-17 04:18:25,510.261514978157,7,19,-1.0997490882873535,3.8593692779541016,19.732277903926622,18.97833117737254,78.59040534503106,69.5316048280836,-0.0001942634553415,0.0898760333657264,0,0,0
6570,224479.28709496016,2010-09-17 04:18:55,540.27545886964,7,19,-1.0997490882873535,3.8517606258392334,19.732277903926622,18.98749969115996,78.59040534503106,69.5669550094673,-0.0002266406954731,0.0898760333657264,0,0,0
6571,224509.3023247765,2010-09-17 04:19:25,570.2906884955138,7,19,-1.0997490882873535,3.844313859939575,19.732277903926622,18.99666858074839,78.59040534503106,69.60223816903151,-0.0001942634553415,0.0898760333657264,0,0,0
6572,224539.31774485772,2010-09-17 04:19:55,600.3061085767936,7,19,-1.0997490882873535,3.837028980255127,19.732277903926622,19.00583759200266,78.59040534503106,69.63745411671367,-0.0002266406954731,0.0898760333657264,0,0,0
6573,224569.3329146593,2010-09-17 04:20:25,630.3212783883616,7,19,-1.0997490882873535,3.829744338989258,19.732277903926622,19.015006473383377,78.59040534503106,69.67260271190692,-0.0002266406954731,0.0898760333657264,0,0,0
6574,224599.3481981196,2010-09-17 04:20:55,660.3365618436019,7,19,-1.0997490882873535,3.82294511795044,19.732277903926622,19.024175430973592,78.59040534503106,69.70768626184916,-0.0001618862152099,0.0898760333657264,0,0,0
6575,224629.36350506847,2010-09-17 04:21:25,690.3518687974984,7,19,-1.0997490882873535,3.815822124481201,19.732277903926622,19.033344270970748,78.59040534503106,69.74270509411599,-0.0001942634553415,0.0898760333657264,0,0,0
6576,224659.3787781829,2010-09-17 04:21:55,720.3671419069138,7,19,-1.0997490882873535,3.808861017227173,19.732277903926622,19.042513113481377,78.59040534503106,69.77766012639597,-0.0001618862152099,0.0898760333657264,0,0,0
6577,224689.3940945052,2010-09-17 04:22:25,750.382458344483,7,19,-1.0997490882873535,3.802223682403565,19.732277903926622,19.051682004554173,78.59040534503106,69.8125530085724,-0.0001942634553415,0.0898760333657264,0,0,0
6578,224719.4093752035,2010-09-17 04:22:55,780.3977389275537,7,19,-1.0997490882873535,3.795586347579956,19.732277903926622,19.06085091980535,78.59040534503106,69.84738475964376,-0.0001618862152099,0.0898760333657264,0,0,0
6579,224749.42464963623,2010-09-17 04:23:25,810.4130133602724,7,19,-1.099568486213684,3.7891108989715576,19.732277903926622,19.07001978530105,78.59040534503106,69.88215610916953,-0.0001618862152099,0.0898760333657264,0,0,0
6580,224779.43993472052,2010-09-17 04:23:55,840.4282984395666,7,19,-1.0997490882873535,3.782959222793579,19.732277903926622,19.07918862907708,78.59040534503106,69.91686878934397,-0.0001295089750783,0.0898760333657264,0,0,0
6581,224809.45543406467,2010-09-17 04:24:25,870.4437977836985,7,19,-1.099568486213684,3.776645660400391,19.732277903926622,19.08835749239186,78.59040534503106,69.95152450145568,-0.0001942634553415,0.0898760333657264,0,0,0
6582,224839.47058508435,2010-09-17 04:24:55,900.4589488985968,7,19,-1.099568486213684,3.770655870437622,19.732277903926622,19.09752630823504,78.59040534503106,69.98612382844058,-0.0001295089750783,0.0898760333657264,0,0,0
6583,224869.4857931564,2010-09-17 04:25:25,930.4741568754314,7,19,-1.0997490882873535,3.764504194259644,19.732277903926622,19.10669512650459,78.59040534503106,70.02066757512442,-0.0001618862152099,0.0898760333657264,0,0,0
6584,224899.50107033097,2010-09-17 04:25:55,960.4894340550064,7,19,-1.0997490882873535,3.758676290512085,19.732277903926622,19.11586402183559,78.59040534503106,70.05515715954344,-0.0001295089750783,0.0898760333657264,0,0,0
6585,224929.51637713955,2010-09-17 04:26:25,990.50474086354,7,19,-1.099568486213684,3.753010272979736,19.732277903926622,19.12503285944044,78.59040534503106,70.08959336763698,-0.0001295089750783,0.0898760333657264,0,0,0
6586,224959.53164066505,2010-09-17 04:26:55,1020.5200043940451,7,19,-1.099929690361023,3.747182607650757,19.732277903926622,19.134201691845917,78.59040534503106,70.12397713431116,-0.0001942634553415,0.0898760333657264,0,0,0
6587,224989.5469475287,2010-09-17 04:27:25,1050.5353112627288,7,19,-1.099929690361023,3.741516590118408,19.732277903926622,19.14337057903851,78.59040534503106,70.15830964164371,-0.0001618862152099,0.0898760333657264,0,0,0
6588,225019.5622116607,2010-09-17 04:27:55,1080.5505754097728,7,19,-1.0997490882873535,3.73617434501648,19.732277903926622,19.152539407836404,78.59040534503106,70.1925915224544,-0.0001618862152099,0.0898760333657264,0,0,0
6589,225049.5775261384,2010-09-17 04:28:25,1110.5658898573747,7,19,-1.0997490882873535,3.730832099914551,19.732277903926622,19.16170817039558,78.59040534503106,70.22682367495393,-0.0001618862152099,0.0898760333657264,0,0,0
6590,225079.5927799296,2010-09-17 04:28:55,1140.581143648569,7,19,-1.0997490882873535,3.725651741027832,19.732277903926622,19.170876980940367,78.59040534503106,70.26100767618851,-0.0001295089750783,0.0898760333657264,0,0,0
6591,225109.60845912763,2010-09-17 04:29:25,1170.5968228767192,7,19,-1.099568486213684,3.7206332683563232,19.732277903926622,19.180045940895,78.59040534503106,70.29514468688274,-0.0001295089750783,0.0898760333657264,0,0,0
6592,225139.6233513864,2010-09-17 04:29:55,1200.6117151053977,7,19,-1.0997490882873535,3.715452909469605,19.732277903926622,19.189214600168565,78.59040534503106,70.32923347686166,-0.0001618862152099,0.0898760333657264,0,0,0
6593,225169.63864485663,2010-09-17 04:30:25,1230.6270085856618,7,19,-1.099568486213684,3.7105963230133057,19.732277903926622,19.1983834067913,78.59040534503106,70.36327664314916,-9.713172767078504e-05,0.0898760333657264,0,0,0
6594,225199.6539244723,2010-09-17 04:30:55,1260.6422881963051,7,19,-1.0997490882873535,3.705577850341797,19.732277903926622,19.20755224031559,78.59040534503106,70.39727421880728,-9.713172767078504e-05,0.0898760333657264,0,0,0
6595,225229.66921734603,2010-09-17 04:31:25,1290.6575810700558,7,19,-1.0997490882873535,3.700559377670288,19.732277903926622,19.21672107076716,78.59040534503106,70.43122728590113,-0.0001618862152099,0.0898760333657264,0,0,0
6596,225259.684498686,2010-09-17 04:31:55,1320.6728624050031,7,19,-1.099568486213684,3.696026563644409,19.732277903926622,19.22588989435752,78.59040534503106,70.46513699960555,-9.713172767078504e-05,0.0898760333657264,0,0,0
6597,225289.6997689032,2010-09-17 04:32:25,1350.6881326522744,7,19,-1.0997490882873535,3.6911699771881104,19.732277903926622,19.23505873656668,78.59040534503106,70.49900333058697,-0.0001618862152099,0.0898760333657264,0,0,0
6598,225319.71510428807,2010-09-17 04:32:55,1380.7034680070635,7,19,-1.0997490882873535,3.6867990493774414,19.732277903926622,19.2442275706351,78.59040534503106,70.53282680502339,-6.47544875391759e-05,0.0898760333657264,0,0,0
6599,225349.73045622424,2010-09-17 04:33:25,1410.718819943243,7,19,-1.0997490882873535,3.6822662353515625,19.732277903926622,19.253396434169407,78.59040534503106,70.5666083155117,-6.47544875391759e-05,0.0898760333657264,0,0,0
6600,225379.74558034173,2010-09-17 04:33:55,1440.7339440707767,7,19,-1.0997490882873535,3.677733421325684,19.732277903926622,19.26256535446539,78.59040534503106,70.60034920801154,-0.0001295089750783,0.0898760333657264,0,0,0
6601,225409.76089475927,2010-09-17 04:34:25,1470.7492584883034,7,19,-1.0997490882873535,3.673362493515015,19.732277903926622,19.271734316818595,78.59040534503106,70.63404998805058,-0.0001295089750783,0.0898760333657264,0,0,0
6602,225439.77618801896,2010-09-17 04:34:55,1500.7645517530298,7,19,-1.099568486213684,3.669153690338135,19.732277903926622,19.280903138478905,78.59040534503106,70.66771035459075,-0.0001618862152099,0.0898760333657264,0,0,0
6603,225469.7914819203,2010-09-17 04:35:25,1530.779845734545,7,19,-1.0997490882873535,3.664782762527466,19.732277903926622,19.29007199143104,78.59040534503106,70.70133161526502,-9.713172767078504e-05,0.0898760333657264,0,0,0
6604,225499.80674170147,2010-09-17 04:35:55,1560.7951054054158,7,19,-1.099568486213684,3.660735607147217,19.732277903926622,19.299240821540668,78.59040534503106,70.73491452418135,-9.713172767078504e-05,0.0898760333657264,0,0,0
6605,225529.8220346805,2010-09-17 04:36:25,1590.8103983994663,7,19,-1.099568486213684,3.656526565551758,19.732277903926622,19.30840956065633,78.59040534503106,70.76845915017105,-0.0001295089750783,0.0898760333657264,0,0,0
6606,225559.83732697772,2010-09-17 04:36:55,1620.825690696778,7,19,-1.099929690361023,3.652479410171509,19.732277903926622,19.31757839247964,78.59040534503106,70.80196671210105,-0.0001295089750783,0.0898760333657264,0,0,0
6607,225589.85258221257,2010-09-17 04:37:25,1650.8409459365878,7,19,-1.0997490882873535,3.6485941410064697,19.732277903926622,19.32674732010702,78.59040534503106,70.8354377684036,-0.0001295089750783,0.0898760333657264,0,0,0
6608,225619.86798477516,2010-09-17 04:37:55,1680.8563485091634,7,19,-1.099929690361023,3.6445469856262207,19.732277903926622,19.335916188157125,78.59040534503106,70.86887244638295,-0.0001295089750783,0.0898760333657264,0,0,0
6609,225649.88314789,2010-09-17 04:38:25,1710.8715116139904,7,19,-1.0997490882873535,3.640823602676392,19.732277903926622,19.345084991851262,78.59040534503106,70.90227125422257,-9.713172767078504e-05,0.0898760333657264,0,0,0
6610,225679.8984439868,2010-09-17 04:38:55,1740.886807710786,7,19,-1.0997490882873535,3.636938333511353,19.732277903926622,19.354253766853184,78.59040534503106,70.93563480228673,-0.0001295089750783,0.0898760333657264,0,0,0
6611,225709.91370024413,2010-09-17 04:39:25,1770.9020639681355,7,19,-1.099568486213684,3.6330530643463135,19.732277903926622,19.36342248528277,78.59040534503106,70.96896348647776,-0.0001295089750783,0.0898760333657264,0,0,0
6612,225739.9289993033,2010-09-17 04:39:55,1800.9173631376011,7,19,-1.099568486213684,3.629653453826904,19.732277903926622,19.372591286200592,78.59040534503106,71.00225885183188,-6.47544875391759e-05,0.0898760333657264,0,0,0
6613,225769.94429549537,2010-09-17 04:40:25,1830.9326592243715,7,19,-1.099568486213684,3.625930070877075,19.732277903926622,19.3817600721641,78.59040534503106,71.03552123764234,-0.0001295089750783,0.0898760333657264,0,0,0
6614,225799.95955092565,2010-09-17 04:40:55,1860.947914654657,7,19,-1.0997490882873535,3.622692346572876,19.732277903926622,19.39092880996586,78.59040534503106,71.06875186645915,-9.713172767078504e-05,0.0898760333657264,0,0,0
6615,225829.97484742844,2010-09-17 04:41:25,1890.9632111524536,7,19,-1.0997490882873535,3.619292736053467,19.732277903926622,19.400097548601277,78.59040534503106,71.10195126134202,-6.47544875391759e-05,0.0898760333657264,0,0,0
6616,225859.99023393088,2010-09-17 04:41:55,1920.9785977451409,7,19,-1.0997490882873535,3.6158931255340576,19.732277903926622,19.40926637633992,78.59040534503106,71.13512041485272,-6.47544875391759e-05,0.0898760333657264,0,0,0
6617,225890.0054248301,2010-09-17 04:42:25,1950.993788559134,7,19,-1.0997490882873535,3.612493515014648,19.732277903926622,19.418435092131617,78.59040534503106,71.16825902640304,-0.0001295089750783,0.0898760333657264,0,0,0
6618,225920.0207396837,2010-09-17 04:42:55,1981.0091034277875,7,19,-1.0997490882873535,3.609417676925659,19.732277903926622,19.427603859466807,78.59040534503106,71.2013682249618,-9.713172767078504e-05,0.0898760333657264,0,0,0
6619,225950.0359311393,2010-09-17 04:43:26,2011.024294878369,7,19,-1.099568486213684,3.60650372505188,19.732277903926622,19.43677264343077,78.59040534503106,71.23444843548879,-3.237724376958795e-05,0.0898760333657264,0,0,0
6620,225980.0512034668,2010-09-17 04:43:56,2041.039567185783,7,19,-1.0997490882873535,3.60342788696289,19.732277903926622,19.44594138806693,78.59040534503106,71.26750045123246,-3.237724376958795e-05,0.0898760333657264,0,0,0
6621,226010.06649853097,2010-09-17 04:44:26,2071.054862260026,7,19,-1.0997490882873535,3.6003520488739014,19.732277903926622,19.455110247519265,78.59040534503106,71.30052540836999,-9.713172767078504e-05,0.0898760333657264,0,0,0
6622,226040.0817249639,2010-09-17 04:44:56,2101.070088682905,7,19,-1.099568486213684,3.597438097000122,19.732277903926622,19.46427906969547,78.59040534503106,71.33352284329749,-6.47544875391759e-05,0.0898760333657264,0,0,0
6623,226070.0970481684,2010-09-17 04:45:26,2131.085411887365,7,19,-1.099568486213684,3.594362258911133,19.732277903926622,19.47344785528636,78.59040534503106,71.36649292962714,-9.713172767078504e-05,0.0898760333657264,0,0,0
6624,226100.11233720253,2010-09-17 04:45:56,2161.100700921531,7,19,-1.0997490882873535,3.5914485454559326,19.732277903926622,19.48261670056657,78.59040534503106,71.39943585337707,-9.713172767078504e-05,0.0898760333657264,0,0,0
6625,226130.12773296316,2010-09-17 04:46:26,2191.116096707165,7,19,-1.099929690361023,3.588372707366944,19.732277903926622,19.49178552660597,78.59040534503106,71.43235149035111,-6.47544875391759e-05,0.0898760333657264,0,0,0
6626,226160.1428676821,2010-09-17 04:46:56,2221.1312314060865,7,19,-1.0997490882873535,3.585458755493164,19.732277903926622,19.500954388571447,78.59040534503106,71.46524000822494,-9.713172767078504e-05,0.0898760333657264,0,0,0
6627,226190.15829241,2010-09-17 04:47:26,2251.14665614399,7,19,-1.0997490882873535,3.582382917404175,19.732277903926622,19.51012320811112,78.59040534503106,71.49810118392334,-9.713172767078504e-05,0.0898760333657264,0,0,0
6628,226220.17345535435,2010-09-17 04:47:56,2281.16181907338,7,19,-1.0997490882873535,3.579630851745605,19.732277903926622,19.51929195183702,78.59040534503106,71.53093506958696,-6.47544875391759e-05,0.0898760333657264,0,0,0
6629,226250.1887191556,2010-09-17 04:48:26,2311.17708287456,7,19,-1.099568486213684,3.576555013656616,19.732277903926622,19.528460764371868,78.59040534503106,71.56374162367783,-9.713172767078504e-05,0.0898760333657264,0,0,0
6630,226280.20398526752,2010-09-17 04:48:56,2341.192348986509,7,19,-1.099568486213684,3.573479175567627,19.732277903926622,19.537629574888467,78.59040534503106,71.59652018626183,-6.47544875391759e-05,0.0898760333657264,0,0,0
6631,226310.21943560927,2010-09-17 04:49:26,2371.2077994285737,7,19,-1.0997490882873535,3.570241451263428,19.732277903926622,19.546798433582293,78.59040534503106,71.62927057916828,-9.713172767078504e-05,0.0898760333657264,0,0,0
6632,226340.2345358272,2010-09-17 04:49:56,2401.222899546174,7,19,-1.099568486213684,3.5674893856048584,19.732277903926622,19.555967206535133,78.59040534503106,71.66199181954754,-3.237724376958795e-05,0.0898760333657264,0,0,0
6633,226370.2498509264,2010-09-17 04:50:26,2431.2382146754785,7,19,-1.099929690361023,3.5639278888702397,19.732277903926622,19.565136065569508,78.59040534503106,71.69468463599748,-0.0001295089750783,0.0898760333657264,0,0,0
6634,226400.26508998583,2010-09-17 04:50:56,2461.253453704825,7,19,-1.099568486213684,3.56085205078125,19.732277903926622,19.574304805182763,78.59040534503106,71.72734880982891,-0.0001295089750783,0.0898760333657264,0,0,0
6635,226430.280377812,2010-09-17 04:51:26,2491.268741535988,7,19,-1.099568486213684,3.5579380989074707,19.732277903926622,19.583473564054486,78.59040534503106,71.75998430101397,-9.713172767078504e-05,0.0898760333657264,0,0,0
6636,226460.29577128185,2010-09-17 04:51:56,2521.284135030904,7,19,-1.099568486213684,3.554538488388061,19.732277903926622,19.59264239689364,78.59040534503106,71.79259057378293,-9.713172767078504e-05,0.0898760333657264,0,0,0
6637,226490.3109248629,2010-09-17 04:52:26,2551.2992885919084,7,19,-1.099568486213684,3.5513007640838623,19.732277903926622,19.60181110095704,78.59040534503106,71.82516652162136,-9.713172767078504e-05,0.0898760333657264,0,0,0
6638,226520.32634025745,2010-09-17 04:52:56,2581.314703991502,7,19,-1.099568486213684,3.547901153564453,19.732277903926622,19.610979953551013,78.59040534503106,71.85771204919008,-6.47544875391759e-05,0.0898760333657264,0,0,0
6639,226550.34146722205,2010-09-17 04:53:26,2611.32983094108,7,19,-1.0997490882873535,3.544501543045044,19.732277903926622,19.620148687985147,78.59040534503106,71.89022564417762,-6.47544875391759e-05,0.0898760333657264,0,0,0
6640,226580.35674362472,2010-09-17 04:53:56,2641.3451073437154,7,19,-1.099929690361023,3.540616273880005,19.732277903926622,19.629317514532207,78.59040534503106,71.92270724429434,-0.0001295089750783,0.0898760333657264,0,0,0
6641,226610.3720552954,2010-09-17 04:54:26,2671.360419014386,7,19,-1.0997490882873535,3.5370547771453857,19.732277903926622,19.638486366826644,78.59040534503106,71.95515475261712,-9.713172767078504e-05,0.0898760333657264,0,0,0
6642,226640.38729256537,2010-09-17 04:54:56,2701.375656309403,7,19,-1.099568486213684,3.5331695079803467,19.732277903926622,19.647655196638667,78.59040534503106,71.98756700637777,-9.713172767078504e-05,0.0898760333657264,0,0,0
6643,226670.40282850584,2010-09-17 04:55:26,2731.391192325073,7,19,-1.0997490882873535,3.5291223526000977,19.732277903926622,19.656824016518875,78.59040534503106,72.01994284991821,-9.713172767078504e-05,0.0898760333657264,0,0,0
6644,226700.41785236305,2010-09-17 04:55:56,2761.4062160820663,7,19,-1.099568486213684,3.5249133110046387,19.732277903926622,19.6659927547816,78.59040534503106,72.05228089188105,-9.713172767078504e-05,0.0898760333657264,0,0,0
6645,226730.4333368652,2010-09-17 04:56:26,2791.4217005841506,7,19,-1.099568486213684,3.5205423831939697,19.732277903926622,19.675161616432643,78.59040534503106,72.08458034772538,-0.0001295089750783,0.0898760333657264,0,0,0
6646,226760.44860083173,2010-09-17 04:56:56,2821.436964650994,7,19,-1.0997490882873535,3.515847682952881,19.732277903926622,19.68433036143364,78.59040534503106,72.11683831541635,-0.0001618862152099,0.0898760333657264,0,0,0
6647,226790.4636769244,2010-09-17 04:57:26,2851.4520406483875,7,19,-1.0997490882873535,3.510991334915161,19.732277903926622,19.69349906069304,78.59040534503106,72.14905260550317,-0.0001618385285837,0.0898760333657264,0,0,0
6648,226820.47893263536,2010-09-17 04:57:56,2881.467296354361,7,19,-1.0997490882873535,3.5058109760284424,19.732277903926622,19.70266782482065,78.59040534503106,72.1812218412177,-0.0001618862152099,0.0898760333657264,0,0,0
6649,226850.4942230981,2010-09-17 04:58:26,2911.4825868120806,7,19,-1.099568486213684,3.5004687309265137,19.732277903926622,19.7118366247903,78.59040534503106,72.2133426235352,-0.0001618862152099,0.0898760333657264,0,0,0
6650,226880.50947211732,2010-09-17 04:58:56,2941.497835836376,7,19,-1.099568486213684,3.494802713394165,19.732277903926622,19.721005354696818,78.59040534503106,72.24541124056127,-0.0001295089750783,0.0898760333657264,0,0,0
6651,226910.5248794167,2010-09-17 04:59:26,2971.513243160813,7,19,-1.0997490882873535,3.4883272647857666,19.732277903926622,19.730174219560904,78.59040534503106,72.27742405189356,-0.0001618862152099,0.0898760333657264,0,0,0
6652,226940.54005457668,2010-09-17 04:59:56,3001.528418305694,7,19,-1.099568486213684,3.4813661575317383,19.732277903926622,19.739343017284355,78.59040534503106,72.30937616721492,-0.0001942634553415,0.0898760333657264,0,0,0
6653,226970.55530980648,2010-09-17 05:00:26,3031.543673525454,7,19,-1.0997490882873535,3.47343373298645,19.732277903926622,19.748511759077108,78.59040534503106,72.34126047395415,-0.0002266406954731,0.0898760333657264,0,0,0
6654,227000.57057208885,2010-09-17 05:00:56,3061.558935807843,7,19,-1.0997490882873535,3.4646918773651123,19.732277903926622,19.75768051740677,78.59040534503106,72.37306934620166,-0.0002913951757363,0.0898760333657264,0,0,0
6655,227030.586249728,2010-09-17 05:01:26,3091.57461345204,7,19,-1.0997490882873535,3.4544930458068848,19.732277903926622,19.766849377708336,78.59040534503106,72.40479197206386,-0.0003237724304199,0.0898760333657264,0,0,0
6656,227060.60112443296,2010-09-17 05:01:56,3121.589488151964,7,19,-1.0997490882873535,3.4423515796661377,19.732277903926622,19.77601799273802,78.59040534503106,72.4364114729643,-0.0003561496851034,0.0898760333657264,0,0,0
6657,227090.61640754231,2010-09-17 05:02:26,3151.604771266353,7,19,-1.0993878841400146,3.4272964000701904,19.732277903926622,19.78518668462456,78.59040534503106,72.46790685722586,-0.0004209041653666,0.0898760333657264,0,0,0
6658,227120.63166987489,2010-09-17 05:02:56,3181.620033593855,7,19,-1.099568486213684,3.408031940460205,19.732277903926622,19.79435542515116,78.59040534503106,72.49924713211186,-0.0005827903514727,0.0898760333657264,0,0,0
6659,227150.6469600318,2010-09-17 05:03:26,3211.635323750824,7,19,-1.0997490882873535,3.382777690887451,19.732277903926622,19.80352419652356,78.59040534503106,72.53038524570161,-0.0007770538213662,0.0898760333657264,0,0,0
6660,227180.66235121092,2010-09-17 05:03:56,3241.6507149349723,7,19,-1.0997490882873535,3.347001075744629,19.732277903926622,19.81269301792867,78.59040534503106,72.56124708795392,-0.001068401383236,0.0898760333657264,0,0,0
6661,227210.67751707268,2010-09-17 05:04:26,3271.6658808016937,7,19,-1.099568486213684,3.2956831455230717,19.732277903926622,19.821861671541093,78.59040534503106,72.59171383544519,-0.0015864849556237,0.0898760333657264,0,0,0
6662,227240.6928886228,2010-09-17 05:04:56,3301.6812523718822,7,19,-1.0997490882873535,3.2207300662994385,19.732277903926622,19.831030411063143,78.59040534503106,72.62160758644362,-0.0022987842094153,0.0898760333657264,0,0,0
6663,227270.70821472447,2010-09-17 05:05:26,3331.6965785387374,7,19,-1.099568486213684,3.107086420059204,19.732277903926622,19.840199234037897,78.59040534503106,72.65065460426791,-0.0036585808265954,0.0898760333657264,0,0,0
6664,227299.3641311555,2010-09-17 05:05:55,3360.352494874514,7,19,-1.0997490882873535,2.9069955348968506,19.732277903926622,19.84895270173618,78.59040534503106,72.67709887863747,-0.008094310760498,0.0898760333657264,0,0,0
6665,227313.44196005727,2010-09-17 05:06:09,3374.430323776272,7,19,-1.099568486213684,2.706904888153076,19.732277903926622,19.85325300763047,78.59040534503106,72.68920161479656,-0.0131127359345555,0.0898760333657264,0,0,0
6666,227313.84815519783,2010-09-17 05:06:09,3374.8365189218475,7,19,-1.099929690361023,2.699620008468628,19.732277903926622,19.85337708586129,78.59040534503106,72.6895370590226,-0.0132098672911524,0.0898760333657264,0,0,0
6667,227373.85938183212,2010-09-17 05:07:09,60.01493632914468,8,19,0.0,3.392167091369629,19.732277903926622,19.85337708586129,78.59040534503106,72.6895370590226,0.0011979580158367,0.0898760333657264,0,0,0
6668,227374.0439307622,2010-09-17 05:07:10,0.187599963370105,9,19,-0.0007416802109219,3.3931384086608887,19.732277903926622,19.853377124511056,78.59040534503106,72.6895371901666,0.0,0.0889859497547149,0,0,0
6669,227378.87188050253,2010-09-17 05:07:15,5.015549678620865,9,19,0.0001613661734154,3.400099515914917,19.73227838545916,19.85337712476218,78.59040698081587,72.68953719101934,0.0010684489971026,0.0889859497547149,0,0,0
