Data_Point,Test_Time(s),Date_Time,Step_Time(s),Step_Index,Cycle_Index,Current(A),Voltage(V),Charge_Capacity(Ah),Discharge_Capacity(Ah),Charge_Energy(Wh),Discharge_Energy(Wh),dV/dt(V/s),Internal_Resistance(Ohm),Is_FC_Data,AC_Impedance(Ohm),ACI_Phase_Angle(Deg)
15955,540745.5169768144,2010-09-20 20:10:34,30.01528992138068,1,47,0.0,3.4478557109832764,47.15282291259828,47.28607198761112,187.74302954378652,173.15735388397124,0.0008094310760498,0.090522177517414,0,0,0
15956,540775.5323459385,2010-09-20 20:11:04,60.030659050476,1,47,0.0,3.47343373298645,47.15282291259828,47.28607198761112,187.74302954378652,173.15735388397124,0.0005827903514727,0.090522177517414,0,0,0
15957,540805.5475376346,2010-09-20 20:11:34,90.04585083689672,1,47,0.0,3.4926981925964355,47.15282291259828,47.28607198761112,187.74302954378652,173.15735388397124,0.0004856586456298,0.090522177517414,0,0,0
15958,540835.5159037169,2010-09-20 20:12:04,120.01421680386812,1,47,0.0,3.507267951965332,47.15282291259828,47.28607198761112,187.74302954378652,173.15735388397124,0.0003237724304199,0.090522177517414,0,0,0
15959,540865.5587442168,2010-09-20 20:12:34,30.01525588141168,2,47,0.5501165986061096,3.6413092613220215,47.15740943426975,47.28607198761112,187.7595982157111,173.15735388397124,0.0012950897216796,0.090522177517414,0,0,0
15960,540895.5740507547,2010-09-20 20:13:04,60.030562444332205,2,47,0.550297200679779,3.679352283477783,47.16199599725907,47.28607198761112,187.77639200556808,173.15735388397124,0.0008741855854168,0.090522177517414,0,0,0
15961,540925.5893017941,2010-09-20 20:13:34,90.04581348365728,2,47,0.5501165986061096,3.706387281417847,47.166582467191326,47.28607198761112,187.79333180018867,173.15735388397124,0.0006475448608398,0.090522177517414,0,0,0
15962,540955.6046164321,2010-09-20 20:14:04,120.06112819190982,2,47,0.5501165986061096,3.727270603179932,47.17116899828475,47.28607198761112,187.81038130917543,173.15735388397124,0.0004856586456298,0.090522177517414,0,0,0
15963,540985.6199841728,2010-09-20 20:14:34,150.07649583730156,2,47,0.550297200679779,3.743782997131348,47.17575555728887,47.28607198761112,187.82751627713552,173.15735388397124,0.0003885269106831,0.090522177517414,0,0,0
15964,541015.6353214273,2010-09-20 20:15:04,180.0918331870708,2,47,0.550297200679779,3.7557623386383057,47.18034211426675,47.28607198761112,187.84471656247376,173.15735388397124,0.0002590179501567,0.090522177517414,0,0,0
15965,541045.6504898053,2010-09-20 20:15:34,210.1070014948853,2,47,0.5501165986061096,3.763047218322754,47.18492859292092,47.28607198761112,187.8619603244641,173.15735388397124,0.0001618862152099,0.090522177517414,0,0,0
15966,541075.6656968297,2010-09-20 20:16:04,240.12220852435505,2,47,0.550297200679779,3.767580032348633,47.18951507127635,47.28607198761112,187.87923035863952,173.15735388397124,9.713172767078504e-05,0.090522177517414,0,0,0
15967,541105.6810305605,2010-09-20 20:16:34,270.1375422450656,2,47,0.5501165986061096,3.771465301513672,47.19410159585416,47.28607198761112,187.8965189353065,173.15735388397124,0.0001295089750783,0.090522177517414,0,0,0
15968,541135.6963335243,2010-09-20 20:17:04,300.1528451889524,2,47,0.5501165986061096,3.774703025817871,47.19868811593367,47.28607198761112,187.9138236801,173.15735388397124,0.0001295089750783,0.090522177517414,0,0,0
15969,541165.7115782581,2010-09-20 20:17:34,330.1680899476,2,47,0.5501165986061096,3.7779407501220703,47.20327462258377,47.28607198761112,187.9311439014052,173.15735388397124,9.713172767078504e-05,0.090522177517414,0,0,0
15970,541195.7268631017,2010-09-20 20:18:04,360.18337476624345,2,47,0.550297200679779,3.7815022468566895,47.20786114367275,47.28607198761112,187.9484796553673,173.15735388397124,0.0001295089750783,0.090522177517414,0,0,0
15971,541225.7421383014,2010-09-20 20:18:34,390.19864999093886,2,47,0.5501165986061096,3.7847399711608887,47.21244760960808,47.28607198761112,187.96583047281268,173.15735388397124,6.47544875391759e-05,0.090522177517414,0,0,0
15972,541255.7576464224,2010-09-20 20:19:04,420.2141580819045,2,47,0.5501165986061096,3.787977695465088,47.217034117805056,47.28607198761112,187.98319654479224,173.15735388397124,9.713172767078504e-05,0.090522177517414,0,0,0
15973,541285.772715332,2010-09-20 20:19:34,450.2292270266936,2,47,0.5501165986061096,3.791215419769287,47.221620620766885,47.28607198761112,188.00057754697391,173.15735388397124,6.47544875391759e-05,0.090522177517414,0,0,0
15974,541315.7884103296,2010-09-20 20:20:04,480.2449220993942,2,47,0.550297200679779,3.7944531440734863,47.22620719599512,47.28607198761112,188.01797342270652,173.15735388397124,9.713172767078504e-05,0.090522177517414,0,0,0
15975,541345.8032786787,2010-09-20 20:20:34,510.25979036826544,2,47,0.5501165986061096,3.797528982162476,47.23079363480798,47.28607198761112,188.03538336656752,173.15735388397124,9.713172767078504e-05,0.090522177517414,0,0,0
15976,541375.8185759183,2010-09-20 20:21:04,540.2750875878636,2,47,0.5499359965324402,3.800604820251465,47.23538018606082,47.28607198761112,188.0528081520289,173.15735388397124,6.47544875391759e-05,0.090522177517414,0,0,0
15977,541405.8339958391,2010-09-20 20:21:34,570.2905075037305,2,47,0.5501165986061096,3.803842544555664,47.23996681941748,47.28607198761112,188.07024759192032,173.15735388397124,6.47544875391759e-05,0.090522177517414,0,0,0
15978,541435.8491828135,2010-09-20 20:22:04,600.3056945783899,2,47,0.5501165986061096,3.806918382644653,47.24455332277683,47.28607198761112,188.0877008249344,173.15735388397124,9.713172767078504e-05,0.090522177517414,0,0,0
15979,541465.8644385446,2010-09-20 20:22:34,630.3209502342386,2,47,0.5501165986061096,3.810156106948853,47.2491398738328,47.28607198761112,188.10516853275016,173.15735388397124,0.0001295089750783,0.090522177517414,0,0,0
15980,541495.8797563807,2010-09-20 20:23:04,660.336268045236,2,47,0.5501165986061096,3.813231945037842,47.25372647565566,47.28607198761112,188.1226509003873,173.15735388397124,6.47544875391759e-05,0.090522177517414,0,0,0
15981,541525.8950278009,2010-09-20 20:23:34,690.3515394904974,2,47,0.5501165986061096,3.816469669342041,47.258312973189184,47.28607198761112,188.1401478207272,173.15735388397124,6.47544875391759e-05,0.090522177517414,0,0,0
15982,541555.9104381027,2010-09-20 20:24:04,720.3669497723163,2,47,0.5499359965324402,3.81970739364624,47.26289952480806,47.28607198761112,188.15765991073064,173.15735388397124,9.713172767078504e-05,0.090522177517414,0,0,0
15983,541585.9255682502,2010-09-20 20:24:34,750.3820799449395,2,47,0.5499359965324402,3.8231070041656494,47.26748606901396,47.28607198761112,188.17518721982933,173.15735388397124,6.47544875391759e-05,0.090522177517414,0,0,0
15984,541615.9408688534,2010-09-20 20:25:04,780.3973805479832,2,47,0.5499359965324402,3.8265066146850586,47.27207264822361,47.28607198761112,188.19273030875007,173.15735388397124,6.47544875391759e-05,0.090522177517414,0,0,0
15985,541645.9561638073,2010-09-20 20:25:34,810.412675501926,2,47,0.550297200679779,3.8300681114196777,47.27665924650571,47.28607198761112,188.21028931549492,173.15735388397124,9.713172767078504e-05,0.090522177517414,0,0,0
15986,541675.9719268647,2010-09-20 20:26:04,840.4284385242394,2,47,0.5501165986061096,3.8336293697357178,47.28124598809089,47.28607198761112,188.22786474741463,173.15735388397124,0.0001618385285837,0.090522177517414,0,0,0
15987,541705.986742397,2010-09-20 20:26:34,870.4432540564718,2,47,0.5501165986061096,3.837028980255127,47.28583247355223,47.28607198761112,188.24545502288603,173.15735388397124,9.713172767078504e-05,0.090522177517414,0,0,0
15988,541736.0020598922,2010-09-20 20:27:04,900.4585715867685,2,47,0.5501165986061096,3.840428590774536,47.29041910440515,47.28607198761112,188.26306156529444,173.15735388397124,9.713172767078504e-05,0.090522177517414,0,0,0
15989,541766.0173356332,2010-09-20 20:27:34,930.4738473277528,2,47,0.5499359965324402,3.843666315078736,47.2950056750542,47.28607198761112,188.28068325313563,173.15735388397124,9.713172767078504e-05,0.090522177517414,0,0,0
15990,541796.0326166522,2010-09-20 20:28:04,960.4891283418996,2,47,0.5501165986061096,3.846904039382935,47.2995922695101,47.28607198761112,188.29832013057532,173.15735388397124,6.47544875391759e-05,0.090522177517414,0,0,0
15991,541826.0478847341,2010-09-20 20:28:34,990.504396408728,2,47,0.5499359965324402,3.849979877471924,47.3041788668934,47.28607198761112,188.31597176698605,173.15735388397124,3.237724376958795e-05,0.090522177517414,0,0,0
15992,541856.0631927907,2010-09-20 20:29:04,1020.519704455352,2,47,0.5501165986061096,3.853055715560913,47.308765459264905,47.28607198761112,188.3336378132841,173.15735388397124,3.237724376958795e-05,0.090522177517414,0,0,0
15993,541886.0784785517,2010-09-20 20:29:34,1050.5349902163475,2,47,0.5501165986061096,3.8561315536499023,47.31335203628776,47.28607198761112,188.35131768818573,173.15735388397124,6.47544875391759e-05,0.090522177517414,0,0,0
15994,541916.0938395206,2010-09-20 20:30:04,1080.5503511800607,2,47,0.5499359965324402,3.8590455055236816,47.31793767304267,47.28607198761112,188.3690073301917,173.15735388397124,6.47544875391759e-05,0.090522177517414,0,0,0
15995,541946.1091962787,2010-09-20 20:30:34,1110.5657079733642,2,47,0.550297200679779,3.861959457397461,47.32252321875374,47.28607198761112,188.3867096790131,173.15735388397124,0.0001295089750783,0.090522177517414,0,0,0
15996,541976.1244795034,2010-09-20 20:31:04,1140.5809911930164,2,47,0.5499359965324402,3.86454963684082,47.327108809518826,47.28607198761112,188.40442471464755,173.15735388397124,9.713172767078504e-05,0.090522177517414,0,0,0
15997,542006.1396360619,2010-09-20 20:31:34,1170.596147731453,2,47,0.5499359965324402,3.86713981628418,47.33169440575645,47.28607198761112,188.42215164321223,173.15735388397124,0.0001295089750783,0.090522177517414,0,0,0
15998,542036.154937542,2010-09-20 20:32:04,1200.6114492016611,2,47,0.5499359965324402,3.869406223297119,47.33628089691586,47.28607198761112,188.4398934893741,173.15735388397124,3.237724376958795e-05,0.090522177517414,0,0,0
15999,542066.1702210173,2010-09-20 20:32:34,1230.6267326769512,2,47,0.5501165986061096,3.8716726303100586,47.340867445828806,47.28607198761112,188.4576461660357,173.15735388397124,3.237724376958795e-05,0.090522177517414,0,0,0
16000,542096.1855371492,2010-09-20 20:33:04,1260.6420488087572,2,47,0.5499359965324402,3.873777151107788,47.34545400395746,47.28607198761112,188.4754088386422,173.15735388397124,6.47544875391759e-05,0.090522177517414,0,0,0
16001,542126.2008310755,2010-09-20 20:33:34,1290.6573427601977,2,47,0.5501165986061096,3.875719785690308,47.35004049391426,47.28607198761112,188.49318035607743,173.15735388397124,6.47544875391759e-05,0.090522177517414,0,0,0
16002,542156.2161226261,2010-09-20 20:34:05,1320.6726343106443,2,47,0.5501165986061096,3.877500534057617,47.35462693583565,47.28607198761112,188.51096035681692,173.15735388397124,6.47544875391759e-05,0.090522177517414,0,0,0
16003,542186.2313934849,2010-09-20 20:34:35,1350.6879051443798,2,47,0.5501165986061096,3.879281282424927,47.35921338861112,47.28607198761112,188.52874847466168,173.15735388397124,3.237724376958795e-05,0.090522177517414,0,0,0
16004,542216.249478423,2010-09-20 20:35:05,1380.7059902028525,2,47,0.5501165986061096,3.880738258361816,47.36380032194526,47.28607198761112,188.54654579060727,173.15735388397124,6.47544875391759e-05,0.090522177517414,0,0,0
16005,542246.2620019742,2010-09-20 20:35:35,1410.7185136587095,2,47,0.5499359965324402,3.882357120513916,47.36838638822333,47.28607198761112,188.56434671259225,173.15735388397124,6.47544875391759e-05,0.090522177517414,0,0,0
16006,542276.2772843968,2010-09-20 20:36:05,1440.7337960563098,2,47,0.5501165986061096,3.883652210235596,47.37297287634837,47.28607198761112,188.582155819628,173.15735388397124,3.237724376958795e-05,0.090522177517414,0,0,0
16007,542306.2925779823,2010-09-20 20:36:35,1470.749089671912,2,47,0.5501165986061096,3.8849472999572754,47.37755939141468,47.28607198761112,188.59997109016012,173.15735388397124,6.47544875391759e-05,0.090522177517414,0,0,0
16008,542336.3078816831,2010-09-20 20:37:05,1500.7643933426127,2,47,0.5499359965324402,3.886242389678955,47.3821459357056,47.28607198761112,188.61779232341996,173.15735388397124,9.713172767078504e-05,0.090522177517414,0,0,0
16009,542366.3231875242,2010-09-20 20:37:35,1530.7796992037818,2,47,0.5501165986061096,3.887375593185425,47.38673243812044,47.28607198761112,188.6356190695064,173.15735388397124,3.237724376958795e-05,0.090522177517414,0,0,0
16010,542396.3384695208,2010-09-20 20:38:05,1560.794981180331,2,47,0.5501165986061096,3.8885087966918954,47.39131897777814,47.28607198761112,188.6534514934565,173.15735388397124,0.0,0.090522177517414,0,0,0
16011,542426.3537961137,2010-09-20 20:38:35,1590.8103078734996,2,47,0.5499359965324402,3.889642000198364,47.395905503096735,47.28607198761112,188.67128930142212,173.15735388397124,0.0,0.090522177517414,0,0,0
16012,542456.3690428975,2010-09-20 20:39:05,1620.8255545619645,2,47,0.550297200679779,3.890937089920044,47.40049201286391,47.28607198761112,188.68913234697663,173.15735388397124,3.237724376958795e-05,0.090522177517414,0,0,0
16013,542486.384318032,2010-09-20 20:39:35,1650.8408296964346,2,47,0.5501165986061096,3.892232179641724,47.40507844506583,47.28607198761112,188.70698048720445,173.15735388397124,3.237724376958795e-05,0.090522177517414,0,0,0
16014,542516.3997708549,2010-09-20 20:40:05,1680.8562825344802,2,47,0.5501165986061096,3.893203496932984,47.40966498593155,47.28607198761112,188.72483431480595,173.15735388397124,3.237724376958795e-05,0.090522177517414,0,0,0
16015,542546.4149552729,2010-09-20 20:40:35,1710.871466967546,2,47,0.5501165986061096,3.894498586654663,47.41425152429177,47.28607198761112,188.74269337781405,173.15735388397124,6.47544875391759e-05,0.090522177517414,0,0,0
16016,542576.4302814098,2010-09-20 20:41:05,1740.8867930993133,2,47,0.5501165986061096,3.895469903945923,47.41883808021185,47.28607198761112,188.7605573602128,173.15735388397124,6.47544875391759e-05,0.090522177517414,0,0,0
16017,542606.4455498975,2010-09-20 20:41:35,1770.90206156213,2,47,0.5501165986061096,3.8966031074523926,47.42342464005141,47.28607198761112,188.7784266604891,173.15735388397124,3.237724376958795e-05,0.090522177517414,0,0,0
16018,542636.4608559442,2010-09-20 20:42:05,1800.9173677240497,2,47,0.5501165986061096,3.897574424743652,47.42801110470622,47.28607198761112,188.7963008974263,173.15735388397124,0.0,0.090522177517414,0,0,0
16019,542666.4761405273,2010-09-20 20:42:35,1830.93265221688,2,47,0.5501165986061096,3.898869514465332,47.4325976110971,47.28607198761112,188.8141806615866,173.15735388397124,0.0,0.090522177517414,0,0,0
16020,542696.4914485689,2010-09-20 20:43:05,1860.9479602334288,2,47,0.5499359965324402,3.9000027179718018,47.4371841558682,47.28607198761112,188.83206595231024,173.15735388397124,0.0,0.090522177517414,0,0,0
16021,542726.5067340942,2010-09-20 20:43:35,1890.9632457838995,2,47,0.5499359965324402,3.901135921478272,47.4417706641816,47.28607198761112,188.84995639831425,173.15735388397124,0.0,0.090522177517414,0,0,0
16022,542756.5220274642,2010-09-20 20:44:05,1920.978539128825,2,47,0.5499359965324402,3.902431011199951,47.44635723459793,47.28607198761112,188.86785260805075,173.15735388397124,3.237724376958795e-05,0.090522177517414,0,0,0
16023,542786.5374419667,2010-09-20 20:44:35,1950.993953656242,2,47,0.5499359965324402,3.903726100921631,47.450943776417965,47.28607198761112,188.88575418204977,173.15735388397124,3.237724376958795e-05,0.090522177517414,0,0,0
16024,542816.5526354422,2010-09-20 20:45:05,1981.0091471068165,2,47,0.5501165986061096,3.9048593044281006,47.45553028153563,47.28607198761112,188.90366117372747,173.15735388397124,3.237724376958795e-05,0.090522177517414,0,0,0
16025,542846.568048095,2010-09-20 20:45:35,2011.024559754541,2,47,0.5501165986061096,3.90615439414978,47.46011682979444,47.28607198761112,188.9215737732316,173.15735388397124,3.237724376958795e-05,0.090522177517414,0,0,0
16026,542876.5831922726,2010-09-20 20:46:05,2041.0397039371355,2,47,0.5501165986061096,3.90744948387146,47.46470336192391,47.28607198761112,188.9394919590153,173.15735388397124,6.47544875391759e-05,0.090522177517414,0,0,0
16027,542906.5984903793,2010-09-20 20:46:35,2071.0550020690107,2,47,0.550297200679779,3.90874457359314,47.46928990162092,47.28607198761112,188.9574157671853,173.15735388397124,6.47544875391759e-05,0.090522177517414,0,0,0
16028,542936.6138010275,2010-09-20 20:47:05,2101.070312692066,2,47,0.5499359965324402,3.90987777709961,47.47387640480305,47.28607198761112,188.97534518461555,173.15735388397124,3.237724376958795e-05,0.090522177517414,0,0,0
16029,542966.6291233096,2010-09-20 20:47:35,2131.085634969212,2,47,0.5501165986061096,3.911010980606079,47.47846295355637,47.28607198761112,188.9932805360348,173.15735388397124,0.0,0.090522177517414,0,0,0
16030,542996.6444188851,2010-09-20 20:48:05,2161.1009306650058,2,47,0.5501165986061096,3.912306070327759,47.48304949801666,47.28607198761112,189.01122174144572,173.15735388397124,6.47544875391759e-05,0.090522177517414,0,0,0
16031,543026.6596911524,2010-09-20 20:48:35,2191.1162028471067,2,47,0.5501165986061096,3.913762807846069,47.48763625592616,47.28607198761112,189.0291697139733,173.15735388397124,6.470680091297254e-05,0.090522177517414,0,0,0
16032,543056.6755177134,2010-09-20 20:49:05,2221.132029377947,2,47,0.550297200679779,3.915057897567749,47.49222378982133,47.28607198761112,189.04712673134068,173.15735388397124,3.237724376958795e-05,0.090522177517414,0,0,0
16033,543086.6903190302,2010-09-20 20:49:35,2251.1468306997085,2,47,0.5501165986061096,3.9161911010742183,47.49681104269434,47.28607198761112,189.0650884895934,173.15735388397124,6.47544875391759e-05,0.090522177517414,0,0,0
16034,543116.7056092322,2010-09-20 20:50:05,2281.162120896777,2,47,0.5501165986061096,3.917648077011109,47.50139762723299,47.28607198761112,189.08305377474508,173.15735388397124,3.237724376958795e-05,0.090522177517414,0,0,0
16035,543146.7209114343,2010-09-20 20:50:35,2311.177423098812,2,47,0.5501165986061096,3.918781280517578,47.50598420909046,47.28607198761112,189.1010251827568,173.15735388397124,3.237724376958795e-05,0.090522177517414,0,0,0
16036,543176.7363938311,2010-09-20 20:51:05,2341.192905525716,2,47,0.5501165986061096,3.9204001426696777,47.51057079324202,47.28607198761112,189.11900282949173,173.15735388397124,3.237724376958795e-05,0.090522177517414,0,0,0
16037,543206.7515254172,2010-09-20 20:51:35,2371.208037081793,2,47,0.5501165986061096,3.921533346176148,47.51515737469139,47.28607198761112,189.13698666162568,173.15735388397124,0.0,0.090522177517414,0,0,0
16038,543236.7672486352,2010-09-20 20:52:05,2401.223760405011,2,47,0.550297200679779,3.922990322113037,47.51974402672398,47.28607198761112,189.1549771121659,173.15735388397124,3.237724376958795e-05,0.090522177517414,0,0,0
16039,543266.782098027,2010-09-20 20:52:35,2431.238609701524,2,47,0.550297200679779,3.924447298049927,47.524330585646,47.28607198761112,189.1729735218784,173.15735388397124,3.237724376958795e-05,0.090522177517414,0,0,0
16040,543296.7974076425,2010-09-20 20:53:05,2461.253919312052,2,47,0.5501165986061096,3.925904273986816,47.528917294041165,47.28607198761112,189.1909769919026,173.15735388397124,3.237724376958795e-05,0.090522177517414,0,0,0
16041,543326.8127028319,2010-09-20 20:53:35,2491.2692145266456,2,47,0.550297200679779,3.927199363708496,47.533503919828846,47.28607198761112,189.2089864186851,173.15735388397124,3.237724376958795e-05,0.090522177517414,0,0,0
16042,543356.8280017709,2010-09-20 20:54:05,2521.28451343546,2,47,0.550297200679779,3.928818225860596,47.53809059815289,47.28607198761112,189.22700264969723,173.15735388397124,6.47544875391759e-05,0.090522177517414,0,0,0
16043,543386.8433365041,2010-09-20 20:54:35,2551.299848168698,2,47,0.5501165986061096,3.9301133155822754,47.54267723473329,47.28607198761112,189.2450252726309,173.15735388397124,6.47544875391759e-05,0.090522177517414,0,0,0
16044,543416.8592690296,2010-09-20 20:55:05,2581.315780714167,2,47,0.5501165986061096,3.931408405303955,47.54726397970856,47.28607198761112,189.26305491683408,173.15735388397124,3.237724376958795e-05,0.090522177517414,0,0,0
16045,543446.8739049335,2010-09-20 20:55:35,2611.33041659797,2,47,0.5501165986061096,3.933027267456055,47.551850504257686,47.28607198761112,189.28109041402627,173.15735388397124,6.47544875391759e-05,0.090522177517414,0,0,0
16046,543476.889342358,2010-09-20 20:56:05,2641.345854022541,2,47,0.5501165986061096,3.934484243392944,47.55643713725835,47.28607198761112,189.29913309915543,173.15735388397124,6.47544875391759e-05,0.090522177517414,0,0,0
16047,543506.904505909,2010-09-20 20:56:35,2671.3610175734816,2,47,0.550297200679779,3.935941219329834,47.561023801209245,47.28607198761112,189.3171827518272,173.15735388397124,6.47544875391759e-05,0.090522177517414,0,0,0
16048,543536.919818121,2010-09-20 20:57:05,2701.376329815578,2,47,0.5499359965324402,3.937398195266724,47.56561046692626,47.28607198761112,189.33523913622548,173.15735388397124,3.237724376958795e-05,0.090522177517414,0,0,0
16049,543566.9352325982,2010-09-20 20:57:35,2731.391744267807,2,47,0.5499359965324402,3.9390170574188232,47.5701971262968,47.28607198761112,189.3533025586112,173.15735388397124,6.47544875391759e-05,0.090522177517414,0,0,0
16050,543596.9504104599,2010-09-20 20:58:05,2761.4069221344816,2,47,0.5501165986061096,3.940474033355713,47.57478365355909,47.28607198761112,189.3713723916495,173.15735388397124,3.237724376958795e-05,0.090522177517414,0,0,0
16051,543626.9659251975,2010-09-20 20:58:35,2791.4224369071258,2,47,0.550297200679779,3.9422547817230233,47.57937031333482,47.28607198761112,189.38944979305955,173.15735388397124,6.47544875391759e-05,0.090522177517414,0,0,0
16052,543656.9812389883,2010-09-20 20:59:05,2821.437750778289,2,47,0.5501165986061096,3.943711757659912,47.58395695398125,47.28607198761112,189.4075342139475,173.15735388397124,6.47544875391759e-05,0.090522177517414,0,0,0
16053,543686.9963201036,2010-09-20 20:59:35,2851.4528317681443,2,47,0.5501165986061096,3.945330619812012,47.58854356047296,47.28607198761112,189.42562565670568,173.15735388397124,9.713172767078504e-05,0.090522177517414,0,0,0
16054,543717.011605614,2010-09-20 21:00:05,2881.4681172785145,2,47,0.550297200679779,3.946787595748901,47.593130277788205,47.28607198761112,189.4437248320021,173.15735388397124,3.237724376958795e-05,0.090522177517414,0,0,0
16055,543747.0269049038,2010-09-20 21:00:35,2911.48341656828,2,47,0.5501165986061096,3.948406457901001,47.59771689352552,47.28607198761112,189.4618307648217,173.15735388397124,6.47544875391759e-05,0.090522177517414,0,0,0
16056,543777.0422164992,2010-09-20 21:01:05,2941.4987281788,2,47,0.5501165986061096,3.9500253200531006,47.60230355902032,47.28607198761112,189.4799443132738,173.15735388397124,3.237724376958795e-05,0.090522177517414,0,0,0
16057,543807.0575168767,2010-09-20 21:01:35,2971.514028541243,2,47,0.5501165986061096,3.9516441822052,47.60689019972094,47.28607198761112,189.4980652272274,173.15735388397124,3.237724376958795e-05,0.090522177517414,0,0,0
16058,543837.0728325725,2010-09-20 21:02:05,3001.5293442570105,2,47,0.5501165986061096,3.9534249305725098,47.61147683653489,47.28607198761112,189.5161935711635,173.15735388397124,9.713172767078504e-05,0.090522177517414,0,0,0
16059,543867.0881180175,2010-09-20 21:02:35,3031.544629712243,2,47,0.550297200679779,3.9548819065094,47.61606343687048,47.28607198761112,189.53432940124588,173.15735388397124,6.47544875391759e-05,0.090522177517414,0,0,0
16060,543897.1034322246,2010-09-20 21:03:05,3061.559943889169,2,47,0.550297200679779,3.956662654876709,47.620650087415314,47.28607198761112,189.5524731455488,173.15735388397124,6.47544875391759e-05,0.090522177517414,0,0,0
16061,543927.1187202162,2010-09-20 21:03:35,3091.575231880733,2,47,0.5501165986061096,3.9582815170288086,47.62523672641793,47.28607198761112,189.57062442889145,173.15735388397124,6.47544875391759e-05,0.090522177517414,0,0,0
16062,543957.1340197466,2010-09-20 21:04:05,3121.590531411099,2,47,0.550297200679779,3.960062265396118,47.62982335957729,47.28607198761112,189.5887835197053,173.15735388397124,6.47544875391759e-05,0.090522177517414,0,0,0
16063,543987.149331733,2010-09-20 21:04:35,3151.6058433975577,2,47,0.5499359965324402,3.9616811275482178,47.634410022641966,47.28607198761112,189.6069506415952,173.15735388397124,6.47544875391759e-05,0.090522177517414,0,0,0
16064,544017.1646562007,2010-09-20 21:05:05,3181.6211678952463,2,47,0.5501165986061096,3.9634618759155273,47.63899669444382,47.28607198761112,189.6251256978119,173.15735388397124,3.237724376958795e-05,0.090522177517414,0,0,0
16065,544047.179983796,2010-09-20 21:05:35,3211.636495480642,2,47,0.5501165986061096,3.965242624282837,47.64358335397882,47.28607198761112,189.6433087451189,173.15735388397124,6.47544875391759e-05,0.090522177517414,0,0,0
16066,544077.1952351262,2010-09-20 21:06:06,3241.651746880868,2,47,0.5501165986061096,3.9670233726501465,47.64817002964877,47.28607198761112,189.6615000152852,173.15735388397124,3.237724376958795e-05,0.090522177517414,0,0,0
16067,544107.2105447566,2010-09-20 21:06:36,3271.667056421221,2,47,0.5501165986061096,3.968804121017456,47.65275668488621,47.28607198761112,189.67969934283252,173.15735388397124,6.47544875391759e-05,0.090522177517414,0,0,0
16068,544137.2286366923,2010-09-20 21:07:06,3301.6851484771605,2,47,0.5501165986061096,3.9705848693847656,47.65734375436534,47.28607198761112,189.69790862977032,173.15735388397124,3.237724376958795e-05,0.090522177517414,0,0,0
16069,544167.2411537572,2010-09-20 21:07:36,3331.6976655119897,2,47,0.5499359965324402,3.972365617752075,47.66192995262523,47.28607198761112,189.7161228878025,173.15735388397124,3.237724376958795e-05,0.090522177517414,0,0,0
16070,544197.2564547262,2010-09-20 21:08:06,3361.712966395734,2,47,0.5501165986061096,3.9744701385498047,47.6665165874796,47.28607198761112,189.73434736722297,173.15735388397124,6.47544875391759e-05,0.090522177517414,0,0,0
16071,544227.2717627928,2010-09-20 21:08:36,3391.7282744573954,2,47,0.550297200679779,3.976250886917114,47.67110330485873,47.28607198761112,189.75258078182617,173.15735388397124,3.237724376958795e-05,0.090522177517414,0,0,0
16072,544257.2870815912,2010-09-20 21:09:06,3421.7435932608705,2,47,0.5499359965324402,3.977707862854004,47.67568960005767,47.28607198761112,189.77082106207968,173.15735388397124,0.0,0.090522177517414,0,0,0
16073,544287.3023691418,2010-09-20 21:09:36,3451.7588808213586,2,47,0.5499359965324402,3.979974269866944,47.68027532448845,47.28607198761112,189.78906757306612,173.15735388397124,6.47544875391759e-05,0.090522177517414,0,0,0
16074,544317.3176897347,2010-09-20 21:10:06,3481.7742014243245,2,47,0.5501165986061096,3.982078790664673,47.68486145183985,47.28607198761112,189.8073250002423,173.15735388397124,3.237724376958795e-05,0.090522177517414,0,0,0
16075,544347.3330116811,2010-09-20 21:10:36,3511.789523345581,2,47,0.5501165986061096,3.984021425247192,47.68944805654137,47.28607198761112,189.82559350474497,173.15735388397124,3.237724376958795e-05,0.090522177517414,0,0,0
16076,544377.3483249206,2010-09-20 21:11:06,3541.804836585168,2,47,0.5501165986061096,3.985964059829712,47.694034537490126,47.28607198761112,189.8438706242339,173.15735388397124,6.47544875391759e-05,0.090522177517414,0,0,0
16077,544407.3636555737,2010-09-20 21:11:36,3571.820167238221,2,47,0.5501165986061096,3.9882304668426514,47.69862117299289,47.28607198761112,189.86215769382545,173.15735388397124,6.47544875391759e-05,0.090522177517414,0,0,0
16078,544437.3790111239,2010-09-20 21:12:06,3601.8355227934344,2,47,0.5501165986061096,3.990011215209961,47.70320770673496,47.28607198761112,189.88045342767347,173.15735388397124,3.237724376958795e-05,0.090522177517414,0,0,0
16079,544467.394201963,2010-09-20 21:12:36,3631.850713647528,2,47,0.5501165986061096,3.991953849792481,47.70779416091931,47.28607198761112,189.8987582340864,173.15735388397124,3.237724376958795e-05,0.090522177517414,0,0,0
16080,544497.4095008216,2010-09-20 21:13:06,3661.8660125012048,2,47,0.5501165986061096,3.994220018386841,47.71238074630136,47.28607198761112,189.9170730936526,173.15735388397124,6.470680091297254e-05,0.090522177517414,0,0,0
16081,544527.4248033596,2010-09-20 21:13:36,3691.8813150440906,2,47,0.5501165986061096,3.99648642539978,47.7169673048388,47.28607198761112,189.9353974404858,173.15735388397124,9.713172767078504e-05,0.090522177517414,0,0,0
16082,544557.4401010103,2010-09-20 21:14:06,3721.896612674715,2,47,0.5501165986061096,3.9984290599823,47.72155388967548,47.28607198761112,189.9537317161661,173.15735388397124,3.237724376958795e-05,0.090522177517414,0,0,0
16083,544587.4555383795,2010-09-20 21:14:36,3751.9120500441486,2,47,0.5499359965324402,4.000533580780029,47.726140498041175,47.28607198761112,189.9720757966608,173.15735388397124,6.47544875391759e-05,0.090522177517414,0,0,0
16084,544617.470904436,2010-09-20 21:15:06,3781.927416110599,2,47,0.5499359965324402,4.002638339996338,47.73072706299837,47.28607198761112,189.9904296546376,173.15735388397124,0.0,0.090522177517414,0,0,0
16085,544647.4860440221,2010-09-20 21:15:36,3811.942555686695,2,47,0.5501165986061096,4.004904747009277,47.73531370767567,47.28607198761112,190.00879378994568,173.15735388397124,3.24249267578125e-05,0.090522177517414,0,0,0
16086,544677.5013557279,2010-09-20 21:16:06,3841.957867417515,2,47,0.550297200679779,4.007171154022217,47.73990036018928,47.28607198761112,190.02716800036296,173.15735388397124,6.47544875391759e-05,0.090522177517414,0,0,0
16087,544707.5166353736,2010-09-20 21:16:36,3871.973147038183,2,47,0.5501165986061096,4.009275436401367,47.74448696909703,47.28607198761112,190.04555207546045,173.15735388397124,9.70840483205393e-05,0.090522177517414,0,0,0
16088,544737.5319544578,2010-09-20 21:17:06,3901.98846612236,2,47,0.5501165986061096,4.011541843414307,47.74907359336587,47.28607198761112,190.06394634919195,173.15735388397124,6.47544875391759e-05,0.090522177517414,0,0,0
16089,544767.5473737121,2010-09-20 21:17:36,3932.003885376575,2,47,0.550297200679779,4.013970375061035,47.7536602186859,47.28607198761112,190.08235088456087,173.15735388397124,6.47544875391759e-05,0.090522177517414,0,0,0
16090,544797.5625789169,2010-09-20 21:18:06,3962.0190906717153,2,47,0.5501165986061096,4.015913009643555,47.75824681883548,47.28607198761112,190.10076559044572,173.15735388397124,6.47544875391759e-05,0.090522177517414,0,0,0
16091,544827.5779816951,2010-09-20 21:18:36,3992.0344933595775,2,47,0.5501165986061096,4.018341064453125,47.76283344210783,47.28607198761112,190.11919082269227,173.15735388397124,6.47544875391759e-05,0.090522177517414,0,0,0
16092,544857.5933284683,2010-09-20 21:19:06,4022.04984013287,2,47,0.550297200679779,4.0206074714660645,47.767420076000896,47.28607198761112,190.1376264771788,173.15735388397124,6.47544875391759e-05,0.090522177517414,0,0,0
16093,544887.6084878839,2010-09-20 21:19:36,4052.0649995685385,2,47,0.5501165986061096,4.022873878479004,47.7720066442885,47.28607198761112,190.1560724862128,173.15735388397124,6.47544875391759e-05,0.090522177517414,0,0,0
16094,544917.6237923065,2010-09-20 21:20:06,4082.080304066304,2,47,0.550297200679779,4.025302410125732,47.77659329040064,47.28607198761112,190.1745294499919,173.15735388397124,6.47544875391759e-05,0.090522177517414,0,0,0
16095,544947.6390795963,2010-09-20 21:20:36,4112.095591260878,2,47,0.5501165986061096,4.027406692504883,47.78117989757386,47.28607198761112,190.1929969508033,173.15735388397124,6.47544875391759e-05,0.090522177517414,0,0,0
16096,544977.6545040837,2010-09-20 21:21:06,4142.111015868456,2,47,0.5501165986061096,4.029835224151611,47.785766489294176,47.28607198761112,190.2114752389592,173.15735388397124,6.47544875391759e-05,0.090522177517414,0,0,0
16097,545007.6697077898,2010-09-20 21:21:36,4172.126219454331,2,47,0.5501165986061096,4.032263278961182,47.79035305867665,47.28607198761112,190.22996433275367,173.15735388397124,6.47544875391759e-05,0.090522177517414,0,0,0
16098,545037.6849824882,2010-09-20 21:22:06,4202.141494177775,2,47,0.5501165986061096,4.034691333770752,47.79493965453399,47.28607198761112,190.24846458977052,173.15735388397124,6.47544875391759e-05,0.090522177517414,0,0,0
16099,545067.7002820937,2010-09-20 21:22:36,4232.156793788341,2,47,0.5501165986061096,4.0371198654174805,47.79952626055354,47.28607198761112,190.26697596231932,173.15735388397124,3.24249267578125e-05,0.090522177517414,0,0,0
16100,545097.7159951814,2010-09-20 21:23:06,4262.1725068709975,2,47,0.5499359965324402,4.039547920227051,47.80411305319408,47.28607198761112,190.28549941019955,173.15735388397124,6.47544875391759e-05,0.090522177517414,0,0,0
16101,545127.730951896,2010-09-20 21:23:36,4292.18746356058,2,47,0.5501165986061096,4.04213809967041,47.808699616406,47.28607198761112,190.30403313099168,173.15735388397124,6.47544875391759e-05,0.090522177517414,0,0,0
16102,545157.7466464475,2010-09-20 21:24:06,4322.203158116991,2,47,0.5501165986061096,4.0447282791137695,47.81328630575307,47.28607198761112,190.32257885678752,173.15735388397124,6.47544875391759e-05,0.090522177517414,0,0,0
16103,545187.761562265,2010-09-20 21:24:36,4352.21807392954,2,47,0.5501165986061096,4.047156810760498,47.81787280998792,47.28607198761112,190.34113537476333,173.15735388397124,6.47544875391759e-05,0.090522177517414,0,0,0
16104,545217.7768893491,2010-09-20 21:25:06,4382.233401013685,2,47,0.5501165986061096,4.049746990203857,47.8224594708993,47.28607198761112,190.3597042671105,173.15735388397124,6.47544875391759e-05,0.090522177517414,0,0,0
16105,545247.7923066535,2010-09-20 21:25:36,4412.248818318033,2,47,0.550297200679779,4.052337169647217,47.82704609239013,47.28607198761112,190.3782847212448,173.15735388397124,6.47544875391759e-05,0.090522177517414,0,0,0
16106,545277.8074796931,2010-09-20 21:26:06,4442.263991357658,2,47,0.550297200679779,4.054927349090576,47.83163271526343,47.28607198761112,190.39687714621925,173.15735388397124,3.24249267578125e-05,0.090522177517414,0,0,0
16107,545307.8228104464,2010-09-20 21:26:36,4472.279322131011,2,47,0.5501165986061096,4.057517528533936,47.83621941957481,47.28607198761112,190.41548187681937,173.15735388397124,6.47544875391759e-05,0.090522177517414,0,0,0
16108,545337.8381157713,2010-09-20 21:27:06,4502.294627435791,2,47,0.5501165986061096,4.060107707977295,47.84080612630618,47.28607198761112,190.43409881997576,173.15735388397124,6.47544875391759e-05,0.090522177517414,0,0,0
16109,545367.8535290456,2010-09-20 21:27:36,4532.31004071008,2,47,0.550297200679779,4.063021659851074,47.84539279190153,47.28607198761112,190.4527273972408,173.15735388397124,0.0001295089750783,0.090522177517414,0,0,0
16110,545397.868871879,2010-09-20 21:28:06,4562.3253835535625,2,47,0.5499359965324402,4.0654497146606445,47.84997942977719,47.28607198761112,190.4713682936288,173.15735388397124,3.23295607813634e-05,0.090522177517414,0,0,0
16111,545427.8840250139,2010-09-20 21:28:36,4592.340536678478,2,47,0.550297200679779,4.068363666534424,47.854566057708325,47.28607198761112,190.49002160337423,173.15735388397124,6.47544875391759e-05,0.090522177517414,0,0,0
16112,545457.8993458324,2010-09-20 21:29:06,4622.355857496982,2,47,0.550297200679779,4.071115970611572,47.859152765056365,47.28607198761112,190.508687870056,173.15735388397124,6.47544875391759e-05,0.090522177517414,0,0,0
16113,545487.9147709413,2010-09-20 21:29:36,4652.371282605812,2,47,0.5501165986061096,4.073706150054932,47.86373934789925,47.28607198761112,190.52736624593933,173.15735388397124,6.47544875391759e-05,0.090522177517414,0,0,0
16114,545517.9299669381,2010-09-20 21:30:06,4682.386478622793,2,47,0.5501165986061096,4.076620101928711,47.86832591368407,47.28607198761112,190.5460574086508,173.15735388397124,9.71794142969884e-05,0.090522177517414,0,0,0
16115,545547.945383631,2010-09-20 21:30:36,4712.401895295565,2,47,0.5501165986061096,4.079371929168701,47.87291256604722,47.28607198761112,190.5647618966221,173.15735388397124,6.47544875391759e-05,0.090522177517414,0,0,0
16116,545577.9607111262,2010-09-20 21:31:06,4742.417222805773,2,47,0.5501165986061096,4.0822858810424805,47.877499190479455,47.28607198761112,190.58347921860343,173.15735388397124,6.47544875391759e-05,0.090522177517414,0,0,0
16117,545607.9759358498,2010-09-20 21:31:36,4772.432447504347,2,47,0.5499359965324402,4.08519983291626,47.88208578398956,47.28607198761112,190.60220959472247,173.15735388397124,9.70840483205393e-05,0.090522177517414,0,0,0
16118,545637.9911857813,2010-09-20 21:32:06,4802.447697445933,2,47,0.5501165986061096,4.087952136993408,47.88667239575254,47.28607198761112,190.6209533596528,173.15735388397124,3.24249267578125e-05,0.090522177517414,0,0,0
16119,545668.0064957428,2010-09-20 21:32:36,4832.463007407336,2,47,0.550297200679779,4.091189861297607,47.891259005455,47.28607198761112,190.63971054849165,173.15735388397124,9.71794142969884e-05,0.090522177517414,0,0,0
16120,545698.0218158396,2010-09-20 21:33:06,4862.478327504039,2,47,0.5501165986061096,4.093941688537598,47.89584566720741,47.28607198761112,190.6584814374181,173.15735388397124,6.47544875391759e-05,0.090522177517414,0,0,0
16121,545728.0371341066,2010-09-20 21:33:36,4892.493645791225,2,47,0.550297200679779,4.097179412841797,47.9004322818576,47.28607198761112,190.67726581963532,173.15735388397124,6.47544875391759e-05,0.090522177517414,0,0,0
16122,545758.0524235518,2010-09-20 21:34:06,4922.508935216367,2,47,0.550297200679779,4.100093364715576,47.90501891886618,47.28607198761112,190.69606408417704,173.15735388397124,0.0001295089750783,0.090522177517414,0,0,0
16123,545788.0677321298,2010-09-20 21:34:36,4952.524243794317,2,47,0.5501165986061096,4.103007316589356,47.90960557095004,47.28607198761112,190.7148763029893,173.15735388397124,6.47544875391759e-05,0.090522177517414,0,0,0
16124,545818.0830199659,2010-09-20 21:35:06,4982.539531630493,2,47,0.5501165986061096,4.105921268463135,47.91419216809511,47.28607198761112,190.7337023431924,173.15735388397124,3.23295607813634e-05,0.090522177517414,0,0,0
16125,545848.0983243835,2010-09-20 21:35:36,5012.554836048058,2,47,0.5501165986061096,4.109158992767334,47.918778730098246,47.28607198761112,190.75254242906024,173.15735388397124,6.47544875391759e-05,0.090522177517414,0,0,0
16126,545878.1136433324,2010-09-20 21:36:06,5042.570154996896,2,47,0.550297200679779,4.112396717071533,47.92336535835194,47.28607198761112,190.7713971057077,173.15735388397124,9.70840483205393e-05,0.090522177517414,0,0,0
16127,545908.1290075942,2010-09-20 21:36:36,5072.585519283904,2,47,0.5501165986061096,4.115472316741943,47.92795198900338,47.28607198761112,190.7902660953703,173.15735388397124,9.70840483205393e-05,0.090522177517414,0,0,0
16128,545938.144374964,2010-09-20 21:37:06,5102.600886743833,2,47,0.5501165986061096,4.118710041046143,47.932538596881976,47.28607198761112,190.80914953233676,173.15735388397124,6.47544875391759e-05,0.090522177517414,0,0,0
16129,545968.1595985397,2010-09-20 21:37:36,5132.616110204318,2,47,0.550297200679779,4.121947765350342,47.93712520996188,47.28607198761112,190.82804753676083,173.15735388397124,0.0001295089750783,0.090522177517414,0,0,0
16130,545998.1748895439,2010-09-20 21:38:07,5162.6314012084,2,47,0.5501165986061096,4.12502384185791,47.94171191203932,47.28607198761112,190.8469606188556,173.15735388397124,6.47544875391759e-05,0.090522177517414,0,0,0
16131,546028.1901598062,2010-09-20 21:38:37,5192.646671490759,2,47,0.5501165986061096,4.128261566162109,47.94629860018475,47.28607198761112,190.8658884625949,173.15735388397124,6.47544875391759e-05,0.090522177517414,0,0,0
16132,546058.2081281182,2010-09-20 21:39:07,5222.664639973241,2,47,0.550297200679779,4.13166093826294,47.95088559476137,47.28607198761112,190.88483251696857,173.15735388397124,6.47544875391759e-05,0.090522177517414,0,0,0
16133,546088.2207927264,2010-09-20 21:39:37,5252.677304390961,2,47,0.550297200679779,4.135060787200928,47.955471829013526,47.28607198761112,190.90378853580293,173.15735388397124,0.0001295089750783,0.090522177517414,0,0,0
16134,546118.2362268427,2010-09-20 21:40:07,5282.692738537349,2,47,0.550297200679779,4.138298511505127,47.96005843942722,47.28607198761112,190.9227613648641,173.15735388397124,9.71794142969884e-05,0.090522177517414,0,0,0
16135,546148.2514377369,2010-09-20 21:40:37,5312.70794942144,2,47,0.5499359965324402,4.141536235809326,47.96464510528702,47.28607198761112,190.9417498248181,173.15735388397124,6.47544875391759e-05,0.090522177517414,0,0,0
16136,546178.2667325955,2010-09-20 21:41:07,5342.723244260095,2,47,0.5501165986061096,4.145097732543945,47.96923173851344,47.28607198761112,190.96075373302253,173.15735388397124,0.0001295089750783,0.090522177517414,0,0,0
16137,546208.2820351083,2010-09-20 21:41:37,5372.738546772906,2,47,0.5501165986061096,4.148497104644775,47.9738183806741,47.28607198761112,190.97977362308487,173.15735388397124,9.70840483205393e-05,0.090522177517414,0,0,0
16138,546238.2973344582,2010-09-20 21:42:07,5402.753846122821,2,47,0.5501165986061096,4.151896953582764,47.97840499396047,47.28607198761112,190.9988091307029,173.15735388397124,9.71794142969884e-05,0.090522177517414,0,0,0
16139,546268.3126428908,2010-09-20 21:42:37,5432.769154555409,2,47,0.5499359965324402,4.155458450317383,47.98299168594218,47.28607198761112,191.01786085718305,173.15735388397124,9.71794142969884e-05,0.090522177517414,0,0,0
16140,546298.3279639399,2010-09-20 21:43:07,5462.78447560449,2,47,0.5501165986061096,4.158857822418213,47.98757830448506,47.28607198761112,191.0369282818505,173.15735388397124,9.70840483205393e-05,0.090522177517414,0,0,0
16141,546328.3432640117,2010-09-20 21:43:37,5492.799775676207,2,47,0.550297200679779,4.162581443786621,47.99216498979661,47.28607198761112,191.05601208137952,173.15735388397124,9.71794142969884e-05,0.090522177517414,0,0,0
16142,546358.3587370351,2010-09-20 21:44:07,5522.815248699639,2,47,0.5501165986061096,4.165980815887451,47.99675169477078,47.28607198761112,191.07511221189768,173.15735388397124,6.47544875391759e-05,0.090522177517414,0,0,0
16143,546388.3739043906,2010-09-20 21:44:37,5552.830416055076,2,47,0.5501165986061096,4.16954231262207,48.00133829611813,47.28607198761112,191.0942282770604,173.15735388397124,9.70840483205393e-05,0.090522177517414,0,0,0
16144,546418.3892023169,2010-09-20 21:45:07,5582.845714011513,2,47,0.5499359965324402,4.1731038093566895,48.00592488293052,47.28607198761112,191.11336076492896,173.15735388397124,6.47544875391759e-05,0.090522177517414,0,0,0
16145,546448.4045714862,2010-09-20 21:45:37,5612.861083150634,2,47,0.5501165986061096,4.176827430725098,48.01051154624064,47.28607198761112,191.13251015357767,173.15735388397124,6.47544875391759e-05,0.090522177517414,0,0,0
16146,546478.419912485,2010-09-20 21:46:07,5642.87642424475,2,47,0.5501165986061096,4.180388927459717,48.01509823844253,47.28607198761112,191.1516763876796,173.15735388397124,9.71794142969884e-05,0.090522177517414,0,0,0
16147,546508.4351267875,2010-09-20 21:46:37,5672.891638452136,2,47,0.5501165986061096,4.184274196624756,48.01968481636556,47.28607198761112,191.170858990725,173.15735388397124,9.71794142969884e-05,0.090522177517414,0,0,0
16148,546538.4505795203,2010-09-20 21:47:07,5702.907091184919,2,47,0.5499359965324402,4.187835693359375,48.02427151538089,47.28607198761112,191.190059084542,173.15735388397124,9.71794142969884e-05,0.090522177517414,0,0,0
16149,546568.4657671013,2010-09-20 21:47:37,5732.922278785893,2,47,0.5501165986061096,4.191720962524414,48.028858085258825,47.28607198761112,191.2092758195791,173.15735388397124,0.0001295089750783,0.090522177517414,0,0,0
16150,546598.4810722306,2010-09-20 21:48:07,5762.937583920247,2,47,0.550297200679779,4.195444107055664,48.033444736006224,47.28607198761112,191.22851016310395,173.15735388397124,9.71794142969884e-05,0.090522177517414,0,0,0
16151,546628.4963789991,2010-09-20 21:48:37,5792.952890663618,2,47,0.5501165986061096,4.199167251586914,48.03803138253249,47.28607198761112,191.24776183340245,173.15735388397124,6.47544875391759e-05,0.090522177517414,0,0,0
16152,546634.0431922483,2010-09-20 21:48:42,5798.499703912844,2,47,0.550297200679779,4.200138568878174,48.03887897348214,47.28607198761112,191.25132136722831,173.15735388397124,0.0001295089750783,0.090522177517414,0,0,0
16153,546664.070731231,2010-09-20 21:49:12,30.015291114358533,3,47,0.0,4.119843482971191,48.03887897348214,47.28607198761112,191.25132136722831,173.15735388397124,-0.0004208564641885,0.090522177517414,0,0,0
16154,546694.086039423,2010-09-20 21:49:43,60.03059931135797,3,47,0.0,4.109968662261963,48.03887897348214,47.28607198761112,191.25132136722831,173.15735388397124,-0.0001942634553415,0.090522177517414,0,0,0
16155,546724.101354066,2010-09-20 21:50:13,90.04591394943532,3,47,0.0,4.104140758514404,48.03887897348214,47.28607198761112,191.25132136722831,173.15735388397124,-9.70840483205393e-05,0.090522177517414,0,0,0
16156,546754.0697937269,2010-09-20 21:50:42,120.01435361035816,3,47,0.0,4.100579261779785,48.03887897348214,47.28607198761112,191.25132136722831,173.15735388397124,-3.23295607813634e-05,0.090522177517414,0,0,0
16157,546754.0989138912,2010-09-20 21:50:43,2.581443681e-06,4,47,0.9983888268470764,4.199653148651123,48.038878974198056,47.28607198761112,191.25132137023493,173.15735388397124,0.0,0.090522177517414,0,0,0
16158,546755.0208187324,2010-09-20 21:50:44,0.921907538046894,4,47,0.9474570155143738,4.199653148651123,48.03912659719276,47.28607198761112,191.2523612967106,173.15735388397124,0.0,0.090522177517414,0,0,0
16159,546757.0988656974,2010-09-20 21:50:46,2.999954407733149,4,47,0.8972476720809937,4.199814796447754,48.039657930501896,47.28607198761112,191.2545927237665,173.15735388397124,3.23295607813634e-05,0.090522177517414,0,0,0
16160,546760.208224009,2010-09-20 21:50:49,6.109312744504552,4,47,0.8472188711166382,4.199814796447754,48.04041012062407,47.28607198761112,191.25775166066103,173.15735388397124,3.23295607813634e-05,0.090522177517414,0,0,0
16161,546764.4269477876,2010-09-20 21:50:53,10.32803652810284,4,47,0.7970094680786133,4.199653148651123,48.04137218137867,47.28607198761112,191.2617920048448,173.15735388397124,3.24249267578125e-05,0.090522177517414,0,0,0
16162,546769.895730646,2010-09-20 21:50:58,15.796819356393458,4,47,0.7464389204978943,4.199653148651123,48.0425431697785,47.28607198761112,191.2667097950597,173.15735388397124,0.0,0.090522177517414,0,0,0
16163,546776.9424781319,2010-09-20 21:51:05,22.84356686228316,4,47,0.6960489153862,4.199653148651123,48.04395360188883,47.28607198761112,191.27263316699893,173.15735388397124,-3.23295607813634e-05,0.090522177517414,0,0,0
16164,546786.2707085551,2010-09-20 21:51:15,32.171797360719644,4,47,0.6460201144218445,4.199491024017334,48.045690200901696,47.28607198761112,191.2799263456699,173.15735388397124,-3.24249267578125e-05,0.090522177517414,0,0,0
16165,546799.1142360306,2010-09-20 21:51:28,45.015324751013104,4,47,0.5958107709884644,4.199491024017334,48.04790137238673,47.28607198761112,191.28921256810565,173.15735388397124,-3.24249267578125e-05,0.090522177517414,0,0,0
16166,546818.2232241348,2010-09-20 21:51:47,64.12431284514037,4,47,0.5457819700241089,4.199653148651123,48.05092213086685,47.28607198761112,191.30189882636617,173.15735388397124,0.0,0.090522177517414,0,0,0
16167,546849.0666570034,2010-09-20 21:52:18,94.96774571372389,4,47,0.4953919947147369,4.199491024017334,48.055365952534345,47.28607198761112,191.3205615205314,173.15735388397124,-3.24249267578125e-05,0.090522177517414,0,0,0
16168,546903.8161145123,2010-09-20 21:53:12,149.71720324270967,4,47,0.4453632235527038,4.199653148651123,48.06248935595605,47.28607198761112,191.35047763776427,173.15735388397124,-3.23295607813634e-05,0.090522177517414,0,0,0
16169,546988.971461023,2010-09-20 21:54:38,234.8725497333729,4,47,0.3953344523906708,4.199814796447754,48.07240229744184,47.28607198761112,191.39210885749648,173.15735388397124,0.0,0.090522177517414,0,0,0
16170,547099.5015626814,2010-09-20 21:56:28,345.40265139174323,4,47,0.3453056812286377,4.199814796447754,48.08375461897701,47.28607198761112,191.43978510289645,173.15735388397124,0.0,0.090522177517414,0,0,0
16171,547232.5626720864,2010-09-20 21:58:41,478.4637607967581,4,47,0.2952769100666046,4.199653148651123,48.09557901967102,47.28607198761112,191.4894439954368,173.15735388397124,-3.23295607813634e-05,0.090522177517414,0,0,0
16172,547394.0922454774,2010-09-20 22:01:23,639.9933341926578,4,47,0.2452481538057327,4.199491024017334,48.1076837114535,47.28607198761112,191.5402800257445,173.15735388397124,-6.47544875391759e-05,0.090522177517414,0,0,0
16173,547594.9651710781,2010-09-20 22:04:44,840.866259788472,4,47,0.1952193826436996,4.199653148651123,48.11993215155093,47.28607198761112,191.59171973636907,173.15735388397124,0.0,0.090522177517414,0,0,0
16174,547860.9468012222,2010-09-20 22:09:10,1106.8478899526126,4,47,0.1451906114816665,4.199653148651123,48.13243456665992,47.28607198761112,191.6442260623414,173.15735388397124,0.0,0.090522177517414,0,0,0
16175,548255.3802248497,2010-09-20 22:15:44,1501.2813135600018,4,47,0.095161847770214,4.199653148651123,48.14542598235692,47.28607198761112,191.6987860492955,173.15735388397124,-3.23295607813634e-05,0.090522177517414,0,0,0
16176,548905.8422902059,2010-09-20 22:26:34,2151.743378916218,4,47,0.0498289167881011,4.199653148651123,48.15809562303392,47.28607198761112,191.75199463629016,173.15735388397124,0.0,0.090522177517414,0,0,0
16177,548935.8648952702,2010-09-20 22:27:05,30.018128376601595,5,47,0.0,4.192206382751465,48.15809562303392,47.28607198761112,191.75199463629016,173.15735388397124,-3.24249267578125e-05,0.090522177517414,0,0,0
16178,548965.8644326659,2010-09-20 22:27:35,60.01766574719203,5,47,0.0,4.191073417663574,48.15809562303392,47.28607198761112,191.75199463629016,173.15735388397124,0.0,0.090522177517414,0,0,0
16179,548966.0545617834,2010-09-20 22:27:35,0.187677356555402,6,47,-1.9243103452026844e-05,4.191073417663574,48.15809562303392,47.28607198861432,191.75199463629016,173.1573538881757,0.0,0.0907677188515663,0,0,0
16180,548970.8669342955,2010-09-20 22:27:40,5.00004995893596,6,47,0.0007031940040178,4.191235065460205,48.15809647972712,47.28607198878064,191.75199822687333,173.15735388887276,0.0,0.0907677188515663,0,0,0
16181,549000.8716175514,2010-09-20 22:28:10,30.015254713496383,7,47,-1.099568486213684,4.025140285491943,48.15809647972712,47.29524085770492,191.75199822687333,173.19444909055326,-0.0008742332574911,0.0907677188515663,0,0,0
16182,549030.8869216031,2010-09-20 22:28:40,60.03055876514839,7,47,-1.0997490882873535,3.9995622634887695,48.15809647972712,47.3044097098585,191.75199822687333,173.2312290690952,-0.0005827903514727,0.0907677188515663,0,0,0
16183,549060.902271414,2010-09-20 22:29:10,90.04590859607251,7,47,-1.099568486213684,3.982078790664673,48.15809647972712,47.31357848174207,191.75199822687333,173.26781641703002,-0.0004209041653666,0.0907677188515663,0,0,0
16184,549090.9176810492,2010-09-20 22:29:40,120.06131821122726,7,47,-1.0997490882873535,3.968480348587036,48.15809647972712,47.32274727293819,191.75199822687333,173.30426335055097,-0.0003561496851034,0.0907677188515663,0,0,0
16185,549120.9328691363,2010-09-20 22:30:10,150.0765062984141,7,47,-1.099929690361023,3.956986427307129,48.15809647972712,47.33191598637605,191.75199822687333,173.34059629640817,-0.0002913951757363,0.0907677188515663,0,0,0
16186,549150.948202777,2010-09-20 22:30:40,180.0918399389245,7,47,-1.099568486213684,3.946787595748901,48.15809647972712,47.34108480156231,191.75199822687333,173.3768309352159,-0.0003237724304199,0.0907677188515663,0,0,0
16187,549180.9635499512,2010-09-20 22:31:10,210.10718711321724,7,47,-1.0997490882873535,3.9375600814819336,48.15809647972712,47.35025359541314,191.75199822687333,173.41297561481164,-0.0002590179501567,0.0907677188515663,0,0,0
16188,549210.9788273012,2010-09-20 22:31:40,240.12246448828031,7,47,-1.0997490882873535,3.928494453430176,48.15809647972712,47.35942237255042,191.75199822687333,173.44903595371832,-0.0002590179501567,0.0907677188515663,0,0,0
16189,549240.9941485408,2010-09-20 22:32:10,270.1377857027735,7,47,-1.0997490882873535,3.919752597808838,48.15809647972712,47.36859114871453,191.75199822687333,173.48501558849892,-0.0002266406954731,0.0907677188515663,0,0,0
16190,549271.0094767376,2010-09-20 22:32:40,300.1531139247583,7,47,-1.099568486213684,3.911496639251709,48.15809647972712,47.3777599301156,191.75199822687333,173.52091733152287,-0.0002266406954731,0.0907677188515663,0,0,0
16191,549301.0248064083,2010-09-20 22:33:10,330.16844357029663,7,47,-1.099568486213684,3.903402328491211,48.15809647972712,47.386928718523045,191.75199822687333,173.55674300024512,-0.0001942634553415,0.0907677188515663,0,0,0
16192,549331.0401041592,2010-09-20 22:33:40,360.1837413212211,7,47,-1.099568486213684,3.895308017730713,48.15809647972712,47.396097564044034,191.75199822687333,173.59249466209567,-0.0001942634553415,0.0907677188515663,0,0,0
16193,549361.0554264614,2010-09-20 22:34:10,390.19906362342925,7,47,-1.099568486213684,3.8875374794006343,48.15809647972712,47.40526630470206,191.75199822687333,173.628173874916,-0.0001618862152099,0.0907677188515663,0,0,0
16194,549391.0707416357,2010-09-20 22:34:40,420.214378822908,7,47,-1.099568486213684,3.8797669410705566,48.15809647972712,47.414435065220125,191.75199822687333,173.66378159289283,-0.0001942634553415,0.0907677188515663,0,0,0
16195,549421.0860741084,2010-09-20 22:35:10,450.2297112704404,7,47,-1.099568486213684,3.8719964027404794,48.15809647972712,47.42360389728631,191.75199822687333,173.69931915317756,-0.0002266406954731,0.0907677188515663,0,0,0
16196,549451.1013818843,2010-09-20 22:35:40,480.245019076464,7,47,-1.0997490882873535,3.8647115230560303,48.15809647972712,47.43277272641605,191.75199822687333,173.73478728100525,-0.0001618862152099,0.0907677188515663,0,0,0
16197,549481.1170309522,2010-09-20 22:36:10,510.26066820949217,7,47,-1.1001102924346924,3.857102870941162,48.15809647972712,47.4419416936299,191.75199822687333,173.77018758759746,-0.0001942634553415,0.0907677188515663,0,0,0
16198,549511.1320073309,2010-09-20 22:36:40,540.2756444929844,7,47,-1.099568486213684,3.849979877471924,48.15809647972712,47.45111046130254,191.75199822687333,173.8055197456164,-0.0001618862152099,0.0907677188515663,0,0,0
16199,549541.1475625546,2010-09-20 22:37:10,570.2911997166002,7,47,-1.0997490882873535,3.842694997787476,48.15809647972712,47.46027938271504,191.75199822687333,173.84078617082974,-0.0001942634553415,0.0907677188515663,0,0,0
16200,549571.162784827,2010-09-20 22:37:40,600.306421989119,7,47,-1.099568486213684,3.835572004318237,48.15809647972712,47.469448184705946,191.75199822687333,173.87598688964158,-0.0002266406954731,0.0907677188515663,0,0,0
16201,549601.1783628927,2010-09-20 22:38:10,630.3220000798145,7,47,-1.099929690361023,3.828611135482788,48.15809647972712,47.4786170439949,191.75199822687333,173.91112361513763,-0.0001942634553415,0.0907677188515663,0,0,0
16202,549631.1934277472,2010-09-20 22:38:40,660.3370649193564,7,47,-1.0993878841400146,3.8221356868743896,48.15809647972712,47.48778578942462,191.75199822687333,173.9461967783257,-0.0001618862152099,0.0907677188515663,0,0,0
16203,549661.2087467613,2010-09-20 22:39:10,690.3523839333567,7,47,-1.0997490882873535,3.815174579620361,48.15809647972712,47.49695467925338,191.75199822687333,173.98120854815076,-0.0001942634553415,0.0907677188515663,0,0,0
16204,549691.2239467131,2010-09-20 22:39:40,720.3675838951846,7,47,-1.099568486213684,3.808537244796753,48.15809647972712,47.50612344472364,191.75199822687333,174.01615830137612,-0.0001295089750783,0.0907677188515663,0,0,0
16205,549721.2392481081,2010-09-20 22:40:10,750.3828852701552,7,47,-1.0997490882873535,3.801899909973145,48.15809647972712,47.51529226079622,191.75199822687333,174.05104807550035,-0.0001942634553415,0.0907677188515663,0,0,0
16206,549751.2545681447,2010-09-20 22:40:40,780.3982053969331,7,47,-1.099568486213684,3.795748233795166,48.15809647972712,47.52446104556376,191.75199822687333,174.0858792057825,-0.0001618862152099,0.0907677188515663,0,0,0
16207,549781.2698988728,2010-09-20 22:41:10,810.4135360349488,7,47,-1.0997490882873535,3.7894346714019775,48.15809647972712,47.53362991392381,191.75199822687333,174.12065291276477,-0.0002266406954731,0.0907677188515663,0,0,0
16208,549811.285328909,2010-09-20 22:41:40,840.4289660811025,7,47,-1.099568486213684,3.783444881439209,48.15809647972712,47.54279882809236,191.75199822687333,174.15537004353686,-0.0001295089750783,0.0907677188515663,0,0,0
16209,549841.3006487852,2010-09-20 22:42:10,870.4442859522424,7,47,-1.099568486213684,3.7776169776916495,48.15809647972712,47.5519676629588,191.75199822687333,174.1900313946037,-6.47544875391759e-05,0.0907677188515663,0,0,0
16210,549871.3158390328,2010-09-20 22:42:40,900.4594761948093,7,47,-1.0997490882873535,3.771465301513672,48.15809647972712,47.5611365079181,191.75199822687333,174.2246382597083,-0.0001618862152099,0.0907677188515663,0,0,0
16211,549901.3311873449,2010-09-20 22:43:10,930.4748245320048,7,47,-1.0997490882873535,3.7657992839813232,48.15809647972712,47.57030531541302,191.75199822687333,174.25919153473205,-0.0001295089750783,0.0907677188515663,0,0,0
16212,549931.3464821685,2010-09-20 22:43:40,960.4901193305597,7,47,-1.0997490882873535,3.7599713802337646,48.15809647972712,47.57947412078367,191.75199822687333,174.29369241644292,-0.0001942634553415,0.0907677188515663,0,0,0
16213,549961.3618024706,2010-09-20 22:44:10,990.5054396377882,7,47,-1.0997490882873535,3.754467248916626,48.15809647972712,47.58864293739363,191.75199822687333,174.3281417625865,-0.0001295089750783,0.0907677188515663,0,0,0
16214,549991.3771411588,2010-09-20 22:44:40,1020.5207783208856,7,47,-1.099568486213684,3.749125242233277,48.15809647972712,47.59781181347604,191.75199822687333,174.36254055777883,-6.47544875391759e-05,0.0907677188515663,0,0,0
16215,550021.3924518321,2010-09-20 22:45:10,1050.536088994066,7,47,-1.0997490882873535,3.7436211109161377,48.15809647972712,47.606980681484615,191.75199822687333,174.39688975505894,-0.0001295089750783,0.0907677188515663,0,0,0
16216,550051.40793469,2010-09-20 22:45:40,1080.5515718620711,7,47,-1.0997490882873535,3.738278865814209,48.15809647972712,47.616149691362125,191.75199822687333,174.43119057414316,-0.0001295089750783,0.0907677188515663,0,0,0
16217,550081.4230749126,2010-09-20 22:46:10,1110.5667120998182,7,47,-1.099568486213684,3.73309850692749,48.15809647972712,47.62531851490487,191.75199822687333,174.46544296596073,-0.0001618862152099,0.0907677188515663,0,0,0
16218,550111.4385425377,2010-09-20 22:46:40,1140.582179699712,7,47,-1.099568486213684,3.728080034255981,48.15809647972712,47.634487470182265,191.75199822687333,174.49964880912984,-0.0001618862152099,0.0907677188515663,0,0,0
16219,550141.4537513516,2010-09-20 22:47:10,1170.5973885386984,7,47,-1.099929690361023,3.7230615615844727,48.15809647972712,47.643656277339744,191.75199822687333,174.53380831562532,-0.0001618862152099,0.0907677188515663,0,0,0
16220,550171.4690578092,2010-09-20 22:47:40,1200.6126949963564,7,47,-1.099568486213684,3.718204975128174,48.15809647972712,47.652825171221664,191.75199822687333,174.56792254361667,-9.713172767078504e-05,0.0907677188515663,0,0,0
16221,550201.4843153649,2010-09-20 22:48:10,1230.6279525268844,7,47,-1.0993878841400146,3.713348388671875,48.15809647972712,47.66199344026138,191.75199822687333,174.60198975231685,-0.0001295089750783,0.0907677188515663,0,0,0
16222,550231.4996566945,2010-09-20 22:48:40,1260.6432938816508,7,47,-1.099568486213684,3.708491802215576,48.15809647972712,47.67116159445761,191.75199822687333,174.63601240634222,-0.0001295089750783,0.0907677188515663,0,0,0
16223,550261.5150168111,2010-09-20 22:49:10,1290.6586540634123,7,47,-1.0997490882873535,3.7037971019744873,48.15809647972712,47.6803298976873,191.75199822687333,174.66999238364158,-0.0001295089750783,0.0907677188515663,0,0,0
16224,550291.5304282258,2010-09-20 22:49:40,1320.6740653878337,7,47,-1.0997490882873535,3.699264287948608,48.15809647972712,47.68949802628887,191.75199822687333,174.70392910017287,-0.0001295089750783,0.0907677188515663,0,0,0
16225,550321.5456343029,2010-09-20 22:50:10,1350.689271464926,7,47,-1.0997490882873535,3.6947314739227295,48.15809647972712,47.69866610055663,191.75199822687333,174.73782338621126,-0.0001295089750783,0.0907677188515663,0,0,0
16226,550351.5610653565,2010-09-20 22:50:40,1380.7047025185946,7,47,-1.0997490882873535,3.6901986598968506,48.15809647972712,47.70783429159067,191.75199822687333,174.77167638936206,-9.713172767078504e-05,0.0907677188515663,0,0,0
16227,550381.5762970024,2010-09-20 22:51:10,1410.7199341895732,7,47,-1.099929690361023,3.685665845870972,48.15809647972712,47.71700286237237,191.75199822687333,174.8054899485545,-0.0001295089750783,0.0907677188515663,0,0,0
16228,550411.5915851294,2010-09-20 22:51:40,1440.7352222964244,7,47,-1.099568486213684,3.681294918060303,48.15809647972712,47.7261716020556,191.75199822687333,174.8392639568203,-0.0001295089750783,0.0907677188515663,0,0,0
16229,550441.6068981835,2010-09-20 22:52:11,1470.7505353455356,7,47,-1.0997490882873535,3.677085876464844,48.15809647972712,47.735340401392925,191.75199822687333,174.87299841995514,-0.0001295089750783,0.0907677188515663,0,0,0
16230,550471.622220997,2010-09-20 22:52:41,1500.7658581790702,7,47,-1.0997490882873535,3.6728768348693848,48.15809647972712,47.74450917726614,191.75199822687333,174.90669394898393,-6.47544875391759e-05,0.0907677188515663,0,0,0
16231,550501.6386298514,2010-09-20 22:53:11,1530.7822670435048,7,47,-1.099568486213684,3.668991804122925,48.15809647972712,47.753678255512405,191.75199822687333,174.94035224780023,-6.47544875391759e-05,0.0907677188515663,0,0,0
16232,550531.6410130706,2010-09-20 22:53:41,1560.784650327934,7,47,-1.0997490882873535,3.664620876312256,48.15809647972712,47.76284306366618,191.75199822687333,174.97395702346455,-9.713172767078504e-05,0.0907677188515663,0,0,0
16233,550561.6526094724,2010-09-20 22:54:11,1590.796246824959,7,47,-1.099568486213684,3.660735607147217,48.15809647972712,47.77201069073574,191.75199822687333,175.00753490493577,-9.713172767078504e-05,0.0907677188515663,0,0,0
16234,550591.6678804515,2010-09-20 22:54:41,1620.8115176135816,7,47,-1.0997490882873535,3.6568503379821777,48.15809647972712,47.78117949526139,191.75199822687333,175.0410806418755,-3.237724376958795e-05,0.0907677188515663,0,0,0
16235,550621.6832415957,2010-09-20 22:55:11,1650.8268788479706,7,47,-1.099568486213684,3.6529650688171382,48.15809647972712,47.790348252884144,191.75199822687333,175.07459064984786,-9.713172767078504e-05,0.0907677188515663,0,0,0
16236,550651.6986646896,2010-09-20 22:55:41,1680.8423018565577,7,47,-1.0997490882873535,3.6492416858673096,48.15809647972712,47.79951711569918,191.75199822687333,175.10806600318165,-6.47544875391759e-05,0.0907677188515663,0,0,0
16237,550681.7138714985,2010-09-20 22:56:11,1710.8575086604642,7,47,-1.0997490882873535,3.645194530487061,48.15809647972712,47.80868581546287,191.75199822687333,175.141505993419,-0.0001618862152099,0.0907677188515663,0,0,0
16238,550711.7294432533,2010-09-20 22:56:41,1740.8730804153445,7,47,-1.099568486213684,3.6416330337524414,48.15809647972712,47.81785459101496,191.75199822687333,175.17491247408816,-0.0001295089750783,0.0907677188515663,0,0,0
16239,550741.7446641974,2010-09-20 22:57:11,1770.8883013695724,7,47,-1.0997490882873535,3.638233423233032,48.15809647972712,47.82702329949141,191.75199822687333,175.20828591350948,-6.47544875391759e-05,0.0907677188515663,0,0,0
16240,550771.7598182097,2010-09-20 22:57:41,1800.9034553766903,7,47,-1.099568486213684,3.634833812713623,48.15809647972712,47.83619205658523,191.75199822687333,175.2416273254504,-6.47544875391759e-05,0.0907677188515663,0,0,0
16241,550801.7751460507,2010-09-20 22:58:11,1830.918783212712,7,47,-1.0997490882873535,3.631272315979004,48.15809647972712,47.84536085503312,191.75199822687333,175.27493742396334,-6.47544875391759e-05,0.0907677188515663,0,0,0
16242,550831.7905772848,2010-09-20 22:58:41,1860.9342144518432,7,47,-1.099568486213684,3.6278727054595943,48.15809647972712,47.85452960176071,191.75199822687333,175.3082165118504,-0.0001295089750783,0.0907677188515663,0,0,0
16243,550861.8057672116,2010-09-20 22:59:11,1890.949404378622,7,47,-1.0997490882873535,3.6247968673706055,48.15809647972712,47.86369826733666,191.75199822687333,175.34146515964937,-6.47544875391759e-05,0.0907677188515663,0,0,0
16244,550891.821118882,2010-09-20 22:59:41,1920.964756069188,7,47,-1.099568486213684,3.6215591430664062,48.15809647972712,47.87286698489838,191.75199822687333,175.3746845465409,-6.47544875391759e-05,0.0907677188515663,0,0,0
16245,550921.8364167182,2010-09-20 23:00:11,1950.9800538802624,7,47,-1.0997490882873535,3.618645191192627,48.15809647972712,47.882035767874335,191.75199822687333,175.40787525103644,-6.47544875391759e-05,0.0907677188515663,0,0,0
16246,550951.8517533512,2010-09-20 23:00:41,1980.995390513243,7,47,-1.099568486213684,3.6152455806732178,48.15809647972712,47.891204574770605,191.75199822687333,175.44103780876085,-9.713172767078504e-05,0.0907677188515663,0,0,0
16247,550981.867053468,2010-09-20 23:01:11,2011.0106906300728,7,47,-1.0997490882873535,3.612493515014648,48.15809647972712,47.90037328958601,191.75199822687333,175.47417260736043,-6.47544875391759e-05,0.0907677188515663,0,0,0
16248,551011.882397665,2010-09-20 23:01:41,2041.0260348269337,7,47,-1.099568486213684,3.609417676925659,48.15809647972712,47.90954210305557,191.75199822687333,175.50728051581436,-6.47544875391759e-05,0.0907677188515663,0,0,0
16249,551041.8978258665,2010-09-20 23:02:11,2071.0414630284827,7,47,-1.0997490882873535,3.60650372505188,48.15809647972712,47.91871086477474,191.75199822687333,175.54036165168213,-6.47544875391759e-05,0.0907677188515663,0,0,0
16250,551071.913012505,2010-09-20 23:02:41,2101.0566496921165,7,47,-1.0997490882873535,3.6035897731781006,48.15809647972712,47.927879568002346,191.75199822687333,175.57341592133946,-9.713172767078504e-05,0.0907677188515663,0,0,0
16251,551101.9283530727,2010-09-20 23:03:11,2131.071990259918,7,47,-1.0997490882873535,3.6008377075195312,48.15809647972712,47.93704831896831,191.75199822687333,175.60644429163523,-9.713172767078504e-05,0.0907677188515663,0,0,0
16252,551131.9437953745,2010-09-20 23:03:41,2161.0874325466257,7,47,-1.099568486213684,3.598085641860962,48.15809647972712,47.9462171527978,191.75199822687333,175.63944693834964,-6.47544875391759e-05,0.0907677188515663,0,0,0
16253,551161.9589754416,2010-09-20 23:04:11,2191.102612628831,7,47,-1.099568486213684,3.5951716899871826,48.15809647972712,47.95538588886612,191.75199822687333,175.67242348594854,-9.713172767078504e-05,0.0907677188515663,0,0,0
16254,551191.9744250267,2010-09-20 23:04:41,2221.1180621886942,7,47,-1.099568486213684,3.5922577381134038,48.15809647972712,47.96455471752816,191.75199822687333,175.70537427361674,-9.713172767078504e-05,0.0907677188515663,0,0,0
16255,551221.9897470983,2010-09-20 23:05:11,2251.1333842603267,7,47,-1.099568486213684,3.589505910873413,48.15809647972712,47.97372348318612,191.75199822687333,175.73829888980544,-0.0001295089750783,0.0907677188515663,0,0,0
16256,551252.0049600777,2010-09-20 23:05:41,2281.148597239648,7,47,-1.0997490882873535,3.586753845214844,48.15809647972712,47.98289226017654,191.75199822687333,175.7711976862035,-9.713172767078504e-05,0.0907677188515663,0,0,0
16257,551282.0202651619,2010-09-20 23:06:11,2311.163902323878,7,47,-1.0997490882873535,3.5838398933410645,48.15809647972712,47.99206105908668,191.75199822687333,175.80407031960647,-6.47544875391759e-05,0.0907677188515663,0,0,0
16258,551312.0356125066,2010-09-20 23:06:41,2341.179249693658,7,47,-1.0997490882873535,3.580925941467285,48.15809647972712,48.001229902718656,191.75199822687333,175.8369168098716,-9.713172767078504e-05,0.0907677188515663,0,0,0
16259,551342.0509174354,2010-09-20 23:07:11,2371.194554597437,7,47,-1.099568486213684,3.577850103378296,48.15809647972712,48.01039867216119,191.75199822687333,175.86973600632612,-0.0001295089750783,0.0907677188515663,0,0,0
16260,551372.0662468704,2010-09-20 23:07:41,2401.20988403245,7,47,-1.0997490882873535,3.574774265289306,48.15809647972712,48.01956749712292,191.75199822687333,175.90252825668202,-0.0001295089750783,0.0907677188515663,0,0,0
16261,551402.0815542553,2010-09-20 23:08:11,2431.2251914174226,7,47,-1.0997490882873535,3.5720221996307373,48.15809647972712,48.02873632137576,191.75199822687333,175.93529285323274,-6.47544875391759e-05,0.0907677188515663,0,0,0
16262,551432.0968301517,2010-09-20 23:08:41,2461.2404673388573,7,47,-1.0997490882873535,3.568784475326538,48.15809647972712,48.037905922230365,191.75199822687333,175.96803167952424,-9.713172767078504e-05,0.0907677188515663,0,0,0
16263,551462.1121578123,2010-09-20 23:09:11,2491.255794969366,7,47,-1.0997490882873535,3.565546751022339,48.15809647972712,48.047075569264685,191.75199822687333,176.0007414521943,-6.47544875391759e-05,0.0907677188515663,0,0,0
16264,551492.1276837378,2010-09-20 23:09:41,2521.271320924924,7,47,-1.099929690361023,3.56230902671814,48.15809647972712,48.05624508917127,191.75199822687333,176.0334214485045,-0.0001295089750783,0.0907677188515663,0,0,0
16265,551522.142842963,2010-09-20 23:10:11,2551.286480150067,7,47,-1.099568486213684,3.5590713024139404,48.15809647972712,48.06541465448587,191.75199822687333,176.06607182512974,-9.713172767078504e-05,0.0907677188515663,0,0,0
16266,551552.1585590381,2010-09-20 23:10:41,2581.302196315418,7,47,-1.0997490882873535,3.5555098056793213,48.15809647972712,48.07458435381918,191.75199822687333,176.09869133571073,-0.0001295089750783,0.0907677188515663,0,0,0
16267,551582.1734595023,2010-09-20 23:11:11,2611.3170966844164,7,47,-1.099929690361023,3.551786422729492,48.15809647972712,48.08375382233017,191.75199822687333,176.1312775176639,-0.0001295089750783,0.0907677188515663,0,0,0
16268,551612.1889333528,2010-09-20 23:11:41,2641.332570524887,7,47,-1.0997490882873535,3.548224925994873,48.15809647972712,48.09292281874093,191.75199822687333,176.1638287756974,-0.0001295089750783,0.0907677188515663,0,0,0
16269,551642.204105846,2010-09-20 23:12:11,2671.347743013137,7,47,-1.0997490882873535,3.544339656829834,48.15809647972712,48.10209148339528,191.75199822687333,176.19634420453076,-0.0001618862152099,0.0907677188515663,0,0,0
16270,551672.2195515212,2010-09-20 23:12:41,2701.3631886883027,7,47,-1.0997490882873535,3.540454387664795,48.15809647972712,48.11126028855655,191.75199822687333,176.22882422806444,-9.713172767078504e-05,0.0907677188515663,0,0,0
16271,551702.2347574129,2010-09-20 23:13:11,2731.37839457492,7,47,-1.0997490882873535,3.536407232284546,48.15809647972712,48.12042901101221,191.75199822687333,176.26126673444486,-9.713172767078504e-05,0.0907677188515663,0,0,0
16272,551732.2501197049,2010-09-20 23:13:41,2761.393756892011,7,47,-1.0997490882873535,3.532036304473877,48.15809647972712,48.12959785808038,191.75199822687333,176.29367068716292,-9.713172767078504e-05,0.0907677188515663,0,0,0
16273,551762.2653980373,2010-09-20 23:14:11,2791.409035194389,7,47,-1.0997490882873535,3.527341604232788,48.15809647972712,48.13876663361277,191.75199822687333,176.32603410454922,-0.0001618862152099,0.0907677188515663,0,0,0
16274,551792.2808470458,2010-09-20 23:14:41,2821.424484222926,7,47,-1.0997490882873535,3.522646903991699,48.15809647972712,48.14793544838141,191.75199822687333,176.35835480094948,-0.0001295089750783,0.0907677188515663,0,0,0
16275,551822.2960838596,2010-09-20 23:15:11,2851.439721016692,7,47,-1.099568486213684,3.5176284313201904,48.15809647972712,48.15710418400421,191.75199822687333,176.39062964688674,-0.0001295089750783,0.0907677188515663,0,0,0
16276,551852.3113695754,2010-09-20 23:15:41,2881.455006737588,7,47,-1.0997490882873535,3.511962413787842,48.15809647972712,48.16627292071554,191.75199822687333,176.42285579055326,-0.0001295089750783,0.0907677188515663,0,0,0
16277,551882.3267032561,2010-09-20 23:16:11,2911.4703405134355,7,47,-1.0997490882873535,3.5061347484588623,48.15809647972712,48.17544173591354,191.75199822687333,176.4550295461124,-0.0001618862152099,0.0907677188515663,0,0,0
16278,551912.3420057489,2010-09-20 23:16:41,2941.485642905946,7,47,-1.0997490882873535,3.499497413635254,48.15809647972712,48.18461054234902,191.75199822687333,176.4871462127896,-0.0001942634553415,0.0907677188515663,0,0,0
16279,551942.3573551888,2010-09-20 23:17:11,2971.5009923709567,7,47,-1.0997490882873535,3.4922125339508057,48.15809647972712,48.19377935328583,191.75199822687333,176.51919994873276,-0.0002266406954731,0.0907677188515663,0,0,0
16280,551972.3725758775,2010-09-20 23:17:41,3001.516213064534,7,47,-1.0997490882873535,3.484118223190308,48.15809647972712,48.202948094292914,191.75199822687333,176.5511830566033,-0.0002266406954731,0.0907677188515663,0,0,0
16281,552002.3880821037,2010-09-20 23:18:11,3031.5317192607704,7,47,-1.099568486213684,3.47456693649292,48.15809647972712,48.21211691877885,191.75199822687333,176.58308538739487,-0.0002590179501567,0.0907677188515663,0,0,0
16282,552032.403395634,2010-09-20 23:18:41,3061.54703280612,7,47,-1.099929690361023,3.4635586738586426,48.15809647972712,48.22128584067691,191.75199822687333,176.61489503037532,-0.0003561496851034,0.0907677188515663,0,0,0
16283,552062.4186343425,2010-09-20 23:19:11,3091.562271529703,7,47,-1.099568486213684,3.450445890426636,48.15809647972712,48.230454700622815,191.75199822687333,176.6465943231342,-0.0003885269106831,0.0907677188515663,0,0,0
16284,552092.4338960286,2010-09-20 23:19:41,3121.577533210591,7,47,-1.099929690361023,3.4336097240448,48.15809647972712,48.23962346477072,191.75199822687333,176.67815695559364,-0.0005504131549969,0.0907677188515663,0,0,0
16285,552122.4492642102,2010-09-20 23:20:11,3151.5929013672594,7,47,-1.0997490882873535,3.411755323410034,48.15809647972712,48.24879239571235,191.75199822687333,176.70954420868074,-0.0006151676061563,0.0907677188515663,0,0,0
16286,552152.4644904427,2010-09-20 23:20:41,3181.6081276096875,7,47,-1.0997490882873535,3.3809969425201416,48.15809647972712,48.2579611723625,191.75199822687333,176.74069263586176,-0.0009389400365762,0.0907677188515663,0,0,0
16287,552182.479953887,2010-09-20 23:21:11,3211.6235910491955,7,47,-1.0997490882873535,3.3371260166168213,48.15809647972712,48.26713009259042,191.75199822687333,176.7715038665105,-0.0013274669181555,0.0907677188515663,0,0,0
16288,552212.4952931115,2010-09-20 23:21:41,3241.6389302736447,7,47,-1.099568486213684,3.2733428478240967,48.15809647972712,48.27629894258256,191.75199822687333,176.8018268986389,-0.0019750117789953,0.0907677188515663,0,0,0
16289,552242.5107282053,2010-09-20 23:22:11,3271.654365377423,7,47,-1.0997490882873535,3.179773092269897,48.15809647972712,48.28546776576395,191.75199822687333,176.83144115068234,-0.0030110359657555,0.0907677188515663,0,0,0
16290,552272.5259217261,2010-09-20 23:22:41,3301.6695588881475,7,47,-1.099568486213684,3.025172233581543,48.15809647972712,48.29463657717974,191.75199822687333,176.85996101055466,-0.0054393289610743,0.0907677188515663,0,0,0
16291,552290.2133764742,2010-09-20 23:22:59,3319.357013636346,7,47,-1.099568486213684,2.825081348419189,48.15809647972712,48.300039585403375,191.75199822687333,176.87584038348004,-0.0122061725705862,0.0907677188515663,0,0,0
16292,552297.3382991976,2010-09-20 23:23:06,3326.481936364617,7,47,-1.0997490882873535,2.699620008468628,48.15809647972712,48.30221601388934,191.75199822687333,176.88185445674844,-0.0143106933683156,0.0907677188515663,0,0,0
16293,552357.3608385229,2010-09-20 23:24:06,60.01501906065525,8,47,0.0,3.358170986175537,48.15809647972712,48.30221601388934,191.75199822687333,176.88185445674844,0.0014245987404137,0.0907677188515663,0,0,0
16294,552357.5567238482,2010-09-20 23:24:07,0.187633271512352,9,47,-1.9243103452026844e-05,3.358494758605957,48.15809647972712,48.3022160148923,191.75199822687333,176.88185446011687,0.0,0.0897949114441871,0,0,0
16295,552362.3872796837,2010-09-20 23:24:12,5.018189227340554,9,47,0.0005225847125984,3.367074728012085,48.1580973084051,48.302216014975485,191.7520010141292,176.88185446039626,0.0012303352123126,0.0897949114441871,0,0,0
