Data_Point,Test_Time(s),Date_Time,Step_Time(s),Step_Index,Cycle_Index,Current(A),Voltage(V),Charge_Capacity(Ah),Discharge_Capacity(Ah),Charge_Energy(Wh),Discharge_Energy(Wh),dV/dt(V/s),Internal_Resistance(Ohm),Is_FC_Data,AC_Impedance(Ohm),ACI_Phase_Angle(Deg)
9057,307768.01251893747,2010-09-18 03:27:12,30.01527503923255,1,27,0.0,3.3968617916107178,26.78272844352127,26.913542799251363,106.6744322107158,98.47870031360662,0.0007122993702068,0.086637258529663,0,0,0
9058,307798.0278271495,2010-09-18 03:27:42,60.03058327633208,1,27,0.0,3.4193639755249023,26.78272844352127,26.913542799251363,106.6744322107158,98.47870031360662,0.0005180359003134,0.086637258529663,0,0,0
9059,307828.0431794767,2010-09-18 03:28:12,90.04593559847466,1,27,0.0,3.4358761310577397,26.78272844352127,26.913542799251363,106.6744322107158,98.47870031360662,0.0004209041653666,0.086637258529663,0,0,0
9060,307858.01159337326,2010-09-18 03:28:42,120.01434950511084,1,27,0.0,3.448503255844116,26.78272844352127,26.913542799251363,106.6744322107158,98.47870031360662,0.0003237724304199,0.086637258529663,0,0,0
9061,307888.01528383273,2010-09-18 03:29:12,30.01530596141908,2,27,0.5501165986061096,3.5872395038604736,26.78731507968607,26.913542799251363,106.69073645981342,98.47870031360662,0.0014893531333655,0.086637258529663,0,0,0
9062,307918.0306387063,2010-09-18 03:29:42,60.030660834930266,2,27,0.550297200679779,3.6320817470550537,26.791901754214624,26.913542799251363,106.70729855502796,98.47870031360662,0.0010360718006268,0.086637258529663,0,0,0
9063,307948.0459661613,2010-09-18 03:30:12,90.04598831005086,2,27,0.5501165986061096,3.6654303073883057,26.79648840656538,26.913542799251363,106.72403697177928,98.47870031360662,0.0008094310760498,0.086637258529663,0,0,0
9064,307978.06126112025,2010-09-18 03:30:42,120.06128324895606,2,27,0.550297200679779,3.69197940826416,26.80107498811109,26.913542799251363,106.74091132639532,98.47870031360662,0.0006475448608398,0.086637258529663,0,0,0
9065,308008.07655819453,2010-09-18 03:31:12,150.0765803432414,2,27,0.5499359965324402,3.713834047317505,26.805661578079352,26.913542799251363,106.757896332963,98.47870031360662,0.0005180359003134,0.086637258529663,0,0,0
9066,308038.09188151424,2010-09-18 03:31:42,180.09190363792698,2,27,0.5501165986061096,3.7318034172058105,26.81024819411733,26.913542799251363,106.77497293003852,98.47870031360662,0.0004856586456298,0.086637258529663,0,0,0
9067,308068.10722128005,2010-09-18 03:32:12,210.10724340873952,2,27,0.5501165986061096,3.746049404144287,26.814834825371424,26.913542799251363,106.79212408479388,98.47870031360662,0.0003561496851034,0.086637258529663,0,0,0
9068,308098.1225292314,2010-09-18 03:32:42,240.12255136012587,2,27,0.5501165986061096,3.755600452423096,26.819421380420835,26.913542799251363,106.80932990104986,98.47870031360662,0.0002266406954731,0.086637258529663,0,0,0
9069,308128.13784209004,2010-09-18 03:33:13,270.13786423881146,2,27,0.5499359965324402,3.760942697525024,26.824007951098476,26.913542799251363,106.82656882584476,98.47870031360662,0.0001295089750783,0.086637258529663,0,0,0
9070,308158.1531805276,2010-09-18 03:33:43,300.15320267629585,2,27,0.550297200679779,3.7646660804748535,26.828594474619265,26.913542799251363,106.84382732251048,98.47870031360662,6.47544875391759e-05,0.086637258529663,0,0,0
9071,308188.16849566187,2010-09-18 03:34:13,330.16851778554934,2,27,0.5501165986061096,3.7679038047790527,26.833181081019603,26.913542799251363,106.861101358232,98.47870031360662,6.47544875391759e-05,0.086637258529663,0,0,0
9072,308218.1838001747,2010-09-18 03:34:43,360.18382230336493,2,27,0.5499359965324402,3.770655870437622,26.837767677621475,26.913542799251363,106.87838946642457,98.47870031360662,6.47544875391759e-05,0.086637258529663,0,0,0
9073,308248.19912502327,2010-09-18 03:35:13,390.1991472421545,2,27,0.5499359965324402,3.7737317085266113,26.84235430754577,26.913542799251363,106.89569167154326,98.47870031360662,6.47544875391759e-05,0.086637258529663,0,0,0
9074,308278.2144440673,2010-09-18 03:35:43,420.2144661960047,2,27,0.5499359965324402,3.7768075466156006,26.84694091029218,26.913542799251363,106.91300766900532,98.47870031360662,9.713172767078504e-05,0.086637258529663,0,0,0
9075,308308.22977418907,2010-09-18 03:36:13,450.2297964079568,2,27,0.5501165986061096,3.77972149848938,26.851527533274677,26.913542799251363,106.93033753978288,98.47870031360662,6.47544875391759e-05,0.086637258529663,0,0,0
9076,308338.2450768422,2010-09-18 03:36:43,480.245099061118,2,27,0.5501165986061096,3.782797336578369,26.856114144549096,26.913542799251363,106.9476809230195,98.47870031360662,9.713172767078504e-05,0.086637258529663,0,0,0
9077,308368.26041631226,2010-09-18 03:37:13,510.2604384610046,2,27,0.5501165986061096,3.785711288452149,26.860700797341263,26.913542799251363,106.96503799595308,98.47870031360662,6.47544875391759e-05,0.086637258529663,0,0,0
9078,308398.27571598795,2010-09-18 03:37:43,540.2757381367336,2,27,0.5499359965324402,3.788625240325928,26.86528739640263,26.913542799251363,106.98240815394344,98.47870031360662,6.47544875391759e-05,0.086637258529663,0,0,0
9079,308428.2911720741,2010-09-18 03:38:13,570.2911942028371,2,27,0.5501165986061096,3.791377305984497,26.86987404638056,26.913542799251363,106.99979170845803,98.47870031360662,6.47544875391759e-05,0.086637258529663,0,0,0
9080,308458.3064240408,2010-09-18 03:38:43,600.3064461694769,2,27,0.5501165986061096,3.794291257858277,26.874460654175564,26.913542799251363,107.01718811451704,98.47870031360662,3.237724376958795e-05,0.086637258529663,0,0,0
9081,308488.3219171544,2010-09-18 03:39:13,630.3219392830565,2,27,0.5501165986061096,3.7970433235168457,26.87904726203935,26.913542799251363,107.03459760015508,98.47870031360662,9.713172767078504e-05,0.086637258529663,0,0,0
9082,308518.33700104646,2010-09-18 03:39:43,660.337023170144,2,27,0.5501165986061096,3.799957275390625,26.883633882452227,26.913542799251363,107.05202028333028,98.47870031360662,6.47544875391759e-05,0.086637258529663,0,0,0
9083,308548.3523243361,2010-09-18 03:40:13,690.352346459817,2,27,0.550297200679779,3.802871227264404,26.88822053044121,26.913542799251363,107.06945628785977,98.47870031360662,9.713172767078504e-05,0.086637258529663,0,0,0
9084,308578.3678109786,2010-09-18 03:40:43,720.3678331373313,2,27,0.5501165986061096,3.8059470653533936,26.89280712634548,26.913542799251363,107.0869055699928,98.47870031360662,9.713172767078504e-05,0.086637258529663,0,0,0
9085,308608.38295233913,2010-09-18 03:41:13,750.3829744577811,2,27,0.550297200679779,3.808861017227173,26.897393755516724,26.913542799251363,107.10436888764484,98.47870031360662,3.237724376958795e-05,0.086637258529663,0,0,0
9086,308638.39842816954,2010-09-18 03:41:43,780.398450313282,2,27,0.5501165986061096,3.811936855316162,26.901980370669424,26.913542799251363,107.12184642283232,98.47870031360662,3.237724376958795e-05,0.086637258529663,0,0,0
9087,308668.4137300959,2010-09-18 03:42:13,810.4137522195787,2,27,0.5501165986061096,3.815498352050781,26.906567011818364,26.913542799251363,107.13933914409468,98.47870031360662,9.713172767078504e-05,0.086637258529663,0,0,0
9088,308698.4289260728,2010-09-18 03:42:43,840.4289482014722,2,27,0.5501165986061096,3.8188979625701904,26.91115359821645,26.913542799251363,107.15684700184003,98.47870031360662,9.713172767078504e-05,0.086637258529663,0,0,0
9089,308728.4443588708,2010-09-18 03:43:13,870.4443809994949,2,27,0.5501165986061096,3.8222975730896,26.91574020644124,26.913542799251363,107.17437063534024,98.47870031360662,9.713172767078504e-05,0.086637258529663,0,0,0
9090,308758.4595655745,2010-09-18 03:43:43,900.4595876981388,2,27,0.5501165986061096,3.8258590698242183,26.920326775741877,26.913542799251363,107.19190994065065,98.47870031360662,9.713172767078504e-05,0.086637258529663,0,0,0
9091,308788.47502655786,2010-09-18 03:44:13,930.4750487115916,2,27,0.5501165986061096,3.829096794128418,26.924913353846847,26.913542799251363,107.20946512161348,98.47870031360662,6.47544875391759e-05,0.086637258529663,0,0,0
9092,308818.49018993834,2010-09-18 03:44:43,960.4902120770696,2,27,0.5499359965324402,3.832658290863037,26.929499880670733,26.913542799251363,107.22703572733091,98.47870031360662,9.713172767078504e-05,0.086637258529663,0,0,0
9093,308848.5056345158,2010-09-18 03:45:13,990.5056566444704,2,27,0.5501165986061096,3.835895776748657,26.934086446887605,26.913542799251363,107.24462192837854,98.47870031360662,9.713172767078504e-05,0.086637258529663,0,0,0
9094,308878.52084813674,2010-09-18 03:45:43,1020.520870380681,2,27,0.5501165986061096,3.839133501052856,26.93867295209963,26.913542799251363,107.26222308549116,98.47870031360662,9.713172767078504e-05,0.086637258529663,0,0,0
9095,308908.5361813511,2010-09-18 03:46:13,1050.5362035700653,2,27,0.550297200679779,3.842694997787476,26.943259516230757,26.913542799251363,107.27983942589654,98.47870031360662,0.0001295089750783,0.086637258529663,0,0,0
9096,308938.5514807161,2010-09-18 03:46:43,1080.5515028397808,2,27,0.550297200679779,3.845770835876465,26.94784614951381,26.913542799251363,107.29747070230974,98.47870031360662,9.713172767078504e-05,0.086637258529663,0,0,0
9097,308968.56694278715,2010-09-18 03:47:13,1110.5669649208987,2,27,0.5501165986061096,3.848522901535034,26.95243279845941,26.913542799251363,107.3151164094148,98.47870031360662,3.237724376958795e-05,0.086637258529663,0,0,0
9098,308998.5821325636,2010-09-18 03:47:43,1140.5821547073267,2,27,0.5501165986061096,3.8517606258392334,26.95701941910378,26.913542799251363,107.33277608261253,98.47870031360662,6.47544875391759e-05,0.086637258529663,0,0,0
9099,309028.5976496821,2010-09-18 03:48:13,1170.5976718107893,2,27,0.550297200679779,3.8546745777130127,26.961606130091457,26.913542799251363,107.35044970833732,98.47870031360662,9.713172767078504e-05,0.086637258529663,0,0,0
9100,309058.6128834633,2010-09-18 03:48:43,1200.6129055970482,2,27,0.5501165986061096,3.857588529586792,26.96619268590643,26.913542799251363,107.36813589661708,98.47870031360662,6.47544875391759e-05,0.086637258529663,0,0,0
9101,309088.6280684477,2010-09-18 03:49:13,1230.628090571465,2,27,0.5499359965324402,3.860016822814941,26.97077931190508,26.913542799251363,107.38583496394386,98.47870031360662,3.237724376958795e-05,0.086637258529663,0,0,0
9102,309118.64352458407,2010-09-18 03:49:43,1260.6435467127562,2,27,0.5499359965324402,3.862607002258301,26.975365962339595,26.913542799251363,107.40354610312237,98.47870031360662,3.237724376958795e-05,0.086637258529663,0,0,0
9103,309148.65873188927,2010-09-18 03:50:13,1290.658754017914,2,27,0.550297200679779,3.86503529548645,26.97995259770588,26.913542799251363,107.42126843245192,98.47870031360662,3.237724376958795e-05,0.086637258529663,0,0,0
9104,309178.6740386677,2010-09-18 03:50:43,1320.67406079136,2,27,0.550297200679779,3.8674635887146,26.98453917517999,26.913542799251363,107.43900114691408,98.47870031360662,6.47544875391759e-05,0.086637258529663,0,0,0
9105,309208.6897714746,2010-09-18 03:51:13,1350.6897936132889,2,27,0.5501165986061096,3.869406223297119,26.989125907488585,26.913542799251363,107.45674440790468,98.47870031360662,3.237724376958795e-05,0.086637258529663,0,0,0
9106,309238.7046733323,2010-09-18 03:51:43,1380.7046954609775,2,27,0.550297200679779,3.8715107440948486,26.993712457164108,26.913542799251363,107.47449622592796,98.47870031360662,9.713172767078504e-05,0.086637258529663,0,0,0
9107,309268.7200002109,2010-09-18 03:52:13,1410.7200223345967,2,27,0.5501165986061096,3.873129606246948,26.998299088523105,26.913542799251363,107.49225692119651,98.47870031360662,3.237724376958795e-05,0.086637258529663,0,0,0
9108,309298.73543553526,2010-09-18 03:52:43,1440.7354576739633,2,27,0.5501165986061096,3.874748468399048,27.00288577345296,26.913542799251363,107.51002565738372,98.47870031360662,3.237724376958795e-05,0.086637258529663,0,0,0
9109,309328.75063067,2010-09-18 03:53:13,1470.7506528037293,2,27,0.5501165986061096,3.876367330551148,27.007472343863324,26.913542799251363,107.52780129034028,98.47870031360662,0.0,0.086637258529663,0,0,0
9110,309358.76597808494,2010-09-18 03:53:43,1500.76600021361,2,27,0.550297200679779,3.877662420272827,27.01205896800131,26.913542799251363,107.54558387941395,98.47870031360662,3.237724376958795e-05,0.086637258529663,0,0,0
9111,309388.7813050789,2010-09-18 03:54:13,1530.7813273027673,2,27,0.550297200679779,3.879119396209717,27.01664561320732,26.913542799251363,107.5633729225198,98.47870031360662,3.237724376958795e-05,0.086637258529663,0,0,0
9112,309418.7966869297,2010-09-18 03:54:43,1560.7967091736682,2,27,0.5501165986061096,3.880414485931397,27.021232268318908,26.913542799251363,107.58116791206044,98.47870031360662,9.713172767078504e-05,0.086637258529663,0,0,0
9113,309448.8120371616,2010-09-18 03:55:13,1590.8120592953178,2,27,0.5499359965324402,3.881547689437866,27.025818876224545,26.913542799251363,107.59896846244348,98.47870031360662,3.237724376958795e-05,0.086637258529663,0,0,0
9114,309478.82723166986,2010-09-18 03:55:43,1620.82725379852,2,27,0.5501165986061096,3.882680892944336,27.030405496479972,26.913542799251363,107.61677451956749,98.47870031360662,-3.237724376958795e-05,0.086637258529663,0,0,0
9115,309508.84268797655,2010-09-18 03:56:13,1650.8427101152492,2,27,0.5501165986061096,3.8841378688812256,27.034992076904,26.913542799251363,107.63458575799514,98.47870031360662,6.47544875391759e-05,0.086637258529663,0,0,0
9116,309538.85800864967,2010-09-18 03:56:43,1680.858030778366,2,27,0.5501165986061096,3.8849472999572754,27.039578717097037,26.913542799251363,107.65240238530204,98.47870031360662,0.0,0.086637258529663,0,0,0
9117,309568.8732002055,2010-09-18 03:57:13,1710.8732223291986,2,27,0.5499359965324402,3.886242389678955,27.044165256759168,26.913542799251363,107.67022380148464,98.47870031360662,6.47544875391759e-05,0.086637258529663,0,0,0
9118,309598.8885201017,2010-09-18 03:57:43,1740.8885422254011,2,27,0.550297200679779,3.887375593185425,27.04875182578988,26.913542799251363,107.68805046070436,98.47870031360662,3.237724376958795e-05,0.086637258529663,0,0,0
9119,309628.90385303047,2010-09-18 03:58:13,1770.9038751791977,2,27,0.5499359965324402,3.8881850242614746,27.053338420352663,26.913542799251363,107.70588230424568,98.47870031360662,-3.237724376958795e-05,0.086637258529663,0,0,0
9120,309658.9193030715,2010-09-18 03:58:43,1800.919325225274,2,27,0.5501165986061096,3.8894801139831534,27.057925066035747,26.913542799251363,107.7237194905126,98.47870031360662,0.0,0.086637258529663,0,0,0
9121,309688.9344736851,2010-09-18 03:59:13,1830.9344958087688,2,27,0.5501165986061096,3.890613317489624,27.062511628052484,26.913542799251363,107.74156131419312,98.47870031360662,3.237724376958795e-05,0.086637258529663,0,0,0
9122,309718.9499245332,2010-09-18 03:59:43,1860.94994666186,2,27,0.5501165986061096,3.8917465209960938,27.06709826784072,26.913542799251363,107.7594085950118,98.47870031360662,3.237724376958795e-05,0.086637258529663,0,0,0
9123,309748.9677459636,2010-09-18 04:00:13,1890.9677681774888,2,27,0.5499359965324402,3.8927178382873535,27.07168527261667,26.913542799251363,107.77726237892688,98.47870031360662,3.237724376958795e-05,0.086637258529663,0,0,0
9124,309778.9804640503,2010-09-18 04:00:43,1920.9804861739497,2,27,0.550297200679779,3.894012928009033,27.0762714657262,26.913542799251363,107.79511814258171,98.47870031360662,6.47544875391759e-05,0.086637258529663,0,0,0
9125,309808.9957683275,2010-09-18 04:01:13,1950.9957904561768,2,27,0.550297200679779,3.894984245300293,27.08085815547298,26.913542799251363,107.81298095598848,98.47870031360662,3.237724376958795e-05,0.086637258529663,0,0,0
9126,309839.01111000305,2010-09-18 04:01:43,1981.011132126732,2,27,0.5499359965324402,3.8959555625915527,27.085444789266564,26.913542799251363,107.83084821504112,98.47870031360662,0.0,0.086637258529663,0,0,0
9127,309869.02641998953,2010-09-18 04:02:13,2011.0264421382608,2,27,0.5501165986061096,3.8974125385284415,27.09003141013438,26.913542799251363,107.8487208553517,98.47870031360662,3.237724376958795e-05,0.086637258529663,0,0,0
9128,309899.04185607075,2010-09-18 04:02:43,2041.0418782094537,2,27,0.5501165986061096,3.898383855819702,27.09461805853492,26.913542799251363,107.86659883203696,98.47870031360662,0.0,0.086637258529663,0,0,0
9129,309929.0570508095,2010-09-18 04:03:13,2071.057072933206,2,27,0.5501165986061096,3.899678945541382,27.099204598384425,26.913542799251363,107.88448175451953,98.47870031360662,3.237724376958795e-05,0.086637258529663,0,0,0
9130,309959.0723970715,2010-09-18 04:03:43,2101.0724192002344,2,27,0.5499359965324402,3.900812149047852,27.103791270160883,26.913542799251363,107.90237048427184,98.47870031360662,3.237724376958795e-05,0.086637258529663,0,0,0
9131,309989.08789830044,2010-09-18 04:04:13,2131.087920544359,2,27,0.5499359965324402,3.901945352554321,27.108377924887023,26.913542799251363,107.92026460370244,98.47870031360662,3.237724376958795e-05,0.086637258529663,0,0,0
9132,310019.10301214724,2010-09-18 04:04:43,2161.1030342759423,2,27,0.5501165986061096,3.903078556060791,27.11296450167568,26.913542799251363,107.93816385895862,98.47870031360662,3.237724376958795e-05,0.086637258529663,0,0,0
9133,310049.11834493565,2010-09-18 04:05:14,2191.118367059313,2,27,0.5501165986061096,3.904373645782471,27.11755109695795,26.913542799251363,107.9560687402963,98.47870031360662,3.237724376958795e-05,0.086637258529663,0,0,0
9134,310079.133648862,2010-09-18 04:05:44,2221.133671015728,2,27,0.5501165986061096,3.9053449630737305,27.122137717923447,26.913542799251363,107.97397923674,98.47870031360662,0.0,0.086637258529663,0,0,0
9135,310109.148977099,2010-09-18 04:06:14,2251.148999222675,2,27,0.5501165986061096,3.90680193901062,27.126724259413223,26.913542799251363,107.99189503794156,98.47870031360662,6.47544875391759e-05,0.086637258529663,0,0,0
9136,310139.1642858574,2010-09-18 04:06:44,2281.164307981076,2,27,0.5501165986061096,3.9080970287323,27.131310875421665,26.913542799251363,108.00981686695664,98.47870031360662,3.237724376958795e-05,0.086637258529663,0,0,0
9137,310169.1795952173,2010-09-18 04:07:14,2311.1796173459907,2,27,0.5501165986061096,3.9092302322387695,27.135897955386813,26.913542799251363,108.02774625479744,98.47870031360662,3.237724376958795e-05,0.086637258529663,0,0,0
9138,310199.19491034164,2010-09-18 04:07:44,2341.194932500357,2,27,0.5499359965324402,3.9103634357452393,27.140485401353583,26.913542799251363,108.04568289929406,98.47870031360662,0.0,0.086637258529663,0,0,0
9139,310229.210251967,2010-09-18 04:08:14,2371.210274100736,2,27,0.5501165986061096,3.911820411682129,27.14507265129122,26.913542799251363,108.06362460364195,98.47870031360662,3.237724376958795e-05,0.086637258529663,0,0,0
9140,310259.2255711214,2010-09-18 04:08:44,2401.2255932500743,2,27,0.550297200679779,3.9131155014038086,27.14966009169185,26.913542799251363,108.08157305055244,98.47870031360662,3.237724376958795e-05,0.086637258529663,0,0,0
9141,310289.24087069684,2010-09-18 04:09:14,2431.240892825553,2,27,0.550297200679779,3.914572238922119,27.154247632465868,26.913542799251363,108.0995279182876,98.47870031360662,6.47544875391759e-05,0.086637258529663,0,0,0
9142,310319.25619187125,2010-09-18 04:09:44,2461.2562139999463,2,27,0.550297200679779,3.915705442428589,27.158835106235447,26.913542799251363,108.11748853893648,98.47870031360662,3.237724376958795e-05,0.086637258529663,0,0,0
9143,310349.2715655868,2010-09-18 04:10:14,2491.2715878057147,2,27,0.5501165986061096,3.9171624183654794,27.16342220674117,26.913542799251363,108.13545373247229,98.47870031360662,0.0,0.086637258529663,0,0,0
9144,310379.28696138243,2010-09-18 04:10:44,2521.286983521174,2,27,0.5501165986061096,3.918619394302368,27.1680089153522,26.913542799251363,108.15342366929518,98.47870031360662,6.47544875391759e-05,0.086637258529663,0,0,0
9145,310409.3022896195,2010-09-18 04:11:14,2551.302311753184,2,27,0.5501165986061096,3.919752597808838,27.17259550036892,26.913542799251363,108.17139937037334,98.47870031360662,6.47544875391759e-05,0.086637258529663,0,0,0
9146,310439.31772896386,2010-09-18 04:11:44,2581.3177512078223,2,27,0.5501165986061096,3.921209573745728,27.17718215180286,26.913542799251363,108.18938155791786,98.47870031360662,3.237724376958795e-05,0.086637258529663,0,0,0
9147,310469.3329539431,2010-09-18 04:12:14,2611.332976101885,2,27,0.5501165986061096,3.922828435897827,27.18176871071845,26.913542799251363,108.20736972734557,98.47870031360662,9.713172767078504e-05,0.086637258529663,0,0,0
9148,310499.348276115,2010-09-18 04:12:44,2641.3482982587307,2,27,0.5501165986061096,3.924123525619507,27.18635529778942,26.913542799251363,108.22536442768534,98.47870031360662,6.47544875391759e-05,0.086637258529663,0,0,0
9149,310529.3635173799,2010-09-18 04:13:14,2671.36353950862,2,27,0.550297200679779,3.925580501556397,27.190941911641684,26.913542799251363,108.24336582865492,98.47870031360662,3.237724376958795e-05,0.086637258529663,0,0,0
9150,310559.3787922487,2010-09-18 04:13:44,2701.378814377427,2,27,0.550297200679779,3.926875591278076,27.195528614133824,26.913542799251363,108.26137405644386,98.47870031360662,3.237724376958795e-05,0.086637258529663,0,0,0
9151,310589.39413574385,2010-09-18 04:14:14,2731.394157872536,2,27,0.5501165986061096,3.928332567214966,27.200115307803006,26.913542799251363,108.27938886932417,98.47870031360662,3.237724376958795e-05,0.086637258529663,0,0,0
9152,310619.40939633705,2010-09-18 04:14:44,2761.4094184657088,2,27,0.5501165986061096,3.929789543151856,27.204701905521524,26.913542799251363,108.29741001293644,98.47870031360662,6.47544875391759e-05,0.086637258529663,0,0,0
9153,310649.4248553555,2010-09-18 04:15:14,2791.4248774942066,2,27,0.5501165986061096,3.931408405303955,27.209288598694656,26.913542799251363,108.31543834715151,98.47870031360662,6.47544875391759e-05,0.086637258529663,0,0,0
9154,310679.4400838285,2010-09-18 04:15:44,2821.4401059822403,2,27,0.5499359965324402,3.9327034950256343,27.21387531035005,26.913542799251363,108.33347350285342,98.47870031360662,0.0,0.086637258529663,0,0,0
9155,310709.4553959753,2010-09-18 04:16:14,2851.455418219324,2,27,0.550297200679779,3.934484243392944,27.218462001205,26.913542799251363,108.35151539358196,98.47870031360662,9.713172767078504e-05,0.086637258529663,0,0,0
9156,310739.47069724003,2010-09-18 04:16:44,2881.4707193737445,2,27,0.5501165986061096,3.935941219329834,27.223048774794343,26.913542799251363,108.36956451796624,98.47870031360662,3.237724376958795e-05,0.086637258529663,0,0,0
9157,310769.4860261487,2010-09-18 04:17:14,2911.486048372669,2,27,0.5501165986061096,3.9372363090515137,27.22763559799133,26.913542799251363,108.3876206299291,98.47870031360662,3.237724376958795e-05,0.086637258529663,0,0,0
9158,310799.5013402304,2010-09-18 04:17:44,2941.501362454357,2,27,0.5501165986061096,3.9386932849884033,27.23222231556761,26.913542799251363,108.40568342341668,98.47870031360662,0.0,0.086637258529663,0,0,0
9159,310829.5166718058,2010-09-18 04:18:14,2971.5166940297127,2,27,0.5501165986061096,3.940474033355713,27.23680906770907,26.913542799251363,108.42375343406624,98.47870031360662,6.47544875391759e-05,0.086637258529663,0,0,0
9160,310859.53210081934,2010-09-18 04:18:44,3001.5321230432887,2,27,0.5501165986061096,3.9419310092926025,27.24139588675097,26.913542799251363,108.4418308598821,98.47870031360662,6.47544875391759e-05,0.086637258529663,0,0,0
9161,310889.5473179892,2010-09-18 04:19:14,3031.5473401378827,2,27,0.5501165986061096,3.943549871444702,27.245982585197204,26.913542799251363,108.45991504184198,98.47870031360662,3.237724376958795e-05,0.086637258529663,0,0,0
9162,310919.56275751896,2010-09-18 04:19:44,3061.562779647659,2,27,0.550297200679779,3.9451687335968018,27.25056934643244,26.913542799251363,108.47800672088088,98.47870031360662,3.237724376958795e-05,0.086637258529663,0,0,0
9163,310949.57825060247,2010-09-18 04:20:14,3091.5782728264016,2,27,0.5501165986061096,3.946787595748901,27.255156045712567,26.913542799251363,108.49610550351852,98.47870031360662,6.47544875391759e-05,0.086637258529663,0,0,0
9164,310979.5933870207,2010-09-18 04:20:44,3121.5934091594017,2,27,0.5501165986061096,3.948406457901001,27.25974281388977,26.913542799251363,108.51421188291702,98.47870031360662,3.237724376958795e-05,0.086637258529663,0,0,0
9165,311009.6085745966,2010-09-18 04:21:14,3151.6085967252875,2,27,0.550297200679779,3.9500253200531006,27.264329550652416,26.913542799251363,108.53232565322536,98.47870031360662,9.713172767078504e-05,0.086637258529663,0,0,0
9166,311039.6239404325,2010-09-18 04:21:44,3181.6239625661747,2,27,0.5501165986061096,3.9516441822052,27.268916283568817,26.913542799251363,108.55044700364252,98.47870031360662,0.0,0.086637258529663,0,0,0
9167,311069.6392272962,2010-09-18 04:22:14,3211.6392494249108,2,27,0.5501165986061096,3.9532630443573,27.27350298722689,26.913542799251363,108.56857579940215,98.47870031360662,3.237724376958795e-05,0.086637258529663,0,0,0
9168,311099.6545337739,2010-09-18 04:22:44,3241.6545559226684,2,27,0.5501165986061096,3.9548819065094,27.27808975765259,26.913542799251363,108.5867125856476,98.47870031360662,3.237724376958795e-05,0.086637258529663,0,0,0
9169,311129.6702334782,2010-09-18 04:23:14,3271.670255631943,2,27,0.5501165986061096,3.956824541091919,27.28267654492909,26.913542799251363,108.6048571925456,98.47870031360662,9.713172767078504e-05,0.086637258529663,0,0,0
9170,311159.6852081125,2010-09-18 04:23:44,3301.685230241256,2,27,0.550297200679779,3.9584434032440186,27.28726316934387,26.913542799251363,108.62300891340448,98.47870031360662,6.47544875391759e-05,0.086637258529663,0,0,0
9171,311189.7005517731,2010-09-18 04:24:14,3331.700573921828,2,27,0.5501165986061096,3.960224151611328,27.291849903514407,26.913542799251363,108.64116917005924,98.47870031360662,6.47544875391759e-05,0.086637258529663,0,0,0
9172,311219.7159768067,2010-09-18 04:24:44,3361.715998940432,2,27,0.5501165986061096,3.9620048999786377,27.29643663628044,26.913542799251363,108.65933751752534,98.47870031360662,6.47544875391759e-05,0.086637258529663,0,0,0
9173,311249.7311620769,2010-09-18 04:25:14,3391.731184205575,2,27,0.5499359965324402,3.963623762130737,27.30102334407051,26.913542799251363,108.67751385239993,98.47870031360662,3.237724376958795e-05,0.086637258529663,0,0,0
9174,311279.7466189099,2010-09-18 04:25:44,3421.7466410486177,2,27,0.5501165986061096,3.965566396713257,27.305610116897046,26.913542799251363,108.69569876914592,98.47870031360662,3.237724376958795e-05,0.086637258529663,0,0,0
9175,311309.7618374631,2010-09-18 04:26:14,3451.7618595918275,2,27,0.550297200679779,3.967185258865357,27.310196929116117,26.913542799251363,108.71389221501953,98.47870031360662,-3.237724376958795e-05,0.086637258529663,0,0,0
9176,311339.7771343319,2010-09-18 04:26:44,3481.7771564605496,2,27,0.5501165986061096,3.969289779663086,27.314783680186977,26.913542799251363,108.73209375212872,98.47870031360662,6.47544875391759e-05,0.086637258529663,0,0,0
9177,311369.7925783328,2010-09-18 04:27:14,3511.7926004815863,2,27,0.5501165986061096,3.971070528030396,27.31937048916464,26.913542799251363,108.7503041232757,98.47870031360662,3.237724376958795e-05,0.086637258529663,0,0,0
9178,311399.8077785202,2010-09-18 04:27:44,3541.807800648928,2,27,0.550297200679779,3.973013162612915,27.323957271222408,26.913542799251363,108.76852303349068,98.47870031360662,6.47544875391759e-05,0.086637258529663,0,0,0
9179,311429.8231318499,2010-09-18 04:28:14,3571.8231539785847,2,27,0.5501165986061096,3.9747939109802246,27.328544073992703,26.913542799251363,108.78675080537292,98.47870031360662,0.0,0.086637258529663,0,0,0
9180,311459.83842184144,2010-09-18 04:28:44,3601.838443970141,2,27,0.550297200679779,3.977060317993164,27.333130849957087,26.913542799251363,108.80498735101766,98.47870031360662,6.47544875391759e-05,0.086637258529663,0,0,0
9181,311489.85373470007,2010-09-18 04:29:14,3631.853756828777,2,27,0.5501165986061096,3.978679180145264,27.33771764148468,26.913542799251363,108.82323252394607,98.47870031360662,6.47544875391759e-05,0.086637258529663,0,0,0
9182,311519.8690796539,2010-09-18 04:29:44,3661.8691018978143,2,27,0.5501165986061096,3.980945587158203,27.34230434684488,26.913542799251363,108.84148690652763,98.47870031360662,9.713172767078504e-05,0.086637258529663,0,0,0
9183,311549.8848528866,2010-09-18 04:30:14,3691.884875015327,2,27,0.550297200679779,3.982888221740722,27.346891178248484,26.913542799251363,108.85975100889948,98.47870031360662,3.237724376958795e-05,0.086637258529663,0,0,0
9184,311579.8997312507,2010-09-18 04:30:44,3721.8997534746345,2,27,0.550297200679779,3.984992742538452,27.351477850594467,26.913542799251363,108.87802371142551,98.47870031360662,9.713172767078504e-05,0.086637258529663,0,0,0
9185,311609.9150168262,2010-09-18 04:31:14,3751.91503895493,2,27,0.550297200679779,3.986935377120972,27.356064575399017,26.913542799251363,108.89630598048235,98.47870031360662,3.237724376958795e-05,0.086637258529663,0,0,0
9186,311639.93034546426,2010-09-18 04:31:44,3781.9303675929536,2,27,0.5501165986061096,3.988878011703491,27.36065135111041,26.913542799251363,108.91459786763592,98.47870031360662,3.237724376958795e-05,0.086637258529663,0,0,0
9187,311669.9482824782,2010-09-18 04:32:14,3811.9483047021217,2,27,0.550297200679779,3.9913063049316406,27.365238454680995,26.913542799251363,108.93290052379524,98.47870031360662,9.713172767078504e-05,0.086637258529663,0,0,0
9188,311699.9609970661,2010-09-18 04:32:44,3841.961019194837,2,27,0.5501165986061096,3.99324893951416,27.36982470173925,26.913542799251363,108.951209400717,98.47870031360662,9.713172767078504e-05,0.086637258529663,0,0,0
9189,311729.97633373423,2010-09-18 04:33:14,3871.9763558829545,2,27,0.5501165986061096,3.995353221893311,27.37441142897464,26.913542799251363,108.96952978697855,98.47870031360662,6.47544875391759e-05,0.086637258529663,0,0,0
9190,311759.99176044203,2010-09-18 04:33:44,3901.991782575737,2,27,0.5501165986061096,3.99745774269104,27.37899808488661,26.913542799251363,108.98785965827804,98.47870031360662,6.47544875391759e-05,0.086637258529663,0,0,0
9191,311790.00696212315,2010-09-18 04:34:14,3932.006984251844,2,27,0.5501165986061096,3.9995622634887695,27.38358476260843,26.913542799251363,109.00619938108468,98.47870031360662,6.47544875391759e-05,0.086637258529663,0,0,0
9192,311820.02227489656,2010-09-18 04:34:44,3962.022297025267,2,27,0.5501165986061096,4.001828670501709,27.38817146084788,26.913542799251363,109.02454906267208,98.47870031360662,6.47544875391759e-05,0.086637258529663,0,0,0
9193,311850.0375907326,2010-09-18 04:35:14,3992.0376128613343,2,27,0.5499359965324402,4.0037713050842285,27.39275814870842,26.913542799251363,109.042908659649,98.47870031360662,3.23295607813634e-05,0.086637258529663,0,0,0
9194,311880.0529173306,2010-09-18 04:35:44,4022.052939464279,2,27,0.5501165986061096,4.006037712097168,27.39734488935202,26.913542799251363,109.06127849005338,98.47870031360662,0.0,0.086637258529663,0,0,0
9195,311910.06845831865,2010-09-18 04:36:14,4052.068480567648,2,27,0.5501165986061096,4.008304119110107,27.40193169102353,26.913542799251363,109.07965868719675,98.47870031360662,3.23295607813634e-05,0.086637258529663,0,0,0
9196,311940.08359927824,2010-09-18 04:36:44,4082.0836214319584,2,27,0.5501165986061096,4.010570526123047,27.40651840382836,26.913542799251363,109.09804858786246,98.47870031360662,9.70840483205393e-05,0.086637258529663,0,0,0
9197,311970.09887532494,2010-09-18 04:37:15,4112.098897458656,2,27,0.5499359965324402,4.012836933135986,27.41110511256588,26.913542799251363,109.11644873823109,98.47870031360662,6.47544875391759e-05,0.086637258529663,0,0,0
9198,312000.1141974617,2010-09-18 04:37:45,4142.114219590439,2,27,0.5501165986061096,4.015103340148926,27.41569187332948,26.913542799251363,109.13485938622868,98.47870031360662,6.47544875391759e-05,0.086637258529663,0,0,0
9199,312030.12952494685,2010-09-18 04:38:15,4172.129547075585,2,27,0.550297200679779,4.017369747161865,27.420278655889017,26.913542799251363,109.15328050424166,98.47870031360662,9.70840483205393e-05,0.086637258529663,0,0,0
9200,312060.1448197555,2010-09-18 04:38:45,4202.144841884165,2,27,0.5501165986061096,4.019312381744385,27.42486540453873,26.913542799251363,109.17171185311942,98.47870031360662,3.23295607813634e-05,0.086637258529663,0,0,0
9201,312090.1601374211,2010-09-18 04:39:15,4232.1601595498,2,27,0.5501165986061096,4.021740913391113,27.42945203240209,26.913542799251363,109.19015319783256,98.47870031360662,6.47544875391759e-05,0.086637258529663,0,0,0
9202,312120.1755089512,2010-09-18 04:39:45,4262.175531079887,2,27,0.5501165986061096,4.024331092834473,27.434038682013245,26.913542799251363,109.20860543466878,98.47870031360662,9.71794142969884e-05,0.086637258529663,0,0,0
9203,312150.19089021056,2010-09-18 04:40:15,4292.190912359312,2,27,0.5501165986061096,4.026597499847412,27.43862537254264,26.913542799251363,109.22706868284725,98.47870031360662,6.47544875391759e-05,0.086637258529663,0,0,0
9204,312180.2066218445,2010-09-18 04:40:45,4322.206644093526,2,27,0.5501165986061096,4.028863906860352,27.443212149418024,26.913542799251363,109.24554317604584,98.47870031360662,3.24249267578125e-05,0.086637258529663,0,0,0
9205,312210.22146673506,2010-09-18 04:41:15,4352.221488863741,2,27,0.5501165986061096,4.031291961669922,27.447798802946757,26.913542799251363,109.26402808014927,98.47870031360662,3.23295607813634e-05,0.086637258529663,0,0,0
9206,312240.2369436181,2010-09-18 04:41:45,4382.236965746806,2,27,0.5501165986061096,4.03372049331665,27.452385499985382,26.913542799251363,109.28252423823427,98.47870031360662,6.47544875391759e-05,0.086637258529663,0,0,0
9207,312270.25225110335,2010-09-18 04:42:15,4412.252273242055,2,27,0.550297200679779,4.036148548126221,27.45697223732584,26.913542799251363,109.30103179683844,98.47870031360662,3.24249267578125e-05,0.086637258529663,0,0,0
9208,312300.2674428697,2010-09-18 04:42:45,4442.2674649984,2,27,0.550297200679779,4.03873872756958,27.461558942157968,26.913542799251363,109.31955053257306,98.47870031360662,3.24249267578125e-05,0.086637258529663,0,0,0
9209,312330.28288732184,2010-09-18 04:43:15,4472.282909455525,2,27,0.550297200679779,4.04132890701294,27.46614572588165,26.913542799251363,109.33808093132257,98.47870031360662,3.24249267578125e-05,0.086637258529663,0,0,0
9210,312360.2982506564,2010-09-18 04:43:45,4502.298272790157,2,27,0.550297200679779,4.04375696182251,27.47073244673976,26.913542799251363,109.35662263674072,98.47870031360662,6.47544875391759e-05,0.086637258529663,0,0,0
9211,312390.31353376084,2010-09-18 04:44:15,4532.313555899534,2,27,0.5501165986061096,4.046347141265869,27.475319191097,26.913542799251363,109.37517605823678,98.47870031360662,9.70840483205393e-05,0.086637258529663,0,0,0
9212,312420.32884874474,2010-09-18 04:44:45,4562.3288709737,2,27,0.550297200679779,4.0489373207092285,27.47990588407808,26.913542799251363,109.39374096200832,98.47870031360662,9.70840483205393e-05,0.086637258529663,0,0,0
9213,312450.3440360149,2010-09-18 04:45:15,4592.344058148609,2,27,0.5501165986061096,4.051365852355957,27.484492650334225,26.913542799251363,109.41231804131716,98.47870031360662,3.24249267578125e-05,0.086637258529663,0,0,0
9214,312480.3593714499,2010-09-18 04:45:45,4622.359393578587,2,27,0.5501165986061096,4.054117679595947,27.489079403517344,26.913542799251363,109.43090697275498,98.47870031360662,6.47544875391759e-05,0.086637258529663,0,0,0
9215,312510.37469817314,2010-09-18 04:46:15,4652.37472030183,2,27,0.550297200679779,4.056707859039307,27.49366617906597,26.913542799251363,109.44950808263128,98.47870031360662,6.47544875391759e-05,0.086637258529663,0,0,0
9216,312540.3900108764,2010-09-18 04:46:45,4682.390033005078,2,27,0.5501165986061096,4.059298038482666,27.49825296228044,26.913542799251363,109.46812139626286,98.47870031360662,6.47544875391759e-05,0.086637258529663,0,0,0
9217,312570.405346171,2010-09-18 04:47:15,4712.405368319767,2,27,0.550297200679779,4.062050342559815,27.502839751122423,26.913542799251363,109.48674675824564,98.47870031360662,9.71794142969884e-05,0.086637258529663,0,0,0
9218,312600.4206481876,2010-09-18 04:47:45,4742.420670316289,2,27,0.5501165986061096,4.064802169799805,27.50742646389005,26.913542799251363,109.50538416900312,98.47870031360662,9.70840483205393e-05,0.086637258529663,0,0,0
9219,312630.43597796344,2010-09-18 04:48:15,4772.436000092153,2,27,0.5501165986061096,4.067392349243164,27.512013192672107,26.913542799251363,109.52403419487756,98.47870031360662,6.47544875391759e-05,0.086637258529663,0,0,0
9220,312660.4512905013,2010-09-18 04:48:45,4802.451312629987,2,27,0.550297200679779,4.070306301116943,27.516599938156496,26.913542799251363,109.5426969707894,98.47870031360662,6.47544875391759e-05,0.086637258529663,0,0,0
9221,312690.46668615664,2010-09-18 04:49:15,4832.466708475772,2,27,0.5501165986061096,4.073058605194092,27.52118665140777,26.913542799251363,109.5613723554082,98.47870031360662,6.47544875391759e-05,0.086637258529663,0,0,0
9222,312720.48193493026,2010-09-18 04:49:45,4862.481957058966,2,27,0.5501165986061096,4.075972557067871,27.52577336601478,26.913542799251363,109.58006062855138,98.47870031360662,9.71794142969884e-05,0.086637258529663,0,0,0
9223,312750.4972708865,2010-09-18 04:50:15,4892.497293015257,2,27,0.5501165986061096,4.078724384307861,27.53036006719488,26.913542799251363,109.59876181304736,98.47870031360662,9.70840483205393e-05,0.086637258529663,0,0,0
9224,312780.5125964971,2010-09-18 04:50:45,4922.512618650786,2,27,0.550297200679779,4.081638336181641,27.53494679163632,26.913542799251363,109.61747628184176,98.47870031360662,9.70840483205393e-05,0.086637258529663,0,0,0
9225,312810.5278994309,2010-09-18 04:51:15,4952.527921559586,2,27,0.550297200679779,4.08455228805542,27.5395334865942,26.913542799251363,109.63620378214804,98.47870031360662,0.0001295089750783,0.086637258529663,0,0,0
9226,312840.54322038474,2010-09-18 04:51:45,4982.54324251844,2,27,0.550297200679779,4.087466239929199,27.544120169000685,26.913542799251363,109.65494459409288,98.47870031360662,9.70840483205393e-05,0.086637258529663,0,0,0
9227,312870.55875324755,2010-09-18 04:52:15,5012.558775376228,2,27,0.550297200679779,4.0903801918029785,27.54870696930255,26.913542799251363,109.67369936651956,98.47870031360662,9.70840483205393e-05,0.086637258529663,0,0,0
9228,312900.57401542465,2010-09-18 04:52:45,5042.574037563379,2,27,0.5501165986061096,4.093294143676758,27.553293769500232,26.913542799251363,109.69246773105608,98.47870031360662,6.47544875391759e-05,0.086637258529663,0,0,0
9229,312930.589340188,2010-09-18 04:53:15,5072.589362316706,2,27,0.5501165986061096,4.096208095550537,27.5578805080632,26.913542799251363,109.71124955183932,98.47870031360662,6.47544875391759e-05,0.086637258529663,0,0,0
9230,312960.60451423016,2010-09-18 04:53:45,5102.604536358835,2,27,0.550297200679779,4.099445819854736,27.56246713662828,26.913542799251363,109.73004473463044,98.47870031360662,9.70840483205393e-05,0.086637258529663,0,0,0
9231,312990.6198563017,2010-09-18 04:54:15,5132.619878455453,2,27,0.550297200679779,4.102359771728516,27.56705393679183,26.913542799251363,109.74885458578262,98.47870031360662,9.70840483205393e-05,0.086637258529663,0,0,0
9232,313020.63515860896,2010-09-18 04:54:45,5162.635180737687,2,27,0.5501165986061096,4.105597496032715,27.57164063868188,26.913542799251363,109.76767813624907,98.47870031360662,0.0001295089750783,0.086637258529663,0,0,0
9233,313050.650880243,2010-09-18 04:55:15,5192.65090247194,2,27,0.5501165986061096,4.108511447906494,27.576227377043704,26.913542799251363,109.78651604650904,98.47870031360662,6.47544875391759e-05,0.086637258529663,0,0,0
9234,313080.6658056645,2010-09-18 04:55:45,5222.665827793222,2,27,0.550297200679779,4.111911296844482,27.580814027562145,26.913542799251363,109.8053679422227,98.47870031360662,0.0001295089750783,0.086637258529663,0,0,0
9235,313110.68119160057,2010-09-18 04:56:15,5252.681213729271,2,27,0.550297200679779,4.114986896514893,27.58540071886808,26.913542799251363,109.82423441482888,98.47870031360662,9.70840483205393e-05,0.086637258529663,0,0,0
9236,313140.696452299,2010-09-18 04:56:45,5282.696474427706,2,27,0.5501165986061096,4.118062496185303,27.589987461508542,26.913542799251363,109.84311567997904,98.47870031360662,9.70840483205393e-05,0.086637258529663,0,0,0
9237,313170.7117943405,2010-09-18 04:57:15,5312.7118164691865,2,27,0.550297200679779,4.121462345123291,27.59457420715312,26.913542799251363,109.86201166167474,98.47870031360662,0.0001295089750783,0.086637258529663,0,0,0
9238,313200.72713355994,2010-09-18 04:57:45,5342.727155713685,2,27,0.5501165986061096,4.124537944793701,27.59916103292227,26.913542799251363,109.88092276643307,98.47870031360662,9.70840483205393e-05,0.086637258529663,0,0,0
9239,313230.7424260377,2010-09-18 04:58:15,5372.742448171397,2,27,0.5499359965324402,4.1277756690979,27.60374779863933,26.913542799251363,109.89984862008424,98.47870031360662,6.47544875391759e-05,0.086637258529663,0,0,0
9240,313260.7577330918,2010-09-18 04:58:45,5402.757755220531,2,27,0.5501165986061096,4.131175518035889,27.60833455756017,26.913542799251363,109.91878951171128,98.47870031360662,9.71794142969884e-05,0.086637258529663,0,0,0
9241,313290.7731995839,2010-09-18 04:59:15,5432.773221722685,2,27,0.550297200679779,4.134413242340088,27.612921341838984,26.913542799251363,109.93774570427703,98.47870031360662,9.71794142969884e-05,0.086637258529663,0,0,0
9242,313320.7883846436,2010-09-18 04:59:45,5462.788406797352,2,27,0.550297200679779,4.137812614440918,27.617508097912687,26.913542799251363,109.9567171517207,98.47870031360662,9.70840483205393e-05,0.086637258529663,0,0,0
9243,313350.8038609051,2010-09-18 05:00:15,5492.803883043828,2,27,0.550297200679779,4.141050338745117,27.622094900789925,26.913542799251363,109.97570421917928,98.47870031360662,6.47544875391759e-05,0.086637258529663,0,0,0
9244,313380.81915050064,2010-09-18 05:00:45,5522.819172639396,2,27,0.5501165986061096,4.144611835479736,27.62668167155782,26.913542799251363,109.99470673442008,98.47870031360662,6.47544875391759e-05,0.086637258529663,0,0,0
9245,313410.8343638058,2010-09-18 05:01:15,5552.834385964581,2,27,0.5501165986061096,4.148011684417725,27.63126843601131,26.913542799251363,110.01372525943084,98.47870031360662,9.71794142969884e-05,0.086637258529663,0,0,0
9246,313440.84979518526,2010-09-18 05:01:45,5582.849817313988,2,27,0.5501165986061096,4.151734828948975,27.63585519258402,26.913542799251363,110.0327595314768,98.47870031360662,0.0001618385285837,0.086637258529663,0,0,0
9247,313470.86512876063,2010-09-18 05:02:15,5612.865150889335,2,27,0.5499359965324402,4.154972553253174,27.640441935160588,26.913542799251363,110.05180967464784,98.47870031360662,9.70840483205393e-05,0.086637258529663,0,0,0
9248,313500.88049166923,2010-09-18 05:02:45,5642.880513827979,2,27,0.550297200679779,4.158696174621582,27.645028675856825,26.913542799251363,110.07087589186573,98.47870031360662,0.0001619339018361,0.086637258529663,0,0,0
9249,313530.8956434307,2010-09-18 05:03:15,5672.895665559416,2,27,0.5499359965324402,4.162095546722412,27.649615409327385,26.913542799251363,110.08995826457216,98.47870031360662,9.70840483205393e-05,0.086637258529663,0,0,0
9250,313560.91095527686,2010-09-18 05:03:45,5702.910977410536,2,27,0.5501165986061096,4.165657043457031,27.65420212822792,26.913542799251363,110.10905681168974,98.47870031360662,6.47544875391759e-05,0.086637258529663,0,0,0
9251,313590.92889893736,2010-09-18 05:04:15,5732.928921161284,2,27,0.5501165986061096,4.16921854019165,27.658789230545302,26.913542799251363,110.1281733381272,98.47870031360662,9.70840483205393e-05,0.086637258529663,0,0,0
9252,313620.9416393949,2010-09-18 05:04:45,5762.941661523572,2,27,0.5501165986061096,4.172942161560059,27.663375551034907,26.913542799251363,110.14730316067453,98.47870031360662,9.71794142969884e-05,0.086637258529663,0,0,0
9253,313650.9569288701,2010-09-18 05:05:15,5792.956950998839,2,27,0.5501165986061096,4.176503658294678,27.667962293195338,26.913542799251363,110.1664514315695,98.47870031360662,9.71794142969884e-05,0.086637258529663,0,0,0
9254,313680.9722482651,2010-09-18 05:05:45,5822.972270393791,2,27,0.5499359965324402,4.180065155029297,27.67254910472932,26.913542799251363,110.18561678771046,98.47870031360662,6.47544875391759e-05,0.086637258529663,0,0,0
9255,313710.98757806607,2010-09-18 05:06:15,5852.987600194717,2,27,0.5501165986061096,4.183788299560547,27.67713585785812,26.913542799251363,110.204798847256,98.47870031360662,9.70840483205393e-05,0.086637258529663,0,0,0
9256,313741.00289298984,2010-09-18 05:06:45,5883.002915118507,2,27,0.5501165986061096,4.187673568725586,27.681722616946093,26.913542799251363,110.22399794327691,98.47870031360662,6.47544875391759e-05,0.086637258529663,0,0,0
9257,313771.0182105402,2010-09-18 05:07:15,5913.018232673867,2,27,0.5499359965324402,4.191397190093994,27.68630933565312,26.913542799251363,110.2432140811622,98.47870031360662,9.71794142969884e-05,0.086637258529663,0,0,0
9258,313801.03344525374,2010-09-18 05:07:45,5943.033467402478,2,27,0.5501165986061096,4.195281982421875,27.690896009488,26.913542799251363,110.26244734901348,98.47870031360662,9.70840483205393e-05,0.086637258529663,0,0,0
9259,313831.0488412599,2010-09-18 05:08:15,5973.048863388612,2,27,0.5499359965324402,4.198843479156494,27.69548268509821,26.913542799251363,110.28169793504884,98.47870031360662,6.47544875391759e-05,0.086637258529663,0,0,0
9260,313838.2831099125,2010-09-18 05:08:23,5980.283132041133,2,27,0.5501165986061096,4.200138568878174,27.69658817645617,26.913542799251363,110.2863404020283,98.47870031360662,0.0001295089750783,0.086637258529663,0,0,0
9261,313868.2849519592,2010-09-18 05:08:53,30.01536378575753,3,27,0.0,4.121462345123291,27.69658817645617,26.913542799251363,110.2863404020283,98.47870031360662,-0.0003885269106831,0.086637258529663,0,0,0
9262,313898.3002995095,2010-09-18 05:09:23,60.03071133598868,3,27,0.0,4.111749172210693,27.69658817645617,26.913542799251363,110.2863404020283,98.47870031360662,-0.0001942634553415,0.086637258529663,0,0,0
9263,313928.31633980887,2010-09-18 05:09:53,90.04675165046598,3,27,0.0,4.106083393096924,27.69658817645617,26.913542799251363,110.2863404020283,98.47870031360662,-0.0001295089750783,0.086637258529663,0,0,0
9264,313958.2840546505,2010-09-18 05:10:23,120.01446647709088,3,27,0.0,4.102198123931885,27.69658817645617,26.913542799251363,110.2863404020283,98.47870031360662,-0.0001295089750783,0.086637258529663,0,0,0
9265,313958.28730713966,2010-09-18 05:10:23,0.015616375876708,4,27,0.995499074459076,4.199653148651123,27.696592494813693,26.913542799251363,110.28635853763204,98.47870031360662,0.0,0.086637258529663,0,0,0
9266,313959.22479038703,2010-09-18 05:10:24,0.953099623290444,4,27,0.9449284672737122,4.199653148651123,27.696843538947853,26.913542799251363,110.28741282443065,98.47870031360662,0.0,0.086637258529663,0,0,0
9267,313961.349765171,2010-09-18 05:10:26,3.078074407270456,4,27,0.894177258014679,4.199491024017334,27.697385214407586,26.913542799251363,110.28968765860137,98.47870031360662,-3.24249267578125e-05,0.086637258529663,0,0,0
9268,313964.5060076929,2010-09-18 05:10:29,6.234316954243477,4,27,0.8439679145812988,4.199653148651123,27.69814607574286,26.913542799251363,110.29288299382176,98.47870031360662,0.0,0.086637258529663,0,0,0
9269,313968.7715892206,2010-09-18 05:10:34,10.499898461929972,4,27,0.7937585115432739,4.199653148651123,27.699115120755387,26.913542799251363,110.29695262071245,98.47870031360662,0.0,0.086637258529663,0,0,0
9270,313974.24049589806,2010-09-18 05:10:39,15.968805249642378,4,27,0.7437297701835632,4.199491024017334,27.7002815151632,26.913542799251363,110.30185105786757,98.47870031360662,-3.24249267578125e-05,0.086637258529663,0,0,0
9271,313981.3183119057,2010-09-18 05:10:46,23.046621142004465,4,27,0.6933397650718689,4.199653148651123,27.70169242776183,26.913542799251363,110.30777639164866,98.47870031360662,0.0,0.086637258529663,0,0,0
9272,313990.72446778795,2010-09-18 05:10:55,32.452777034212325,4,27,0.643130362033844,4.199653148651123,27.70343558271574,26.913542799251363,110.31509703861184,98.47870031360662,0.0,0.086637258529663,0,0,0
9273,314003.6462167764,2010-09-18 05:11:08,45.37452601262382,4,27,0.5929210186004639,4.199653148651123,27.70564915028732,26.913542799251363,110.32439327556229,98.47870031360662,3.24249267578125e-05,0.086637258529663,0,0,0
9274,314022.72414446395,2010-09-18 05:11:27,64.45245370019781,4,27,0.5428922176361084,4.199491024017334,27.70864998402565,26.913542799251363,110.33699573540622,98.47870031360662,-3.24249267578125e-05,0.086637258529663,0,0,0
9275,314053.78632873466,2010-09-18 05:11:59,95.51463797093514,4,27,0.4928634762763977,4.199653148651123,27.71310081629005,26.913542799251363,110.35568767843588,98.47870031360662,0.0,0.086637258529663,0,0,0
9276,314107.7392759514,2010-09-18 05:12:52,149.4675852076915,4,27,0.4428347051143646,4.199814796447754,27.7200818567648,26.913542799251363,110.38500565996664,98.47870031360662,3.23295607813634e-05,0.086637258529663,0,0,0
9277,314191.33220796013,2010-09-18 05:14:16,233.0605172064114,4,27,0.3928059339523315,4.199653148651123,27.72975494083662,26.913542799251363,110.42562929276863,98.47870031360662,-3.23295607813634e-05,0.086637258529663,0,0,0
9278,314300.28389290255,2010-09-18 05:16:05,342.01220214381283,4,27,0.3427771627902984,4.199653148651123,27.74086604041063,26.913542799251363,110.47229209131568,98.47870031360662,-3.23295607813634e-05,0.086637258529663,0,0,0
9279,314430.8137820473,2010-09-18 05:18:16,472.5420912836272,4,27,0.2927483916282654,4.199491024017334,27.75237329191359,26.913542799251363,110.5206185955193,98.47870031360662,-6.47544875391759e-05,0.086637258529663,0,0,0
9280,314589.18715519685,2010-09-18 05:20:54,630.9154644331427,4,27,0.2427196204662323,4.199653148651123,27.76413565657089,26.913542799251363,110.57001585345196,98.47870031360662,0.0,0.086637258529663,0,0,0
9281,314788.59141075134,2010-09-18 05:24:13,830.3197199925969,4,27,0.1926908493041992,4.199653148651123,27.77616396424501,26.913542799251363,110.6205305253267,98.47870031360662,0.0,0.086637258529663,0,0,0
9282,315052.99501910026,2010-09-18 05:28:38,1094.723328361564,4,27,0.1426620930433273,4.199653148651123,27.788399206990324,26.913542799251363,110.67191441550904,98.47870031360662,3.24249267578125e-05,0.086637258529663,0,0,0
9283,315444.4598150412,2010-09-18 05:35:09,1486.1881242875484,4,27,0.0926333144307136,4.199491024017334,27.801026212198845,26.913542799251363,110.7249435362382,98.47870031360662,-6.47544875391759e-05,0.086637258529663,0,0,0
9284,316058.76611067884,2010-09-18 05:45:24,2100.494419915096,4,27,0.0494676977396011,4.199653148651123,27.81284405955025,26.913542799251363,110.77457452250462,98.47870031360662,-3.23295607813634e-05,0.086637258529663,0,0,0
9285,316088.7902590619,2010-09-18 05:45:54,30.015322091682705,5,27,0.0,4.192530155181885,27.81284405955025,26.913542799251363,110.77457452250462,98.47870031360662,3.23295607813634e-05,0.086637258529663,0,0,0
9286,316118.7899571788,2010-09-18 05:46:24,60.0150202085205,5,27,0.0,4.191235065460205,27.81284405955025,26.913542799251363,110.77457452250462,98.47870031360662,0.0,0.086637258529663,0,0,0
9287,316118.98681096977,2010-09-18 05:46:24,0.187425056776338,6,27,-1.9243103452026844e-05,4.191235065460205,27.812844063249965,26.913542799251363,110.77457453801097,98.47870031360662,0.0,0.0891468673944473,0,0,0
9288,316123.81504102977,2010-09-18 05:46:29,5.015655116810808,6,27,0.0007031940040178,4.191235065460205,27.812844944572987,26.913542799418355,110.7745782319386,98.47870031430652,0.0,0.0891468673944473,0,0,0
9289,316153.8242142778,2010-09-18 05:46:59,30.01547733419189,7,27,-1.099929690361023,4.028378009796143,27.812844944572987,26.92271159763135,110.7745782319386,98.5158210207346,-0.0008742332574911,0.0891468673944473,0,0,0
9290,316183.83939751284,2010-09-18 05:47:29,60.03066058430467,7,27,-1.099568486213684,4.003609657287598,27.812844944572987,26.93188029688138,110.7745782319386,98.5526339439341,-0.0005503654247149,0.0891468673944473,0,0,0
9291,316213.8548609624,2010-09-18 05:47:59,90.04612402381329,7,27,-1.0997490882873535,3.986611604690552,27.812844944572987,26.94104903647311,110.7745782319386,98.58926050544856,-0.0004209041653666,0.0891468673944473,0,0,0
9292,316243.8701777258,2010-09-18 05:48:29,120.0614407771707,7,27,-1.0997490882873535,3.973498821258545,27.812844944572987,26.950217685256632,110.7745782319386,98.6257502310512,-0.0003237724304199,0.0891468673944473,0,0,0
9293,316273.8853459033,2010-09-18 05:48:59,150.0766089546599,7,27,-1.099568486213684,3.9623286724090576,27.812844944572987,26.959386234328683,110.7745782319386,98.66212856010276,-0.0002266406954731,0.0891468673944473,0,0,0
9294,316303.900805408,2010-09-18 05:49:29,180.0920684593466,7,27,-1.099568486213684,3.95229172706604,27.812844944572987,26.96855487477714,110.7745782319386,98.6984102395983,-0.0002590179501567,0.0891468673944473,0,0,0
9295,316333.9162167725,2010-09-18 05:49:59,210.1074798439181,7,27,-1.099568486213684,3.9429023265838623,27.812844944572987,26.977723534352865,110.7745782319386,98.7346036649516,-0.0002590179501567,0.0891468673944473,0,0,0
9296,316363.93131584243,2010-09-18 05:50:29,240.1225788938543,7,27,-1.099568486213684,3.9339985847473145,27.812844944572987,26.986892146129403,110.7745782319386,98.77071372206476,-0.0002266406954731,0.0891468673944473,0,0,0
9297,316393.9467901391,2010-09-18 05:50:59,270.1380532004889,7,27,-1.099568486213684,3.9257423877716064,27.812844944572987,26.996060838857385,110.7745782319386,98.80674422526536,-0.0001618862152099,0.0891468673944473,0,0,0
9298,316423.9619635196,2010-09-18 05:51:29,300.15322657094055,7,27,-1.099568486213684,3.9171624183654794,27.812844944572987,27.005229463826023,110.7745782319386,98.84269717232031,-0.0001942634553415,0.0891468673944473,0,0,0
9299,316453.9773096863,2010-09-18 05:51:59,330.1685727377184,7,27,-1.099568486213684,3.90906834602356,27.812844944572987,27.01439808107381,110.7745782319386,98.87857470991302,-0.0002266406954731,0.0891468673944473,0,0,0
9300,316483.99261687085,2010-09-18 05:52:29,360.1838799221904,7,27,-1.099929690361023,3.900812149047852,27.812844944572987,27.023566776932142,110.7745782319386,98.91437863229122,-0.0002590179501567,0.0891468673944473,0,0,0
9301,316514.0083421138,2010-09-18 05:52:59,390.19960517522594,7,27,-1.0997490882873535,3.893365383148194,27.812844944572987,27.03273546584931,110.7745782319386,98.95011038764125,-0.0001942634553415,0.0891468673944473,0,0,0
9302,316544.0232693048,2010-09-18 05:53:29,420.2145323561506,7,27,-1.099568486213684,3.8855948448181152,27.812844944572987,27.041903930684786,110.7745782319386,98.98577076692014,-0.0001942634553415,0.0891468673944473,0,0,0
9303,316574.0386017874,2010-09-18 05:53:59,450.22986483877065,7,27,-1.0997490882873535,3.878148078918457,27.812844944572987,27.05107260283881,110.7745782319386,99.02136179336456,-0.0001942634553415,0.0891468673944473,0,0,0
9304,316604.0539379943,2010-09-18 05:54:29,480.2452010456871,7,27,-1.099568486213684,3.870701313018799,27.812844944572987,27.06024066949616,110.7745782319386,99.05688142834188,-0.0001618862152099,0.0891468673944473,0,0,0
9305,316634.06923625147,2010-09-18 05:54:59,510.2604993028753,7,27,-1.099568486213684,3.8632545471191406,27.812844944572987,27.06940869807259,110.7745782319386,99.09233294641236,-0.0001618862152099,0.0891468673944473,0,0,0
9306,316664.084565085,2010-09-18 05:55:29,540.2758281363866,7,27,-1.099568486213684,3.855969667434693,27.812844944572987,27.078576686710026,110.7745782319386,99.12771724389188,-0.0001618862152099,0.0891468673944473,0,0,0
9307,316694.099935793,2010-09-18 05:55:59,570.2911988644732,7,27,-1.099568486213684,3.848522901535034,27.812844944572987,27.08774467058507,110.7745782319386,99.1630352623814,-0.0002266406954731,0.0891468673944473,0,0,0
9308,316724.1153338343,2010-09-18 05:56:29,600.3065969157627,7,27,-1.099568486213684,3.841723680496216,27.812844944572987,27.09691334979516,110.7745782319386,99.19829064028492,-0.0001618862152099,0.0891468673944473,0,0,0
9309,316754.1306659309,2010-09-18 05:56:59,630.3219290074069,7,27,-1.0997490882873535,3.834762573242188,27.812844944572987,27.106082079584738,110.7745782319386,99.23348218458028,-0.0001942634553415,0.0891468673944473,0,0,0
9310,316784.1460041679,2010-09-18 05:57:29,660.3372672243408,7,27,-1.099568486213684,3.827963590621948,27.812844944572987,27.1152507954432,110.7745782319386,99.26861043440012,-0.0001618862152099,0.0891468673944473,0,0,0
9311,316814.1612354379,2010-09-18 05:57:59,690.3524985093561,7,27,-1.0997490882873535,3.82116436958313,27.812844944572987,27.12441946451835,110.7745782319386,99.30367596067208,-0.0001618862152099,0.0891468673944473,0,0,0
9312,316844.1765170987,2010-09-18 05:58:29,720.3677801751294,7,27,-1.099929690361023,3.814365148544312,27.812844944572987,27.133588223783683,110.7745782319386,99.33868048819475,-0.0001942634553415,0.0891468673944473,0,0,0
9313,316874.1918530951,2010-09-18 05:58:59,750.3831161414454,7,27,-1.0997490882873535,3.807889699935913,27.812844944572987,27.14275690063362,110.7745782319386,99.37362371805446,-0.0001618862152099,0.0891468673944473,0,0,0
9314,316904.2071574776,2010-09-18 05:59:29,780.3984205289357,7,27,-1.099568486213684,3.8015761375427246,27.812844944572987,27.151925614153207,110.7745782319386,99.40850759777976,-0.0001618862152099,0.0891468673944473,0,0,0
9315,316934.2224979852,2010-09-18 05:59:59,810.4137611568876,7,27,-1.0997490882873535,3.795100688934326,27.812844944572987,27.16109429322793,110.7745782319386,99.44333335009163,-0.0001618862152099,0.0891468673944473,0,0,0
9316,316964.23792416666,2010-09-18 06:00:29,840.4291872481695,7,27,-1.099568486213684,3.788949012756348,27.812844944572987,27.17026302955311,110.7745782319386,99.47810200416907,-0.0001942634553415,0.0891468673944473,0,0,0
9317,316994.253125096,2010-09-18 06:00:59,870.444388147337,7,27,-1.0997490882873535,3.782959222793579,27.812844944572987,27.1794317206232,110.7745782319386,99.5128145521198,-0.0001942634553415,0.0891468673944473,0,0,0
9318,317024.2684758893,2010-09-18 06:01:29,900.4597389607135,7,27,-1.099568486213684,3.7772932052612314,27.812844944572987,27.188600451543245,110.7745782319386,99.54747260374737,-0.0001295089750783,0.0891468673944473,0,0,0
9319,317054.28641476284,2010-09-18 06:01:59,930.4776780548368,7,27,-1.099568486213684,3.771303415298462,27.812844944572987,27.19776996207232,110.7745782319386,99.58208000157164,-0.0001618862152099,0.0891468673944473,0,0,0
9320,317084.29911366664,2010-09-18 06:02:29,960.4903767180384,7,27,-1.0997490882873535,3.765637397766113,27.812844944572987,27.206937860050296,110.7745782319386,99.6166285496103,-0.0001295089750783,0.0891468673944473,0,0,0
9321,317114.3145547554,2010-09-18 06:02:59,990.5058179070064,7,27,-1.099568486213684,3.760133266448975,27.812844944572987,27.21610663302183,110.7745782319386,99.65112868780032,-0.0001295089750783,0.0891468673944473,0,0,0
9322,317144.32974469714,2010-09-18 06:03:29,1020.52100774356,7,27,-1.099568486213684,3.754629135131836,27.812844944572987,27.22527535140483,110.7745782319386,99.68557804985385,-0.0001295089750783,0.0891468673944473,0,0,0
9323,317174.3450356913,2010-09-18 06:03:59,1050.5362987727058,7,27,-1.0997490882873535,3.7489633560180655,27.812844944572987,27.234444141864376,110.7745782319386,99.7199778883534,-0.0001618862152099,0.0891468673944473,0,0,0
9324,317204.36038283544,2010-09-18 06:04:29,1080.5516458868483,7,27,-1.0997490882873535,3.7439448833465576,27.812844944572987,27.243612936747464,110.7745782319386,99.75432873263476,-9.713172767078504e-05,0.0891468673944473,0,0,0
9325,317234.37573515263,2010-09-18 06:04:59,1110.566998229041,7,27,-1.099568486213684,3.738602638244629,27.812844944572987,27.252781794479446,110.7745782319386,99.78863173528786,-0.0001295089750783,0.0891468673944473,0,0,0
9326,317264.3910207632,2010-09-18 06:05:29,1140.582283814599,7,27,-1.099568486213684,3.73358416557312,27.812844944572987,27.26195057679184,110.7745782319386,99.82288743906317,-0.0001295089750783,0.0891468673944473,0,0,0
9327,317294.4065358717,2010-09-18 06:05:59,1170.597798923081,7,27,-1.099568486213684,3.728727579116821,27.812844944572987,27.271119388667096,110.7745782319386,99.85709696777872,-9.713172767078504e-05,0.0891468673944473,0,0,0
9328,317324.4216733225,2010-09-18 06:06:29,1200.6129363738717,7,27,-1.099568486213684,3.7238709926605225,27.812844944572987,27.2802879333899,110.7745782319386,99.89126089264164,-9.713172767078504e-05,0.0891468673944473,0,0,0
9329,317354.43701896793,2010-09-18 06:07:00,1230.628282114586,7,27,-1.0997490882873535,3.7188525199890137,27.812844944572987,27.289456593959283,110.7745782319386,99.92538043551484,-0.0001618862152099,0.0891468673944473,0,0,0
9330,317384.45232270384,2010-09-18 06:07:30,1260.643585755212,7,27,-1.0997490882873535,3.713995933532715,27.812844944572987,27.29862530779046,110.7745782319386,99.95945592165128,-0.0001295089750783,0.0891468673944473,0,0,0
9331,317414.4683732538,2010-09-18 06:08:00,1290.6596363152637,7,27,-1.099568486213684,3.709463119506836,27.812844944572987,27.30779417910852,110.7745782319386,99.99348837147384,-6.47544875391759e-05,0.0891468673944473,0,0,0
9332,317444.48313253565,2010-09-18 06:08:30,1320.6743955970865,7,27,-1.099568486213684,3.704930305480957,27.812844944572987,27.31696265554383,110.7745782319386,100.02747663374416,-9.713172767078504e-05,0.0891468673944473,0,0,0
9333,317474.4982963122,2010-09-18 06:09:00,1350.6895593635652,7,27,-1.099568486213684,3.700235605239868,27.812844944572987,27.326131257916987,110.7745782319386,100.06142350822178,-0.0001295089750783,0.0891468673944473,0,0,0
9334,317504.51374042843,2010-09-18 06:09:30,1380.7050035049026,7,27,-1.0997490882873535,3.695702791213989,27.812844944572987,27.335299967310565,110.7745782319386,100.09532934331791,-0.0001295089750783,0.0891468673944473,0,0,0
9335,317534.5289461747,2010-09-18 06:10:00,1410.7202093213446,7,27,-1.0997490882873535,3.69133186340332,27.812844944572987,27.344468585755585,110.7745782319386,100.12919393312453,-0.0001295089750783,0.0891468673944473,0,0,0
9336,317564.54426147946,2010-09-18 06:10:30,1440.7355245308484,7,27,-1.0997490882873535,3.6869609355926514,27.812844944572987,27.35363726766428,110.7745782319386,100.16301826929045,-9.713172767078504e-05,0.0891468673944473,0,0,0
9337,317594.5595873305,2010-09-18 06:11:00,1470.7508503819147,7,27,-1.099568486213684,3.682751893997192,27.812844944572987,27.362805913789828,110.7745782319386,100.19680303838628,-0.0001295089750783,0.0891468673944473,0,0,0
9338,317624.57490908634,2010-09-18 06:11:30,1500.7661721377592,7,27,-1.0997490882873535,3.678380966186523,27.812844944572987,27.37197456964417,110.7745782319386,100.23054901442325,-0.0001295089750783,0.0891468673944473,0,0,0
9339,317654.59025897743,2010-09-18 06:12:00,1530.7815220288337,7,27,-1.099568486213684,3.674495697021485,27.812844944572987,27.3811432354683,110.7745782319386,100.26425670205175,-3.237724376958795e-05,0.0891468673944473,0,0,0
9340,317684.6055519815,2010-09-18 06:12:30,1560.7968150379215,7,27,-1.099568486213684,3.670286893844605,27.812844944572987,27.3903119094442,110.7745782319386,100.29792696397377,-6.47544875391759e-05,0.0891468673944473,0,0,0
9341,317714.62112471886,2010-09-18 06:13:00,1590.8123877953044,7,27,-1.0997490882873535,3.6660778522491455,27.812844944572987,27.39948062584565,110.7745782319386,100.33155987392968,-0.0001295089750783,0.0891468673944473,0,0,0
9342,317744.63620393426,2010-09-18 06:13:30,1620.827466985668,7,27,-1.0997490882873535,3.6621925830841056,27.812844944572987,27.408649201496388,110.7745782319386,100.36515561151668,-9.713172767078504e-05,0.0891468673944473,0,0,0
9343,317774.65154215123,2010-09-18 06:14:00,1650.842805202602,7,27,-1.099568486213684,3.658469200134277,27.812844944572987,27.41781794410087,110.7745782319386,100.3987160548663,-6.47544875391759e-05,0.0891468673944473,0,0,0
9344,317804.6668573306,2010-09-18 06:14:30,1680.8581203770182,7,27,-1.0997490882873535,3.654745817184448,27.812844944572987,27.426986657085145,110.7745782319386,100.43224134651044,-9.713172767078504e-05,0.0891468673944473,0,0,0
9345,317834.6821871867,2010-09-18 06:15:00,1710.8734502631569,7,27,-1.0997490882873535,3.650860548019409,27.812844944572987,27.43615531778098,110.7745782319386,100.465731905914,-6.47544875391759e-05,0.0891468673944473,0,0,0
9346,317864.6975242608,2010-09-18 06:15:30,1740.888787317188,7,27,-1.0997490882873535,3.64713716506958,27.812844944572987,27.44532402358049,110.7745782319386,100.49918885592182,-0.0001295089750783,0.0891468673944473,0,0,0
9347,317894.7129633044,2010-09-18 06:16:00,1770.9042263808506,7,27,-1.099568486213684,3.643575668334961,27.812844944572987,27.45449265195385,110.7745782319386,100.53261163862854,-6.47544875391759e-05,0.0891468673944473,0,0,0
9348,317924.72827387234,2010-09-18 06:16:30,1800.9195369237057,7,27,-1.099568486213684,3.640176057815552,27.812844944572987,27.463661277586205,110.7745782319386,100.56600213034628,-6.47544875391759e-05,0.0891468673944473,0,0,0
9349,317954.74348089675,2010-09-18 06:17:00,1830.934743948163,7,27,-1.099568486213684,3.6366145610809326,27.812844944572987,27.47282996267049,110.7745782319386,100.5993609342256,-6.47544875391759e-05,0.0891468673944473,0,0,0
9350,317984.758929815,2010-09-18 06:17:30,1860.950192866424,7,27,-1.0997490882873535,3.633376836776733,27.812844944572987,27.48199865404551,110.7745782319386,100.63268857453184,-6.47544875391759e-05,0.0891468673944473,0,0,0
9351,318014.77414114523,2010-09-18 06:18:00,1890.9654041966296,7,27,-1.0997490882873535,3.629977226257324,27.812844944572987,27.491167273708967,110.7745782319386,100.66598579806228,-6.47544875391759e-05,0.0891468673944473,0,0,0
9352,318044.7894528059,2010-09-18 06:18:30,1920.9807158572744,7,27,-1.099568486213684,3.626901388168335,27.812844944572987,27.500335934994904,110.7745782319386,100.69925379575376,-6.47544875391759e-05,0.0891468673944473,0,0,0
9353,318074.8047940704,2010-09-18 06:19:00,1950.9960571468785,7,27,-1.099568486213684,3.623663663864136,27.812844944572987,27.50950454951689,110.7745782319386,100.73249281872114,-6.47544875391759e-05,0.0891468673944473,0,0,0
9354,318104.8200720871,2010-09-18 06:19:30,1981.0113351585303,7,27,-1.099568486213684,3.6205878257751465,27.812844944572987,27.518673199038844,110.7745782319386,100.76570386099334,-0.0001295089750783,0.0891468673944473,0,0,0
9355,318134.8354096775,2010-09-18 06:20:00,2011.0266727238377,7,27,-1.099568486213684,3.617673873901367,27.812844944572987,27.52784190326517,110.7745782319386,100.7988870796298,-6.47544875391759e-05,0.0891468673944473,0,0,0
9356,318164.8507235236,2010-09-18 06:20:30,2041.0419865950007,7,27,-1.0997490882873535,3.614921808242798,27.812844944572987,27.537010566911693,110.7745782319386,100.83204315546588,-3.237724376958795e-05,0.0891468673944473,0,0,0
9357,318194.86605986586,2010-09-18 06:21:00,2071.057322932242,7,27,-1.099568486213684,3.6120078563690186,27.812844944572987,27.54617921145584,110.7745782319386,100.86517265098506,-6.47544875391759e-05,0.0891468673944473,0,0,0
9358,318224.8813892808,2010-09-18 06:21:30,2101.072652362243,7,27,-1.0997490882873535,3.608932018280029,27.812844944572987,27.555347887967343,110.7745782319386,100.89827614221404,-0.0001295089750783,0.0891468673944473,0,0,0
9359,318254.8969222438,2010-09-18 06:22:00,2131.0881853252927,7,27,-1.0997490882873535,3.60634183883667,27.812844944572987,27.564516582390283,110.7745782319386,100.9313542077125,-6.47544875391759e-05,0.0891468673944473,0,0,0
9360,318284.91204624606,2010-09-18 06:22:30,2161.1033092974385,7,27,-1.099929690361023,3.60342788696289,27.812844944572987,27.57368516668764,110.7745782319386,100.9644058817308,-9.713172767078504e-05,0.0891468673944473,0,0,0
9361,318314.92734938045,2010-09-18 06:23:00,2191.118612431801,7,27,-1.0997490882873535,3.6006758213043213,27.812844944572987,27.58285378162353,110.7745782319386,100.9974322432296,-6.47544875391759e-05,0.0891468673944473,0,0,0
9362,318344.94267510617,2010-09-18 06:23:30,2221.133938157555,7,27,-1.099929690361023,3.597923755645752,27.812844944572987,27.592022477707733,110.7745782319386,101.0304335123822,-9.713172767078504e-05,0.0891468673944473,0,0,0
9363,318374.95813101187,2010-09-18 06:24:00,2251.149394063258,7,27,-1.099568486213684,3.5951716899871826,27.812844944572987,27.601191151390736,110.7745782319386,101.06340927669068,-6.47544875391759e-05,0.0891468673944473,0,0,0
9364,318404.9733183873,2010-09-18 06:24:30,2281.164581468743,7,27,-1.0997490882873535,3.5925815105438232,27.812844944572987,27.610359793245973,110.7745782319386,101.09635922061555,0.0,0.0891468673944473,0,0,0
9365,318434.9890383872,2010-09-18 06:25:00,2311.1803014486163,7,27,-1.0997490882873535,3.589667797088623,27.812844944572987,27.6195286150594,110.7745782319386,101.12928453285588,-6.47544875391759e-05,0.0891468673944473,0,0,0
9366,318465.0040982643,2010-09-18 06:25:30,2341.195361325771,7,27,-1.0993878841400146,3.586753845214844,27.812844944572987,27.62869714963903,110.7745782319386,101.16218324283706,-6.47544875391759e-05,0.0891468673944473,0,0,0
9367,318495.0193353739,2010-09-18 06:26:00,2371.210598450363,7,27,-1.0997490882873535,3.5838398933410645,27.812844944572987,27.637865802552653,110.7745782319386,101.1950564111542,-6.47544875391759e-05,0.0891468673944473,0,0,0
9368,318525.03461680404,2010-09-18 06:26:30,2401.225879855486,7,27,-1.099568486213684,3.581087827682495,27.812844944572987,27.647034444618136,110.7745782319386,101.22790356521362,-9.713172767078504e-05,0.0891468673944473,0,0,0
9369,318555.0499423845,2010-09-18 06:27:00,2431.241205465952,7,27,-1.099929690361023,3.578173875808716,27.812844944572987,27.656203130787333,110.7745782319386,101.26072426978068,-9.713172767078504e-05,0.0891468673944473,0,0,0
9370,318585.06531169405,2010-09-18 06:27:30,2461.2565747454223,7,27,-1.099568486213684,3.5752599239349365,27.812844944572987,27.66537182950176,110.7745782319386,101.29351780253344,-6.47544875391759e-05,0.0891468673944473,0,0,0
9371,318615.08063091856,2010-09-18 06:28:00,2491.271893969948,7,27,-1.099568486213684,3.572345972061157,27.812844944572987,27.674540511184578,110.7745782319386,101.32628341381644,-3.237724376958795e-05,0.0891468673944473,0,0,0
9372,318645.0959404188,2010-09-18 06:28:30,2521.287203565438,7,27,-1.0997490882873535,3.568946361541748,27.812844944572987,27.68370929174867,110.7745782319386,101.35902131300377,-9.713172767078504e-05,0.0891468673944473,0,0,0
9373,318675.1114016628,2010-09-18 06:29:00,2551.302664739292,7,27,-1.0997490882873535,3.565870523452759,27.812844944572987,27.692878065122112,110.7745782319386,101.39173022771506,-6.47544875391759e-05,0.0891468673944473,0,0,0
9374,318705.12660154444,2010-09-18 06:29:30,2581.3178646209194,7,27,-1.099568486213684,3.56263279914856,27.812844944572987,27.70204671073331,110.7745782319386,101.42440907902564,-6.47544875391759e-05,0.0891468673944473,0,0,0
9375,318735.1419230497,2010-09-18 06:30:00,2611.333186096063,7,27,-1.099568486213684,3.5592331886291504,27.812844944572987,27.711215389295536,110.7745782319386,101.45705772616051,-6.47544875391759e-05,0.0891468673944473,0,0,0
9376,318765.15723335696,2010-09-18 06:30:30,2641.34849640333,7,27,-1.099568486213684,3.5556716918945312,27.812844944572987,27.72038403445213,110.7745782319386,101.48967418424373,-6.47544875391759e-05,0.0891468673944473,0,0,0
9377,318795.17253532336,2010-09-18 06:31:00,2671.3637984048646,7,27,-1.099568486213684,3.551948308944702,27.812844944572987,27.72955273623944,110.7745782319386,101.5222576935488,-9.713172767078504e-05,0.0891468673944473,0,0,0
9378,318825.18788142,2010-09-18 06:31:30,2701.379144471392,7,27,-1.0997490882873535,3.548224925994873,27.812844944572987,27.73872147038457,110.7745782319386,101.55480690951008,-9.713172767078504e-05,0.0891468673944473,0,0,0
9379,318855.18792216206,2010-09-18 06:32:00,2731.3791853187377,7,27,-1.0997490882873535,3.544015884399414,27.812844944572987,27.74788552417487,110.7745782319386,101.58730395391564,-0.0001942634553415,0.0891468673944473,0,0,0
9380,318885.2030308059,2010-09-18 06:32:30,2761.3942938673845,7,27,-1.099568486213684,3.540130615234375,27.812844944572987,27.75705411653216,110.7745782319386,101.6197805137397,-9.713172767078504e-05,0.0891468673944473,0,0,0
9381,318915.2182554143,2010-09-18 06:33:00,2791.409518495784,7,27,-1.0997490882873535,3.535921573638916,27.812844944572987,27.766222763798776,110.7745782319386,101.65221920852731,-9.713172767078504e-05,0.0891468673944473,0,0,0
9382,318945.2336692199,2010-09-18 06:33:30,2821.424932296386,7,27,-1.0997490882873535,3.531550645828247,27.812844944572987,27.77539153894383,110.7745782319386,101.68461858615984,-9.713172767078504e-05,0.0891468673944473,0,0,0
9383,318975.2488584399,2010-09-18 06:34:00,2851.4401214913382,7,27,-1.099568486213684,3.526855945587158,27.812844944572987,27.784560252481786,110.7745782319386,101.7169766134662,-0.0001295089750783,0.0891468673944473,0,0,0
9384,319005.26676911814,2010-09-18 06:34:30,2881.458032294844,7,27,-1.099568486213684,3.5218374729156494,27.812844944572987,27.79372976565804,110.7745782319386,101.74929394407702,-0.0001295089750783,0.0891468673944473,0,0,0
9385,319035.27951847785,2010-09-18 06:35:00,2911.470781554341,7,27,-1.0997490882873535,3.5168190002441406,27.812844944572987,27.802897722611853,110.7745782319386,101.7815596198875,-9.713172767078504e-05,0.0891468673944473,0,0,0
9386,319065.29486210336,2010-09-18 06:35:30,2941.486125154713,7,27,-1.0997490882873535,3.511315107345581,27.812844944572987,27.812066476426107,110.7745782319386,101.81377866511129,-9.70840483205393e-05,0.0891468673944473,0,0,0
9387,319095.31015889684,2010-09-18 06:36:00,2971.501421948248,7,27,-1.0997490882873535,3.5051634311676025,27.812844944572987,27.821235185618324,110.7745782319386,101.84594435057431,-0.0001942634553415,0.0891468673944473,0,0,0
9388,319125.32549709873,2010-09-18 06:36:30,3001.5167602453816,7,27,-1.0997490882873535,3.498526096343994,27.812844944572987,27.83040393942416,110.7745782319386,101.8780522749264,-0.0001618862152099,0.0891468673944473,0,0,0
9389,319155.3257118502,2010-09-18 06:37:00,3031.516974996819,7,27,-1.099568486213684,3.491241216659546,27.812844944572987,27.839568072855023,110.7745782319386,101.91008058520038,-0.0001942634553415,0.0891468673944473,0,0,0
9390,319185.3405113925,2010-09-18 06:37:30,3061.5317744689632,7,27,-1.0997490882873535,3.482985019683838,27.812844944572987,27.84873658618363,110.7745782319386,101.94205315989718,-0.0002590179501567,0.0891468673944473,0,0,0
9391,319215.3558592535,2010-09-18 06:38:00,3091.547122304907,7,27,-1.099568486213684,3.47343373298645,27.812844944572987,27.85790529260872,110.7745782319386,101.97394450539056,-0.0002590179501567,0.0891468673944473,0,0,0
9392,319245.37115468364,2010-09-18 06:38:30,3121.5624177350387,7,27,-1.0997490882873535,3.462101697921753,27.812844944572987,27.867073284454115,110.7745782319386,102.0057381561079,-0.0002913951757363,0.0891468673944473,0,0,0
9393,319275.3866942431,2010-09-18 06:39:00,3151.5779572945544,7,27,-1.099568486213684,3.4480175971984863,27.812844944572987,27.87624136429445,110.7745782319386,102.03741666635744,-0.0003561496851034,0.0891468673944473,0,0,0
9394,319305.40195781377,2010-09-18 06:39:30,3181.5932208751847,7,27,-1.0997490882873535,3.43004846572876,27.812844944572987,27.8854100748637,110.7745782319386,102.06895174687295,-0.0005179882282391,0.0891468673944473,0,0,0
9395,319335.41729041666,2010-09-18 06:40:01,3211.6085534931426,7,27,-1.0997490882873535,3.405279874801636,27.812844944572987,27.89457882627415,110.7745782319386,102.10029341240532,-0.0007446765666827,0.0891468673944473,0,0,0
9396,319365.4325018772,2010-09-18 06:40:31,3241.623764958685,7,27,-1.0997490882873535,3.3699886798858643,27.812844944572987,27.90374753910517,110.7745782319386,102.131364229314,-0.0011008263099938,0.0891468673944473,0,0,0
9397,319395.4479449509,2010-09-18 06:41:01,3271.6392079972698,7,27,-1.099568486213684,3.319156646728516,27.812844944572987,27.912916383413677,110.7745782319386,102.16204425999344,-0.0015541076427325,0.0891468673944473,0,0,0
9398,319425.4631423814,2010-09-18 06:41:31,3301.6544054578544,7,27,-1.0997490882873535,3.2450129985809326,27.812844944572987,27.922085094882835,110.7745782319386,102.192156982671,-0.0022987842094153,0.0891468673944473,0,0,0
9399,319455.4784472451,2010-09-18 06:42:01,3331.669710296471,7,27,-1.0997490882873535,3.1336355209350586,27.812844944572987,27.93125385056504,110.7745782319386,102.22143795695294,-0.003593873931095,0.0891468673944473,0,0,0
9400,319484.35323553387,2010-09-18 06:42:29,3360.5444986805524,7,27,-1.0997490882873535,2.933382987976074,27.812844944572987,27.940074152246098,110.7745782319386,102.24832823119571,-0.0083856582641601,0.0891468673944473,0,0,0
9401,319497.3061570789,2010-09-18 06:42:42,3373.4974201502982,7,27,-1.0997490882873535,2.7332921028137207,27.812844944572987,27.94403075439744,110.7745782319386,102.25956860515136,-0.0140840532258152,0.0891468673944473,0,0,0
9402,319499.1655132729,2010-09-18 06:42:44,3375.356776344413,7,27,-1.099568486213684,2.699943780899048,27.812844944572987,27.94459869198877,110.7745782319386,102.26111155090516,-0.0142783168703317,0.0891468673944473,0,0,0
9403,319559.1769784859,2010-09-18 06:43:44,60.01501308574095,8,27,0.0,3.354123830795288,27.812844944572987,27.94459869198877,110.7745782319386,102.26111155090516,0.0013274193042889,0.0891468673944473,0,0,0
9404,319559.3616427897,2010-09-18 06:43:45,0.187614334242012,9,27,-1.9243103452026844e-05,3.354447603225708,27.812844944572987,27.944598692991622,110.7745782319386,102.26111155426918,0.0,0.0873680263757705,0,0,0
9405,319564.1896013971,2010-09-18 06:43:50,5.015572956726598,9,27,0.0008838032954372,3.362541913986206,27.812845804754502,27.9445986930748,110.77458112131578,102.2611115545482,0.0011979580158367,0.0873680263757705,0,0,0
