Data_Point,Test_Time(s),Date_Time,Step_Time(s),Step_Index,Cycle_Index,Current(A),Voltage(V),Charge_Capacity(Ah),Discharge_Capacity(Ah),Charge_Energy(Wh),Discharge_Energy(Wh),dV/dt(V/s),Internal_Resistance(Ohm),Is_FC_Data,AC_Impedance(Ohm),ACI_Phase_Angle(Deg)
2107,71766.38951194707,2010-09-15 09:53:27,30.015406737972864,1,7,0.0,3.379378080368042,6.199867536010348,6.321658855899194,24.69973048249527,23.165723152969605,0.0006799221155233,0.0876845717430114,0,0,0
2108,71796.40464329763,2010-09-15 09:53:57,60.03053807349885,1,7,0.0,3.400747060775757,6.199867536010348,6.321658855899194,24.69973048249527,23.165723152969605,0.0004856586456298,0.0876845717430114,0,0,0
2109,71826.41994312372,2010-09-15 09:54:27,90.04583789960324,1,7,0.0,3.417097568511963,6.199867536010348,6.321658855899194,24.69973048249527,23.165723152969605,0.0003561496851034,0.0876845717430114,0,0,0
2110,71856.38828702563,2010-09-15 09:54:57,120.01418180149682,1,7,0.0,3.4302103519439697,6.199867536010348,6.321658855899194,24.69973048249527,23.165723152969605,0.0003237724304199,0.0876845717430114,0,0,0
2111,71886.406741714,2010-09-15 09:55:27,30.015486336663443,2,7,0.550297200679779,3.579145193099976,6.204453881387066,6.321658855899194,24.71598460137437,23.165723152969605,0.0015864849556237,0.0876845717430114,0,0,0
2112,71916.42487652667,2010-09-15 09:55:57,60.03362112426788,2,7,0.5499359965324402,3.627548933029175,6.209040635509339,6.321658855899194,24.732519010395656,23.165723152969605,0.0010684489971026,0.0876845717430114,0,0,0
2113,71946.43720362236,2010-09-15 09:56:27,90.04594822499239,2,7,0.5501165986061096,3.663649559020996,6.21362646888834,6.321658855899194,24.749240662156755,23.165723152969605,0.0008418083307333,0.0876845717430114,0,0,0
2114,71976.45230762969,2010-09-15 09:56:57,120.06105224734048,2,7,0.5499359965324402,3.69165563583374,6.218212669424232,6.321658855899194,24.76610922468532,23.165723152969605,0.0006799221155233,0.0876845717430114,0,0,0
2115,72006.46768835772,2010-09-15 09:57:27,150.07643295032602,2,7,0.5501165986061096,3.7148053646087646,6.222798938713026,6.321658855899194,24.7830950106518,23.165723152969605,0.0005827903514727,0.0876845717430114,0,0,0
2116,72036.48283591375,2010-09-15 09:57:57,180.09158050634085,2,7,0.5501165986061096,3.73390793800354,6.227385186596352,6.321658855899194,24.80017721519269,23.165723152969605,0.0005180359003134,0.0876845717430114,0,0,0
2117,72066.49823280715,2010-09-15 09:58:27,210.1069774097652,2,7,0.5501165986061096,3.749449014663696,6.231971449447544,6.321658855899194,24.817338899649823,23.165723152969605,0.0003885269106831,0.0876845717430114,0,0,0
2118,72096.51369360507,2010-09-15 09:58:57,240.1224381976549,2,7,0.5501165986061096,3.760618925094605,6.236557735673155,6.321658855899194,24.83456223867697,23.165723152969605,0.0002590179501567,0.0876845717430114,0,0,0
2119,72126.52862862556,2010-09-15 09:59:27,270.13737333844864,2,7,0.5501165986061096,3.766770601272583,6.241143921220597,6.321658855899194,24.851824338524708,23.165723152969605,0.0001618862152099,0.0876845717430114,0,0,0
2120,72156.54389472246,2010-09-15 09:59:57,300.1526393150595,2,7,0.5501165986061096,3.770493984222412,6.24573021418242,6.321658855899194,24.86910891027316,23.165723152969605,9.713172767078504e-05,0.0876845717430114,0,0,0
2121,72186.55913808262,2010-09-15 10:00:27,330.16788267521616,2,7,0.5501165986061096,3.7737317085266113,6.250316414581246,6.321658855899194,24.886408196405675,23.165723152969605,0.0001618862152099,0.0876845717430114,0,0,0
2122,72216.57440693642,2010-09-15 10:00:57,360.1831515290089,2,7,0.550297200679779,3.776645660400391,6.254902652755919,6.321658855899194,24.90372106207618,23.165723152969605,0.0001295089750783,0.0876845717430114,0,0,0
2123,72246.58968338417,2010-09-15 10:01:27,390.1984280619701,2,7,0.5501165986061096,3.77923583984375,6.259488847516272,6.321658855899194,24.921046865354267,23.165723152969605,9.713172767078504e-05,0.0876845717430114,0,0,0
2124,72276.60496019783,2010-09-15 10:01:57,420.2137048004441,2,7,0.5501165986061096,3.782149791717529,6.264075083166195,6.321658855899194,24.938385946698777,23.165723152969605,9.713172767078504e-05,0.0876845717430114,0,0,0
2125,72306.6201683852,2010-09-15 10:02:27,450.22891298780416,2,7,0.5499359965324402,3.784901857376098,6.268661289546251,6.321658855899194,24.955738155371243,23.165723152969605,3.237724376958795e-05,0.0876845717430114,0,0,0
2126,72336.6354538354,2010-09-15 10:02:57,480.2441984480492,2,7,0.5499359965324402,3.787815809249878,6.273247490990589,6.321658855899194,24.973103543829996,23.165723152969605,6.47544875391759e-05,0.0876845717430114,0,0,0
2127,72366.65069021312,2010-09-15 10:03:27,510.2594348107391,2,7,0.5501165986061096,3.790729761123657,6.277833631616065,6.321658855899194,24.990482035725687,23.165723152969605,3.237724376958795e-05,0.0876845717430114,0,0,0
2128,72396.66596454561,2010-09-15 10:03:57,540.2747091381949,2,7,0.5499359965324402,3.793643712997437,6.282419785740708,6.321658855899194,25.00787376774386,23.165723152969605,6.47544875391759e-05,0.0876845717430114,0,0,0
2129,72426.68122492323,2010-09-15 10:04:27,570.28996951583,2,7,0.5501165986061096,3.796557664871216,6.287005967095285,6.321658855899194,25.0252788229425,23.165723152969605,6.47544875391759e-05,0.0876845717430114,0,0,0
2130,72456.69661219763,2010-09-15 10:04:57,600.3053568052562,2,7,0.5501165986061096,3.799471616744995,6.291592220653634,6.321658855899194,25.042697279278645,23.165723152969605,9.713172767078504e-05,0.0876845717430114,0,0,0
2131,72486.71176160827,2010-09-15 10:05:27,630.3205062058754,2,7,0.5499359965324402,3.802223682403565,6.296178464789563,6.321658855899194,25.060128700635307,23.165723152969605,6.47544875391759e-05,0.0876845717430114,0,0,0
2132,72516.72702311874,2010-09-15 10:05:57,660.3357677113255,2,7,0.5501165986061096,3.804975748062134,6.300764672476027,6.321658855899194,25.07757290225617,23.165723152969605,3.237724376958795e-05,0.0876845717430114,0,0,0
2133,72546.7422732107,2010-09-15 10:06:27,690.3510178032858,2,7,0.5499359965324402,3.807889699935913,6.305350958080266,6.321658855899194,25.095030388628988,23.165723152969605,9.713172767078504e-05,0.0876845717430114,0,0,0
2134,72576.75742734312,2010-09-15 10:06:57,720.366171940729,2,7,0.5497553944587708,3.8106417655944815,6.309937225718964,6.321658855899194,25.112500971656512,23.165723152969605,6.47544875391759e-05,0.0876845717430114,0,0,0
2135,72606.77318602962,2010-09-15 10:07:27,750.3819307425072,2,7,0.5501165986061096,3.8135557174682617,6.314523501476335,6.321658855899194,25.12998483742729,23.165723152969605,6.47544875391759e-05,0.0876845717430114,0,0,0
2136,72636.78800782247,2010-09-15 10:07:57,780.396752495267,2,7,0.5499359965324402,3.816793441772461,6.31910965890438,6.321658855899194,25.14748217826384,23.165723152969605,6.47544875391759e-05,0.0876845717430114,0,0,0
2137,72666.80334141785,2010-09-15 10:08:27,810.4120860204896,2,7,0.5501165986061096,3.81986927986145,6.323695898045609,6.321658855899194,25.16499396351205,23.165723152969605,9.713172767078504e-05,0.0876845717430114,0,0,0
2138,72696.81862954979,2010-09-15 10:08:57,840.4273741423784,2,7,0.5501165986061096,3.8231070041656494,6.328282156229297,6.321658855899194,25.182520423621657,23.165723152969605,0.0001295089750783,0.0876845717430114,0,0,0
2139,72726.83387767685,2010-09-15 10:09:27,870.4426222694341,2,7,0.5501165986061096,3.8265066146850586,6.332868351581346,6.321658855899194,25.20006167320912,23.165723152969605,0.0001295089750783,0.0876845717430114,0,0,0
2140,72756.8491553727,2010-09-15 10:09:57,900.457899975323,2,7,0.5497553944587708,3.829744338989258,6.337454621684085,6.321658855899194,25.217618648307344,23.165723152969605,3.237724376958795e-05,0.0876845717430114,0,0,0
2141,72786.86439778548,2010-09-15 10:10:27,930.47314237809,2,7,0.5499359965324402,3.833143949508667,6.342040827721486,6.321658855899194,25.2351909668736,23.165723152969605,6.47544875391759e-05,0.0876845717430114,0,0,0
2142,72816.87965577717,2010-09-15 10:10:57,960.488400379794,2,7,0.5501165986061096,3.836867094039917,6.346627014542256,6.321658855899194,25.252778670197102,23.165723152969605,0.0001295089750783,0.0876845717430114,0,0,0
2143,72846.89505061545,2010-09-15 10:11:27,990.5037952180636,2,7,0.5499359965324402,3.839942932128906,6.351213264851048,6.321658855899194,25.270382020064364,23.165723152969605,6.47544875391759e-05,0.0876845717430114,0,0,0
2144,72876.91018754995,2010-09-15 10:11:57,1020.5189321525654,2,7,0.550297200679779,3.843342542648315,6.355799532641975,6.321658855899194,25.288000745147816,23.165723152969605,6.47544875391759e-05,0.0876845717430114,0,0,0
2145,72906.92560001221,2010-09-15 10:12:27,1050.534344614827,2,7,0.5501165986061096,3.8464183807373047,6.360385755108774,6.321658855899194,25.305634416627,23.165723152969605,9.713172767078504e-05,0.0876845717430114,0,0,0
2146,72936.940725849,2010-09-15 10:12:57,1080.5494704516277,2,7,0.5501165986061096,3.849494218826294,6.364971972679875,6.321658855899194,25.32328202757826,23.165723152969605,9.713172767078504e-05,0.0876845717430114,0,0,0
2147,72966.95609459715,2010-09-15 10:13:27,1110.5648392047842,2,7,0.5499359965324402,3.852408170700073,6.369558210338813,6.321658855899194,25.34094387369922,23.165723152969605,6.47544875391759e-05,0.0876845717430114,0,0,0
2148,72996.97129648879,2010-09-15 10:13:57,1140.580041106454,2,7,0.5499359965324402,3.855645895004273,6.37414447745421,6.321658855899194,25.358619745990776,23.165723152969605,6.47544875391759e-05,0.0876845717430114,0,0,0
2149,73026.98662236995,2010-09-15 10:14:27,1170.5953669725584,2,7,0.5501165986061096,3.858397960662842,6.378730715482432,6.321658855899194,25.376309300966472,23.165723152969605,3.237724376958795e-05,0.0876845717430114,0,0,0
2150,73057.00558553029,2010-09-15 10:14:57,1200.6143302481964,2,7,0.5501165986061096,3.861473798751831,6.383317477950453,6.321658855899194,25.39401420797143,23.165723152969605,6.47544875391759e-05,0.0876845717430114,0,0,0
2151,73087.01703725594,2010-09-15 10:15:27,1230.6257819487876,2,7,0.5499359965324402,3.8640639781951904,6.387903145078875,6.321658855899194,25.41172788396414,23.165723152969605,6.47544875391759e-05,0.0876845717430114,0,0,0
2152,73117.0323439191,2010-09-15 10:15:57,1260.6410885267455,2,7,0.5501165986061096,3.86681604385376,6.392489364986458,6.321658855899194,25.42945610217539,23.165723152969605,6.47544875391759e-05,0.0876845717430114,0,0,0
2153,73147.04756047738,2010-09-15 10:16:27,1290.656305085001,2,7,0.5501165986061096,3.869406223297119,6.397075654429577,6.321658855899194,25.44719645804546,23.165723152969605,9.713172767078504e-05,0.0876845717430114,0,0,0
2154,73177.0628173663,2010-09-15 10:16:57,1320.6715619689146,2,7,0.5499359965324402,3.8716726303100586,6.40166187340798,6.321658855899194,25.46494768507393,23.165723152969605,3.237724376958795e-05,0.0876845717430114,0,0,0
2155,73207.0780928316,2010-09-15 10:17:27,1350.686837524436,2,7,0.5501165986061096,3.873939037322998,6.40624812348505,6.321658855899194,25.48270957103614,23.165723152969605,3.237724376958795e-05,0.0876845717430114,0,0,0
2156,73237.09342538439,2010-09-15 10:17:57,1380.702169987006,2,7,0.5501165986061096,3.876043558120728,6.41083440007401,6.321658855899194,25.50048121482967,23.165723152969605,6.47544875391759e-05,0.0876845717430114,0,0,0
2157,73267.1086014666,2010-09-15 10:18:27,1410.7173460592014,2,7,0.5501165986061096,3.877986192703247,6.415420567262238,6.321658855899194,25.518261625591684,23.165723152969605,6.47544875391759e-05,0.0876845717430114,0,0,0
2158,73297.12386136806,2010-09-15 10:18:57,1440.732605960648,2,7,0.550297200679779,3.8797669410705566,6.420006823254033,6.321658855899194,25.5360508069846,23.165723152969605,6.47544875391759e-05,0.0876845717430114,0,0,0
2159,73327.139147911,2010-09-15 10:19:27,1470.7478925035955,2,7,0.5501165986061096,3.881385803222656,6.42459300249952,6.321658855899194,25.553847413550237,23.165723152969605,9.713172767078504e-05,0.0876845717430114,0,0,0
2160,73357.15439674481,2010-09-15 10:19:57,1500.7631413374152,2,7,0.5501165986061096,3.882680892944336,6.429179225544226,6.321658855899194,25.571651234952977,23.165723152969605,3.237724376958795e-05,0.0876845717430114,0,0,0
2161,73387.1696584207,2010-09-15 10:20:27,1530.7784030183034,2,7,0.5501165986061096,3.8841378688812256,6.433765506789352,6.321658855899194,25.589461807300857,23.165723152969605,3.237724376958795e-05,0.0876845717430114,0,0,0
2162,73417.18491171062,2010-09-15 10:20:57,1560.793656303234,2,7,0.5497553944587708,3.8852710723876953,6.438351831775064,6.321658855899194,25.607278324682856,23.165723152969605,3.237724376958795e-05,0.0876845717430114,0,0,0
2163,73447.20017408827,2010-09-15 10:21:28,1590.808918690886,2,7,0.5501165986061096,3.886566162109375,6.442938080393787,6.321658855899194,25.62510007775367,23.165723152969605,3.237724376958795e-05,0.0876845717430114,0,0,0
2164,73477.2154490122,2010-09-15 10:21:58,1620.8241936048055,2,7,0.5499359965324402,3.8875374794006343,6.44752435623796,6.321658855899194,25.64292707770614,23.165723152969605,3.237724376958795e-05,0.0876845717430114,0,0,0
2165,73507.23071133971,2010-09-15 10:22:28,1650.8394560475956,2,7,0.5499359965324402,3.8885087966918954,6.452110630659838,6.321658855899194,25.66075906649838,23.165723152969605,0.0,0.0876845717430114,0,0,0
2166,73537.24598613333,2010-09-15 10:22:58,1680.8547307359524,2,7,0.5499359965324402,3.889642000198364,6.456696861650585,6.321658855899194,25.678595688822632,23.165723152969605,0.0,0.0876845717430114,0,0,0
2167,73567.26122802483,2010-09-15 10:23:28,1710.869972617418,2,7,0.5499359965324402,3.890613317489624,6.461283230928341,6.321658855899194,25.696437463509145,23.165723152969605,3.237724376958795e-05,0.0876845717430114,0,0,0
2168,73597.27649909415,2010-09-15 10:23:58,1740.8852436867412,2,7,0.5499359965324402,3.891584634780884,6.465869525018981,6.321658855899194,25.71428363766664,23.165723152969605,0.0,0.0876845717430114,0,0,0
2169,73627.29175437907,2010-09-15 10:24:28,1770.9004989816888,2,7,0.5501165986061096,3.8927178382873535,6.47045583022712,6.321658855899194,25.73213442574364,23.165723152969605,3.237724376958795e-05,0.0876845717430114,0,0,0
2170,73657.30701578426,2010-09-15 10:24:58,1800.915760386889,2,7,0.5501165986061096,3.8938510417938232,6.475042148768893,6.321658855899194,25.74998986582572,23.165723152969605,6.47544875391759e-05,0.0876845717430114,0,0,0
2171,73687.3222828937,2010-09-15 10:25:28,1830.9310274913148,2,7,0.5499359965324402,3.894660472869873,6.479628545533276,6.321658855899194,25.76785019359096,23.165723152969605,3.237724376958795e-05,0.0876845717430114,0,0,0
2172,73717.33754932646,2010-09-15 10:25:58,1860.9462939290768,2,7,0.5499359965324402,3.895631790161133,6.484214876653436,6.321658855899194,25.785714127679764,23.165723152969605,6.47544875391759e-05,0.0876845717430114,0,0,0
2173,73747.35282588447,2010-09-15 10:26:28,1890.9615704770752,2,7,0.5501165986061096,3.8966031074523926,6.488801111383874,6.321658855899194,25.80358231787831,23.165723152969605,3.237724376958795e-05,0.0876845717430114,0,0,0
2174,73777.36807477845,2010-09-15 10:26:58,1920.9768193810703,2,7,0.5501165986061096,3.897574424743652,6.493387393673965,6.321658855899194,25.821455303415227,23.165723152969605,6.47544875391759e-05,0.0876845717430114,0,0,0
2175,73807.38356331059,2010-09-15 10:27:28,1950.9923079132143,2,7,0.5499359965324402,3.898545742034912,6.497973666485954,6.321658855899194,25.839332847276896,23.165723152969605,0.0,0.0876845717430114,0,0,0
2176,73837.40175397768,2010-09-15 10:27:58,1981.010498605365,2,7,0.5501165986061096,3.899517059326172,6.502560360175922,6.321658855899194,25.857216732019477,23.165723152969605,0.0,0.0876845717430114,0,0,0
2177,73867.41398241211,2010-09-15 10:28:28,2011.022727009728,2,7,0.5501165986061096,3.9006502628326416,6.507146190739069,6.321658855899194,25.8751018429972,23.165723152969605,0.0,0.0876845717430114,0,0,0
2178,73897.42914660466,2010-09-15 10:28:58,2041.0378911972573,2,7,0.5501165986061096,3.901621580123901,6.511732791039114,6.321658855899194,25.892994732032484,23.165723152969605,3.237724376958795e-05,0.0876845717430114,0,0,0
2179,73927.44440383445,2010-09-15 10:29:28,2071.053148427035,2,7,0.550297200679779,3.902754783630371,6.516319816082084,6.321658855899194,25.910894123676545,23.165723152969605,3.237724376958795e-05,0.0876845717430114,0,0,0
2180,73957.45969929465,2010-09-15 10:29:58,2101.068443897266,2,7,0.5501165986061096,3.903726100921631,6.520906571840877,6.321658855899194,25.92879729220538,23.165723152969605,3.237724376958795e-05,0.0876845717430114,0,0,0
2181,73987.47492809847,2010-09-15 10:30:28,2131.083672716126,2,7,0.5499359965324402,3.90469741821289,6.525492857842302,6.321658855899194,25.94670357246679,23.165723152969605,0.0,0.0876845717430114,0,0,0
2182,74017.49042156793,2010-09-15 10:30:58,2161.0991661605312,2,7,0.5499359965324402,3.90583062171936,6.530079063240661,6.321658855899194,25.964614292817345,23.165723152969605,0.0,0.0876845717430114,0,0,0
2183,74047.50557553997,2010-09-15 10:31:28,2191.1143201425866,2,7,0.5501165986061096,3.90696382522583,6.534665226803938,6.321658855899194,25.982529944230528,23.165723152969605,3.237724376958795e-05,0.0876845717430114,0,0,0
2184,74077.52071978271,2010-09-15 10:31:58,2221.129464385331,2,7,0.5501165986061096,3.90793514251709,6.539251358291389,6.321658855899194,26.00045052782874,23.165723152969605,0.0,0.0876845717430114,0,0,0
2185,74107.5361023303,2010-09-15 10:32:28,2251.1448469479587,2,7,0.5501165986061096,3.90939211845398,6.543837477905912,6.321658855899194,26.018376201839125,23.165723152969605,3.237724376958795e-05,0.0876845717430114,0,0,0
2186,74137.5512403876,2010-09-15 10:32:58,2281.1599849802005,2,7,0.5499359965324402,3.9103634357452393,6.548423676220967,6.321658855899194,26.03630742444144,23.165723152969605,0.0,0.0876845717430114,0,0,0
2187,74167.56654283025,2010-09-15 10:33:28,2311.175287513061,2,7,0.5499359965324402,3.911496639251709,6.553009942656598,6.321658855899194,26.05424406052425,23.165723152969605,6.47544875391759e-05,0.0876845717430114,0,0,0
2188,74197.58178616031,2010-09-15 10:33:58,2341.1905307529178,2,7,0.5499359965324402,3.9126298427581783,6.557596168140861,6.321658855899194,26.07218595593177,23.165723152969605,0.0,0.0876845717430114,0,0,0
2189,74227.5970241972,2010-09-15 10:34:28,2371.205768794799,2,7,0.550297200679779,3.9139246940612793,6.562182343740692,6.321658855899194,26.090133064730395,23.165723152969605,0.0,0.0876845717430114,0,0,0
2190,74257.61229362241,2010-09-15 10:34:58,2401.221038225031,2,7,0.5501165986061096,3.915057897567749,6.566768587493447,6.321658855899194,26.108085964322783,23.165723152969605,3.237724376958795e-05,0.0876845717430114,0,0,0
2191,74287.62755441609,2010-09-15 10:35:28,2431.236299123967,2,7,0.5499359965324402,3.9163529872894287,6.571354822437521,6.321658855899194,26.12604417310539,23.165723152969605,3.237724376958795e-05,0.0876845717430114,0,0,0
2192,74317.64295182076,2010-09-15 10:35:58,2461.2516964283927,2,7,0.5501165986061096,3.917648077011109,6.575941137804889,6.321658855899194,26.14400844192845,23.165723152969605,6.47544875391759e-05,0.0876845717430114,0,0,0
2193,74347.65829162166,2010-09-15 10:36:28,2491.2670362142426,2,7,0.5501165986061096,3.918781280517578,6.58052736278758,6.321658855899194,26.161978065811425,23.165723152969605,3.237724376958795e-05,0.0876845717430114,0,0,0
2194,74377.67336589975,2010-09-15 10:36:58,2521.282110507382,2,7,0.5499359965324402,3.920238256454468,6.585113537105308,6.321658855899194,26.179953263620817,23.165723152969605,3.237724376958795e-05,0.0876845717430114,0,0,0
2195,74407.68860435768,2010-09-15 10:37:28,2551.297348955277,2,7,0.5501165986061096,3.9213714599609375,6.589699844320376,6.321658855899194,26.19793474232674,23.165723152969605,3.237724376958795e-05,0.0876845717430114,0,0,0
2196,74437.7038808706,2010-09-15 10:37:58,2581.312625463176,2,7,0.5501165986061096,3.922666549682617,6.594286052599411,6.321658855899194,26.21592167913679,23.165723152969605,3.237724376958795e-05,0.0876845717430114,0,0,0
2197,74467.71912849137,2010-09-15 10:38:28,2611.3278730839675,2,7,0.5501165986061096,3.923961639404297,6.598872231696215,6.321658855899194,26.23391448589693,23.165723152969605,3.237724376958795e-05,0.0876845717430114,0,0,0
2198,74497.73440195668,2010-09-15 10:38:58,2641.343146574334,2,7,0.5501165986061096,3.925256729125977,6.603458479019774,6.321658855899194,26.2519137704412,23.165723152969605,3.237724376958795e-05,0.0876845717430114,0,0,0
2199,74527.75013112449,2010-09-15 10:39:28,2671.3588757220905,2,7,0.5499359965324402,3.926551818847656,6.60804485405321,6.321658855899194,26.26991954221136,23.165723152969605,3.237724376958795e-05,0.0876845717430114,0,0,0
2200,74557.76494553393,2010-09-15 10:39:58,2701.373690126508,2,7,0.5501165986061096,3.928008794784546,6.612631004284753,6.321658855899194,26.28793064831425,23.165723152969605,3.237724376958795e-05,0.0876845717430114,0,0,0
2201,74587.78032902886,2010-09-15 10:40:28,2731.389073631488,2,7,0.550297200679779,3.929465770721436,6.617217219076248,6.321658855899194,26.305948168621505,23.165723152969605,6.47544875391759e-05,0.0876845717430114,0,0,0
2202,74617.795446986,2010-09-15 10:40:58,2761.4041916036567,2,7,0.5501165986061096,3.930598974227905,6.621803476186744,6.321658855899194,26.32397215260394,23.165723152969605,3.237724376958795e-05,0.0876845717430114,0,0,0
2203,74647.81071250647,2010-09-15 10:41:28,2791.419457104079,2,7,0.5499359965324402,3.932055950164795,6.6263898212984,6.321658855899194,26.342002776121344,23.165723152969605,3.237724376958795e-05,0.0876845717430114,0,0,0
2204,74677.82600171608,2010-09-15 10:41:58,2821.4347463387458,2,7,0.5499359965324402,3.9333510398864746,6.630976067759187,6.321658855899194,26.360039505261707,23.165723152969605,3.237724376958795e-05,0.0876845717430114,0,0,0
2205,74707.84124717145,2010-09-15 10:42:28,2851.4499917790945,2,7,0.550297200679779,3.934969902038574,6.635562368693063,6.321658855899194,26.378082970433084,23.165723152969605,3.237724376958795e-05,0.0876845717430114,0,0,0
2206,74737.8565154839,2010-09-15 10:42:58,2881.4652600764985,2,7,0.5499359965324402,3.936264991760254,6.640148685741651,6.321658855899194,26.39613314274684,23.165723152969605,0.0,0.0876845717430114,0,0,0
2207,74767.87189922447,2010-09-15 10:43:28,2911.480643822079,2,7,0.5501165986061096,3.937721967697144,6.644734962057052,6.321658855899194,26.4141897725567,23.165723152969605,0.0,0.0876845717430114,0,0,0
2208,74797.88705004363,2010-09-15 10:43:58,2941.495794636227,2,7,0.5499359965324402,3.939340829849243,6.649321242516527,6.321658855899194,26.432253284431408,23.165723152969605,6.47544875391759e-05,0.0876845717430114,0,0,0
2209,74827.90229284742,2010-09-15 10:44:28,2971.51103747007,2,7,0.550297200679779,3.940959692001343,6.653907482207782,6.321658855899194,26.450323440797824,23.165723152969605,6.47544875391759e-05,0.0876845717430114,0,0,0
2210,74857.91755303455,2010-09-15 10:44:58,3001.526297637179,2,7,0.5499359965324402,3.9422547817230233,6.658493803526193,6.321658855899194,26.468400725166905,23.165723152969605,3.237724376958795e-05,0.0876845717430114,0,0,0
2211,74887.93283191338,2010-09-15 10:45:28,3031.541576510983,2,7,0.5501165986061096,3.943873643875122,6.663080077517159,6.321658855899194,26.486484777527476,23.165723152969605,3.237724376958795e-05,0.0876845717430114,0,0,0
2212,74917.94812675704,2010-09-15 10:45:58,3061.5568714398632,2,7,0.5501165986061096,3.945330619812012,6.667666327860661,6.321658855899194,26.50457570374061,23.165723152969605,3.237724376958795e-05,0.0876845717430114,0,0,0
2213,74947.9634771243,2010-09-15 10:46:28,3091.572221822164,2,7,0.550297200679779,3.9469494819641113,6.672252686368908,6.321658855899194,26.522674100237783,23.165723152969605,6.47544875391759e-05,0.0876845717430114,0,0,0
2214,74977.98248070054,2010-09-15 10:46:58,3121.5912254184486,2,7,0.5499359965324402,3.948406457901001,6.676839548823455,6.321658855899194,26.54078161903403,23.165723152969605,3.237724376958795e-05,0.0876845717430114,0,0,0
2215,75007.99403286692,2010-09-15 10:47:28,3151.602777559755,2,7,0.5499359965324402,3.950187206268311,6.681425273083501,6.321658855899194,26.55889190665176,23.165723152969605,6.47544875391759e-05,0.0876845717430114,0,0,0
2216,75038.00914714485,2010-09-15 10:47:58,3181.6178917474776,2,7,0.5501165986061096,3.9516441822052,6.686011523709493,6.321658855899194,26.57701157272635,23.165723152969605,3.237724376958795e-05,0.0876845717430114,0,0,0
2217,75068.02455117607,2010-09-15 10:48:28,3211.633295788719,2,7,0.550297200679779,3.9534249305725098,6.690597823309963,6.321658855899194,26.59513869994323,23.165723152969605,6.47544875391759e-05,0.0876845717430114,0,0,0
2218,75098.03966049163,2010-09-15 10:48:58,3241.648405089242,2,7,0.5501165986061096,3.9547200202941895,6.695184041791391,6.321658855899194,26.613272975926552,23.165723152969605,3.237724376958795e-05,0.0876845717430114,0,0,0
2219,75128.05495275887,2010-09-15 10:49:28,3271.663697441691,2,7,0.5501165986061096,3.956662654876709,6.699770331959712,6.321658855899194,26.63141498646545,23.165723152969605,6.47544875391759e-05,0.0876845717430114,0,0,0
2220,75158.0702027556,2010-09-15 10:49:58,3301.6789473632257,2,7,0.5501165986061096,3.9582815170288086,6.704356651919732,6.321658855899194,26.64956444967977,23.165723152969605,6.47544875391759e-05,0.0876845717430114,0,0,0
2221,75188.08544829619,2010-09-15 10:50:28,3331.69419291385,2,7,0.5499359965324402,3.959576606750488,6.708942898319354,6.321658855899194,26.66772121520582,23.165723152969605,0.0,0.0876845717430114,0,0,0
2222,75218.10073223765,2010-09-15 10:50:58,3361.709476835254,2,7,0.5499359965324402,3.961357355117798,6.71352924012981,6.321658855899194,26.68588603456192,23.165723152969605,3.237724376958795e-05,0.0876845717430114,0,0,0
2223,75248.1159844499,2010-09-15 10:51:28,3391.7247291427448,2,7,0.5499359965324402,3.9629762172698975,6.718115486755828,6.321658855899194,26.7040581846712,23.165723152969605,0.0,0.0876845717430114,0,0,0
2224,75278.13125433627,2010-09-15 10:51:58,3421.739998928865,2,7,0.5501165986061096,3.964756965637207,6.722701710243496,6.321658855899194,26.72223804984207,23.165723152969605,6.47544875391759e-05,0.0876845717430114,0,0,0
2225,75308.14651206731,2010-09-15 10:52:28,3451.7552566699187,2,7,0.550297200679779,3.966861486434937,6.727288028466036,6.321658855899194,26.740426261819803,23.165723152969605,9.713172767078504e-05,0.0876845717430114,0,0,0
2226,75338.16176560285,2010-09-15 10:52:58,3481.7705102054742,2,7,0.5499359965324402,3.968480348587036,6.731874359263595,6.321658855899194,26.758622516611343,23.165723152969605,6.47544875391759e-05,0.0876845717430114,0,0,0
2227,75368.17703214087,2010-09-15 10:53:29,3511.7857767635364,2,7,0.5501165986061096,3.970099210739136,6.736460636216117,6.321658855899194,26.776826656100848,23.165723152969605,3.237724376958795e-05,0.0876845717430114,0,0,0
2228,75398.19230724526,2010-09-15 10:53:59,3541.801051842869,2,7,0.5501165986061096,3.971879959106445,6.741046952550531,6.321658855899194,26.795039200049985,23.165723152969605,3.237724376958795e-05,0.0876845717430114,0,0,0
2229,75428.20758429953,2010-09-15 10:54:29,3571.816328892119,2,7,0.5501165986061096,3.973660707473755,6.745633286258348,6.321658855899194,26.813260102419605,23.165723152969605,0.0,0.0876845717430114,0,0,0
2230,75458.22282870229,2010-09-15 10:54:59,3601.8315733199406,2,7,0.5499359965324402,3.9756033420562735,6.750219560365759,6.321658855899194,26.8314891831804,23.165723152969605,6.47544875391759e-05,0.0876845717430114,0,0,0
2231,75488.23808352104,2010-09-15 10:55:29,3631.8468281437126,2,7,0.5501165986061096,3.977545976638794,6.754805957253123,6.321658855899194,26.84972737715684,23.165723152969605,6.47544875391759e-05,0.0876845717430114,0,0,0
2232,75518.25337052013,2010-09-15 10:55:59,3661.8621151427983,2,7,0.550297200679779,3.9794886112213135,6.759392245295386,6.321658855899194,26.86797333516051,23.165723152969605,6.47544875391759e-05,0.0876845717430114,0,0,0
2233,75548.26861152942,2010-09-15 10:56:29,3691.877356127025,2,7,0.5501165986061096,3.981431245803833,6.763978472735366,6.321658855899194,26.886228312845795,23.165723152969605,6.47544875391759e-05,0.0876845717430114,0,0,0
2234,75578.2838745687,2010-09-15 10:56:59,3721.892619171316,2,7,0.5499359965324402,3.983373880386353,6.76856465117944,6.321658855899194,26.90449198751432,23.165723152969605,6.47544875391759e-05,0.0876845717430114,0,0,0
2235,75608.2992644546,2010-09-15 10:57:29,3751.908009057224,2,7,0.5501165986061096,3.985154628753662,6.773150826313548,6.321658855899194,26.92276462379188,23.165723152969605,3.237724376958795e-05,0.0876845717430114,0,0,0
2236,75638.31442212085,2010-09-15 10:57:59,3781.92316671345,2,7,0.5499359965324402,3.987259149551392,6.777737018399769,6.321658855899194,26.94104633725859,23.165723152969605,6.47544875391759e-05,0.0876845717430114,0,0,0
2237,75668.32979106449,2010-09-15 10:58:29,3811.9385356671073,2,7,0.5499359965324402,3.989201784133911,6.782323237786868,6.321658855899194,26.95933724524299,23.165723152969605,3.237724376958795e-05,0.0876845717430114,0,0,0
2238,75698.34505645462,2010-09-15 10:58:59,3841.9538010622673,2,7,0.5501165986061096,3.991144418716431,6.786909398194974,6.321658855899194,26.977637110904062,23.165723152969605,3.237724376958795e-05,0.0876845717430114,0,0,0
2239,75728.36033568933,2010-09-15 10:59:29,3871.969080291959,2,7,0.5497553944587708,3.99324893951416,6.791495533425444,6.321658855899194,26.99594632037647,23.165723152969605,3.237724376958795e-05,0.0876845717430114,0,0,0
2240,75758.37857660184,2010-09-15 10:59:59,3901.9873212245175,2,7,0.5501165986061096,3.995353221893311,6.796082207036013,6.321658855899194,27.014267093474903,23.165723152969605,6.47544875391759e-05,0.0876845717430114,0,0,0
2241,75788.3907387809,2010-09-15 11:00:29,3931.9994833785095,2,7,0.5501165986061096,3.99761962890625,6.800667995853541,6.321658855899194,27.03259385399564,23.165723152969605,9.713172767078504e-05,0.0876845717430114,0,0,0
2242,75818.40599209089,2010-09-15 11:00:59,3962.014736688503,2,7,0.5499359965324402,3.9995622634887695,6.805254256302816,6.321658855899194,27.0509320396256,23.165723152969605,6.47544875391759e-05,0.0876845717430114,0,0,0
2243,75848.42142707939,2010-09-15 11:01:29,3992.030171767219,2,7,0.5499359965324402,4.001667022705078,6.809840525596891,6.321658855899194,27.069279976404264,23.165723152969605,6.47544875391759e-05,0.0876845717430114,0,0,0
2244,75878.4365387408,2010-09-15 11:01:59,4022.045283348435,2,7,0.5501165986061096,4.0037713050842285,6.814426661743931,6.321658855899194,27.08763709907864,23.165723152969605,3.23295607813634e-05,0.0876845717430114,0,0,0
2245,75908.45197068168,2010-09-15 11:02:29,4052.060715484806,2,7,0.5501165986061096,4.005876064300537,6.819012881759138,6.321658855899194,27.106004285024955,23.165723152969605,3.24249267578125e-05,0.0876845717430114,0,0,0
2246,75938.46740697345,2010-09-15 11:02:59,4082.0761515960994,2,7,0.5501165986061096,4.008142471313477,6.823599146739533,6.321658855899194,27.12438148367903,23.165723152969605,6.47544875391759e-05,0.0876845717430114,0,0,0
2247,75968.48231644013,2010-09-15 11:03:29,4112.091061042756,2,7,0.5501165986061096,4.010408878326416,6.828185392823264,6.321658855899194,27.142768491763466,23.165723152969605,9.71794142969884e-05,0.0876845717430114,0,0,0
2248,75998.49758919368,2010-09-15 11:03:59,4142.106333801296,2,7,0.5499359965324402,4.012351512908936,6.832771599742841,6.321658855899194,27.16116535297821,23.165723152969605,3.24249267578125e-05,0.0876845717430114,0,0,0
2249,76028.5128403984,2010-09-15 11:04:29,4172.121585016059,2,7,0.5501165986061096,4.014617919921875,6.837357829013991,6.321658855899194,27.179572439605487,23.165723152969605,3.24249267578125e-05,0.0876845717430114,0,0,0
2250,76058.52804352815,2010-09-15 11:04:59,4202.13678813577,2,7,0.5501165986061096,4.016884326934815,6.841944028883446,6.321658855899194,27.197989538981496,23.165723152969605,6.47544875391759e-05,0.0876845717430114,0,0,0
2251,76088.54334629157,2010-09-15 11:05:29,4232.1520908841685,2,7,0.550297200679779,4.019150733947754,6.846530267839047,6.321658855899194,27.216416957977696,23.165723152969605,9.71794142969884e-05,0.0876845717430114,0,0,0
2252,76118.55868740074,2010-09-15 11:05:59,4262.167432003347,2,7,0.5499359965324402,4.021255016326904,6.851116425778455,6.321658855899194,27.234854177567783,23.165723152969605,0.0,0.0876845717430114,0,0,0
2253,76148.57387161325,2010-09-15 11:06:29,4292.182616215862,2,7,0.5495747923851013,4.023359775543213,6.855702138195322,6.321658855899194,27.25330009834689,23.165723152969605,0.0,0.0876845717430114,0,0,0
2254,76178.58926366956,2010-09-15 11:06:59,4322.198008272187,2,7,0.5501165986061096,4.025949954986572,6.860287113241797,6.321658855899194,27.27175360151643,23.165723152969605,6.47544875391759e-05,0.0876845717430114,0,0,0
2255,76208.60440896996,2010-09-15 11:07:29,4352.213153572571,2,7,0.5495747923851013,4.028216361999512,6.864872072716751,6.321658855899194,27.290217771294177,23.165723152969605,3.24249267578125e-05,0.0876845717430114,0,0,0
2256,76238.61972354287,2010-09-15 11:07:59,4382.228468150498,2,7,0.5501165986061096,4.030644416809082,6.869457137402939,6.321658855899194,27.308693058770405,23.165723152969605,6.47544875391759e-05,0.0876845717430114,0,0,0
2257,76268.6349635296,2010-09-15 11:08:29,4412.243708122198,2,7,0.5501165986061096,4.0329108238220215,6.874042593636903,6.321658855899194,27.327180703099017,23.165723152969605,3.23295607813634e-05,0.0876845717430114,0,0,0
2258,76298.65020943612,2010-09-15 11:08:59,4442.25895402871,2,7,0.5501165986061096,4.035338878631592,6.878628802753395,6.321658855899194,27.34568228905741,23.165723152969605,9.70840483205393e-05,0.0876845717430114,0,0,0
2259,76328.66546328746,2010-09-15 11:09:29,4472.274207905118,2,7,0.5501165986061096,4.037929058074951,6.88321500099808,6.321658855899194,27.364194843449937,23.165723152969605,9.70840483205393e-05,0.0876845717430114,0,0,0
2260,76358.68086800037,2010-09-15 11:09:59,4502.2896126080095,2,7,0.5497553944587708,4.04003381729126,6.887801187678198,6.321658855899194,27.382718442049768,23.165723152969605,3.24249267578125e-05,0.0876845717430114,0,0,0
2261,76388.69601362156,2010-09-15 11:10:29,4532.304758214158,2,7,0.5499359965324402,4.042623996734619,6.892387427752156,6.321658855899194,27.4012533999856,23.165723152969605,6.47544875391759e-05,0.0876845717430114,0,0,0
2262,76418.7115819128,2010-09-15 11:10:59,4562.320326625692,2,7,0.5499359965324402,4.0450520515441895,6.896973731923231,6.321658855899194,27.419799931219416,23.165723152969605,6.47544875391759e-05,0.0876845717430114,0,0,0
2263,76448.72699612944,2010-09-15 11:11:29,4592.335740732058,2,7,0.5501165986061096,4.047642230987549,6.901559989556338,6.321658855899194,27.438357678541927,23.165723152969605,6.47544875391759e-05,0.0876845717430114,0,0,0
2264,76478.741816604,2010-09-15 11:11:59,4622.350561206627,2,7,0.550297200679779,4.050232410430908,6.906146128804819,6.321658855899194,27.456926464456693,23.165723152969605,6.47544875391759e-05,0.0876845717430114,0,0,0
2265,76508.75729616877,2010-09-15 11:12:29,4652.366040771387,2,7,0.550297200679779,4.052822589874268,6.910732398305945,6.321658855899194,27.475507338270905,23.165723152969605,6.47544875391759e-05,0.0876845717430114,0,0,0
2266,76538.77231567516,2010-09-15 11:12:59,4682.381060282783,2,7,0.5499359965324402,4.055251121520996,6.915318590388285,6.321658855899194,27.49409965500304,23.165723152969605,6.47544875391759e-05,0.0876845717430114,0,0,0
2267,76568.7877077365,2010-09-15 11:13:29,4712.396452329083,2,7,0.5501165986061096,4.058002948760986,6.919904846732655,6.321658855899194,27.51270403258117,23.165723152969605,9.70840483205393e-05,0.0876845717430114,0,0,0
2268,76598.80286008444,2010-09-15 11:13:59,4742.411604692097,2,7,0.550297200679779,4.060593128204346,6.924491070727516,6.321658855899194,27.53132020180988,23.165723152969605,9.70840483205393e-05,0.0876845717430114,0,0,0
2269,76628.8182959752,2010-09-15 11:14:29,4772.427040753265,2,7,0.5501165986061096,4.063183307647705,6.929077390418186,6.321658855899194,27.54994838596844,23.165723152969605,9.70840483205393e-05,0.0876845717430114,0,0,0
2270,76658.83338150139,2010-09-15 11:14:59,4802.442126098993,2,7,0.550297200679779,4.0657734870910645,6.933663553652629,6.321658855899194,27.5685882101976,23.165723152969605,9.70840483205393e-05,0.0876845717430114,0,0,0
2271,76688.84878810403,2010-09-15 11:15:29,4832.457532701628,2,7,0.5499359965324402,4.068363666534424,6.938249772153136,6.321658855899194,27.58724057251205,23.165723152969605,3.23295607813634e-05,0.0876845717430114,0,0,0
2272,76718.86392197588,2010-09-15 11:15:59,4862.472666568473,2,7,0.5501165986061096,4.071115970611572,6.942835981338281,6.321658855899194,27.60590541571268,23.165723152969605,6.47544875391759e-05,0.0876845717430114,0,0,0
2273,76748.87917366684,2010-09-15 11:16:29,4892.487918259424,2,7,0.5501165986061096,4.0738677978515625,6.947422183327594,6.321658855899194,27.624582738144312,23.165723152969605,6.47544875391759e-05,0.0876845717430114,0,0,0
2274,76778.89443761337,2010-09-15 11:16:59,4922.503182205967,2,7,0.5501165986061096,4.076620101928711,6.952008464937969,6.321658855899194,27.643273188959693,23.165723152969605,6.47544875391759e-05,0.0876845717430114,0,0,0
2275,76808.90970728421,2010-09-15 11:17:29,4952.5184518768,2,7,0.5499359965324402,4.07953405380249,6.956594625624468,6.321658855899194,27.66197601384876,23.165723152969605,6.47544875391759e-05,0.0876845717430114,0,0,0
2276,76838.92512130536,2010-09-15 11:17:59,4982.533865918003,2,7,0.5501165986061096,4.0824480056762695,6.961180878679506,6.321658855899194,27.680692214271147,23.165723152969605,9.71794142969884e-05,0.0876845717430114,0,0,0
2277,76868.94025178876,2010-09-15 11:18:29,5012.548996391377,2,7,0.5499359965324402,4.08519983291626,6.965767055471193,6.321658855899194,27.699421207795712,23.165723152969605,6.47544875391759e-05,0.0876845717430114,0,0,0
2278,76898.95967521299,2010-09-15 11:18:59,5042.568419920879,2,7,0.5499359965324402,4.088113784790039,6.970353899673503,6.321658855899194,27.71816615718889,23.165723152969605,6.47544875391759e-05,0.0876845717430114,0,0,0
2279,76928.97089980169,2010-09-15 11:19:29,5072.579644394276,2,7,0.5501165986061096,4.091189861297607,6.974939472268761,6.321658855899194,27.73691928041314,23.165723152969605,9.71794142969884e-05,0.0876845717430114,0,0,0
2280,76958.98604201937,2010-09-15 11:19:59,5102.59478662199,2,7,0.5497553944587708,4.093941688537598,6.979525659352077,6.321658855899194,27.755688297806717,23.165723152969605,3.23295607813634e-05,0.0876845717430114,0,0,0
2281,76989.00147609058,2010-09-15 11:20:29,5132.610220813493,2,7,0.5501165986061096,4.097017765045166,6.98411187675051,6.321658855899194,27.77447104970252,23.165723152969605,6.47544875391759e-05,0.0876845717430114,0,0,0
2282,77019.01656214808,2010-09-15 11:20:59,5162.625306750697,2,7,0.5499359965324402,4.100093364715576,6.988698056249717,6.321658855899194,27.793267328612743,23.165723152969605,0.0001295089750783,0.0876845717430114,0,0,0
2283,77049.03183156328,2010-09-15 11:21:29,5192.640576246091,2,7,0.5499359965324402,4.103007316589356,6.993284244980834,6.321658855899194,27.81207748299436,23.165723152969605,9.70840483205393e-05,0.0876845717430114,0,0,0
2284,77079.04715954966,2010-09-15 11:21:59,5222.6559042475255,2,7,0.5501165986061096,4.106083393096924,6.997870363842951,6.321658855899194,27.83090130168324,23.165723152969605,6.47544875391759e-05,0.0876845717430114,0,0,0
2285,77109.06239017303,2010-09-15 11:22:29,5252.671134775652,2,7,0.5501165986061096,4.109158992767334,7.002456549225248,6.321658855899194,27.84973944215216,23.165723152969605,6.47544875391759e-05,0.0876845717430114,0,0,0
2286,77139.07762297185,2010-09-15 11:22:59,5282.68636756442,2,7,0.5501165986061096,4.112235069274902,7.007042770487852,6.321658855899194,27.86859184199044,23.165723152969605,9.71794142969884e-05,0.0876845717430114,0,0,0
2287,77169.0928817254,2010-09-15 11:23:29,5312.701626323013,2,7,0.5501165986061096,4.115148544311523,7.011628962511923,6.321658855899194,27.88745810266409,23.165723152969605,6.47544875391759e-05,0.0876845717430114,0,0,0
2288,77199.1081649601,2010-09-15 11:23:59,5342.716909587779,2,7,0.5499359965324402,4.118386268615723,7.016215220428514,6.321658855899194,27.90633896223343,23.165723152969605,6.47544875391759e-05,0.0876845717430114,0,0,0
2289,77229.12342774875,2010-09-15 11:24:29,5372.732172356382,2,7,0.5501165986061096,4.121786117553711,7.020801435802659,6.321658855899194,27.9252340975218,23.165723152969605,9.71794142969884e-05,0.0876845717430114,0,0,0
2290,77259.12533119043,2010-09-15 11:24:59,5402.734075903312,2,7,0.5501165986061096,4.12470006942749,7.025385704836546,6.321658855899194,27.94413574593405,23.165723152969605,9.71794142969884e-05,0.0876845717430114,0,0,0
2291,77289.1383274665,2010-09-15 11:25:29,5432.747072084164,2,7,0.5501165986061096,4.1277756690979,7.029971612288196,6.321658855899194,27.96305884878305,23.165723152969605,6.47544875391759e-05,0.0876845717430114,0,0,0
2292,77319.15358617497,2010-09-15 11:26:00,5462.762330772583,2,7,0.5501165986061096,4.13133716583252,7.034557805747397,6.321658855899194,27.981997820447653,23.165723152969605,9.70840483205393e-05,0.0876845717430114,0,0,0
2293,77349.15590132434,2010-09-15 11:26:30,5492.764645921936,2,7,0.5499359965324402,4.134251117706299,7.039142052800901,6.321658855899194,28.000943562987658,23.165723152969605,6.47544875391759e-05,0.0876845717430114,0,0,0
2294,77379.16849889519,2010-09-15 11:27:00,5522.777243517858,2,7,0.5501165986061096,4.137650966644287,7.043727856320792,6.321658855899194,28.019910736261785,23.165723152969605,6.47544875391759e-05,0.0876845717430114,0,0,0
2295,77409.18377672137,2010-09-15 11:27:30,5552.7925213390345,2,7,0.5499359965324402,4.141050338745117,7.0483140983012,6.321658855899194,28.03889484375952,23.165723152969605,9.70840483205393e-05,0.0876845717430114,0,0,0
2296,77439.19906187084,2010-09-15 11:28:00,5582.807806563691,2,7,0.5499359965324402,4.144288063049316,7.052900408620818,6.321658855899194,28.05789451149527,23.165723152969605,6.47544875391759e-05,0.0876845717430114,0,0,0
2297,77469.21428593785,2010-09-15 11:28:30,5612.823030555502,2,7,0.5499359965324402,4.147687911987305,7.057486602661207,6.321658855899194,28.076909495439683,23.165723152969605,9.71794142969884e-05,0.0876845717430114,0,0,0
2298,77499.22956690688,2010-09-15 11:29:00,5642.838311529549,2,7,0.5501165986061096,4.151411056518555,7.062072757683757,6.321658855899194,28.09593987918817,23.165723152969605,0.0001295089750783,0.0876845717430114,0,0,0
2299,77529.24481597127,2010-09-15 11:29:30,5672.853560593944,2,7,0.5501165986061096,4.154810905456543,7.066659018865775,6.321658855899194,28.114986356287773,23.165723152969605,9.71794142969884e-05,0.0876845717430114,0,0,0
2300,77559.26013942636,2010-09-15 11:30:00,5702.86888402898,2,7,0.5499359965324402,4.158210277557373,7.071245190657062,6.321658855899194,28.13404828006097,23.165723152969605,9.70840483205393e-05,0.0876845717430114,0,0,0
2301,77589.27534670645,2010-09-15 11:30:30,5732.884091299051,2,7,0.5499359965324402,4.161610126495361,7.075831409726094,6.321658855899194,28.15312639235658,23.165723152969605,6.47544875391759e-05,0.0876845717430114,0,0,0
2302,77619.29065373554,2010-09-15 11:31:00,5762.89939833816,2,7,0.5501165986061096,4.1651716232299805,7.080417660603271,6.321658855899194,28.172220714309542,23.165723152969605,0.0001295089750783,0.0876845717430114,0,0,0
2303,77649.30600963661,2010-09-15 11:31:30,5792.9147542592855,2,7,0.5501165986061096,4.1685709953308105,7.085003860328746,6.321658855899194,28.19133096252301,23.165723152969605,6.47544875391759e-05,0.0876845717430114,0,0,0
2304,77679.30806572932,2010-09-15 11:32:00,5822.916810331944,2,7,0.5501165986061096,4.172294616699219,7.089588052667071,6.321658855899194,28.21044910470047,23.165723152969605,0.0001295089750783,0.0876845717430114,0,0,0
2305,77709.32078488868,2010-09-15 11:32:30,5852.929529486295,2,7,0.5501165986061096,4.175856113433838,7.094173868815567,6.321658855899194,28.22959046461116,23.165723152969605,0.0001295089750783,0.0876845717430114,0,0,0
2306,77739.33630259364,2010-09-15 11:33:00,5882.945047191259,2,7,0.5501165986061096,4.179579257965088,7.098760157322737,6.321658855899194,28.24875037917168,23.165723152969605,0.0001295089750783,0.0876845717430114,0,0,0
2307,77769.35432401327,2010-09-15 11:33:30,5912.963068640954,2,7,0.5499359965324402,4.183140754699707,7.10334684308275,6.321658855899194,28.267928740633327,23.165723152969605,9.70840483205393e-05,0.0876845717430114,0,0,0
2308,77799.36976057569,2010-09-15 11:34:00,5942.978505203373,2,7,0.5499359965324402,4.186702251434326,7.107933077618276,6.321658855899194,28.287121976082105,23.165723152969605,6.47544875391759e-05,0.0876845717430114,0,0,0
2309,77829.38345638794,2010-09-15 11:34:30,5972.9922012211255,2,7,0.5501165986061096,4.190263748168945,7.112519031165745,6.321658855899194,28.306331058257246,23.165723152969605,3.23295607813634e-05,0.0876845717430114,0,0,0
2310,77859.40212675242,2010-09-15 11:35:00,6003.010871460299,2,7,0.5499359965324402,4.194311141967773,7.117105750811854,6.321658855899194,28.325560400764687,23.165723152969605,0.0001295089750783,0.0876845717430114,0,0,0
2311,77889.41240459288,2010-09-15 11:35:30,6033.021149185466,2,7,0.5501165986061096,4.198034286499023,7.121691206489328,6.321658855899194,28.34480164608956,23.165723152969605,9.71794142969884e-05,0.0876845717430114,0,0,0
2312,77904.24038142427,2010-09-15 11:35:45,6047.849126152203,2,7,0.5501165986061096,4.200138568878174,7.12395682322052,6.321658855899194,28.35431488036024,23.165723152969605,0.0001942634553415,0.0876845717430114,0,0,0
2313,77934.25406355811,2010-09-15 11:36:15,30.01610762248844,3,7,0.0,4.119195938110352,7.12395682322052,6.321658855899194,28.35431488036024,23.165723152969605,-0.0003885269106831,0.0876845717430114,0,0,0
2314,77964.26848048036,2010-09-15 11:36:45,60.03052462994166,3,7,0.0,4.109321117401123,7.12395682322052,6.321658855899194,28.35431488036024,23.165723152969605,-0.0001942634553415,0.0876845717430114,0,0,0
2315,77994.28371653227,2010-09-15 11:37:15,90.04576059664316,3,7,0.0,4.1034932136535645,7.12395682322052,6.321658855899194,28.35431488036024,23.165723152969605,-9.70840483205393e-05,0.0876845717430114,0,0,0
2316,78024.25301405956,2010-09-15 11:37:45,120.01505820914514,3,7,0.0,4.099607944488525,7.12395682322052,6.321658855899194,28.35431488036024,23.165723152969605,-6.47544875391759e-05,0.0876845717430114,0,0,0
2317,78024.2668745638,2010-09-15 11:37:45,0.015712109843417,4,7,0.9918869137763976,4.199653148651123,7.123961178302867,6.321658855899194,28.354333170899643,23.165723152969605,-6.47544875391759e-05,0.0876845717430114,0,0,0
2318,78025.2824042371,2010-09-15 11:37:46,1.031241692918092,4,7,0.9414969086647034,4.199653148651123,7.124232274681528,6.321658855899194,28.355471696533748,23.165723152969605,-6.47544875391759e-05,0.0876845717430114,0,0,0
2319,78027.56357795766,2010-09-15 11:37:48,3.312415428511939,4,7,0.891106903553009,4.199814796447754,7.124811755358994,6.321658855899194,28.35790534713299,23.165723152969605,-3.24249267578125e-05,0.0876845717430114,0,0,0
2320,78030.89179212225,2010-09-15 11:37:52,6.640629588087187,4,7,0.8410781621932983,4.199653148651123,7.125611166571227,6.321658855899194,28.361262636459443,23.165723152969605,0.0,0.0876845717430114,0,0,0
2321,78035.32925267647,2010-09-15 11:37:56,11.078090147329297,4,7,0.7908687591552734,4.199814796447754,7.126615567985849,6.321658855899194,28.365480849889703,23.165723152969605,3.23295607813634e-05,0.0876845717430114,0,0,0
2322,78041.03233473167,2010-09-15 11:38:02,16.781172267698988,4,7,0.7408400177955627,4.199653148651123,7.127827244691931,6.321658855899194,28.37056956197752,23.165723152969605,-3.23295607813634e-05,0.0876845717430114,0,0,0
2323,78048.39158464165,2010-09-15 11:38:09,24.14042209746637,4,7,0.6906306147575378,4.199814796447754,7.129288205685283,6.321658855899194,28.376705228737368,23.165723152969605,0.0,0.0876845717430114,0,0,0
2324,78058.11025904314,2010-09-15 11:38:19,33.85909648892813,4,7,0.6406018733978271,4.199653148651123,7.131081907109083,6.321658855899194,28.38423832953236,23.165723152969605,0.0,0.0876845717430114,0,0,0
2325,78071.56321967256,2010-09-15 11:38:32,47.31205716345802,4,7,0.5905730724334717,4.199653148651123,7.13337694076787,6.321658855899194,28.393876885745723,23.165723152969605,0.0,0.0876845717430114,0,0,0
2326,78091.7192182359,2010-09-15 11:38:52,67.46805579195762,4,7,0.540544331073761,4.199814796447754,7.136533598632348,6.321658855899194,28.40713405657554,23.165723152969605,3.23295607813634e-05,0.0876845717430114,0,0,0
2327,78125.37504129305,2010-09-15 11:39:26,101.123878738852,4,7,0.4903349578380584,4.199653148651123,7.141332836721898,6.321658855899194,28.42728962380955,23.165723152969605,-3.23295607813634e-05,0.0876845717430114,0,0,0
2328,78185.03059536882,2010-09-15 11:40:26,160.77943291485283,4,7,0.4403061866760254,4.199653148651123,7.149010215305179,6.321658855899194,28.459532663035723,23.165723152969605,0.0,0.0876845717430114,0,0,0
2329,78275.87313643208,2010-09-15 11:41:57,251.6219738929096,4,7,0.3902774155139923,4.199653148651123,7.159461255076272,6.321658855899194,28.503424370633287,23.165723152969605,0.0,0.0876845717430114,0,0,0
2330,78390.7809777321,2010-09-15 11:43:51,366.5298155237497,4,7,0.3402486443519592,4.199814796447754,7.17110562725755,6.321658855899194,28.552327776900142,23.165723152969605,0.0,0.0876845717430114,0,0,0
2331,78531.13583946503,2010-09-15 11:46:12,506.88467691082747,4,7,0.2902198731899261,4.199653148651123,7.183378174591923,6.321658855899194,28.60386930647911,23.165723152969605,0.0,0.0876845717430114,0,0,0
2332,78700.43064279952,2010-09-15 11:49:01,676.1794803605924,4,7,0.2400104850530624,4.199491024017334,7.195812327290207,6.321658855899194,28.656089245638693,23.165723152969605,-6.47544875391759e-05,0.0876845717430114,0,0,0
2333,78911.8499011494,2010-09-15 11:52:33,887.5987386052108,4,7,0.1899817138910293,4.199653148651123,7.208400568179558,6.321658855899194,28.70895666979156,23.165723152969605,-3.23295607813634e-05,0.0876845717430114,0,0,0
2334,79191.04967744985,2010-09-15 11:57:12,1166.7985149156934,4,7,0.1399529427289962,4.199814796447754,7.221103456457343,6.321658855899194,28.76230562639861,23.165723152969605,0.0,0.0876845717430114,0,0,0
2335,79610.98215050259,2010-09-15 12:04:12,1586.730987968429,4,7,0.0899241790175437,4.199653148651123,7.234308062322627,6.321658855899194,28.817761666579,23.165723152969605,-3.23295607813634e-05,0.0876845717430114,0,0,0
2336,80204.14692864496,2010-09-15 12:14:05,2179.8957660957544,4,7,0.0498289167881011,4.199653148651123,7.245557074421472,6.321658855899194,28.86500473540719,23.165723152969605,0.0,0.0876845717430114,0,0,0
2337,80234.16391391332,2010-09-15 12:14:35,30.01528130988506,5,7,0.0,4.192206382751465,7.245557074421472,6.321658855899194,28.86500473540719,23.165723152969605,-3.24249267578125e-05,0.0876845717430114,0,0,0
2338,80264.16367578931,2010-09-15 12:15:05,60.01504319088803,5,7,0.0,4.191235065460205,7.245557074421472,6.321658855899194,28.86500473540719,23.165723152969605,0.0,0.0876845717430114,0,0,0
2339,80264.35343647738,2010-09-15 12:15:05,0.187475848560445,6,7,-1.9243103452026844e-05,4.190911293029785,7.245557074421472,6.32165885690131,28.86500473540719,23.165723157169385,0.0,0.0907677188515663,0,0,0
2340,80269.18150470845,2010-09-15 12:15:10,5.01554407964496,6,7,0.0007031940040178,4.191073417663574,7.245557906379101,6.321658857068543,28.865008222237076,23.16572315787024,0.0,0.0907677188515663,0,0,0
2341,80299.19936392999,2010-09-15 12:15:40,30.015379289457144,7,7,-1.0997490882873535,4.023359775543213,7.245557906379101,6.330826605291113,28.865008222237076,23.202797208653703,-0.0009388923645019,0.0907677188515663,0,0,0
2342,80329.21448507509,2010-09-15 12:16:10,60.03050044457125,7,7,-1.099568486213684,3.9984290599823,7.245557906379101,6.339994340705225,28.865008222237076,23.239560186657027,-0.0005180835723876,0.0907677188515663,0,0,0
2343,80359.22988009382,2010-09-15 12:16:40,90.04589546830357,7,7,-1.099568486213684,3.981269359588623,7.245557906379101,6.349162104613492,28.865008222237076,23.27613387581943,-0.0003885269106831,0.0907677188515663,0,0,0
2344,80389.24501969495,2010-09-15 12:17:10,120.06103507948689,7,7,-1.0993878841400146,3.9679946899414062,7.245557906379101,6.358329658410296,28.865008222237076,23.31256902843025,-0.0002913951757363,0.0907677188515663,0,0,0
2345,80419.26041761092,2010-09-15 12:17:40,150.0764329954386,7,7,-1.099568486213684,3.956824541091919,7.245557906379101,6.367497320378501,28.865008222237076,23.348893588611386,-0.0002590179501567,0.0907677188515663,0,0,0
2346,80449.27555164818,2010-09-15 12:18:10,180.0915670226835,7,7,-1.099568486213684,3.946787595748901,7.245557906379101,6.376664842579507,28.865008222237076,23.385120964870083,-0.0002590179501567,0.0907677188515663,0,0,0
2347,80479.29083572999,2010-09-15 12:18:40,210.1068511145128,7,7,-1.0993878841400146,3.9375600814819336,7.245557906379101,6.385832523325921,28.865008222237076,23.42126075694214,-0.0002266406954731,0.0907677188515663,0,0,0
2348,80509.30610021287,2010-09-15 12:19:10,240.1221155823575,7,7,-1.099568486213684,3.9286563396453857,7.245557906379101,6.395000101868743,28.865008222237076,23.45731726422905,-0.0002266406954731,0.0907677188515663,0,0,0
2349,80539.32135296648,2010-09-15 12:19:40,270.1373683409742,7,7,-1.099568486213684,3.920076370239258,7.245557906379101,6.404167701348446,28.865008222237076,23.493294587381275,-0.0002266406954731,0.0907677188515663,0,0,0
2350,80569.33660650201,2010-09-15 12:20:10,300.15262187151774,7,7,-1.0993878841400146,3.911820411682129,7.245557906379101,6.413335385496459,28.865008222237076,23.52919504305093,-0.0001942634553415,0.0907677188515663,0,0,0
2351,80599.3520103578,2010-09-15 12:20:40,330.1680257473463,7,7,-1.099568486213684,3.903726100921631,7.245557906379101,6.422503098945658,28.865008222237076,23.565020624112183,-0.0002266406954731,0.0907677188515663,0,0,0
2352,80629.36716058047,2010-09-15 12:21:10,360.18317593994243,7,7,-1.0993878841400146,3.8959555625915527,7.245557906379101,6.431670694149926,28.865008222237076,23.600772303021184,-0.0001942634553415,0.0907677188515663,0,0,0
2353,80659.38245523366,2010-09-15 12:21:40,390.198470628222,7,7,-1.0997490882873535,3.8881850242614746,7.245557906379101,6.44083832265547,28.865008222237076,23.63645277938705,-0.0001942634553415,0.0907677188515663,0,0,0
2354,80689.39768481444,2010-09-15 12:22:10,420.2137002039706,7,7,-1.099568486213684,3.8805763721466064,7.245557906379101,6.450005989044772,28.865008222237076,23.672063117536425,-0.0001618862152099,0.0907677188515663,0,0,0
2355,80719.41295117702,2010-09-15 12:22:40,450.22896654649486,7,7,-1.0993878841400146,3.8729677200317374,7.245557906379101,6.459173677987547,28.865008222237076,23.70760349421689,-0.0001618862152099,0.0907677188515663,0,0,0
2356,80749.42820157975,2010-09-15 12:23:10,480.244216969281,7,7,-1.099568486213684,3.86552095413208,7.245557906379101,6.468341385208226,28.865008222237076,23.74307491256268,-0.0001618862152099,0.0907677188515663,0,0,0
2357,80779.44360532024,2010-09-15 12:23:40,510.2596207097717,7,7,-1.0997490882873535,3.858074188232422,7.245557906379101,6.477509119288982,28.865008222237076,23.77847842800426,-0.0001942634553415,0.0907677188515663,0,0,0
2358,80809.45873419462,2010-09-15 12:24:10,540.2747495540792,7,7,-1.099568486213684,3.850951194763184,7.245557906379101,6.486676749910722,28.865008222237076,23.81381457905995,-0.0001618862152099,0.0907677188515663,0,0,0
2359,80839.47401921377,2010-09-15 12:24:40,570.2900345732232,7,7,-1.099568486213684,3.843828201293945,7.245557906379101,6.495844446323289,28.865008222237076,23.84908481734856,-0.0001295089750783,0.0907677188515663,0,0,0
2360,80869.48926536589,2010-09-15 12:25:10,600.3052807504116,7,7,-1.099568486213684,3.836543321609497,7.245557906379101,6.505012126290668,28.865008222237076,23.884289428065244,-0.0001942634553415,0.0907677188515663,0,0,0
2361,80899.50460899132,2010-09-15 12:25:41,630.3206245613088,7,7,-1.099568486213684,3.829582452774048,7.245557906379101,6.51417989286774,28.865008222237076,23.919429901378106,-0.0001618862152099,0.0907677188515663,0,0,0
2362,80929.51984723369,2010-09-15 12:26:11,660.335862688403,7,7,-1.099568486213684,3.82262134552002,7.245557906379101,6.52334759056167,28.865008222237076,23.95450613421552,-0.0001618862152099,0.0907677188515663,0,0,0
2363,80959.53506264409,2010-09-15 12:26:41,690.3510780085676,7,7,-1.0993878841400146,3.815822124481201,7.245557906379101,6.53251528183962,28.865008222237076,23.989519564273525,-0.0002266406954731,0.0907677188515663,0,0,0
2364,80989.55262835619,2010-09-15 12:27:11,720.3686438058846,7,7,-1.0993878841400146,3.8091847896575928,7.245557906379101,6.541683690130036,28.865008222237076,24.024473459467288,-0.0001618862152099,0.0907677188515663,0,0,0
2365,81019.56562445685,2010-09-15 12:27:41,750.381639916561,7,7,-1.099568486213684,3.802547454833984,7.245557906379101,6.550850678801052,28.865008222237076,24.059361239224025,-0.0001618862152099,0.0907677188515663,0,0,0
2366,81049.58088054879,2010-09-15 12:28:11,780.396895918273,7,7,-1.099568486213684,3.795910120010376,7.245557906379101,6.560018384055484,28.865008222237076,24.094192070573555,-0.0001942634553415,0.0907677188515663,0,0,0
2367,81079.59612483626,2010-09-15 12:28:41,810.4121402057443,7,7,-1.0997490882873535,3.789596557617188,7.245557906379101,6.569186058046258,28.865008222237076,24.128963946197604,-0.0001942634553415,0.0907677188515663,0,0,0
2368,81109.61142106839,2010-09-15 12:29:11,840.4274364428901,7,7,-1.099568486213684,3.783444881439209,7.245557906379101,6.57835379497387,28.865008222237076,24.16367808520114,-0.0001618862152099,0.0907677188515663,0,0,0
2369,81139.62662379211,2010-09-15 12:29:41,870.4426391816495,7,7,-1.099568486213684,3.7772932052612314,7.245557906379101,6.587520828503002,28.865008222237076,24.19833318046059,-0.0001295089750783,0.0907677188515663,0,0,0
2370,81169.64187984396,2010-09-15 12:30:11,900.4578952334865,7,7,-1.0993878841400146,3.771465301513672,7.245557906379101,6.596687786973376,28.865008222237076,24.23293286646616,-0.0001618862152099,0.0907677188515663,0,0,0
2371,81199.65716031674,2010-09-15 12:30:41,930.473175676207,7,7,-1.099568486213684,3.7654755115509033,7.245557906379101,6.605854777747452,28.865008222237076,24.2674786293742,-0.0001295089750783,0.0907677188515663,0,0,0
2372,81229.67256082415,2010-09-15 12:31:11,960.4885762738528,7,7,-1.0992072820663452,3.7599713802337646,7.245557906379101,6.615021780271901,28.865008222237076,24.30197136006105,-9.713172767078504e-05,0.0907677188515663,0,0,0
2373,81259.687830094,2010-09-15 12:31:41,990.503845483534,7,7,-1.0992072820663452,3.754143476486206,7.245557906379101,6.624188677351701,28.865008222237076,24.336411685071656,-0.0001942634553415,0.0907677188515663,0,0,0
2374,81289.70295972025,2010-09-15 12:32:11,1020.5189750797182,7,7,-1.099568486213684,3.748801469802856,7.245557906379101,6.633355539357043,28.865008222237076,24.370801103175264,-0.0001295089750783,0.0907677188515663,0,0,0
2375,81319.71827329067,2010-09-15 12:32:41,1050.5342886601557,7,7,-1.0997490882873535,3.743135452270508,7.245557906379101,6.642522877266344,28.865008222237076,24.40514225916021,-0.0001942634553415,0.0907677188515663,0,0,0
2376,81349.73349656569,2010-09-15 12:33:11,1080.5495119251516,7,7,-1.099568486213684,3.737793207168579,7.245557906379101,6.651690394726268,28.865008222237076,24.43943490188694,-0.0001942634553415,0.0907677188515663,0,0,0
2377,81379.74876503853,2010-09-15 12:33:41,1110.5647804080186,7,7,-1.099568486213684,3.7327747344970703,7.245557906379101,6.660857953587107,28.865008222237076,24.473679782954783,-0.0001295089750783,0.0907677188515663,0,0,0
2378,81409.76456712835,2010-09-15 12:34:11,1140.5805824978504,7,7,-1.0997490882873535,3.7277562618255615,7.245557906379101,6.670025628723214,28.865008222237076,24.507877790298657,-0.0001295089750783,0.0907677188515663,0,0,0
2379,81439.7793197285,2010-09-15 12:34:41,1170.5953350879695,7,7,-1.0993878841400146,3.7227377891540527,7.245557906379101,6.679193035790124,28.865008222237076,24.54202877838506,-0.0001618862152099,0.0907677188515663,0,0,0
2380,81469.79455150475,2010-09-15 12:35:11,1200.610566864211,7,7,-1.099568486213684,3.717881202697754,7.245557906379101,6.688360555110045,28.865008222237076,24.57613458627198,-9.713172767078504e-05,0.0907677188515663,0,0,0
2381,81499.80983487477,2010-09-15 12:35:41,1230.6258502643136,7,7,-1.0993878841400146,3.713024616241455,7.245557906379101,6.697528132529937,28.865008222237076,24.61019562126237,-0.0001295089750783,0.0907677188515663,0,0,0
2382,81529.82510114211,2010-09-15 12:36:11,1260.6411165065874,7,7,-1.099568486213684,3.708168029785156,7.245557906379101,6.706695687540696,28.865008222237076,24.644211937773708,-0.0001295089750783,0.0907677188515663,0,0,0
2383,81559.84034143461,2010-09-15 12:36:41,1290.6563567940743,7,7,-1.0997490882873535,3.7033114433288574,7.245557906379101,6.715863248322903,28.865008222237076,24.67818445693593,-0.0001295089750783,0.0907677188515663,0,0,0
2384,81589.85561752146,2010-09-15 12:37:11,1320.6716329059846,7,7,-1.099568486213684,3.698616743087769,7.245557906379101,6.725030848119373,28.865008222237076,24.71211370459547,-0.0001295089750783,0.0907677188515663,0,0,0
2385,81619.87103279574,2010-09-15 12:37:41,1350.6870481552028,7,7,-1.099568486213684,3.69392204284668,7.245557906379101,6.73419843603572,28.865008222237076,24.745999771658123,-9.713172767078504e-05,0.0907677188515663,0,0,0
2386,81649.88613311385,2010-09-15 12:38:11,1380.7021484733043,7,7,-1.099568486213684,3.689389228820801,7.245557906379101,6.743365920309989,28.865008222237076,24.779842887602445,-9.713172767078504e-05,0.0907677188515663,0,0,0
2387,81679.9015817564,2010-09-15 12:38:41,1410.71759712089,7,7,-1.0993878841400146,3.685018301010132,7.245557906379101,6.752533496860405,28.865008222237076,24.81364468365658,-6.47544875391759e-05,0.0907677188515663,0,0,0
2388,81709.91666227509,2010-09-15 12:39:11,1440.732677644582,7,7,-1.0992072820663452,3.680647373199463,7.245557906379101,6.761700985991914,28.865008222237076,24.8474058527172,-6.47544875391759e-05,0.0907677188515663,0,0,0
2389,81739.93192583567,2010-09-15 12:39:41,1470.747941290375,7,7,-1.0993878841400146,3.676276445388794,7.245557906379101,6.770868525856923,28.865008222237076,24.881126963786446,-6.47544875391759e-05,0.0907677188515663,0,0,0
2390,81769.94719091002,2010-09-15 12:40:11,1500.7632062795208,7,7,-1.099568486213684,3.671905755996704,7.245557906379101,6.780036205398535,28.865008222237076,24.91480849117684,-6.47544875391759e-05,0.0907677188515663,0,0,0
2391,81799.96257530223,2010-09-15 12:40:41,1530.7785906717152,7,7,-1.099568486213684,3.667534828186035,7.245557906379101,6.789203920673329,28.865008222237076,24.948451458322463,-0.0001618862152099,0.0907677188515663,0,0,0
2392,81829.97775784056,2010-09-15 12:41:11,1560.7937732100513,7,7,-1.0997490882873535,3.663487672805786,7.245557906379101,6.798371431390041,28.865008222237076,24.982056263966665,-0.0001295089750783,0.0907677188515663,0,0,0
2393,81859.99317815743,2010-09-15 12:41:41,1590.8091935219063,7,7,-1.099929690361023,3.659440517425537,7.245557906379101,6.807539070540125,28.865008222237076,25.015624674612106,-0.0001295089750783,0.0907677188515663,0,0,0
2394,81890.00827987403,2010-09-15 12:42:11,1620.8242952485243,7,7,-1.099568486213684,3.655717134475708,7.245557906379101,6.816706580870259,28.865008222237076,25.04915607329915,-9.713172767078504e-05,0.0907677188515663,0,0,0
2395,81920.02354275792,2010-09-15 12:42:41,1650.8395581274026,7,7,-1.099568486213684,3.651831865310669,7.245557906379101,6.825874188267906,28.865008222237076,25.08265178962831,-6.47544875391759e-05,0.0907677188515663,0,0,0
2396,81950.03904000681,2010-09-15 12:43:11,1680.8550553763048,7,7,-1.099568486213684,3.64794659614563,7.245557906379101,6.835041909213429,28.865008222237076,25.116112520737268,-9.713172767078504e-05,0.0907677188515663,0,0,0
2397,81980.05444381248,2010-09-15 12:43:41,1710.8704592771958,7,7,-1.0993878841400146,3.6443850994110103,7.245557906379101,6.844209495994495,28.865008222237076,25.1495375004438,-3.237724376958795e-05,0.0907677188515663,0,0,0
2398,82010.06936941945,2010-09-15 12:44:11,1740.8853848892045,7,7,-1.099568486213684,3.6406617164611816,7.245557906379101,6.853376956378246,28.865008222237076,25.18292836448749,-6.47544875391759e-05,0.0907677188515663,0,0,0
2399,82040.08461920064,2010-09-15 12:44:41,1770.900634585176,7,7,-1.099568486213684,3.636938333511353,7.245557906379101,6.862544527151115,28.865008222237076,25.216286552762163,-6.47544875391759e-05,0.0907677188515663,0,0,0
2400,82070.099886676,2010-09-15 12:45:11,1800.9159020655404,7,7,-1.099568486213684,3.633376836776733,7.245557906379101,6.871712098615401,28.865008222237076,25.249612099137508,-9.713172767078504e-05,0.0907677188515663,0,0,0
2401,82100.11515978542,2010-09-15 12:45:41,1830.9311751699431,7,7,-1.0993878841400146,3.629977226257324,7.245557906379101,6.880879633454303,28.865008222237076,25.28290525981408,-9.713172767078504e-05,0.0907677188515663,0,0,0
2402,82130.13041626332,2010-09-15 12:46:11,1860.9464316528563,7,7,-1.0997490882873535,3.626253843307495,7.245557906379101,6.890047200175175,28.865008222237076,25.31616695520648,-0.0001295089750783,0.0907677188515663,0,0,0
2403,82160.14570191404,2010-09-15 12:46:41,1890.9617172985645,7,7,-1.0997490882873535,3.623016119003296,7.245557906379101,6.899214693440967,28.865008222237076,25.349397856694036,-0.0001618862152099,0.0907677188515663,0,0,0
2404,82190.16094805613,2010-09-15 12:47:11,1920.9769634406653,7,7,-1.099568486213684,3.619940280914306,7.245557906379101,6.908382266469355,28.865008222237076,25.38259935181633,-9.713172767078504e-05,0.0907677188515663,0,0,0
2405,82220.17636350586,2010-09-15 12:47:41,1950.992378880359,7,7,-1.0993878841400146,3.616864442825317,7.245557906379101,6.917549920029525,28.865008222237076,25.415772045073066,-9.713172767078504e-05,0.0907677188515663,0,0,0
2406,82250.1914805858,2010-09-15 12:48:11,1981.0074959452631,7,7,-1.0993878841400146,3.613950490951538,7.245557906379101,6.926717433594733,28.865008222237076,25.4489159584699,-3.237724376958795e-05,0.0907677188515663,0,0,0
2407,82280.2067493193,2010-09-15 12:48:41,2011.022764708831,7,7,-1.099568486213684,3.610874652862549,7.245557906379101,6.935885000515663,28.865008222237076,25.482032439214837,-6.47544875391759e-05,0.0907677188515663,0,0,0
2408,82310.22201399265,2010-09-15 12:49:11,2041.0380293521137,7,7,-1.099568486213684,3.6079607009887695,7.245557906379101,6.94505254615385,28.865008222237076,25.515121656062387,-9.713172767078504e-05,0.0907677188515663,0,0,0
2409,82340.23728964341,2010-09-15 12:49:41,2071.053305027935,7,7,-1.099568486213684,3.6050467491149902,7.245557906379101,6.954220137495694,28.865008222237076,25.54818406827041,-9.713172767078504e-05,0.0907677188515663,0,0,0
2410,82370.25256298842,2010-09-15 12:50:11,2101.068578372938,7,7,-1.099568486213684,3.601970911026001,7.245557906379101,6.963387623018411,28.865008222237076,25.581219747679683,-9.713172767078504e-05,0.0907677188515663,0,0,0
2411,82400.2679426889,2010-09-15 12:50:41,2131.0839580583843,7,7,-1.0993878841400146,3.599218845367432,7.245557906379101,6.972555228886061,28.865008222237076,25.614229496310596,-6.47544875391759e-05,0.0907677188515663,0,0,0
2412,82430.28309551807,2010-09-15 12:51:11,2161.0991108775365,7,7,-1.0993878841400146,3.5964667797088623,7.245557906379101,6.981722789918649,28.865008222237076,25.64721288046252,-6.47544875391759e-05,0.0907677188515663,0,0,0
2413,82460.2984963112,2010-09-15 12:51:41,2191.1145117007454,7,7,-1.0993878841400146,3.593714714050293,7.245557906379101,6.990890426126941,28.865008222237076,25.68017083347071,-9.713172767078504e-05,0.0907677188515663,0,0,0
2414,82490.31361426333,2010-09-15 12:52:11,2221.1296296328146,7,7,-1.099568486213684,3.5908010005950928,7.245557906379101,7.000058016999681,28.865008222237076,25.71310293707661,-6.47544875391759e-05,0.0907677188515663,0,0,0
2415,82520.3290045352,2010-09-15 12:52:41,2251.1450198996727,7,7,-1.099568486213684,3.5880489349365234,7.245557906379101,7.009225640810377,28.865008222237076,25.746009440693207,-9.713172767078504e-05,0.0907677188515663,0,0,0
2416,82550.34414953984,2010-09-15 12:53:11,2281.1601648993064,7,7,-1.099568486213684,3.585134983062744,7.245557906379101,7.018393188871912,28.865008222237076,25.778890085899043,-6.47544875391759e-05,0.0907677188515663,0,0,0
2417,82580.35945354137,2010-09-15 12:53:41,2311.175468900833,7,7,-1.0993878841400146,3.582382917404175,7.245557906379101,7.027560770412721,28.865008222237076,25.811745211365917,-9.713172767078504e-05,0.0907677188515663,0,0,0
2418,82610.37470400425,2010-09-15 12:54:11,2341.1907193637194,7,7,-1.099568486213684,3.579630851745605,7.245557906379101,7.036728396943529,28.865008222237076,25.84457493483425,-6.47544875391759e-05,0.0907677188515663,0,0,0
2419,82640.38996405607,2010-09-15 12:54:41,2371.205979415541,7,7,-1.099568486213684,3.576878786087036,7.245557906379101,7.045896028006363,28.865008222237076,25.877378995531476,-6.47544875391759e-05,0.0907677188515663,0,0,0
2420,82670.40522032346,2010-09-15 12:55:11,2401.2212356829164,7,7,-1.0993878841400146,3.574126720428467,7.245557906379101,7.055063664010223,28.865008222237076,25.910157021135173,-6.47544875391759e-05,0.0907677188515663,0,0,0
2421,82700.42049403938,2010-09-15 12:55:41,2431.2365093988456,7,7,-1.099568486213684,3.571050882339477,7.245557906379101,7.064231233849232,28.865008222237076,25.942908417060902,-9.713172767078504e-05,0.0907677188515663,0,0,0
2422,82730.4357445524,2010-09-15 12:56:11,2461.251759911857,7,7,-1.099568486213684,3.5681369304656982,7.245557906379101,7.073398828408588,28.865008222237076,25.975632990994235,-9.713172767078504e-05,0.0907677188515663,0,0,0
2423,82760.45102610288,2010-09-15 12:56:41,2491.2670414623426,7,7,-1.0993878841400146,3.565222978591919,7.245557906379101,7.082566461114933,28.865008222237076,26.00833042864797,-6.47544875391759e-05,0.0907677188515663,0,0,0
2424,82790.46630383383,2010-09-15 12:57:11,2521.282319223369,7,7,-1.099568486213684,3.5621471405029297,7.245557906379101,7.091734045558079,28.865008222237076,26.040999664960925,-6.47544875391759e-05,0.0907677188515663,0,0,0
2425,82820.48156650219,2010-09-15 12:57:42,2551.2975818766845,7,7,-1.0993878841400146,3.5587475299835205,7.245557906379101,7.100901646484402,28.865008222237076,26.073640743162223,-9.713172767078504e-05,0.0907677188515663,0,0,0
2426,82850.49680877964,2010-09-15 12:58:12,2581.3128241491263,7,7,-1.099568486213684,3.5556716918945312,7.245557906379101,7.110069170477296,28.865008222237076,26.10625214596303,-9.713172767078504e-05,0.0907677188515663,0,0,0
2427,82880.51220286603,2010-09-15 12:58:42,2611.3282182355188,7,7,-1.099568486213684,3.552433967590332,7.245557906379101,7.119236744011507,28.865008222237076,26.13883368680041,-6.47544875391759e-05,0.0907677188515663,0,0,0
2428,82910.52961294967,2010-09-15 12:59:12,2641.345628309125,7,7,-1.099568486213684,3.549034357070923,7.245557906379101,7.128405003998955,28.865008222237076,26.171386645515504,-6.47544875391759e-05,0.0907677188515663,0,0,0
2429,82940.5427682527,2010-09-15 12:59:42,2671.3587837124205,7,7,-1.099568486213684,3.5453109741210938,7.245557906379101,7.13757195941594,28.865008222237076,26.20390271533721,-9.713172767078504e-05,0.0907677188515663,0,0,0
2430,82970.55788986395,2010-09-15 13:00:12,2701.3739053236736,7,7,-1.099568486213684,3.5415875911712646,7.245557906379101,7.146739560907098,28.865008222237076,26.23638805320437,-0.0001295089750783,0.0907677188515663,0,0,0
2431,83000.57330374476,2010-09-15 13:00:42,2731.3893191092384,7,7,-1.099568486213684,3.5378642082214355,7.245557906379101,7.155907247620344,28.865008222237076,26.26883980209918,-0.0001295089750783,0.0907677188515663,0,0,0
2432,83030.58840631848,2010-09-15 13:01:12,2761.404421677957,7,7,-1.0993878841400146,3.5341408252716064,7.245557906379101,7.165074806260606,28.865008222237076,26.301256537845926,-6.47544875391759e-05,0.0907677188515663,0,0,0
2433,83060.60369160329,2010-09-15 13:01:42,2791.419706962765,7,7,-1.099568486213684,3.5300936698913574,7.245557906379101,7.17424242783596,28.865008222237076,26.333637851721168,-9.713172767078504e-05,0.0907677188515663,0,0,0
2434,83090.6189413895,2010-09-15 13:02:12,2821.434956774024,7,7,-1.099568486213684,3.5258846282958984,7.245557906379101,7.183410073194943,28.865008222237076,26.36598205688389,-0.0001618862152099,0.0907677188515663,0,0,0
2435,83120.63420946135,2010-09-15 13:02:42,2851.4502248208028,7,7,-1.099568486213684,3.5218374729156494,7.245557906379101,7.192577740188349,28.865008222237076,26.39828813339668,-9.713172767078504e-05,0.0907677188515663,0,0,0
2436,83150.64947432517,2010-09-15 13:03:12,2881.465489799924,7,7,-1.099568486213684,3.5173046588897705,7.245557906379101,7.20174533348214,28.865008222237076,26.43055456989711,-0.0001618862152099,0.0907677188515663,0,0,0
2437,83180.66499335344,2010-09-15 13:03:42,2911.4810087229275,7,7,-1.0993878841400146,3.5130956172943115,7.245557906379101,7.210913060498056,28.865008222237076,26.46278093594563,-9.713172767078504e-05,0.0907677188515663,0,0,0
2438,83210.68003169684,2010-09-15 13:04:12,2941.4960470863807,7,7,-1.0993878841400146,3.508239269256592,7.245557906379101,7.22008059470787,28.865008222237076,26.494963963901835,-9.713172767078504e-05,0.0907677188515663,0,0,0
2439,83240.69527314723,2010-09-15 13:04:42,2971.511288531758,7,7,-1.099568486213684,3.503058910369873,7.245557906379101,7.229248209164039,28.865008222237076,26.52710201146473,-0.0001295089750783,0.0907677188515663,0,0,0
2440,83270.71054149978,2010-09-15 13:05:12,3001.5265568843,7,7,-1.099568486213684,3.4975547790527344,7.245557906379101,7.238415855449857,28.865008222237076,26.559191484083644,-0.0001618862152099,0.0907677188515663,0,0,0
2441,83300.72581992245,2010-09-15 13:05:42,3031.5418353119903,7,7,-1.0997490882873535,3.491403102874756,7.245557906379101,7.247583530878216,28.865008222237076,26.59122833495606,-0.0001942634553415,0.0907677188515663,0,0,0
2442,83330.7432769232,2010-09-15 13:06:12,3061.55929248316,7,7,-1.099568486213684,3.4847657680511475,7.245557906379101,7.256751845399608,28.865008222237076,26.62320884536532,-0.0001618862152099,0.0907677188515663,0,0,0
2443,83360.75647049175,2010-09-15 13:06:42,3091.572485951471,7,7,-1.099568486213684,3.4769952297210693,7.245557906379101,7.265918787593248,28.865008222237076,26.655118399696967,-0.0002266406954731,0.0907677188515663,0,0,0
2444,83390.77160932099,2010-09-15 13:07:12,3121.5876246804523,7,7,-1.0997490882873535,3.4682533740997314,7.245557906379101,7.275086254028457,28.865008222237076,26.686955252663843,-0.0002913951757363,0.0907677188515663,0,0,0
2445,83420.78691245035,2010-09-15 13:07:42,3151.602927839877,7,7,-1.0997490882873535,3.458216428756714,7.245557906379101,7.284253818674451,28.865008222237076,26.71870698107262,-0.0002913951757363,0.0907677188515663,0,0,0
2446,83450.80213912885,2010-09-15 13:08:12,3181.6181545133813,7,7,-1.099568486213684,3.4462368488311768,7.245557906379101,7.293421435537434,28.865008222237076,26.750357348453385,-0.0003237724304199,0.0907677188515663,0,0,0
2447,83480.8174059225,2010-09-15 13:08:42,3211.633421307032,7,7,-1.0997490882873535,3.4308578968048096,7.245557906379101,7.302588973523682,28.865008222237076,26.781882838484915,-0.000453233718872,0.0907677188515663,0,0,0
2448,83510.83267291164,2010-09-15 13:09:12,3241.6486882711074,7,7,-1.0993878841400146,3.4107840061187744,7.245557906379101,7.311756571434035,28.865008222237076,26.813247817611305,-0.0006151676061563,0.0907677188515663,0,0,0
2449,83540.84804092796,2010-09-15 13:09:42,3271.6640564077256,7,7,-1.099568486213684,3.382939577102661,7.245557906379101,7.320924189949578,28.865008222237076,26.844395692178377,-0.0008418083307333,0.0907677188515663,0,0,0
2450,83570.8632265139,2010-09-15 13:10:12,3301.6792418733685,7,7,-1.0997490882873535,3.34311580657959,7.245557906379101,7.330091803905294,28.865008222237076,26.87523738405753,-0.0012627125252038,0.0907677188515663,0,0,0
2451,83600.87849185392,2010-09-15 13:10:42,3331.6945072133904,7,7,-1.0997490882873535,3.2859699726104736,7.245557906379101,7.339259419315519,28.865008222237076,26.905639836888675,-0.0017483711708337,0.0907677188515663,0,0,0
2452,83630.89377150968,2010-09-15 13:11:12,3361.709786894209,7,7,-1.099568486213684,3.2042176723480225,7.245557906379101,7.34842700356481,28.865008222237076,26.935412304063565,-0.0024930476211011,0.0907677188515663,0,0,0
2453,83660.9090279976,2010-09-15 13:11:42,3391.7250434773723,7,7,-1.0993878841400146,3.0797276496887207,7.245557906379101,7.357594593244585,28.865008222237076,26.964259893932464,-0.0040147779509425,0.0907677188515663,0,0,0
2454,83686.81507451527,2010-09-15 13:12:08,3417.631089884751,7,7,-1.0993878841400146,2.879636764526367,7.245557906379101,7.365507087119068,28.865008222237076,26.987948115947976,-0.0088066104799509,0.0907677188515663,0,0,0
2455,83698.62742877378,2010-09-15 13:12:20,3429.44344413324,7,7,-1.0993878841400146,2.699781894683838,7.245557906379101,7.369114913959072,28.865008222237076,26.998033643996656,-0.0136631485074758,0.0907677188515663,0,0,0
2456,83758.63265569392,2010-09-15 13:13:20,60.000900663965055,8,7,0.0,3.330650568008423,7.245557906379101,7.369114913959072,28.865008222237076,26.998033643996656,0.0011655807029455,0.0907677188515663,0,0,0
2457,83758.82304167822,2010-09-15 13:13:20,0.187427172056402,9,7,-1.9243103452026844e-05,3.3311362266540527,7.245557906379101,7.369114914960927,28.865008222237076,26.998033647333976,0.0,0.0883364379405975,0,0,0
2458,83763.65108247583,2010-09-15 13:13:25,5.015467994725295,9,7,0.0001613661734154,3.338097333908081,7.245558820025877,7.369114915045475,28.86501126935177,26.998033647615618,0.0010360718006268,0.0883364379405975,0,0,0
