Data_Point,Test_Time(s),Date_Time,Step_Time(s),Step_Index,Cycle_Index,Current(A),Voltage(V),Charge_Capacity(Ah),Discharge_Capacity(Ah),Charge_Energy(Wh),Discharge_Energy(Wh),dV/dt(V/s),Internal_Resistance(Ohm),Is_FC_Data,AC_Impedance(Ohm),ACI_Phase_Angle(Deg)
2459,83793.67945102234,2010-09-15 13:13:55,30.015326171867468,1,8,0.0,3.3693411350250244,7.245558820025877,7.369114915045475,28.86501126935177,26.998033647615618,0.0006475448608398,0.0883364379405975,0,0,0
2460,83823.6951350224,2010-09-15 13:14:25,60.031010146866606,1,8,0.0,3.390872001647949,7.245558820025877,7.369114915045475,28.86501126935177,26.998033647615618,0.0004856586456298,0.0883364379405975,0,0,0
2461,83853.71027698947,2010-09-15 13:14:55,90.04615211894306,1,8,0.0,3.4070606231689453,7.245558820025877,7.369114915045475,28.86501126935177,26.998033647615618,0.0003885269106831,0.0883364379405975,0,0,0
2462,83883.67844318779,2010-09-15 13:15:25,120.0143183322987,1,8,0.0,3.420173406600952,7.245558820025877,7.369114915045475,28.86501126935177,26.998033647615618,0.0003561496851034,0.0883364379405975,0,0,0
2463,83913.69258497846,2010-09-15 13:15:55,30.015419118877507,2,8,0.5501165986061096,3.569917678833008,7.250145193664694,7.369114915045475,28.881219839536573,26.998033647615618,0.0016188621520996,0.0883364379405975,0,0,0
2464,83943.7077057877,2010-09-15 13:16:25,60.03053985795312,2,8,0.5501165986061096,3.619616508483887,7.254731494561672,7.369114915045475,28.89771273843051,26.998033647615618,0.0011655807029455,0.0883364379405975,0,0,0
2465,83973.72598601335,2010-09-15 13:16:55,90.04882006354323,2,8,0.5501165986061096,3.656526565551758,7.259318291569635,7.369114915045475,28.91440308478942,26.998033647615618,0.0009065627818927,0.0883364379405975,0,0,0
2466,84003.73823562064,2010-09-15 13:17:25,120.06106966581967,2,8,0.5499359965324402,3.6855039596557617,7.263904128345063,7.369114915045475,28.931239915963097,26.998033647615618,0.0007122993702068,0.0883364379405975,0,0,0
2467,84033.7535141185,2010-09-15 13:17:55,150.0763481636855,2,8,0.5499359965324402,3.709463119506836,7.268490391843733,7.369114915045475,28.94819915660707,26.998033647615618,0.0006151676061563,0.0883364379405975,0,0,0
2468,84063.76891273119,2010-09-15 13:18:25,180.09174678640144,2,8,0.5501165986061096,3.729051351547241,7.27307672113411,7.369114915045475,28.96525854771832,26.998033647615618,0.0004209041653666,0.0883364379405975,0,0,0
2469,84093.78402307934,2010-09-15 13:18:55,210.10685713453967,2,8,0.5499359965324402,3.7454018592834473,7.277662915089241,7.369114915045475,28.98240006443611,26.998033647615618,0.0003885269106831,0.0883364379405975,0,0,0
2470,84123.799309903,2010-09-15 13:19:25,240.1221439481629,2,8,0.5499359965324402,3.7575430870056152,7.282249220268796,7.369114915045475,28.999607900378017,26.998033647615618,0.0002590179501567,0.0883364379405975,0,0,0
2471,84153.81469493678,2010-09-15 13:19:55,270.13752899198386,2,8,0.5499359965324402,3.764827966690064,7.286835594677236,7.369114915045475,29.01685990462977,26.998033647615618,0.0001295089750783,0.0883364379405975,0,0,0
2472,84183.8298339665,2010-09-15 13:20:25,300.1526680116907,2,8,0.5499359965324402,3.768713235855103,7.291421947142348,7.369114915045475,29.03413652920451,26.998033647615618,6.47544875391759e-05,0.0883364379405975,0,0,0
2473,84213.8450900033,2010-09-15 13:20:55,330.1679240484903,2,8,0.5499359965324402,3.7719509601593018,7.296008292221115,7.369114915045475,29.051429075384032,26.998033647615618,9.713172767078504e-05,0.0883364379405975,0,0,0
2474,84243.86036885205,2010-09-15 13:21:25,360.1832028972319,2,8,0.5501165986061096,3.774864912033081,7.300594647789189,7.369114915045475,29.068735152573076,26.998033647615618,6.47544875391759e-05,0.0883364379405975,0,0,0
2475,84273.8756532346,2010-09-15 13:21:55,390.198487309862,2,8,0.5501165986061096,3.7776169776916495,7.305180995297148,7.369114915045475,29.086054113070084,26.998033647615618,9.713172767078504e-05,0.0883364379405975,0,0,0
2476,84303.89093351191,2010-09-15 13:22:25,420.2137676423072,2,8,0.5501165986061096,3.7805309295654297,7.309767343985362,7.369114915045475,29.10338632318939,26.998033647615618,3.237724376958795e-05,0.0883364379405975,0,0,0
2477,84333.90618451615,2010-09-15 13:22:55,450.2290186565696,2,8,0.5501165986061096,3.783444881439209,7.314353673742496,7.369114915045475,29.12073178093295,26.998033647615618,6.47544875391759e-05,0.0883364379405975,0,0,0
2478,84363.92148551518,2010-09-15 13:23:25,480.2443195703892,2,8,0.5501165986061096,3.786358833312988,7.318939901639523,7.369114915045475,29.138090245390657,26.998033647615618,6.47544875391759e-05,0.0883364379405975,0,0,0
2479,84393.93669756717,2010-09-15 13:23:55,510.2595316123709,2,8,0.5501165986061096,3.789272785186768,7.323526185552847,7.369114915045475,29.15546235724361,26.998033647615618,9.713172767078504e-05,0.0883364379405975,0,0,0
2480,84423.95195922803,2010-09-15 13:24:25,540.2747932732088,2,8,0.5501165986061096,3.792186737060547,7.32811251209614,7.369114915045475,29.17284793732842,26.998033647615618,6.47544875391759e-05,0.0883364379405975,0,0,0
2481,84453.96728583598,2010-09-15 13:24:55,570.29011989119,2,8,0.550297200679779,3.795100688934326,7.332698793539809,7.369114915045475,29.190246493411305,26.998033647615618,9.713172767078504e-05,0.0883364379405975,0,0,0
2482,84483.98261064444,2010-09-15 13:25:25,600.3054446896291,2,8,0.5501165986061096,3.797852754592896,7.337285095978253,7.369114915045475,29.207658157869304,26.998033647615618,9.713172767078504e-05,0.0883364379405975,0,0,0
2483,84513.9978855333,2010-09-15 13:25:56,630.3207195784863,2,8,0.5501165986061096,3.800766706466675,7.34187144831139,7.369114915045475,29.225083044953685,26.998033647615618,6.47544875391759e-05,0.0883364379405975,0,0,0
2484,84544.01301613198,2010-09-15 13:26:26,660.3358502022356,2,8,0.5501165986061096,3.803518772125244,7.346457746312749,7.369114915045475,29.242520585099808,26.998033647615618,6.47544875391759e-05,0.0883364379405975,0,0,0
2485,84574.0284129502,2010-09-15 13:26:56,690.3512470003972,2,8,0.5501165986061096,3.8062708377838135,7.351044104864799,7.369114915045475,29.25997138687964,26.998033647615618,3.237724376958795e-05,0.0883364379405975,0,0,0
2486,84604.0470343174,2010-09-15 13:27:26,720.3698684778543,2,8,0.550297200679779,3.8093466758728023,7.355630954208837,7.369114915045475,29.277437247595035,26.998033647615618,9.713172767078504e-05,0.0883364379405975,0,0,0
2487,84634.05883174094,2010-09-15 13:27:56,750.3816657861354,2,8,0.5501165986061096,3.812098741531372,7.360216787636039,7.369114915045475,29.29491265735232,26.998033647615618,3.237724376958795e-05,0.0883364379405975,0,0,0
2488,84664.07408262488,2010-09-15 13:28:26,780.3969166700726,2,8,0.5499359965324402,3.815498352050781,7.364803087056679,7.369114915045475,29.31240395734207,26.998033647615618,6.47544875391759e-05,0.0883364379405975,0,0,0
2489,84694.08936429568,2010-09-15 13:28:56,810.4121983508835,2,8,0.5499359965324402,3.818412303924561,7.369389386213044,7.369114915045475,29.32990944728637,26.998033647615618,3.237724376958795e-05,0.0883364379405975,0,0,0
2490,84724.10472847742,2010-09-15 13:29:26,840.4275625326294,2,8,0.5501165986061096,3.82165002822876,7.373975697240784,7.369114915045475,29.347429576230425,26.998033647615618,6.47544875391759e-05,0.0883364379405975,0,0,0
2491,84754.12015084941,2010-09-15 13:29:56,870.4429850098901,2,8,0.5501165986061096,3.825049638748169,7.378561985879586,7.369114915045475,29.36496457759057,26.998033647615618,9.713172767078504e-05,0.0883364379405975,0,0,0
2492,84784.1351412281,2010-09-15 13:30:26,900.4579752732783,2,8,0.550297200679779,3.828611135482788,7.383148243273822,7.369114915045475,29.382514968090533,26.998033647615618,0.0001295089750783,0.0883364379405975,0,0,0
2493,84814.15059797089,2010-09-15 13:30:56,930.4734320361208,2,8,0.5501165986061096,3.8318488597869873,7.387734610489121,7.369114915045475,29.400081415992297,26.998033647615618,9.713172767078504e-05,0.0883364379405975,0,0,0
2494,84844.16575061962,2010-09-15 13:31:26,960.4885847700606,2,8,0.5499359965324402,3.835086345672608,7.392320824230577,7.369114915045475,29.41766286281037,26.998033647615618,3.237724376958795e-05,0.0883364379405975,0,0,0
2495,84874.18108962351,2010-09-15 13:31:56,990.5039237639338,2,8,0.5499359965324402,3.8384859561920166,7.396907144484114,7.369114915045475,29.43526015751125,26.998033647615618,9.713172767078504e-05,0.0883364379405975,0,0,0
2496,84904.19621526483,2010-09-15 13:32:26,1020.5190493400836,2,8,0.5501165986061096,3.841885566711426,7.401493385600219,7.369114915045475,29.452872369822792,26.998033647615618,0.0001295089750783,0.0883364379405975,0,0,0
2497,84934.21159683498,2010-09-15 13:32:56,1050.5344309352963,2,8,0.5499359965324402,3.844961404800415,7.406079746366688,7.369114915045475,29.470499870634217,26.998033647615618,6.47544875391759e-05,0.0883364379405975,0,0,0
2498,84964.22711574796,2010-09-15 13:33:26,1080.549949908425,2,8,0.5501165986061096,3.8481991291046143,7.410666104916275,7.369114915045475,29.48814185142643,26.998033647615618,6.47544875391759e-05,0.0883364379405975,0,0,0
2499,84994.24199591653,2010-09-15 13:33:56,1110.5648299917873,2,8,0.550297200679779,3.8514368534088135,7.415252417730351,7.369114915045475,29.50579786975875,26.998033647615618,0.0001295089750783,0.0883364379405975,0,0,0
2500,85024.26160508442,2010-09-15 13:34:26,1140.5844391346093,2,8,0.550297200679779,3.8543508052825928,7.41983948226299,7.369114915045475,29.52347079601944,26.998033647615618,9.713172767078504e-05,0.0883364379405975,0,0,0
2501,85054.27252497754,2010-09-15 13:34:56,1170.5953590227143,2,8,0.550297200679779,3.857426643371582,7.42442511932086,7.369114915045475,29.5411520870786,26.998033647615618,9.713172767078504e-05,0.0883364379405975,0,0,0
2502,85084.2877859266,2010-09-15 13:35:26,1200.6106199717756,2,8,0.5501165986061096,3.860178709030152,7.429011459277617,7.369114915045475,29.55884963317124,26.998033647615618,9.713172767078504e-05,0.0883364379405975,0,0,0
2503,85114.30307823894,2010-09-15 13:35:56,1230.625912289137,2,8,0.5501165986061096,3.86309266090393,7.43359780819485,7.369114915045475,29.576560340995968,26.998033647615618,9.713172767078504e-05,0.0883364379405975,0,0,0
2504,85144.31830750893,2010-09-15 13:36:26,1260.64114155411,2,8,0.5501165986061096,3.86568284034729,7.438184165538988,7.369114915045475,29.59428356535985,26.998033647615618,6.47544875391759e-05,0.0883364379405975,0,0,0
2505,85174.33357961585,2010-09-15 13:36:56,1290.6564136860857,2,8,0.5501165986061096,3.86811113357544,7.442770550128698,7.369114915045475,29.612018907237207,26.998033647615618,6.47544875391759e-05,0.0883364379405975,0,0,0
2506,85204.34884425913,2010-09-15 13:37:26,1320.6716783293684,2,8,0.5501165986061096,3.870701313018799,7.447356962913236,7.369114915045475,29.62976567133017,26.998033647615618,9.713172767078504e-05,0.0883364379405975,0,0,0
2507,85234.36415159397,2010-09-15 13:37:56,1350.6869857444158,2,8,0.5501165986061096,3.872805833816528,7.451943324778986,7.369114915045475,29.647522836040416,26.998033647615618,6.47544875391759e-05,0.0883364379405975,0,0,0
2508,85264.37937190158,2010-09-15 13:38:26,1380.7022059467672,2,8,0.5499359965324402,3.874748468399048,7.456529786011929,7.369114915045475,29.665290231693024,26.998033647615618,3.237724376958795e-05,0.0883364379405975,0,0,0
2509,85294.39462997345,2010-09-15 13:38:56,1410.717464033684,2,8,0.5501165986061096,3.876852989196777,7.461116151303292,7.369114915045475,29.68306639313372,26.998033647615618,6.47544875391759e-05,0.0883364379405975,0,0,0
2510,85324.40989513804,2010-09-15 13:39:26,1440.732729188243,2,8,0.5501165986061096,3.878633737564087,7.465702436628679,7.369114915045475,29.700850638037288,26.998033647615618,3.237724376958795e-05,0.0883364379405975,0,0,0
2511,85354.42515202696,2010-09-15 13:39:56,1470.747986082182,2,8,0.5501165986061096,3.8802525997161865,7.470288730831029,7.369114915045475,29.71864271403906,26.998033647615618,3.237724376958795e-05,0.0883364379405975,0,0,0
2512,85384.44044988316,2010-09-15 13:40:26,1500.7632839283442,2,8,0.5501165986061096,3.881709575653076,7.474875078702833,7.369114915045475,29.73644223395332,26.998033647615618,3.237724376958795e-05,0.0883364379405975,0,0,0
2513,85414.45584616503,2010-09-15 13:40:56,1530.7786802252544,2,8,0.5499359965324402,3.883166551589966,7.479461410836731,7.369114915045475,29.754248243251062,26.998033647615618,3.237724376958795e-05,0.0883364379405975,0,0,0
2514,85444.47107940994,2010-09-15 13:41:26,1560.793913480187,2,8,0.5499359965324402,3.884299755096436,7.484047777118817,7.369114915045475,29.77206045787093,26.998033647615618,3.237724376958795e-05,0.0883364379405975,0,0,0
2515,85474.48626161244,2010-09-15 13:41:56,1590.8090956576225,2,8,0.5499359965324402,3.8855948448181152,7.488634117603672,7.369114915045475,29.789878004914307,26.998033647615618,3.237724376958795e-05,0.0883364379405975,0,0,0
2516,85504.5015082608,2010-09-15 13:42:26,1620.824342316012,2,8,0.550297200679779,3.886728048324585,7.493220430654723,7.369114915045475,29.80770082348672,26.998033647615618,6.47544875391759e-05,0.0883364379405975,0,0,0
2517,85534.51679181129,2010-09-15 13:42:56,1650.8396258664898,2,8,0.5501165986061096,3.887861251831055,7.497806791667365,7.369114915045475,29.825528894392924,26.998033647615618,9.713172767078504e-05,0.0883364379405975,0,0,0
2518,85564.53240435799,2010-09-15 13:43:26,1680.8552384031675,2,8,0.5501165986061096,3.8888325691223145,7.502393155862022,7.369114915045475,29.843361926136787,26.998033647615618,3.237724376958795e-05,0.0883364379405975,0,0,0
2519,85594.54767976313,2010-09-15 13:43:56,1710.8705139135766,2,8,0.5499359965324402,3.889803886413574,7.506979491222451,7.369114915045475,29.86119958533215,26.998033647615618,3.237724376958795e-05,0.0883364379405975,0,0,0
2520,85624.55268588956,2010-09-15 13:44:26,1740.875520150298,2,8,0.5501165986061096,3.890937089920044,7.511564337771944,7.369114915045475,29.879036141047006,26.998033647615618,3.237724376958795e-05,0.0883364379405975,0,0,0
2521,85654.56221153746,2010-09-15 13:44:56,1770.8850455926524,2,8,0.5501165986061096,3.8917465209960938,7.5161498096323,7.369114915045475,29.896879816328937,26.998033647615618,-3.237724376958795e-05,0.0883364379405975,0,0,0
2522,85684.57749202527,2010-09-15 13:45:26,1800.900326075473,2,8,0.5501165986061096,3.892879724502564,7.520736133870537,7.369114915045475,29.914731474512035,26.998033647615618,3.237724376958795e-05,0.0883364379405975,0,0,0
2523,85714.59266315514,2010-09-15 13:45:56,1830.915497205332,2,8,0.5497553944587708,3.894012928009033,7.525322334709009,7.369114915045475,29.932587401425035,26.998033647615618,6.47544875391759e-05,0.0883364379405975,0,0,0
2524,85744.60797810901,2010-09-15 13:46:26,1860.930812159197,2,8,0.5501165986061096,3.894822359085083,7.529907652502588,7.369114915045475,29.95044461849337,26.998033647615618,0.0,0.0883364379405975,0,0,0
2525,85774.62331284725,2010-09-15 13:46:56,1890.9461468924355,2,8,0.5499359965324402,3.895793676376343,7.534493097107061,7.369114915045475,29.96830649043593,26.998033647615618,0.0,0.0883364379405975,0,0,0
2526,85804.63850910983,2010-09-15 13:47:26,1920.9613431550288,2,8,0.5499359965324402,3.896926879882813,7.539078425661826,7.369114915045475,29.9861729036252,26.998033647615618,3.237724376958795e-05,0.0883364379405975,0,0,0
2527,85834.6537727406,2010-09-15 13:47:56,1950.976606800822,2,8,0.5499359965324402,3.897898197174072,7.543663700576905,7.369114915045475,30.004043853787937,26.998033647615618,3.237724376958795e-05,0.0883364379405975,0,0,0
2528,85864.66917938835,2010-09-15 13:48:26,1980.9920134485697,2,8,0.5497553944587708,3.899031400680542,7.548248932632601,7.369114915045475,30.021919503951427,26.998033647615618,0.0,0.0883364379405975,0,0,0
2529,85894.68431939051,2010-09-15 13:48:56,2011.0071534356912,2,8,0.5497553944587708,3.9000027179718018,7.552834188151029,7.369114915045475,30.03980013050474,26.998033647615618,0.0,0.0883364379405975,0,0,0
2530,85924.69958675558,2010-09-15 13:49:26,2041.0224208107927,2,8,0.5501165986061096,3.9012978076934814,7.557420452447346,7.369114915045475,30.05768947090367,26.998033647615618,6.47544875391759e-05,0.0883364379405975,0,0,0
2531,85954.71483692274,2010-09-15 13:49:56,2071.0376709729285,2,8,0.5501165986061096,3.902269124984741,7.562006829567198,7.369114915045475,30.07558420733477,26.998033647615618,3.237724376958795e-05,0.0883364379405975,0,0,0
2532,85984.73465389934,2010-09-15 13:50:26,2101.0574880648232,2,8,0.5501165986061096,3.903402328491211,7.566593892046537,7.369114915045475,30.09348654224026,26.998033647615618,3.237724376958795e-05,0.0883364379405975,0,0,0
2533,86014.74536400379,2010-09-15 13:50:56,2131.0681980539885,2,8,0.5501165986061096,3.904373645782471,7.571179604956076,7.369114915045475,30.111388704356656,26.998033647615618,0.0,0.0883364379405975,0,0,0
2534,86044.76062806061,2010-09-15 13:51:26,2161.083462110807,2,8,0.5501165986061096,3.9056687355041504,7.575765942160039,7.369114915045475,30.129298290149688,26.998033647615618,9.713172767078504e-05,0.0883364379405975,0,0,0
2535,86074.77590726526,2010-09-15 13:51:56,2191.0987413405,2,8,0.5501165986061096,3.90664005279541,7.580352356196938,7.369114915045475,30.14721335209697,26.998033647615618,0.0,0.0883364379405975,0,0,0
2536,86104.7929725532,2010-09-15 13:52:26,2221.1158066134312,2,8,0.5501165986061096,3.90793514251709,7.584938982400792,7.369114915045475,30.16513446957001,26.998033647615618,6.47544875391759e-05,0.0883364379405975,0,0,0
2537,86134.80642968968,2010-09-15 13:52:56,2251.1292637448864,2,8,0.5499359965324402,3.9089064598083496,7.589525079332919,7.369114915045475,30.18305877047018,26.998033647615618,0.0,0.0883364379405975,0,0,0
2538,86164.82168187687,2010-09-15 13:53:26,2281.144515922052,2,8,0.5501165986061096,3.910201549530029,7.594111472508571,7.369114915045475,30.200989669321437,26.998033647615618,6.47544875391759e-05,0.0883364379405975,0,0,0
2539,86194.8369608008,2010-09-15 13:53:56,2311.159794845981,2,8,0.5501165986061096,3.911496639251709,7.598697901183436,7.369114915045475,30.21892603091863,26.998033647615618,6.47544875391759e-05,0.0883364379405975,0,0,0
2540,86224.85222624609,2010-09-15 13:54:26,2341.1750602912657,2,8,0.5499359965324402,3.9124679565429688,7.60328428912019,7.369114915045475,30.236867703665983,26.998033647615618,0.0,0.0883364379405975,0,0,0
2541,86254.86747554106,2010-09-15 13:54:56,2371.1903096163114,2,8,0.5499359965324402,3.913762807846069,7.607870663319021,7.369114915045475,30.254814769927822,26.998033647615618,6.470680091297254e-05,0.0883364379405975,0,0,0
2542,86284.88289202836,2010-09-15 13:55:26,2401.2057260785577,2,8,0.5499359965324402,3.914896011352539,7.612457037527621,7.369114915045475,30.272767420895025,26.998033647615618,3.237724376958795e-05,0.0883364379405975,0,0,0
2543,86314.89802739896,2010-09-15 13:55:56,2431.220861449156,2,8,0.5499359965324402,3.9161911010742183,7.617043458550379,7.369114915045475,30.29072574898268,26.998033647615618,6.47544875391759e-05,0.0883364379405975,0,0,0
2544,86344.91341370092,2010-09-15 13:56:26,2461.2362477461047,2,8,0.550297200679779,3.9174861907958975,7.621629816426776,7.369114915045475,30.308689639468504,26.998033647615618,3.237724376958795e-05,0.0883364379405975,0,0,0
2545,86374.92852624453,2010-09-15 13:56:56,2491.251360289723,2,8,0.5499359965324402,3.918619394302368,7.626216178805779,7.369114915045475,30.32665942678253,26.998033647615618,0.0,0.0883364379405975,0,0,0
2546,86404.94380843663,2010-09-15 13:57:26,2521.266642496848,2,8,0.5499359965324402,3.920076370239258,7.63080243046389,7.369114915045475,30.344634698816588,26.998033647615618,3.237724376958795e-05,0.0883364379405975,0,0,0
2547,86434.9590633055,2010-09-15 13:57:56,2551.2818973557078,2,8,0.550297200679779,3.921533346176148,7.635388816157803,7.369114915045475,30.3626164327957,26.998033647615618,6.47544875391759e-05,0.0883364379405975,0,0,0
2548,86464.97433722194,2010-09-15 13:58:27,2581.297171267124,2,8,0.550297200679779,3.922828435897827,7.639975157849165,7.369114915045475,30.380604051557587,26.998033647615618,6.47544875391759e-05,0.0883364379405975,0,0,0
2549,86494.98959645673,2010-09-15 13:58:57,2611.312430531982,2,8,0.5499359965324402,3.923961639404297,7.644561556727773,7.369114915045475,30.3985980221138,26.998033647615618,0.0,0.0883364379405975,0,0,0
2550,86525.00502766077,2010-09-15 13:59:27,2641.3278617059505,2,8,0.550297200679779,3.925580501556397,7.649147973567537,7.369114915045475,30.416598252860727,26.998033647615618,6.47544875391759e-05,0.0883364379405975,0,0,0
2551,86555.02223646698,2010-09-15 13:59:57,2671.345070512163,2,8,0.550297200679779,3.926875591278076,7.653734672173804,7.369114915045475,30.434605737789703,26.998033647615618,6.47544875391759e-05,0.0883364379405975,0,0,0
2552,86585.03541617595,2010-09-15 14:00:27,2701.358250341429,2,8,0.550297200679779,3.928170680999756,7.658320745836113,7.369114915045475,30.452617112979336,26.998033647615618,6.47544875391759e-05,0.0883364379405975,0,0,0
2553,86615.05065111507,2010-09-15 14:00:57,2731.373485160266,2,8,0.5499359965324402,3.929465770721436,7.662907163770594,7.369114915045475,30.47063621217306,26.998033647615618,0.0,0.0883364379405975,0,0,0
2554,86645.06590954786,2010-09-15 14:01:27,2761.388743593045,2,8,0.5501165986061096,3.930922746658325,7.667493570264115,7.369114915045475,30.48866176927829,26.998033647615618,3.237724376958795e-05,0.0883364379405975,0,0,0
2555,86675.08117788538,2010-09-15 14:01:57,2791.4040119606248,2,8,0.5501165986061096,3.932217836380005,7.672079927661363,7.369114915045475,30.50669356482012,26.998033647615618,3.237724376958795e-05,0.0883364379405975,0,0,0
2556,86705.09644505495,2010-09-15 14:02:27,2821.4192791001383,2,8,0.550297200679779,3.933836698532105,7.676666310243008,7.369114915045475,30.52473211192572,26.998033647615618,6.47544875391759e-05,0.0883364379405975,0,0,0
2557,86735.1117455427,2010-09-15 14:02:57,2851.4345795979198,2,8,0.5499359965324402,3.935293674468994,7.681252725850401,7.369114915045475,30.54277740699804,26.998033647615618,3.237724376958795e-05,0.0883364379405975,0,0,0
2558,86765.12696593053,2010-09-15 14:03:27,2881.449800005784,2,8,0.5499359965324402,3.936588764190674,7.685839248220152,7.369114915045475,30.56082976257317,26.998033647615618,3.237724376958795e-05,0.0883364379405975,0,0,0
2559,86795.14222418285,2010-09-15 14:03:57,2911.465058243076,2,8,0.5501165986061096,3.938207626342773,7.69042567545841,7.369114915045475,30.57888850618749,26.998033647615618,0.0,0.0883364379405975,0,0,0
2560,86825.1576285048,2010-09-15 14:04:27,2941.4804626502305,2,8,0.5499359965324402,3.939664602279663,7.695012057124303,7.369114915045475,30.596953877156007,26.998033647615618,3.237724376958795e-05,0.0883364379405975,0,0,0
2561,86855.17275091805,2010-09-15 14:04:57,2971.495584963235,2,8,0.5501165986061096,3.9411215782165527,7.69959844604443,7.369114915045475,30.615026217105243,26.998033647615618,0.0,0.0883364379405975,0,0,0
2562,86885.1880244836,2010-09-15 14:05:27,3001.5108585338016,2,8,0.5501165986061096,3.942740440368652,7.704184855691809,7.369114915045475,30.6331055242818,26.998033647615618,3.237724376958795e-05,0.0883364379405975,0,0,0
2563,86915.20340949236,2010-09-15 14:05:57,3031.5262436327603,2,8,0.5501165986061096,3.944197416305542,7.708771249651398,7.369114915045475,30.65119178315717,26.998033647615618,3.237724376958795e-05,0.0883364379405975,0,0,0
2564,86945.21856770496,2010-09-15 14:06:27,3061.541401760163,2,8,0.5499359965324402,3.945654392242432,7.713357623553868,7.369114915045475,30.669285052222136,26.998033647615618,3.237724376958795e-05,0.0883364379405975,0,0,0
2565,86975.23623589285,2010-09-15 14:06:57,3091.559070058338,2,8,0.5501165986061096,3.9472732543945312,7.71794444053537,7.369114915045475,30.6873871365385,26.998033647615618,3.237724376958795e-05,0.0883364379405975,0,0,0
2566,87005.249198941,2010-09-15 14:07:27,3121.5720329911974,2,8,0.5501165986061096,3.948892116546631,7.722530491599696,7.369114915045475,30.70549339279872,26.998033647615618,3.237724376958795e-05,0.0883364379405975,0,0,0
2567,87035.26432964495,2010-09-15 14:07:57,3151.5871637051714,2,8,0.5499359965324402,3.9505109786987305,7.727116870167331,7.369114915045475,30.72360819662746,26.998033647615618,3.237724376958795e-05,0.0883364379405975,0,0,0
2568,87065.27973971123,2010-09-15 14:08:27,3181.602573756415,2,8,0.5499359965324402,3.95212984085083,7.731703293242153,7.369114915045475,30.741730541053933,26.998033647615618,9.713172767078504e-05,0.0883364379405975,0,0,0
2569,87095.29485265084,2010-09-15 14:08:57,3211.6176867010345,2,8,0.5499359965324402,3.9537487030029297,7.736289712940558,7.369114915045475,30.75986026506025,26.998033647615618,6.47544875391759e-05,0.0883364379405975,0,0,0
2570,87125.31012371514,2010-09-15 14:09:27,3241.632957760333,2,8,0.5501165986061096,3.9552056789398193,7.740876174394917,7.369114915045475,30.77799761604827,26.998033647615618,0.0,0.0883364379405975,0,0,0
2571,87155.32540806262,2010-09-15 14:09:57,3271.648242112813,2,8,0.5499359965324402,3.956824541091919,7.745462587976176,7.369114915045475,30.79614236433345,26.998033647615618,0.0,0.0883364379405975,0,0,0
2572,87185.34065642525,2010-09-15 14:10:27,3301.6634904804687,2,8,0.5501165986061096,3.958605289459229,7.750049057352998,7.369114915045475,30.81429471143017,26.998033647615618,3.237724376958795e-05,0.0883364379405975,0,0,0
2573,87215.35591192571,2010-09-15 14:10:57,3331.6787459809293,2,8,0.5501165986061096,3.960386037826538,7.754635533738105,7.369114915045475,30.83245481929461,26.998033647615618,6.47544875391759e-05,0.0883364379405975,0,0,0
2574,87245.37129493446,2010-09-15 14:11:27,3361.694128979645,2,8,0.5501165986061096,3.9620048999786377,7.759222015597659,7.369114915045475,30.85062268417065,26.998033647615618,3.237724376958795e-05,0.0883364379405975,0,0,0
2575,87275.38643426495,2010-09-15 14:11:57,3391.7092683351907,2,8,0.5501165986061096,3.963623762130737,7.763808483769854,7.369114915045475,30.86879829864148,26.998033647615618,0.0,0.0883364379405975,0,0,0
2576,87305.40185227606,2010-09-15 14:12:27,3421.7246863312653,2,8,0.5499359965324402,3.965404510498047,7.768394998133323,7.369114915045475,30.886982054889,26.998033647615618,0.0,0.0883364379405975,0,0,0
2577,87335.4018778202,2010-09-15 14:12:57,3451.72471197065,2,8,0.5501165986061096,3.967185258865357,7.772979151729529,7.369114915045475,30.90516449221805,26.998033647615618,3.237724376958795e-05,0.0883364379405975,0,0,0
2578,87365.41659966859,2010-09-15 14:13:27,3481.739433723795,2,8,0.5501165986061096,3.968804121017456,7.777565566579779,7.369114915045475,30.923363870930945,26.998033647615618,3.237724376958795e-05,0.0883364379405975,0,0,0
2579,87395.43199571487,2010-09-15 14:13:57,3511.754829760055,2,8,0.5499359965324402,3.970746755599976,7.782152089911761,7.369114915045475,30.94157193572641,26.998033647615618,6.47544875391759e-05,0.0883364379405975,0,0,0
2580,87425.44713134613,2010-09-15 14:14:27,3541.7699654013286,2,8,0.5499359965324402,3.972527503967285,7.786738570340877,7.369114915045475,30.959788120909607,26.998033647615618,0.0,0.0883364379405975,0,0,0
2581,87455.46252888614,2010-09-15 14:14:57,3571.7853630265545,2,8,0.5501165986061096,3.9744701385498047,7.79132508355988,7.369114915045475,30.978012791569125,26.998033647615618,3.237724376958795e-05,0.0883364379405975,0,0,0
2582,87485.47765343472,2010-09-15 14:15:27,3601.8004874899266,2,8,0.5499359965324402,3.976250886917114,7.795911593038603,7.369114915045475,30.996245979495704,26.998033647615618,3.237724376958795e-05,0.0883364379405975,0,0,0
2583,87515.49293851401,2010-09-15 14:15:57,3631.815772559196,2,8,0.550297200679779,3.977869749069214,7.800498443377407,7.369114915045475,31.01448894214571,26.998033647615618,3.237724376958795e-05,0.0883364379405975,0,0,0
2584,87545.50840229436,2010-09-15 14:16:27,3661.8312363395553,2,8,0.5501165986061096,3.980136156082153,7.805085553928808,7.369114915045475,31.032741680658656,26.998033647615618,3.237724376958795e-05,0.0883364379405975,0,0,0
2585,87575.52380693713,2010-09-15 14:16:57,3691.8466410123738,2,8,0.550297200679779,3.982078790664673,7.809672643544117,7.369114915045475,31.051003359820484,26.998033647615618,6.47544875391759e-05,0.0883364379405975,0,0,0
2586,87605.53871588252,2010-09-15 14:17:27,3721.861549927704,2,8,0.550297200679779,3.984021425247192,7.814259680613337,7.369114915045475,31.06927374470977,26.998033647615618,9.713172767078504e-05,0.0883364379405975,0,0,0
2587,87635.55398101201,2010-09-15 14:17:57,3751.8768150722394,2,8,0.5501165986061096,3.985802173614502,7.818846412618655,7.369114915045475,31.087551943879504,26.998033647615618,0.0,0.0883364379405975,0,0,0
2588,87665.56924383577,2010-09-15 14:18:27,3781.892077890966,2,8,0.5499359965324402,3.9880685806274414,7.823432731517523,7.369114915045475,31.10583762657664,26.998033647615618,6.47544875391759e-05,0.0883364379405975,0,0,0
2589,87695.58454241374,2010-09-15 14:18:57,3811.9073764839927,2,8,0.5501165986061096,3.990011215209961,7.828019138547822,7.369114915045475,31.12413274970967,26.998033647615618,3.237724376958795e-05,0.0883364379405975,0,0,0
2590,87725.59980017987,2010-09-15 14:19:27,3841.922634235072,2,8,0.5499359965324402,3.991953849792481,7.832605467278818,7.369114915045475,31.14243690192325,26.998033647615618,6.47544875391759e-05,0.0883364379405975,0,0,0
2591,87755.61503390096,2010-09-15 14:19:57,3871.9378679561673,2,8,0.5501165986061096,3.994058132171631,7.837191832775242,7.369114915045475,31.160750538626896,26.998033647615618,6.470680091297254e-05,0.0883364379405975,0,0,0
2592,87785.63030184749,2010-09-15 14:20:27,3901.953135902695,2,8,0.550297200679779,3.9963245391845694,7.841778155099839,7.369114915045475,31.17907338814509,26.998033647615618,9.713172767078504e-05,0.0883364379405975,0,0,0
2593,87815.64570885613,2010-09-15 14:20:57,3931.968542911344,2,8,0.5501165986061096,3.99826717376709,7.846364534558902,7.369114915045475,31.197406013688028,26.998033647615618,3.237724376958795e-05,0.0883364379405975,0,0,0
2594,87845.6608353997,2010-09-15 14:21:27,3961.983669449896,2,8,0.5501165986061096,4.000371932983398,7.850950883411977,7.369114915045475,31.2157480024296,26.998033647615618,6.47544875391759e-05,0.0883364379405975,0,0,0
2595,87875.67614596261,2010-09-15 14:21:57,3991.9989800077888,2,8,0.5501165986061096,4.002314567565918,7.85553715152439,7.369114915045475,31.234099388304763,26.998033647615618,3.24249267578125e-05,0.0883364379405975,0,0,0
2596,87905.69218282346,2010-09-15 14:22:27,4022.015016893707,2,8,0.5499359965324402,4.004418849945068,7.86012364256172,7.369114915045475,31.2524614269329,26.998033647615618,0.0,0.0883364379405975,0,0,0
2597,87935.70666774544,2010-09-15 14:22:57,4052.029501790624,2,8,0.5499359965324402,4.006685256958008,7.86470982717605,7.369114915045475,31.2708319563929,26.998033647615618,6.47544875391759e-05,0.0883364379405975,0,0,0
2598,87965.72151448557,2010-09-15 14:23:27,4082.0443483152176,2,8,0.5501165986061096,4.008790016174316,7.869296139878453,7.369114915045475,31.289212801763785,26.998033647615618,3.24249267578125e-05,0.0883364379405975,0,0,0
2599,87995.7217106005,2010-09-15 14:23:57,4112.044544861212,2,8,0.5501165986061096,4.010894298553467,7.873880114357141,7.369114915045475,31.307593914614472,26.998033647615618,6.47544875391759e-05,0.0883364379405975,0,0,0
2600,88025.73679681338,2010-09-15 14:24:27,4142.059630888642,2,8,0.5499359965324402,4.012999057769775,7.878466374554568,7.369114915045475,31.325994024175856,26.998033647615618,0.0,0.0883364379405975,0,0,0
2601,88055.7516698291,2010-09-15 14:24:57,4172.074503568523,2,8,0.550297200679779,4.015265464782715,7.883052664992242,7.369114915045475,31.344404150367392,26.998033647615618,6.47544875391759e-05,0.0883364379405975,0,0,0
2602,88085.75178105713,2010-09-15 14:25:27,4202.074615137401,2,8,0.5501165986061096,4.017531871795654,7.887636701210895,7.369114915045475,31.36281522201445,26.998033647615618,9.71794142969884e-05,0.0883364379405975,0,0,0
2603,88115.76698222196,2010-09-15 14:25:57,4232.089816297219,2,8,0.550297200679779,4.019798278808594,7.892223077020007,7.369114915045475,31.38124564441041,26.998033647615618,9.71794142969884e-05,0.0883364379405975,0,0,0
2604,88145.7822375971,2010-09-15 14:26:27,4262.105071672367,2,8,0.5501165986061096,4.021902561187744,7.896809377352637,7.369114915045475,31.399685747117665,26.998033647615618,6.47544875391759e-05,0.0883364379405975,0,0,0
2605,88175.79753601972,2010-09-15 14:26:57,4292.12037007993,2,8,0.5499359965324402,4.023845195770264,7.901395823215758,7.369114915045475,31.41813675925941,26.998033647615618,3.23295607813634e-05,0.0883364379405975,0,0,0
2606,88205.81286467277,2010-09-15 14:27:27,4322.135698818204,2,8,0.5501165986061096,4.026435375213623,7.905982159971567,7.369114915045475,31.43659767422634,26.998033647615618,9.70840483205393e-05,0.0883364379405975,0,0,0
2607,88235.82821714527,2010-09-15 14:27:57,4352.151051215534,2,8,0.5501165986061096,4.0287017822265625,7.910568574906627,7.369114915045475,31.45506950810258,26.998033647615618,6.47544875391759e-05,0.0883364379405975,0,0,0
2608,88265.84330236068,2010-09-15 14:28:27,4382.166136405875,2,8,0.5501165986061096,4.031130313873291,7.915154989708687,7.369114915045475,31.473551962559256,26.998033647615618,6.47544875391759e-05,0.0883364379405975,0,0,0
2609,88295.858570217,2010-09-15 14:28:57,4412.181404292252,2,8,0.5501165986061096,4.033396720886231,7.919741334550309,7.369114915045475,31.49204501281463,26.998033647615618,3.24249267578125e-05,0.0883364379405975,0,0,0
2610,88325.87388042401,2010-09-15 14:29:27,4442.196714564432,2,8,0.5499359965324402,4.035662651062012,7.924327685445397,7.369114915045475,31.51054904374857,26.998033647615618,3.23295607813634e-05,0.0883364379405975,0,0,0
2611,88355.88914465124,2010-09-15 14:29:57,4472.211978716489,2,8,0.5501165986061096,4.038252830505371,7.928914003023768,7.369114915045475,31.529063851977977,26.998033647615618,6.47544875391759e-05,0.0883364379405975,0,0,0
2612,88385.9043940565,2010-09-15 14:30:27,4502.227228126748,2,8,0.5499359965324402,4.040519237518311,7.933500372269681,7.369114915045475,31.54758974889579,26.998033647615618,3.23295607813634e-05,0.0883364379405975,0,0,0
2613,88415.91971160183,2010-09-15 14:30:57,4532.242545762307,2,8,0.5501165986061096,4.042947769165039,7.93808664355737,7.369114915045475,31.566126249340737,26.998033647615618,9.71794142969884e-05,0.0883364379405975,0,0,0
2614,88445.93540104548,2010-09-15 14:31:27,4562.258235145806,2,8,0.550297200679779,4.045699596405029,7.942673039518645,7.369114915045475,31.584674360351872,26.998033647615618,0.0001618385285837,0.0883364379405975,0,0,0
2615,88475.95065697703,2010-09-15 14:31:58,4592.273491022205,2,8,0.5501165986061096,4.047966003417969,7.947259424509113,7.369114915045475,31.60323361072706,26.998033647615618,6.47544875391759e-05,0.0883364379405975,0,0,0
2616,88505.96609838154,2010-09-15 14:32:28,4622.288932431724,2,8,0.5501165986061096,4.050232410430908,7.951845784492647,7.369114915045475,31.62180407851873,26.998033647615618,3.23295607813634e-05,0.0883364379405975,0,0,0
2617,88535.98116670476,2010-09-15 14:32:58,4652.304000780024,2,8,0.5501165986061096,4.052660942077637,7.956432132383181,7.369114915045475,31.64038590402317,26.998033647615618,6.47544875391759e-05,0.0883364379405975,0,0,0
2618,88565.99624782996,2010-09-15 14:33:28,4682.319081875143,2,8,0.5501165986061096,4.055412769317627,7.961018500838558,7.369114915045475,31.65897947725261,26.998033647615618,6.47544875391759e-05,0.0883364379405975,0,0,0
2619,88596.01171560028,2010-09-15 14:33:58,4712.334549645461,2,8,0.5501165986061096,4.057841300964356,7.96560512881293,7.369114915045475,31.677585857838917,26.998033647615618,3.24249267578125e-05,0.0883364379405975,0,0,0
2620,88626.02714307,2010-09-15 14:34:28,4742.3499771352335,2,8,0.550297200679779,4.060593128204346,7.970191751345908,7.369114915045475,31.69620422746319,26.998033647615618,3.23295607813634e-05,0.0883364379405975,0,0,0
2621,88656.04244713168,2010-09-15 14:34:58,4772.365281196911,2,8,0.550297200679779,4.063345432281494,7.974778277661276,7.369114915045475,31.7148336956346,26.998033647615618,0.0001295089750783,0.0883364379405975,0,0,0
2622,88686.0575553094,2010-09-15 14:35:28,4802.380389354581,2,8,0.5501165986061096,4.0657734870910645,7.979364773439661,7.369114915045475,31.733475283441315,26.998033647615618,6.47544875391759e-05,0.0883364379405975,0,0,0
2623,88716.07292009264,2010-09-15 14:35:58,4832.395754147854,2,8,0.5501165986061096,4.068525791168213,7.983951339784541,7.369114915045475,31.752129329602724,26.998033647615618,9.71794142969884e-05,0.0883364379405975,0,0,0
2624,88746.08818432991,2010-09-15 14:36:28,4862.41101838011,2,8,0.5501165986061096,4.071115970611572,7.988537855628635,7.369114915045475,31.770795495768407,26.998033647615618,6.47544875391759e-05,0.0883364379405975,0,0,0
2625,88776.10321306935,2010-09-15 14:36:58,4892.426047114528,2,8,0.5499359965324402,4.073706150054932,7.993124266012457,7.369114915045475,31.789473461747004,26.998033647615618,6.47544875391759e-05,0.0883364379405975,0,0,0
2626,88806.11855643413,2010-09-15 14:37:28,4922.441390569537,2,8,0.5499359965324402,4.076457977294922,7.997710702582705,7.369114915045475,31.80816387854212,26.998033647615618,6.47544875391759e-05,0.0883364379405975,0,0,0
2627,88836.13398579357,2010-09-15 14:37:58,4952.456819939001,2,8,0.5499359965324402,4.07921028137207,8.002297075204927,7.369114915045475,31.826866451181488,26.998033647615618,6.47544875391759e-05,0.0883364379405975,0,0,0
2628,88866.14923002089,2010-09-15 14:38:28,4982.472064071086,2,8,0.5501165986061096,4.08212423324585,8.006883549148718,7.369114915045475,31.845582100793084,26.998033647615618,9.71794142969884e-05,0.0883364379405975,0,0,0
2629,88896.16436313084,2010-09-15 14:38:58,5012.487197181041,2,8,0.5501165986061096,4.08487606048584,8.011470022692327,7.369114915045475,31.864310598881765,26.998033647615618,9.70840483205393e-05,0.0883364379405975,0,0,0
2630,88926.17962789444,2010-09-15 14:39:28,5042.502461939611,2,8,0.550297200679779,4.087790012359619,8.016056494849156,7.369114915045475,31.88305210119196,26.998033647615618,9.70840483205393e-05,0.0883364379405975,0,0,0
2631,88956.19490135973,2010-09-15 14:39:58,5072.51773543499,2,8,0.550297200679779,4.090542316436768,8.02064305284513,7.369114915045475,31.9018070833442,26.998033647615618,6.47544875391759e-05,0.0883364379405975,0,0,0
2632,88986.20967219539,2010-09-15 14:40:28,5102.532506030052,2,8,0.5499359965324402,4.093456268310547,8.025229491100182,7.369114915045475,31.920574700148983,26.998033647615618,9.71794142969884e-05,0.0883364379405975,0,0,0
2633,89016.20983529791,2010-09-15 14:40:58,5132.532669373166,2,8,0.5501165986061096,4.096370220184326,8.029813747804694,7.369114915045475,31.93934672175398,26.998033647615618,9.71794142969884e-05,0.0883364379405975,0,0,0
2634,89046.22508605152,2010-09-15 14:41:28,5162.547920096703,2,8,0.5499359965324402,4.0992841720581055,8.034400247627683,7.369114915045475,31.95814136392783,26.998033647615618,6.47544875391759e-05,0.0883364379405975,0,0,0
2635,89076.24042343638,2010-09-15 14:41:58,5192.563257576797,2,8,0.550297200679779,4.102198123931885,8.03898682723333,7.369114915045475,31.9769500267491,26.998033647615618,3.24249267578125e-05,0.0883364379405975,0,0,0
2636,89106.25562625032,2010-09-15 14:42:28,5222.57846030052,2,8,0.5501165986061096,4.105435848236084,8.043573307023651,7.369114915045475,31.995772049471466,26.998033647615618,9.71794142969884e-05,0.0883364379405975,0,0,0
2637,89136.27095327934,2010-09-15 14:42:58,5252.593787339551,2,8,0.5501165986061096,4.108349800109863,8.048159837365136,7.369114915045475,32.01460830947242,26.998033647615618,9.71794142969884e-05,0.0883364379405975,0,0,0
2638,89166.2861641935,2010-09-15 14:43:28,5282.608998263743,2,8,0.5501165986061096,4.111587524414063,8.052746361458027,7.369114915045475,32.033458700617544,26.998033647615618,9.71794142969884e-05,0.0883364379405975,0,0,0
2639,89196.3014311275,2010-09-15 14:43:58,5312.624265172681,2,8,0.5499359965324402,4.114663124084473,8.057332882309801,7.369114915045475,32.052323332238515,26.998033647615618,0.0001295089750783,0.0883364379405975,0,0,0
2640,89226.31669990109,2010-09-15 14:44:28,5342.639533946274,2,8,0.5499359965324402,4.117738723754883,8.061919439789984,7.369114915045475,32.071202561518696,26.998033647615618,9.70840483205393e-05,0.0883364379405975,0,0,0
2641,89256.3322387739,2010-09-15 14:44:58,5372.655072954413,2,8,0.5501165986061096,4.120976448059082,8.066506018699288,7.369114915045475,32.09009644352628,26.998033647615618,9.70840483205393e-05,0.0883364379405975,0,0,0
2642,89286.34728212479,2010-09-15 14:45:28,5402.670116225116,2,8,0.5501165986061096,4.124214172363281,8.071092511093562,7.369114915045475,32.10900451634456,26.998033647615618,9.70840483205393e-05,0.0883364379405975,0,0,0
2643,89316.36253117415,2010-09-15 14:45:58,5432.685365249411,2,8,0.550297200679779,4.1274518966674805,8.075679039652648,7.369114915045475,32.12792740744927,26.998033647615618,6.47544875391759e-05,0.0883364379405975,0,0,0
2644,89346.37781817325,2010-09-15 14:46:28,5462.700652228447,2,8,0.5499359965324402,4.130527973175049,8.080265590862862,7.369114915045475,32.14686518590826,26.998033647615618,9.71794142969884e-05,0.0883364379405975,0,0,0
2645,89376.39325227452,2010-09-15 14:46:58,5492.716086349773,2,8,0.550297200679779,4.133927345275879,8.084852254711826,7.369114915045475,32.165818404226016,26.998033647615618,9.70840483205393e-05,0.0883364379405975,0,0,0
2646,89406.40833533954,2010-09-15 14:47:28,5522.731169394759,2,8,0.5501165986061096,4.137165069580078,8.08943877863902,7.369114915045475,32.18478617932685,26.998033647615618,9.70840483205393e-05,0.0883364379405975,0,0,0
2647,89436.42360564697,2010-09-15 14:47:58,5552.746439722229,2,8,0.5501165986061096,4.140402793884277,8.094025356331768,7.369114915045475,32.203769488145134,26.998033647615618,9.70840483205393e-05,0.0883364379405975,0,0,0
2648,89466.43894163334,2010-09-15 14:48:28,5582.761775688546,2,8,0.5499359965324402,4.143802642822266,8.09861191814609,7.369114915045475,32.22276804042372,26.998033647615618,6.47544875391759e-05,0.0883364379405975,0,0,0
2649,89496.45412867791,2010-09-15 14:48:58,5612.77696273313,2,8,0.550297200679779,4.147525787353516,8.103198408212013,7.369114915045475,32.24178206894857,26.998033647615618,0.0001295089750783,0.0883364379405975,0,0,0
2650,89526.46939480992,2010-09-15 14:49:28,5642.792228855104,2,8,0.5501165986061096,4.150763511657715,8.107785001770592,7.369114915045475,32.26081218179978,26.998033647615618,9.70840483205393e-05,0.0883364379405975,0,0,0
2651,89556.48480811428,2010-09-15 14:49:58,5672.80764218453,2,8,0.5501165986061096,4.154163360595703,8.112371556833125,7.369114915045475,32.27985790508717,26.998033647615618,9.71794142969884e-05,0.0883364379405975,0,0,0
2652,89586.50032818013,2010-09-15 14:50:28,5702.823162250386,2,8,0.5501165986061096,4.157724857330322,8.11695807659208,7.369114915045475,32.298919346548374,26.998033647615618,9.71794142969884e-05,0.0883364379405975,0,0,0
2653,89616.51534109005,2010-09-15 14:50:58,5732.838175230479,2,8,0.5501165986061096,4.161286354064941,8.121544528269405,7.369114915045475,32.31799657223854,26.998033647615618,9.71794142969884e-05,0.0883364379405975,0,0,0
2654,89646.53049979892,2010-09-15 14:51:28,5762.853333849108,2,8,0.5501165986061096,4.164685726165772,8.126131029629352,7.369114915045475,32.337090151919554,26.998033647615618,9.70840483205393e-05,0.0883364379405975,0,0,0
2655,89676.54577189079,2010-09-15 14:51:58,5792.868605971059,2,8,0.550297200679779,4.168247222900391,8.130717476989547,7.369114915045475,32.35619978180575,26.998033647615618,9.70840483205393e-05,0.0883364379405975,0,0,0
2656,89706.56101623841,2010-09-15 14:52:28,5822.883850283593,2,8,0.5501165986061096,4.17180871963501,8.135303976679397,7.369114915045475,32.375326056473554,26.998033647615618,6.47544875391759e-05,0.0883364379405975,0,0,0
2657,89736.5762923052,2010-09-15 14:52:58,5852.899126355403,2,8,0.5501165986061096,4.175693988800049,8.139890562630848,7.369114915045475,32.39446926799346,26.998033647615618,0.0001295089750783,0.0883364379405975,0,0,0
2658,89766.59156849231,2010-09-15 14:53:28,5882.914402537487,2,8,0.5501165986061096,4.179255485534668,8.144477100142836,7.369114915045475,32.41362896422306,26.998033647615618,9.70840483205393e-05,0.0883364379405975,0,0,0
2659,89796.60719029712,2010-09-15 14:53:58,5912.930024367363,2,8,0.5501165986061096,4.182816982269287,8.149063731049475,7.369114915045475,32.43280585725923,26.998033647615618,6.47544875391759e-05,0.0883364379405975,0,0,0
2660,89826.62227063032,2010-09-15 14:54:28,5942.945104790805,2,8,0.5499359965324402,4.186540603637695,8.153650293615454,7.369114915045475,32.45199940045203,26.998033647615618,6.47544875391759e-05,0.0883364379405975,0,0,0
2661,89856.637369169,2010-09-15 14:54:58,5972.9602032141765,2,8,0.5501165986061096,4.190587520599365,8.158236712714622,7.369114915045475,32.47120951347482,26.998033647615618,0.0001295089750783,0.0883364379405975,0,0,0
2662,89886.65266106531,2010-09-15 14:55:28,6002.975495140563,2,8,0.5499359965324402,4.194149017333984,8.162823197210374,7.369114915045475,32.49043712579952,26.998033647615618,9.70840483205393e-05,0.0883364379405975,0,0,0
2663,89916.66791200939,2010-09-15 14:55:58,6032.9907460646,2,8,0.5499359965324402,4.197872161865234,8.167409715245103,7.369114915045475,32.509682239874,26.998033647615618,9.70840483205393e-05,0.0883364379405975,0,0,0
2664,89932.52708758149,2010-09-15 14:56:14,6048.849921636701,2,8,0.5501165986061096,4.200138568878174,8.16983308363112,7.369114915045475,32.5198577697612,26.998033647615618,0.0001618385285837,0.0883364379405975,0,0,0
2665,89962.54297231056,2010-09-15 14:56:44,30.015391134023005,3,8,0.0,4.119195938110352,8.16983308363112,7.369114915045475,32.5198577697612,26.998033647615618,-0.0003561019839253,0.0883364379405975,0,0,0
2666,89992.55812589663,2010-09-15 14:57:14,60.03054472510228,3,8,0.0,4.108997344970703,8.16983308363112,7.369114915045475,32.5198577697612,26.998033647615618,-0.0002265930233988,0.0883364379405975,0,0,0
2667,90022.5733799535,2010-09-15 14:57:44,90.04579877193456,3,8,0.0,4.103007316589356,8.16983308363112,7.369114915045475,32.5198577697612,26.998033647615618,-0.0001942634553415,0.0883364379405975,0,0,0
2668,90052.54177299805,2010-09-15 14:58:14,120.01419181148329,3,8,0.0,4.0992841720581055,8.16983308363112,7.369114915045475,32.5198577697612,26.998033647615618,-0.0001295089750783,0.0883364379405975,0,0,0
2669,90052.54369620599,2010-09-15 14:58:14,2.641593825e-06,4,8,0.9927899241447448,4.199814796447754,8.169833084359606,7.369114915045475,32.51985777282071,26.998033647615618,0.0,0.0883364379405975,0,0,0
2670,90053.5436755182,2010-09-15 14:58:15,0.99998197385011,4,8,0.9420387744903564,4.199814796447754,8.170100169183263,7.369114915045475,32.52097944520753,26.998033647615618,0.0,0.0883364379405975,0,0,0
2671,90055.7781774538,2010-09-15 14:58:18,3.234483914463411,4,8,0.8914681673049927,4.199814796447754,8.170668137015946,7.369114915045475,32.52336477160298,26.998033647615618,0.0,0.0883364379405975,0,0,0
2672,90059.10611854676,2010-09-15 14:58:21,6.562425002409862,4,8,0.8410781621932983,4.199814796447754,8.171467898028347,7.369114915045475,32.52672355102896,26.998033647615618,0.0,0.0883364379405975,0,0,0
2673,90063.52807463445,2010-09-15 14:58:25,10.984381090105687,4,8,0.790688157081604,4.199814796447754,8.17246894172664,7.369114915045475,32.530927689736664,26.998033647615618,3.23295607813634e-05,0.0883364379405975,0,0,0
2674,90069.21558115573,2010-09-15 14:58:31,16.67188770662153,4,8,0.7404788136482239,4.199653148651123,8.173677256694182,7.369114915045475,32.53600231081794,26.998033647615618,-3.23295607813634e-05,0.0883364379405975,0,0,0
2675,90076.54340821944,2010-09-15 14:58:38,23.99971468010533,4,8,0.690269410610199,4.199814796447754,8.175131698669343,7.369114915045475,32.54211062696763,26.998033647615618,0.0,0.0883364379405975,0,0,0
2676,90086.15278717269,2010-09-15 14:58:48,33.609093628326086,4,8,0.6402406692504883,4.199653148651123,8.176905299279753,7.369114915045475,32.549559333340774,26.998033647615618,-3.23295607813634e-05,0.0883364379405975,0,0,0
2677,90099.62139664902,2010-09-15 14:59:01,47.07770310968533,4,8,0.5902118682861328,4.199653148651123,8.179202595851795,7.369114915045475,32.55920743046107,26.998033647615618,-3.23295607813634e-05,0.0883364379405975,0,0,0
2678,90119.62102929896,2010-09-15 14:59:21,67.07733575463368,4,8,0.5401831269264221,4.199653148651123,8.182332763489281,7.369114915045475,32.57235337693842,26.998033647615618,-3.23295607813634e-05,0.0883364379405975,0,0,0
2679,90152.80842004204,2010-09-15 14:59:55,100.26472649768075,4,8,0.4901543259620666,4.199653148651123,8.187062853324012,7.369114915045475,32.59221864716487,26.998033647615618,-3.23295607813634e-05,0.0883364379405975,0,0,0
2680,90211.61993141232,2010-09-15 15:00:53,159.07623789806092,4,8,0.4401255548000335,4.199653148651123,8.194627937566167,7.369114915045475,32.62399021832186,26.998033647615618,-3.23295607813634e-05,0.0883364379405975,0,0,0
2681,90302.05635006158,2010-09-15 15:02:24,249.51265651722952,4,8,0.389916181564331,4.199653148651123,8.205027675497908,7.369114915045475,32.66766676845631,26.998033647615618,0.0,0.0883364379405975,0,0,0
2682,90418.30520382502,2010-09-15 15:04:20,365.7615103107372,4,8,0.3397068083286285,4.199814796447754,8.21679825511375,7.369114915045475,32.717100678242616,26.998033647615618,3.23295607813634e-05,0.0883364379405975,0,0,0
2683,90557.1943393298,2010-09-15 15:06:39,504.6506457954664,4,8,0.2896780371665954,4.199653148651123,8.228927547904657,7.369114915045475,32.768040867876906,26.998033647615618,0.0,0.0883364379405975,0,0,0
2684,90726.34820719765,2010-09-15 15:09:28,673.8045136633365,4,8,0.2396492660045623,4.199814796447754,8.24134688885689,7.369114915045475,32.820199270029924,26.998033647615618,0.0,0.0883364379405975,0,0,0
2685,90937.89254663416,2010-09-15 15:13:00,885.3488531900784,4,8,0.1896204948425293,4.199653148651123,8.253919256458225,7.369114915045475,32.87300034618506,26.998033647615618,0.0,0.0883364379405975,0,0,0
2686,91220.81116889126,2010-09-15 15:17:43,1168.2674753469237,4,8,0.1395917236804962,4.199814796447754,8.266774442098496,7.369114915045475,32.92698917808061,26.998033647615618,3.23295607813634e-05,0.0883364379405975,0,0,0
2687,91649.32153121528,2010-09-15 15:24:51,1596.777837771206,4,8,0.0895629599690437,4.199814796447754,8.280217193602695,7.369114915045475,32.983445700515134,26.998033647615618,0.0,0.0883364379405975,0,0,0
2688,92248.40814495036,2010-09-15 15:34:50,2195.8644514511225,4,8,0.0498289167881011,4.199491024017334,8.291536232744138,7.369114915045475,33.03098299184704,26.998033647615618,-3.24249267578125e-05,0.0883364379405975,0,0,0
2689,92278.42033926376,2010-09-15 15:35:20,30.01534448758632,5,8,0.0,4.192368507385254,8.291536232744138,7.369114915045475,33.03098299184704,26.998033647615618,-3.23295607813634e-05,0.0883364379405975,0,0,0
2690,92308.41999132062,2010-09-15 15:35:50,60.01499654946386,5,8,0.0,4.191073417663574,8.291536232744138,7.369114915045475,33.03098299184704,26.998033647615618,0.0,0.0883364379405975,0,0,0
2691,92308.60491262088,2010-09-15 15:35:51,0.187470389934876,6,8,-1.9243103452026844e-05,4.191235065460205,8.291536232744138,7.369114916047561,33.03098299184704,26.9980336518156,0.0,0.0908498615026474,0,0,0
2692,92313.4329004212,2010-09-15 15:35:56,5.015458090001581,6,8,0.0003419754502829,4.190911293029785,8.291537172877401,7.369114916214354,33.0309869320456,26.99803365251466,-3.24249267578125e-05,0.0908498615026474,0,0,0
2693,92343.44597529128,2010-09-15 15:36:26,30.01543056745492,7,8,-1.099568486213684,4.022873878479004,8.291537172877401,7.378282543164692,33.0309869320456,27.035101684039613,-0.0008742332574911,0.0908498615026474,0,0,0
2694,92373.4613199944,2010-09-15 15:36:56,60.030775275591765,7,8,-1.099568486213684,3.99761962890625,8.291537172877401,7.387450172292692,33.0309869320456,27.07185677503907,-0.0005180359003134,0.0908498615026474,0,0,0
2695,92403.47651579084,2010-09-15 15:37:26,90.04597106199705,7,8,-1.0997490882873535,3.980136156082153,8.291537172877401,7.396617708887407,33.0309869320456,27.1084207364704,-0.0004209041653666,0.0908498615026474,0,0,0
2696,92433.49162168284,2010-09-15 15:37:56,120.0610769439871,7,8,-1.099568486213684,3.966861486434937,8.291537172877401,7.40578516110839,33.0309869320456,27.144845637458115,-0.0002913951757363,0.0908498615026474,0,0,0
2697,92463.50701082188,2010-09-15 15:38:26,150.07646609806787,7,8,-1.0993878841400146,3.955691337585449,8.291537172877401,7.41495271488746,33.0309869320456,27.18115943523628,-0.0002266406954731,0.0908498615026474,0,0,0
2698,92493.52216599692,2010-09-15 15:38:56,180.09162127310094,7,8,-1.0997490882873535,3.9454925060272217,8.291537172877401,7.424120115439822,33.0309869320456,27.217375921554886,-0.0002913951757363,0.0908498615026474,0,0,0
2699,92523.5374230262,2010-09-15 15:39:26,210.1068783825781,7,8,-1.0993878841400146,3.936264991760254,8.291537172877401,7.433287626057102,33.0309869320456,27.253504410131,-0.0002590179501567,0.0908498615026474,0,0,0
2700,92553.55270823585,2010-09-15 15:39:56,240.1221635019722,7,8,-1.099568486213684,3.927361249923706,8.291537172877401,7.442455150703224,33.0309869320456,27.28955006460017,-0.0002266406954731,0.0908498615026474,0,0,0
2701,92583.56795434785,2010-09-15 15:40:26,270.1374097142483,7,8,-1.099568486213684,3.919266939163208,8.291537172877401,7.451622609151235,33.0309869320456,27.325516219869684,-0.0001942634553415,0.0908498615026474,0,0,0
2702,92613.58329120136,2010-09-15 15:40:56,300.15274655775374,7,8,-1.099568486213684,3.910849094390869,8.291537172877401,7.460790129822263,33.0309869320456,27.361405995588044,-0.0002266406954731,0.0908498615026474,0,0,0
2703,92643.598493885,2010-09-15 15:41:26,330.1679491712004,7,8,-1.099568486213684,3.902592897415161,8.291537172877401,7.469957650835861,33.0309869320456,27.39722088747572,-0.0002266406954731,0.0908498615026474,0,0,0
2704,92673.61374200704,2010-09-15 15:41:56,360.18319726818095,7,8,-1.0993878841400146,3.894822359085083,8.291537172877401,7.479125197491013,33.0309869320456,27.43296229100836,-0.0002266406954731,0.0908498615026474,0,0,0
2705,92703.62900883578,2010-09-15 15:42:26,390.1984641069439,7,8,-1.099568486213684,3.887051820755005,8.291537172877401,7.48829264640981,33.0309869320456,27.46863223819083,-0.0001942634553415,0.0908498615026474,0,0,0
2706,92733.64429167948,2010-09-15 15:42:56,420.21374706093286,7,8,-1.099568486213684,3.8794431686401367,8.291537172877401,7.497460186028039,33.0309869320456,27.50423182954098,-0.0002266406954731,0.0908498615026474,0,0,0
2707,92763.6596992345,2010-09-15 15:43:26,450.2291545056699,7,8,-1.099568486213684,3.8719964027404794,8.291537172877401,7.506627744638399,33.0309869320456,27.5397618165073,-0.0001618862152099,0.0908498615026474,0,0,0
2708,92793.67480867036,2010-09-15 15:43:56,480.2442639365185,7,8,-1.099568486213684,3.8643877506256095,8.291537172877401,7.515795224356436,33.0309869320456,27.575222922281515,-0.0002266406954731,0.0908498615026474,0,0,0
2709,92823.69020734822,2010-09-15 15:44:26,510.25966263442206,7,8,-1.099568486213684,3.857102870941162,8.291537172877401,7.524962815073714,33.0309869320456,27.610616619421325,-0.0001942634553415,0.0908498615026474,0,0,0
2710,92853.70537462345,2010-09-15 15:44:56,540.2748298946216,7,8,-1.099568486213684,3.849817991256714,8.291537172877401,7.53413028573552,33.0309869320456,27.645942815115827,-0.0001942634553415,0.0908498615026474,0,0,0
2711,92883.72061423423,2010-09-15 15:45:26,570.2900695054193,7,8,-1.099568486213684,3.8428568840026855,8.291537172877401,7.543297800692773,33.0309869320456,27.68120342011973,-0.0001618862152099,0.0908498615026474,0,0,0
2712,92913.7358835542,2010-09-15 15:45:56,600.3053388253757,7,8,-1.0993878841400146,3.8357338905334473,8.291537172877401,7.552465395418488,33.0309869320456,27.716399339950662,-0.0001295089750783,0.0908498615026474,0,0,0
2713,92943.7511485233,2010-09-15 15:46:26,630.3206038145216,7,8,-1.099568486213684,3.828773021697998,8.291537172877401,7.561632929770752,33.0309869320456,27.751530989073785,-0.0001942634553415,0.0908498615026474,0,0,0
2714,92973.76644771284,2010-09-15 15:46:56,660.3359030992747,7,8,-1.099568486213684,3.8218119144439697,8.291537172877401,7.570800440831591,33.0309869320456,27.78659949879948,-0.0002266406954731,0.0908498615026474,0,0,0
2715,93003.78168722337,2010-09-15 15:47:26,690.3511424845094,7,8,-1.0993878841400146,3.815012693405152,8.291537172877401,7.579967934363866,33.0309869320456,27.821605382216788,-0.0001942634553415,0.0908498615026474,0,0,0
2716,93033.79694284916,2010-09-15 15:47:56,720.3663982055207,7,8,-1.099568486213684,3.808537244796753,8.291537172877401,7.589135477729397,33.0309869320456,27.856549475296227,-0.0001618862152099,0.0908498615026474,0,0,0
2717,93063.8123360433,2010-09-15 15:48:26,750.3817913345233,7,8,-1.0993878841400146,3.8020617961883545,8.291537172877401,7.598303030036145,33.0309869320456,27.891433385709988,-0.0001295089750783,0.0908498615026474,0,0,0
2718,93093.8274825066,2010-09-15 15:48:56,780.3969377978107,7,8,-1.0993878841400146,3.795586347579956,8.291537172877401,7.607470531501869,33.0309869320456,27.92625799890953,-0.0001295089750783,0.0908498615026474,0,0,0
2719,93123.84314231126,2010-09-15 15:49:26,810.4125975974645,7,8,-1.099568486213684,3.7894346714019775,8.291537172877401,7.616638211784713,33.0309869320456,27.961025455683448,-0.0001295089750783,0.0908498615026474,0,0,0
2720,93153.8580096077,2010-09-15 15:49:56,840.4274648688456,7,8,-1.099568486213684,3.783121109008789,8.291537172877401,7.625805659780361,33.0309869320456,27.995735108825404,-0.0001618862152099,0.0908498615026474,0,0,0
2721,93183.87343262632,2010-09-15 15:50:26,870.4428879927202,7,8,-1.099568486213684,3.7769694328308105,8.291537172877401,7.634973256032335,33.0309869320456,28.03038923440713,-0.0001942634553415,0.0908498615026474,0,0,0
2722,93213.88855658342,2010-09-15 15:50:56,900.4580118445657,7,8,-1.0997490882873535,3.771141529083252,8.291537172877401,7.644140791191882,33.0309869320456,28.064988373032087,-0.0001618862152099,0.0908498615026474,0,0,0
2723,93243.90380681572,2010-09-15 15:51:26,930.4732621019392,7,8,-1.099568486213684,3.7651517391204834,8.291537172877401,7.653308292632901,33.0309869320456,28.09953364043973,-0.0001942634553415,0.0908498615026474,0,0,0
2724,93273.91907601038,2010-09-15 15:51:56,960.48853127152,7,8,-1.099568486213684,3.759485721588135,8.291537172877401,7.662475831857154,33.0309869320456,28.134026381541005,-0.0001942634553415,0.0908498615026474,0,0,0
2725,93303.9344671845,2010-09-15 15:52:26,990.5039224506556,7,8,-1.0997490882873535,3.753819704055786,8.291537172877401,7.67164343577946,33.0309869320456,28.16846774308977,-0.0001942634553415,0.0908498615026474,0,0,0
2726,93333.95243654918,2010-09-15 15:52:56,1020.521891920602,7,8,-1.0997490882873535,3.748477697372437,8.291537172877401,7.68081177507847,33.0309869320456,28.202861318016947,-0.0001942634553415,0.0908498615026474,0,0,0
2727,93363.96505668636,2010-09-15 15:53:26,1050.5345120477652,7,8,-1.0993878841400146,3.743459224700928,8.291537172877401,7.689978514417103,33.0309869320456,28.237199514352408,-9.713172767078504e-05,0.0908498615026474,0,0,0
2728,93393.9802089341,2010-09-15 15:53:56,1080.549664310529,7,8,-1.099568486213684,3.738116979598999,8.291537172877401,7.699146045068861,33.0309869320456,28.271491978265217,-0.0001295089750783,0.0908498615026474,0,0,0
2729,93423.995534324,2010-09-15 15:54:26,1110.5649895951815,7,8,-1.099568486213684,3.73293662071228,8.291537172877401,7.708313633001025,33.0309869320456,28.30573724533008,-0.0001295089750783,0.0908498615026474,0,0,0
2730,93454.01068671713,2010-09-15 15:54:56,1140.5801419882707,7,8,-1.099568486213684,3.727918148040772,8.291537172877401,7.717481198109765,33.0309869320456,28.339935906787385,-0.0001295089750783,0.0908498615026474,0,0,0
2731,93484.0259434306,2010-09-15 15:55:26,1170.5953986917343,7,8,-1.099568486213684,3.7230615615844727,8.291537172877401,7.726648751742001,33.0309869320456,28.374089476404325,-0.0001295089750783,0.0908498615026474,0,0,0
2732,93514.04120929692,2010-09-15 15:55:56,1200.610664568095,7,8,-1.099568486213684,3.718204975128174,8.291537172877401,7.735816325969199,33.0309869320456,28.40819817446541,-9.713172767078504e-05,0.0908498615026474,0,0,0
2733,93544.0564728124,2010-09-15 15:56:26,1230.6259280735374,7,8,-1.099929690361023,3.713348388671875,8.291537172877401,7.744983904101057,33.0309869320456,28.442262721133947,-0.0001295089750783,0.0908498615026474,0,0,0
2734,93574.07176821746,2010-09-15 15:56:56,1260.6412234986562,7,8,-1.0993878841400146,3.708653688430786,8.291537172877401,7.754151571735509,33.0309869320456,28.476283966128197,-9.713172767078504e-05,0.0908498615026474,0,0,0
2735,93604.0870308808,2010-09-15 15:57:26,1290.6564861619966,7,8,-1.0997490882873535,3.703958988189697,8.291537172877401,7.763319204223841,33.0309869320456,28.51026141749124,-9.713172767078504e-05,0.0908498615026474,0,0,0
2736,93634.1022704114,2010-09-15 15:57:56,1320.6717256725442,7,8,-1.0997490882873535,3.6991024017333984,8.291537172877401,7.772486891298371,33.0309869320456,28.544195347867166,-0.0001295089750783,0.0908498615026474,0,0,0
2737,93664.1175937612,2010-09-15 15:58:26,1350.6870492128428,7,8,-1.099568486213684,3.6942458152771,8.291537172877401,7.78165446226798,33.0309869320456,28.578086015724423,-0.0001618862152099,0.0908498615026474,0,0,0
2738,93694.13281527183,2010-09-15 15:58:56,1380.7022705379966,7,8,-1.0997490882873535,3.689874887466431,8.291537172877401,7.790822104177146,33.0309869320456,28.6119345280542,-0.0001618862152099,0.0908498615026474,0,0,0
2739,93724.14806772467,2010-09-15 15:59:26,1410.7175230109003,7,8,-1.099568486213684,3.6855039596557617,8.291537172877401,7.799989669080103,33.0309869320456,28.6457406198295,-6.47544875391759e-05,0.0908498615026474,0,0,0
2740,93754.16334429274,2010-09-15 15:59:56,1440.7327997142868,7,8,-1.099568486213684,3.680971145629883,8.291537172877401,7.809157286093373,33.0309869320456,28.67950534180021,-6.47544875391759e-05,0.0908498615026474,0,0,0
2741,93784.1785916228,2010-09-15 16:00:26,1470.7480468839526,7,8,-1.0993878841400146,3.676438331604004,8.291537172877401,7.818324833123054,33.0309869320456,28.71322924479091,-9.713172767078504e-05,0.0908498615026474,0,0,0
2742,93814.1938851532,2010-09-15 16:00:56,1500.7633404494295,7,8,-1.099568486213684,3.672067642211914,8.291537172877401,7.827492393652761,33.0309869320456,28.74691293801187,-9.70840483205393e-05,0.0908498615026474,0,0,0
2743,93844.20906334068,2010-09-15 16:01:26,1530.7785186118426,7,8,-1.099568486213684,3.667696714401245,8.291537172877401,7.836659952251606,33.0309869320456,28.780556853596373,-0.0001295089750783,0.0908498615026474,0,0,0
2744,93874.2243826404,2010-09-15 16:01:56,1560.7938379215811,7,8,-1.0993878841400146,3.663649559020996,8.291537172877401,7.845827222751426,33.0309869320456,28.81416058418035,-9.713172767078504e-05,0.0908498615026474,0,0,0
2745,93904.23965834128,2010-09-15 16:02:26,1590.8091136024152,7,8,-1.0997490882873535,3.659278631210327,8.291537172877401,7.854994514809302,33.0309869320456,28.84772630412266,-0.0001618862152099,0.0908498615026474,0,0,0
2746,93934.25492678404,2010-09-15 16:02:56,1620.8243820652322,7,8,-1.0993878841400146,3.655555248260498,8.291537172877401,7.864161813232828,33.0309869320456,28.881254773630683,-6.47544875391759e-05,0.0908498615026474,0,0,0
2747,93964.27004821986,2010-09-15 16:03:27,1650.8395035060594,7,8,-1.0993878841400146,3.651346206665039,8.291537172877401,7.87332905602776,33.0309869320456,28.91474638073093,-0.0001295089750783,0.0908498615026474,0,0,0
2748,93994.28544033132,2010-09-15 16:03:57,1680.8548956125096,7,8,-1.099568486213684,3.6474609375,8.291537172877401,7.882496671763317,33.0309869320456,28.948203513211052,-0.0001295089750783,0.0908498615026474,0,0,0
2749,94024.30084724473,2010-09-15 16:04:27,1710.8703025058703,7,8,-1.0993878841400146,3.643737554550171,8.291537172877401,7.8916642333263,33.0309869320456,28.98162404700983,-6.47544875391759e-05,0.0908498615026474,0,0,0
2750,94054.31596711664,2010-09-15 16:04:57,1740.8854223978317,7,8,-1.099568486213684,3.639852285385132,8.291537172877401,7.900831811978769,33.0309869320456,29.01500944388503,-9.713172767078504e-05,0.0908498615026474,0,0,0
2751,94084.33117516866,2010-09-15 16:05:27,1770.9006304498537,7,8,-1.0997490882873535,3.6359670162200928,8.291537172877401,7.909999401495544,33.0309869320456,29.04836043255805,-0.0001295089750783,0.0908498615026474,0,0,0
2752,94114.34669566056,2010-09-15 16:05:57,1800.9161509467865,7,8,-1.099568486213684,3.632243633270264,8.291537172877401,7.919167044944634,33.0309869320456,29.081677216886643,-0.0001295089750783,0.0908498615026474,0,0,0
2753,94144.36189466502,2010-09-15 16:06:27,1830.9313500214,7,8,-1.0993878841400146,3.6288440227508554,8.291537172877401,7.928334576784669,33.0309869320456,29.114960116024367,-9.713172767078504e-05,0.0908498615026474,0,0,0
2754,94174.37702519856,2010-09-15 16:06:57,1860.946480479736,7,8,-1.0997490882873535,3.6251206398010254,8.291537172877401,7.937502052454086,33.0309869320456,29.14821017911477,-9.713172767078504e-05,0.0908498615026474,0,0,0
2755,94204.39229041828,2010-09-15 16:07:27,1890.9617456743947,7,8,-1.099568486213684,3.621882915496826,8.291537172877401,7.946669568400085,33.0309869320456,29.181428566062408,-6.47544875391759e-05,0.0908498615026474,0,0,0
2756,94234.4075693873,2010-09-15 16:07:57,1920.9770247587248,7,8,-1.099568486213684,3.618321418762207,8.291537172877401,7.955837111609954,33.0309869320456,29.214615668816897,-6.47544875391759e-05,0.0908498615026474,0,0,0
2757,94264.42282744416,2010-09-15 16:08:27,1950.9922827002788,7,8,-1.099568486213684,3.614921808242798,8.291537172877401,7.965004649882668,33.0309869320456,29.24777178074424,-9.713172767078504e-05,0.0908498615026474,0,0,0
2758,94294.43828615686,2010-09-15 16:08:57,1981.0077414180007,7,8,-1.0993878841400146,3.6118459701538086,8.291537172877401,7.974172221207206,33.0309869320456,29.28089834337573,-9.713172767078504e-05,0.0908498615026474,0,0,0
2759,94324.45346865008,2010-09-15 16:09:27,2011.0229238911743,7,8,-1.099568486213684,3.60860824584961,8.291537172877401,7.983339671014592,33.0309869320456,29.31399528690337,-9.713172767078504e-05,0.0908498615026474,0,0,0
2760,94354.46861893292,2010-09-15 16:09:57,2041.0380741890333,7,8,-1.099568486213684,3.60553240776062,8.291537172877401,7.992507192803664,33.0309869320456,29.34706377997967,-9.713172767078504e-05,0.0908498615026474,0,0,0
2761,94384.48388860875,2010-09-15 16:10:27,2071.053343864878,7,8,-1.099568486213684,3.602618455886841,8.291537172877401,8.001674657170005,33.0309869320456,29.380104106496425,-6.47544875391759e-05,0.0908498615026474,0,0,0
2762,94414.49914262551,2010-09-15 16:10:57,2101.068597881635,7,8,-1.099568486213684,3.599542617797852,8.291537172877401,8.010842173728458,33.0309869320456,29.413117366059783,-9.713172767078504e-05,0.0908498615026474,0,0,0
2763,94444.51455096249,2010-09-15 16:11:27,2131.084006223612,7,8,-1.099568486213684,3.5966286659240723,8.291537172877401,8.020009855340762,33.0309869320456,29.446104063852804,-9.713172767078504e-05,0.0908498615026474,0,0,0
2764,94474.52978240288,2010-09-15 16:11:57,2161.099237684065,7,8,-1.099568486213684,3.593714714050293,8.291537172877401,8.029177413066636,33.0309869320456,29.47906333150865,-9.713172767078504e-05,0.0908498615026474,0,0,0
2765,94504.54491863062,2010-09-15 16:12:27,2191.114373911804,7,8,-1.099568486213684,3.5908010005950928,8.291537172877401,8.038344900808495,33.0309869320456,29.511995776391284,-6.47544875391759e-05,0.0908498615026474,0,0,0
2766,94534.5604414734,2010-09-15 16:12:57,2221.129896819754,7,8,-1.0997490882873535,3.5877251625061035,8.291537172877401,8.047512608408613,33.0309869320456,29.544902094132592,-0.0001295089750783,0.0908498615026474,0,0,0
2767,94564.57543319042,2010-09-15 16:13:27,2251.144888471608,7,8,-1.0997490882873535,3.584811210632324,8.291537172877401,8.056680287108735,33.0309869320456,29.5777813860981,-9.713172767078504e-05,0.0908498615026474,0,0,0
2768,94594.59083819404,2010-09-15 16:13:57,2281.1602934501893,7,8,-1.099568486213684,3.582059144973755,8.291537172877401,8.065848716184629,33.0309869320456,29.610636782375767,-9.713172767078504e-05,0.0908498615026474,0,0,0
2769,94624.60596875264,2010-09-15 16:14:27,2311.175424008776,7,8,-1.099568486213684,3.579145193099976,8.291537172877401,8.075017070185044,33.0309869320456,29.643465596475277,-9.713172767078504e-05,0.0908498615026474,0,0,0
2770,94654.62123656886,2010-09-15 16:14:57,2341.190691855053,7,8,-1.099568486213684,3.5763931274414062,8.291537172877401,8.084184707225873,33.0309869320456,29.67626572653505,-9.713172767078504e-05,0.0908498615026474,0,0,0
2771,94684.6365238386,2010-09-15 16:15:27,2371.205979109778,7,8,-1.0993878841400146,3.573317289352417,8.291537172877401,8.093352334913034,33.0309869320456,29.70903883751438,-9.713172767078504e-05,0.0908498615026474,0,0,0
2772,94714.65178517866,2010-09-15 16:15:57,2401.2212404648526,7,8,-1.0997490882873535,3.5704033374786377,8.291537172877401,8.102519954170392,33.0309869320456,29.74178490239052,-6.47544875391759e-05,0.0908498615026474,0,0,0
2773,94744.66704669912,2010-09-15 16:16:27,2431.2365019853405,7,8,-1.099568486213684,3.5674893856048584,8.291537172877401,8.111687558987686,33.0309869320456,29.77450332341297,-6.47544875391759e-05,0.0908498615026474,0,0,0
2774,94774.68227810446,2010-09-15 16:16:57,2461.2517333655933,7,8,-1.099568486213684,3.564251661300659,8.291537172877401,8.120855211803221,33.0309869320456,29.80719375118456,-9.713172767078504e-05,0.0908498615026474,0,0,0
2775,94804.69757820624,2010-09-15 16:17:27,2491.267033462373,7,8,-1.099568486213684,3.56117582321167,8.291537172877401,8.130022720579573,33.0309869320456,29.839855797378785,-9.713172767078504e-05,0.0908498615026474,0,0,0
2776,94834.71288547594,2010-09-15 16:17:57,2521.2823407470955,7,8,-1.099568486213684,3.5580999851226807,8.291537172877401,8.139190219075022,33.0309869320456,29.87248959230094,-9.713172767078504e-05,0.0908498615026474,0,0,0
2777,94864.72815422446,2010-09-15 16:18:27,2551.297609510663,7,8,-1.099568486213684,3.5550241470336914,8.291537172877401,8.14835776446544,33.0309869320456,29.90509428079904,-6.47544875391759e-05,0.0908498615026474,0,0,0
2778,94894.74338457214,2010-09-15 16:18:57,2581.312839828264,7,8,-1.0997490882873535,3.5514626502990723,8.291537172877401,8.15752531902951,33.0309869320456,29.9376689352696,-0.0001295089750783,0.0908498615026474,0,0,0
2779,94924.75864041343,2010-09-15 16:19:27,2611.328095669575,7,8,-1.099568486213684,3.548224925994873,8.291537172877401,8.16669293399113,33.0309869320456,29.970213075189907,-9.713172767078504e-05,0.0908498615026474,0,0,0
2780,94954.77393614934,2010-09-15 16:19:57,2641.343391410482,7,8,-1.099568486213684,3.544663429260254,8.291537172877401,8.175860580088594,33.0309869320456,30.002725566981287,-0.0001295089750783,0.0908498615026474,0,0,0
2781,94984.7893013386,2010-09-15 16:20:27,2671.358756694981,7,8,-1.0997490882873535,3.5411019325256348,8.291537172877401,8.1850282212559,33.0309869320456,30.035205396960887,-0.0001295089750783,0.0908498615026474,0,0,0
2782,95014.8044346691,2010-09-15 16:20:57,2701.373889925236,7,8,-1.0997490882873535,3.5373785495758057,8.291537172877401,8.194195788714186,33.0309869320456,30.067651366352784,-9.713172767078504e-05,0.0908498615026474,0,0,0
2783,95044.82009685472,2010-09-15 16:21:27,2731.389552120871,7,8,-1.099568486213684,3.5334932804107666,8.291537172877401,8.203363546453062,33.0309869320456,30.10006321231669,-0.0001295089750783,0.0908498615026474,0,0,0
2784,95074.83497532904,2010-09-15 16:21:57,2761.4044306102546,7,8,-1.099568486213684,3.5296080112457275,8.291537172877401,8.21253102365057,33.0309869320456,30.13243848451875,-9.713172767078504e-05,0.0908498615026474,0,0,0
2785,95104.85021488974,2010-09-15 16:22:27,2791.419670145864,7,8,-1.099568486213684,3.5255608558654785,8.291537172877401,8.221698705786139,33.0309869320456,30.164777798522497,-6.47544875391759e-05,0.0908498615026474,0,0,0
2786,95134.86549038008,2010-09-15 16:22:57,2821.434945641236,7,8,-1.099568486213684,3.5213518142700195,8.291537172877401,8.230866282251469,33.0309869320456,30.19707855115381,-9.713172767078504e-05,0.0908498615026474,0,0,0
2787,95164.88074683292,2010-09-15 16:23:27,2851.4502020890604,7,8,-1.099568486213684,3.5168190002441406,8.291537172877401,8.240033904926607,33.0309869320456,30.22934070561822,-0.0001618862152099,0.0908498615026474,0,0,0
2788,95194.8960141529,2010-09-15 16:23:57,2881.4654694391,7,8,-1.0993878841400146,3.5126099586486816,8.291537172877401,8.24920158686095,33.0309869320456,30.261563083420576,-9.713172767078504e-05,0.0908498615026474,0,0,0
2789,95224.911270711,2010-09-15 16:24:27,2911.4807259671256,7,8,-1.099568486213684,3.507591724395752,8.291537172877401,8.25836914215927,33.0309869320456,30.293743096455387,-0.0001618862152099,0.0908498615026474,0,0,0
2790,95254.92677090726,2010-09-15 16:24:57,2941.496226168397,7,8,-1.099568486213684,3.502897024154663,8.291537172877401,8.267536772445998,33.0309869320456,30.32587954631481,-0.0001618862152099,0.0908498615026474,0,0,0
2791,95284.94200384138,2010-09-15 16:25:27,2971.5114591977667,7,8,-1.0997490882873535,3.4977166652679443,8.291537172877401,8.27670439296731,33.0309869320456,30.357968882760737,-0.0001295089750783,0.0908498615026474,0,0,0
2792,95314.95715873572,2010-09-15 16:25:57,3001.5266140269364,7,8,-1.099929690361023,3.491564989089966,8.291537172877401,8.285871952759846,33.0309869320456,30.390007389356715,-0.0002266406954731,0.0908498615026474,0,0,0
2793,95344.97234004598,2010-09-15 16:26:27,3031.54179530212,7,8,-1.0997490882873535,3.4852514266967773,8.291537172877401,8.295039532169858,33.0309869320456,30.421990114544137,-0.0001942634553415,0.0908498615026474,0,0,0
2794,95374.98767931556,2010-09-15 16:26:57,3061.557134576693,7,8,-1.099568486213684,3.478128433227539,8.291537172877401,8.304207161697935,33.0309869320456,30.45391043277708,-0.0002266406954731,0.0908498615026474,0,0,0
2795,95405.00308117634,2010-09-15 16:27:27,3091.57253745002,7,8,-1.099568486213684,3.470034122467041,8.291537172877401,8.313374775506908,33.0309869320456,30.485760878971927,-0.0002590179501567,0.0908498615026474,0,0,0
2796,95435.0181134446,2010-09-15 16:27:57,3121.587568730793,7,8,-1.099568486213684,3.460968494415283,8.291537172877401,8.322542315126979,33.0309869320456,30.517532539072587,-0.0002266406954731,0.0908498615026474,0,0,0
2797,95465.033509937,2010-09-15 16:28:27,3151.602965228204,7,8,-1.0997490882873535,3.449960231781006,8.291537172877401,8.331709991653632,33.0309869320456,30.549212929285066,-0.0003561496851034,0.0908498615026474,0,0,0
2798,95495.04867413956,2010-09-15 16:28:57,3181.618129425759,7,8,-1.0992072820663452,3.437009334564209,8.291537172877401,8.340877540869359,33.0309869320456,30.580783574488475,-0.0003885269106831,0.0908498615026474,0,0,0
2799,95525.06390845712,2010-09-15 16:29:27,3211.6333637232938,7,8,-1.099568486213684,3.420335292816162,8.291537172877401,8.350045200978318,33.0309869320456,30.612219510266403,-0.0004856586456298,0.0908498615026474,0,0,0
2800,95555.07929460373,2010-09-15 16:29:57,3241.648749864855,7,8,-1.099568486213684,3.3983187675476074,8.291537172877401,8.359212864623998,33.0309869320456,30.64348093906752,-0.0007122993702068,0.0908498615026474,0,0,0
2801,95585.09456717678,2010-09-15 16:30:27,3271.6640224479565,7,8,-1.0993878841400146,3.3683698177337646,8.291537172877401,8.368380451953499,33.0309869320456,30.67450717031684,-0.0009389400365762,0.0908498615026474,0,0,0
2802,95615.109706798,2010-09-15 16:30:57,3301.67916207919,7,8,-1.099568486213684,3.3248226642608643,8.291537172877401,8.377548051611734,33.0309869320456,30.70519940133193,-0.0013274669181555,0.0908498615026474,0,0,0
2803,95645.12505767152,2010-09-15 16:31:27,3331.6945130579797,7,8,-1.0993878841400146,3.2620110511779785,8.291537172877401,8.386715674339808,33.0309869320456,30.73540908101281,-0.0019749640487134,0.0908498615026474,0,0,0
2804,95675.14023202444,2010-09-15 16:31:57,3361.7096872805582,7,8,-1.099568486213684,3.17070746421814,8.291537172877401,8.39588327187352,33.0309869320456,30.764922562068133,-0.0028491974808275,0.0908498615026474,0,0,0
2805,95705.15552424152,2010-09-15 16:32:27,3391.7249795277444,7,8,-1.0997490882873535,3.0271148681640625,8.291537172877401,8.405050935387392,33.0309869320456,30.79338804785653,-0.0047917841002345,0.0908498615026474,0,0,0
2806,95726.6708654733,2010-09-15 16:32:49,3413.2403207294365,7,8,-1.099568486213684,2.827023983001709,8.291537172877401,8.411622428642254,33.0309869320456,30.812709862858817,-0.0101340292021632,0.0908498615026474,0,0,0
2807,95734.73327528356,2010-09-15 16:32:57,3421.3027305396936,7,8,-1.099568486213684,2.699943780899048,8.291537172877401,8.414084986514032,33.0309869320456,30.81952095630461,-0.0133069995790719,0.0908498615026474,0,0,0
2808,95794.747793591,2010-09-15 16:33:57,60.01491257986281,8,8,0.0,3.34311580657959,8.291537172877401,8.414084986514032,33.0309869320456,30.81952095630461,0.0011979580158367,0.0908498615026474,0,0,0
2809,95794.93574471316,2010-09-15 16:33:57,0.187623777814622,9,8,-1.9243103452026844e-05,3.3434395790100098,8.291537172877401,8.414084987516938,33.0309869320456,30.819520959657776,0.0,0.0890663415193557,0,0,0
2810,95799.76371860877,2010-09-15 16:34:02,5.015597688460812,9,8,0.0005225847125984,3.350238800048828,8.291538043586337,8.414084987600633,33.0309898465622,30.8195209599376,0.0010036944877356,0.0890663415193557,0,0,0
