Data_Point,Test_Time(s),Date_Time,Step_Time(s),Step_Index,Cycle_Index,Current(A),Voltage(V),Charge_Capacity(Ah),Discharge_Capacity(Ah),Charge_Energy(Wh),Discharge_Energy(Wh),dV/dt(V/s),Internal_Resistance(Ohm),Is_FC_Data,AC_Impedance(Ohm),ACI_Phase_Angle(Deg)
15277,517342.62709382887,2010-09-20 13:40:28,30.017061558659886,1,45,0.0,3.4468843936920166,45.14065256622368,45.274190347541634,179.7120695150005,165.8117709581096,0.0008094310760498,0.0883364379405975,0,0,0
15278,517372.64060989744,2010-09-20 13:40:58,60.03057761720604,1,45,0.0,3.4718148708343506,45.14065256622368,45.274190347541634,179.7120695150005,165.8117709581096,0.0005827903514727,0.0883364379405975,0,0,0
15279,517402.6558688415,2010-09-20 13:41:28,90.04583647103732,1,45,0.0,3.490269899368286,45.14065256622368,45.274190347541634,179.7120695150005,165.8117709581096,0.0004532813909463,0.0883364379405975,0,0,0
15280,517432.62425299385,2010-09-20 13:41:58,120.01422062340228,1,45,0.0,3.5045158863067627,45.14065256622368,45.274190347541634,179.7120695150005,165.8117709581096,0.0003237724304199,0.0883364379405975,0,0,0
15281,517462.6356286201,2010-09-20 13:42:28,30.01247990715285,2,45,0.5499359965324402,3.640176057815552,45.14523843365622,45.274190347541634,179.7286292025212,165.8117709581096,0.0012950897216796,0.0883364379405975,0,0,0
15282,517492.6509063511,2010-09-20 13:42:58,60.02775766316691,2,45,0.5499359965324402,3.678704738616944,45.1498247616373,45.274190347541634,179.7454182671199,165.8117709581096,0.0008741855854168,0.0883364379405975,0,0,0
15283,517522.66620795656,2010-09-20 13:43:28,90.04305933387572,2,45,0.550297200679779,3.7065491676330566,45.15441098396087,45.274190347541634,179.7623558708436,165.8117709581096,0.0007122993702068,0.0883364379405975,0,0,0
15284,517552.68145130674,2010-09-20 13:43:58,120.05830259879468,2,45,0.550297200679779,3.728080034255981,45.158997325305656,45.274190347541634,179.77940562414187,165.8117709581096,0.0005504131549969,0.0883364379405975,0,0,0
15285,517582.6967627017,2010-09-20 13:44:28,150.0736140890145,2,45,0.5501165986061096,3.744754314422608,45.16358362121213,45.274190347541634,179.79654286269695,165.8117709581096,0.0004209041653666,0.0883364379405975,0,0,0
15286,517612.7119689893,2010-09-20 13:44:58,180.0888202763822,2,45,0.550297200679779,3.757381200790405,45.16816983871754,45.274190347541634,179.8137475697671,165.8117709581096,0.0002590179501567,0.0883364379405975,0,0,0
15287,517642.72724864,2010-09-20 13:45:28,210.1040999271258,2,45,0.5499359965324402,3.7649898529052734,45.17275605529882,45.274190347541634,179.83099863458855,165.8117709581096,0.0001295089750783,0.0883364379405975,0,0,0
15288,517672.7425238096,2010-09-20 13:45:58,240.11937509668363,2,45,0.5501165986061096,3.769846439361572,45.17734230251504,45.274190347541634,179.8482777766808,165.8117709581096,0.0001295089750783,0.0883364379405975,0,0,0
15289,517702.75771993183,2010-09-20 13:46:29,270.1345712540149,2,45,0.5501165986061096,3.773569822311402,45.18192880237867,45.274190347541634,179.8655769749481,165.8117709581096,9.713172767078504e-05,0.0883364379405975,0,0,0
15290,517732.77301538206,2010-09-20 13:46:59,300.14986670419626,2,45,0.5499359965324402,3.7769694328308105,45.18651587246262,45.274190347541634,179.88289464280362,165.8117709581096,6.47544875391759e-05,0.0883364379405975,0,0,0
15291,517762.78829543374,2010-09-20 13:47:29,330.1651467258657,2,45,0.5501165986061096,3.78036904335022,45.191102831570525,45.274190347541634,179.90022745255587,165.8117709581096,6.47544875391759e-05,0.0883364379405975,0,0,0
15292,517792.80544901214,2010-09-20 13:47:59,360.1823003042209,2,45,0.5501165986061096,3.783768653869629,45.195690168711245,45.274190347541634,179.91757700762685,165.8117709581096,6.47544875391759e-05,0.0883364379405975,0,0,0
15293,517822.8189733514,2010-09-20 13:48:29,390.1958247386746,2,45,0.550297200679779,3.787168264389038,45.20027693784214,45.274190347541634,179.9349398190144,165.8117709581096,0.0001295089750783,0.0883364379405975,0,0,0
15294,517852.834117554,2010-09-20 13:48:59,420.2109688711437,2,45,0.5501165986061096,3.7902441024780273,45.20486391707612,45.274190347541634,179.95231852849412,165.8117709581096,6.47544875391759e-05,0.0883364379405975,0,0,0
15295,517882.8493889592,2010-09-20 13:49:29,450.2262402512426,2,45,0.5501165986061096,3.793643712997437,45.20945095917383,45.274190347541634,179.9697125510646,165.8117709581096,9.713172767078504e-05,0.0883364379405975,0,0,0
15296,517912.8648682031,2010-09-20 13:49:59,480.24171961048927,2,45,0.5501165986061096,3.796881437301636,45.21403749112713,45.274190347541634,179.98711960181166,165.8117709581096,6.47544875391759e-05,0.0883364379405975,0,0,0
15297,517942.8799493634,2010-09-20 13:50:29,510.25680068555744,2,45,0.5499359965324402,3.800119161605835,45.21862401280697,45.274190347541634,180.00454140647113,165.8117709581096,9.713172767078504e-05,0.0883364379405975,0,0,0
15298,517972.8952070142,2010-09-20 13:50:59,540.2720583063108,2,45,0.5501165986061096,3.803194999694824,45.22321054752466,45.274190347541634,180.02197782139427,165.8117709581096,9.713172767078504e-05,0.0883364379405975,0,0,0
15299,518002.9104690861,2010-09-20 13:51:29,570.2873203781747,2,45,0.5499359965324402,3.8062708377838135,45.227797044199214,45.274190347541634,180.03942840968674,165.8117709581096,6.47544875391759e-05,0.0883364379405975,0,0,0
15300,518032.92588696687,2010-09-20 13:51:59,600.3027382639743,2,45,0.5501165986061096,3.8095085620880127,45.2323835909423,45.274190347541634,180.05689348991976,165.8117709581096,9.713172767078504e-05,0.0883364379405975,0,0,0
15301,518062.9412524018,2010-09-20 13:52:29,630.3181037038607,2,45,0.5499359965324402,3.812584400177002,45.236970178980656,45.274190347541634,180.0743730253762,165.8117709581096,9.713172767078504e-05,0.0883364379405975,0,0,0
15302,518092.9562875773,2010-09-20 13:52:59,660.3331388693316,2,45,0.5499359965324402,3.815822124481201,45.24155666791826,45.274190347541634,180.09186689315248,165.8117709581096,9.713172767078504e-05,0.0883364379405975,0,0,0
15303,518122.971688621,2010-09-20 13:53:29,690.3485399181033,2,45,0.5499359965324402,3.8188979625701904,45.24614326197581,45.274190347541634,180.109375675922,165.8117709581096,9.713172767078504e-05,0.0883364379405975,0,0,0
15304,518152.98687736987,2010-09-20 13:53:59,720.363728777217,2,45,0.5499359965324402,3.8221356868743896,45.25072978725524,45.274190347541634,180.12689894688097,165.8117709581096,9.713172767078504e-05,0.0883364379405975,0,0,0
15305,518183.0021045947,2010-09-20 13:54:29,750.3789558868098,2,45,0.5499359965324402,3.825535297393799,45.25531626517676,45.274190347541634,180.1444370213165,165.8117709581096,9.713172767078504e-05,0.0883364379405975,0,0,0
15306,518213.01737387467,2010-09-20 13:54:59,780.3942251666659,2,45,0.550297200679779,3.828773021697998,45.259902772557645,45.274190347541634,180.16199063643003,165.8117709581096,9.713172767078504e-05,0.0883364379405975,0,0,0
15307,518243.0326376908,2010-09-20 13:55:29,810.4094889828841,2,45,0.5499359965324402,3.832334518432617,45.26448926289084,45.274190347541634,180.17955987258065,165.8117709581096,6.47544875391759e-05,0.0883364379405975,0,0,0
15308,518273.04792362725,2010-09-20 13:55:59,840.4247749293429,2,45,0.5501165986061096,3.8357338905334473,45.269075813814304,45.274190347541634,180.19714511172813,165.8117709581096,9.713172767078504e-05,0.0883364379405975,0,0,0
15309,518303.0633073578,2010-09-20 13:56:29,870.4401586448481,2,45,0.5501165986061096,3.8392953872680655,45.27366235550297,45.274190347541634,180.2147461407743,165.8117709581096,6.47544875391759e-05,0.0883364379405975,0,0,0
15310,518333.07845814194,2010-09-20 13:56:59,900.4553094339332,2,45,0.5501165986061096,3.842694997787476,45.278248900872406,45.274190347541634,180.2323628126977,165.8117709581096,0.0001295089750783,0.0883364379405975,0,0,0
15311,518363.0938715064,2010-09-20 13:57:29,930.4707227984468,2,45,0.5501165986061096,3.845932722091675,45.28283547124676,45.274190347541634,180.2499948392468,165.8117709581096,6.47544875391759e-05,0.0883364379405975,0,0,0
15312,518393.1111030744,2010-09-20 13:57:59,960.487954461714,2,45,0.5501165986061096,3.849170446395874,45.287422304460506,45.274190347541634,180.2676429081783,165.8117709581096,9.713172767078504e-05,0.0883364379405975,0,0,0
15313,518423.12427618186,2010-09-20 13:58:29,990.5011274990262,2,45,0.5501165986061096,3.8522462844848633,45.29200852898956,45.274190347541634,180.28530336954057,165.8117709581096,6.47544875391759e-05,0.0883364379405975,0,0,0
15314,518453.1395429605,2010-09-20 13:58:59,1020.5163942525768,2,45,0.550297200679779,3.8554840087890634,45.29659510834493,45.274190347541634,180.30297953554657,165.8117709581096,9.713172767078504e-05,0.0883364379405975,0,0,0
15315,518483.1549598338,2010-09-20 13:59:29,1050.531811125849,2,45,0.550297200679779,3.858559846878052,45.30118168567534,45.274190347541634,180.3206697666066,165.8117709581096,9.713172767078504e-05,0.0883364379405975,0,0,0
15316,518513.17012794106,2010-09-20 13:59:59,1080.5469792331628,2,45,0.5501165986061096,3.861150026321411,45.30576817656871,45.274190347541634,180.3383731749017,165.8117709581096,3.237724376958795e-05,0.0883364379405975,0,0,0
15317,518543.18535519607,2010-09-20 14:00:29,1110.5622064931308,2,45,0.5501165986061096,3.8642258644104,45.31035478884746,45.274190347541634,180.35609022017405,165.8117709581096,9.713172767078504e-05,0.0883364379405975,0,0,0
15318,518573.2006507565,2010-09-20 14:00:59,1140.5775020485753,2,45,0.550297200679779,3.8669779300689697,45.31494130305316,45.274190347541634,180.373819345392,165.8117709581096,9.713172767078504e-05,0.0883364379405975,0,0,0
15319,518603.2159323071,2010-09-20 14:01:29,1170.5927835990608,2,45,0.5499359965324402,3.869244337081909,45.31952787972218,45.274190347541634,180.39156077215708,165.8117709581096,6.47544875391759e-05,0.0883364379405975,0,0,0
15320,518633.23118577735,2010-09-20 14:01:59,1200.6080370794791,2,45,0.550297200679779,3.871834516525269,45.32411437973727,45.274190347541634,180.40931328144748,165.8117709581096,6.47544875391759e-05,0.0883364379405975,0,0,0
15321,518663.2465895178,2010-09-20 14:02:29,1230.6234409051826,2,45,0.5501165986061096,3.874100923538208,45.32870097560493,45.274190347541634,180.4270769855065,165.8117709581096,6.47544875391759e-05,0.0883364379405975,0,0,0
15322,518693.26173591096,2010-09-20 14:02:59,1260.6385872030569,2,45,0.5501165986061096,3.8762054443359375,45.333287492917314,45.274190347541634,180.44485028964297,165.8117709581096,3.237724376958795e-05,0.0883364379405975,0,0,0
15323,518723.2771585386,2010-09-20 14:03:29,1290.6540098306928,2,45,0.5501165986061096,3.878148078918457,45.33787404312014,45.274190347541634,180.46263315585904,165.8117709581096,3.237724376958795e-05,0.0883364379405975,0,0,0
15324,518753.2922731724,2010-09-20 14:03:59,1320.6691244695412,2,45,0.5499359965324402,3.879928827285767,45.34246052857052,45.274190347541634,180.48042452051985,165.8117709581096,6.47544875391759e-05,0.0883364379405975,0,0,0
15325,518783.3080487561,2010-09-20 14:04:29,1350.6849001835349,2,45,0.5501165986061096,3.881709575653076,45.34704712864436,45.274190347541634,180.49822441829133,165.8117709581096,6.47544875391759e-05,0.0883364379405975,0,0,0
15326,518813.32280504046,2010-09-20 14:04:59,1380.699656332538,2,45,0.5499359965324402,3.883166551589966,45.35163353919604,45.274190347541634,180.51603112649792,165.8117709581096,3.237724376958795e-05,0.0883364379405975,0,0,0
15327,518843.338077398,2010-09-20 14:05:29,1410.7149286900762,2,45,0.5501165986061096,3.884623527526856,45.3562201307097,45.274190347541634,180.5338455233945,165.8117709581096,3.237724376958795e-05,0.0883364379405975,0,0,0
15328,518873.3533549284,2010-09-20 14:05:59,1440.73020622554,2,45,0.5501165986061096,3.886242389678955,45.36080667339535,45.274190347541634,180.5516662041715,165.8117709581096,6.47544875391759e-05,0.0883364379405975,0,0,0
15329,518903.3687428243,2010-09-20 14:06:29,1470.7455941164678,2,45,0.5501165986061096,3.887375593185425,45.36539324982624,45.274190347541634,180.5694931911465,165.8117709581096,3.237724376958795e-05,0.0883364379405975,0,0,0
15330,518933.3838860095,2010-09-20 14:06:59,1500.760737311597,2,45,0.5501165986061096,3.888670682907105,45.36997974053178,45.274190347541634,180.58732570446813,165.8117709581096,3.237724376958795e-05,0.0883364379405975,0,0,0
15331,518963.39916285325,2010-09-20 14:07:29,1530.7760141453089,2,45,0.550297200679779,3.889965772628784,45.37456633884328,45.274190347541634,180.6051643051681,165.8117709581096,3.237724376958795e-05,0.0883364379405975,0,0,0
15332,518993.4162201864,2010-09-20 14:07:59,1560.7930715034836,2,45,0.5499359965324402,3.891098976135254,45.37915324727234,45.274190347541634,180.623009536115,165.8117709581096,3.237724376958795e-05,0.0883364379405975,0,0,0
15333,519023.42995313625,2010-09-20 14:08:29,1590.8068044383865,2,45,0.5501165986061096,3.892232179641724,45.38373962344127,45.274190347541634,180.64085812724383,165.8117709581096,3.237724376958795e-05,0.0883364379405975,0,0,0
15334,519053.4449737454,2010-09-20 14:08:59,1620.8218250374975,2,45,0.5497553944587708,3.893203496932984,45.388326236076686,45.274190347541634,180.65871299008987,165.8117709581096,-3.237724376958795e-05,0.0883364379405975,0,0,0
15335,519083.4602422834,2010-09-20 14:09:29,1650.837093585527,2,45,0.5501165986061096,3.894336700439453,45.39291285809987,45.274190347541634,180.6765732092433,165.8117709581096,3.237724376958795e-05,0.0883364379405975,0,0,0
15336,519113.47554457566,2010-09-20 14:09:59,1680.8523958677622,2,45,0.550297200679779,3.895631790161133,45.39749939203626,45.274190347541634,180.69443782915772,165.8117709581096,3.237724376958795e-05,0.0883364379405975,0,0,0
15337,519143.49078457744,2010-09-20 14:10:29,1710.867635869536,2,45,0.5501165986061096,3.8967649936676025,45.40208587111382,45.274190347541634,180.7123075803667,165.8117709581096,6.47544875391759e-05,0.0883364379405975,0,0,0
15338,519173.5060620327,2010-09-20 14:10:59,1740.8829133247991,2,45,0.5501165986061096,3.897898197174072,45.40667236445994,45.274190347541634,180.7301825994518,165.8117709581096,3.237724376958795e-05,0.0883364379405975,0,0,0
15339,519203.5215215024,2010-09-20 14:11:29,1770.8983728144483,2,45,0.5499359965324402,3.898869514465332,45.41125893599922,45.274190347541634,180.74806320025235,165.8117709581096,0.0,0.0883364379405975,0,0,0
15340,519233.5366257352,2010-09-20 14:11:59,1800.913477027272,2,45,0.550297200679779,3.9003264904022217,45.41584548245877,45.274190347541634,180.76594894878167,165.8117709581096,6.47544875391759e-05,0.0883364379405975,0,0,0
15341,519263.5518808848,2010-09-20 14:12:29,1830.9287321768568,2,45,0.5501165986061096,3.9012978076934814,45.42043201564335,45.274190347541634,180.78383981586884,165.8117709581096,3.237724376958795e-05,0.0883364379405975,0,0,0
15342,519293.5671616834,2010-09-20 14:12:59,1860.9440130907533,2,45,0.5501165986061096,3.902431011199951,45.42501854941813,45.274190347541634,180.8017359101009,165.8117709581096,0.0,0.0883364379405975,0,0,0
15343,519323.5824565019,2010-09-20 14:13:29,1890.959307789058,2,45,0.5501165986061096,3.903564214706421,45.42960514193997,45.274190347541634,180.8196375162633,165.8117709581096,3.237724376958795e-05,0.0883364379405975,0,0,0
15344,519353.6004212902,2010-09-20 14:13:59,1920.977272702631,2,45,0.5501165986061096,3.90469741821289,45.43419205685224,45.274190347541634,180.83754585784536,165.8117709581096,3.237724376958795e-05,0.0883364379405975,0,0,0
15345,519383.6130137182,2010-09-20 14:14:29,1950.9898650955656,2,45,0.5501165986061096,3.9059925079345694,45.43877815171753,45.274190347541634,180.85545633742524,165.8117709581096,6.47544875391759e-05,0.0883364379405975,0,0,0
15346,519413.62825455714,2010-09-20 14:14:59,1981.005105869266,2,45,0.5501165986061096,3.90712571144104,45.44336460954232,45.274190347541634,180.8733739483077,165.8117709581096,-3.237724376958795e-05,0.0883364379405975,0,0,0
15347,519443.6435007594,2010-09-20 14:15:29,2011.0203520514667,2,45,0.5499359965324402,3.90842080116272,45.447951148601504,45.274190347541634,180.89129752195177,165.8117709581096,3.237724376958795e-05,0.0883364379405975,0,0,0
15348,519473.65874813456,2010-09-20 14:15:59,2041.0355994517083,2,45,0.5499359965324402,3.9097158908844,45.45253688665646,45.274190347541634,180.90922344271223,165.8117709581096,3.237724376958795e-05,0.0883364379405975,0,0,0
15349,519503.674150647,2010-09-20 14:16:29,2071.0510019541084,2,45,0.5497553944587708,3.910687208175659,45.45712268290037,45.274190347541634,180.92715522649297,165.8117709581096,0.0,0.0883364379405975,0,0,0
15350,519533.6893227192,2010-09-20 14:16:59,2101.066174021307,2,45,0.5501165986061096,3.912144184112549,45.46170850465488,45.274190347541634,180.94509289145552,165.8117709581096,3.237724376958795e-05,0.0883364379405975,0,0,0
15351,519563.7045096334,2010-09-20 14:17:29,2131.081360925541,2,45,0.5499359965324402,3.9132773876190186,45.4662941962272,45.274190347541634,180.96303578698857,165.8117709581096,0.0,0.0883364379405975,0,0,0
15352,519593.7215736332,2010-09-20 14:17:59,2161.098425050607,2,45,0.550297200679779,3.914896011352539,45.47088013860611,45.274190347541634,180.98098542330217,165.8117709581096,9.713172767078504e-05,0.0883364379405975,0,0,0
15353,519623.73522518,2010-09-20 14:18:30,2191.11207659234,2,45,0.5501165986061096,3.915867328643799,45.47546555216988,45.274190347541634,180.99893879485785,165.8117709581096,0.0,0.0883364379405975,0,0,0
15354,519653.7503502047,2010-09-20 14:19:00,2221.1272015268883,2,45,0.5501165986061096,3.9171624183654794,45.48005186383185,45.274190347541634,181.0169018210489,165.8117709581096,3.237724376958795e-05,0.0883364379405975,0,0,0
15355,519683.7655896752,2010-09-20 14:19:30,2251.1424409672604,2,45,0.5501165986061096,3.918619394302368,45.48463848458626,45.274190347541634,181.0348722372688,165.8117709581096,3.237724376958795e-05,0.0883364379405975,0,0,0
15356,519713.780907381,2010-09-20 14:20:00,2281.1577586679828,2,45,0.5501165986061096,3.920076370239258,45.48922507077715,45.274190347541634,181.0528487853395,165.8117709581096,6.47544875391759e-05,0.0883364379405975,0,0,0
15357,519743.7962812719,2010-09-20 14:20:30,2311.173132558965,2,45,0.5501165986061096,3.921209573745728,45.4938117484226,45.274190347541634,181.07083180934595,165.8117709581096,3.237724376958795e-05,0.0883364379405975,0,0,0
15358,519773.8114249482,2010-09-20 14:21:00,2341.1882762403075,2,45,0.5501165986061096,3.922828435897827,45.49839837132854,45.274190347541634,181.0888208548556,165.8117709581096,6.47544875391759e-05,0.0883364379405975,0,0,0
15359,519803.8266947544,2010-09-20 14:21:30,2371.2035460464776,2,45,0.5499359965324402,3.923961639404297,45.50298499132323,45.274190347541634,181.1068161608164,165.8117709581096,3.237724376958795e-05,0.0883364379405975,0,0,0
15360,519833.8419986356,2010-09-20 14:22:00,2401.218849942742,2,45,0.5501165986061096,3.925580501556397,45.50757164986965,45.274190347541634,181.1248179406623,165.8117709581096,6.47544875391759e-05,0.0883364379405975,0,0,0
15361,519863.8573643512,2010-09-20 14:22:30,2431.2342157385165,2,45,0.550297200679779,3.926875591278076,45.51215830135018,45.274190347541634,181.1428259230074,165.8117709581096,0.0,0.0883364379405975,0,0,0
15362,519893.8725030852,2010-09-20 14:23:00,2461.2493543822848,2,45,0.5499359965324402,3.928170680999756,45.51674489389827,45.274190347541634,181.1608401510838,165.8117709581096,0.0,0.0883364379405975,0,0,0
15363,519923.88790269033,2010-09-20 14:23:30,2491.2647539824407,2,45,0.5501165986061096,3.929789543151856,45.52133153643466,45.274190347541634,181.1788610510462,165.8117709581096,3.237724376958795e-05,0.0883364379405975,0,0,0
15364,519953.9030776347,2010-09-20 14:24:00,2521.2799289268214,2,45,0.5501165986061096,3.931084632873535,45.52591815409523,45.274190347541634,181.1968884671131,165.8117709581096,3.237724376958795e-05,0.0883364379405975,0,0,0
15365,519983.9032005269,2010-09-20 14:24:30,2551.280051818964,2,45,0.550297200679779,3.9327034950256343,45.53050248180829,45.274190347541634,181.2149134138998,165.8117709581096,6.47544875391759e-05,0.0883364379405975,0,0,0
15366,520013.9182190708,2010-09-20 14:25:00,2581.295070357932,2,45,0.550297200679779,3.934160470962525,45.53508914221612,45.274190347541634,181.23295424127457,165.8117709581096,6.47544875391759e-05,0.0883364379405975,0,0,0
15367,520043.93338242127,2010-09-20 14:25:30,2611.3102337133846,2,45,0.550297200679779,3.935455560684204,45.53967580849194,45.274190347541634,181.2510018025296,165.8117709581096,0.0,0.0883364379405975,0,0,0
15368,520073.9486596961,2010-09-20 14:26:00,2641.325510988197,2,45,0.5501165986061096,3.937074422836304,45.54426251624213,45.274190347541634,181.26905616094083,165.8117709581096,6.47544875391759e-05,0.0883364379405975,0,0,0
15369,520103.9637930767,2010-09-20 14:26:30,2671.340644368828,2,45,0.5499359965324402,3.938531398773194,45.548849101618856,45.274190347541634,181.28711697663243,165.8117709581096,6.47544875391759e-05,0.0883364379405975,0,0,0
15370,520133.979045284,2010-09-20 14:27:00,2701.355896601131,2,45,0.5501165986061096,3.939988374710083,45.55343574205239,45.274190347541634,181.3051848639611,165.8117709581096,3.237724376958795e-05,0.0883364379405975,0,0,0
15371,520163.9943136666,2010-09-20 14:27:30,2731.3711649586853,2,45,0.5501165986061096,3.941607236862183,45.55802231847147,45.274190347541634,181.32325945553487,165.8117709581096,6.47544875391759e-05,0.0883364379405975,0,0,0
15372,520194.00973606366,2010-09-20 14:28:00,2761.3865873607583,2,45,0.5501165986061096,3.943064212799072,45.5626089789893,45.274190347541634,181.34134135239543,165.8117709581096,0.0,0.0883364379405975,0,0,0
15373,520224.0266141042,2010-09-20 14:28:30,2791.403465391304,2,45,0.5501165986061096,3.944844961166382,45.56719591442784,45.274190347541634,181.35943148203933,165.8117709581096,9.713172767078504e-05,0.0883364379405975,0,0,0
15374,520254.0401410951,2010-09-20 14:29:00,2821.416992387151,2,45,0.5499359965324402,3.9461400508880615,45.57178228247132,45.274190347541634,181.3775265128278,165.8117709581096,3.237724376958795e-05,0.0883364379405975,0,0,0
15375,520284.05543833965,2010-09-20 14:29:30,2851.432289727049,2,45,0.5499359965324402,3.947758913040161,45.57636898567541,45.274190347541634,181.39562999938065,165.8117709581096,6.47544875391759e-05,0.0883364379405975,0,0,0
15376,520314.0706754042,2010-09-20 14:30:00,2881.4475266962536,2,45,0.5497553944587708,3.949215888977051,45.58095560303228,45.274190347541634,181.4137404444996,165.8117709581096,0.0,0.0883364379405975,0,0,0
15377,520344.0862893895,2010-09-20 14:30:30,2911.463140681547,2,45,0.5499359965324402,3.9508347511291504,45.5855422637716,45.274190347541634,181.43185835736625,165.8117709581096,3.237724376958795e-05,0.0883364379405975,0,0,0
15378,520374.1012179137,2010-09-20 14:31:00,2941.478069210837,2,45,0.5501165986061096,3.95261549949646,45.59012889486826,45.274190347541634,181.4499835087743,165.8117709581096,6.47544875391759e-05,0.0883364379405975,0,0,0
15379,520404.1165093839,2010-09-20 14:31:30,2971.493360676072,2,45,0.5501165986061096,3.95423436164856,45.59471558109812,45.274190347541634,181.46811633057115,165.8117709581096,6.47544875391759e-05,0.0883364379405975,0,0,0
15380,520434.13190393656,2010-09-20 14:32:00,3001.508755233641,2,45,0.550297200679779,3.955853223800659,45.59930226216809,45.274190347541634,181.48625667829316,165.8117709581096,6.47544875391759e-05,0.0883364379405975,0,0,0
15381,520464.14702533727,2010-09-20 14:32:30,3031.523876624343,2,45,0.5501165986061096,3.9576339721679688,45.60388900947842,45.274190347541634,181.5044048776205,165.8117709581096,6.47544875391759e-05,0.0883364379405975,0,0,0
15382,520494.1624077244,2010-09-20 14:33:00,3061.5392590115325,2,45,0.5501165986061096,3.959252834320069,45.60847572915132,45.274190347541634,181.52256061093468,165.8117709581096,6.47544875391759e-05,0.0883364379405975,0,0,0
15383,520524.17773050285,2010-09-20 14:33:30,3091.554581814992,2,45,0.5501165986061096,3.960871696472168,45.613062386031466,45.274190347541634,181.5407238377444,165.8117709581096,3.237724376958795e-05,0.0883364379405975,0,0,0
15384,520554.1928739335,2010-09-20 14:34:00,3121.56972522566,2,45,0.5501165986061096,3.9626524448394775,45.61764908547925,45.274190347541634,181.55889505334264,165.8117709581096,6.47544875391759e-05,0.0883364379405975,0,0,0
15385,520584.20815317327,2010-09-20 14:34:30,3151.585004465377,2,45,0.5499359965324402,3.964271306991577,45.62223571690553,45.274190347541634,181.5770738855275,165.8117709581096,3.237724376958795e-05,0.0883364379405975,0,0,0
15386,520614.2234732901,2010-09-20 14:35:00,3181.600324677368,2,45,0.5501165986061096,3.966052055358887,45.62682237047346,45.274190347541634,181.5952607850197,165.8117709581096,6.47544875391759e-05,0.0883364379405975,0,0,0
15387,520644.2386863797,2010-09-20 14:35:30,3211.6155376717265,2,45,0.5501165986061096,3.9676709175109854,45.63140904811588,45.274190347541634,181.6134557908566,165.8117709581096,0.0,0.0883364379405975,0,0,0
15388,520674.25398728845,2010-09-20 14:36:00,3241.6308385805337,2,45,0.5499359965324402,3.969613552093506,45.63599568090663,45.274190347541634,181.6316587455126,165.8117709581096,6.47544875391759e-05,0.0883364379405975,0,0,0
15389,520704.2692682424,2010-09-20 14:36:30,3271.646119629768,2,45,0.5501165986061096,3.971394300460816,45.64058235703874,45.274190347541634,181.64987009584777,165.8117709581096,3.237724376958795e-05,0.0883364379405975,0,0,0
15390,520734.28494958585,2010-09-20 14:37:00,3301.661800983224,2,45,0.5504778623580933,3.973336935043335,45.64516918344094,45.274190347541634,181.66809038608383,165.8117709581096,6.47544875391759e-05,0.0883364379405975,0,0,0
15391,520764.2997802659,2010-09-20 14:37:30,3331.6766315680297,2,45,0.5501165986061096,3.975117683410645,45.64975577773992,45.274190347541634,181.68631809918932,165.8117709581096,3.237724376958795e-05,0.0883364379405975,0,0,0
15392,520794.3151366481,2010-09-20 14:38:00,3361.6919880655946,2,45,0.5499359965324402,3.976736545562744,45.65434251681141,45.274190347541634,181.70455487616223,165.8117709581096,0.0,0.0883364379405975,0,0,0
15393,520824.3321344025,2010-09-20 14:38:30,3391.708985809964,2,45,0.5499359965324402,3.9788410663604736,45.65892952296744,45.274190347541634,181.72280090127168,165.8117709581096,6.47544875391759e-05,0.0883364379405975,0,0,0
15394,520854.345600341,2010-09-20 14:39:00,3421.7224516381275,2,45,0.550297200679779,3.980621814727783,45.6635158181505,45.274190347541634,181.74105329558336,165.8117709581096,3.237724376958795e-05,0.0883364379405975,0,0,0
15395,520884.3608770845,2010-09-20 14:39:30,3451.737728376602,2,45,0.5499359965324402,3.9827263355255127,45.66810245051794,45.274190347541634,181.7593159123394,165.8117709581096,6.47544875391759e-05,0.0883364379405975,0,0,0
15396,520914.3762631409,2010-09-20 14:40:00,3481.75311443295,2,45,0.5501165986061096,3.984668970108032,45.67268906125042,45.274190347541634,181.77758733709376,165.8117709581096,6.47544875391759e-05,0.0883364379405975,0,0,0
15397,520944.3914277545,2010-09-20 14:40:30,3511.768279046543,2,45,0.5501165986061096,3.986611604690552,45.67727558322018,45.274190347541634,181.7958675439695,165.8117709581096,3.237724376958795e-05,0.0883364379405975,0,0,0
15398,520974.40681033215,2010-09-20 14:41:00,3541.7836616442582,2,45,0.5501165986061096,3.988716125488281,45.68186219911309,45.274190347541634,181.814157271303,165.8117709581096,3.237724376958795e-05,0.0883364379405975,0,0,0
15399,521004.4220841533,2010-09-20 14:41:30,3571.7989354454003,2,45,0.5501165986061096,3.990658760070801,45.686448765396,45.274190347541634,181.8324561120993,165.8117709581096,3.237724376958795e-05,0.0883364379405975,0,0,0
15400,521034.4373219496,2010-09-20 14:42:00,3601.814173246681,2,45,0.5501165986061096,3.9927632808685294,45.6910353389813,45.274190347541634,181.85076435610492,165.8117709581096,6.47544875391759e-05,0.0883364379405975,0,0,0
15401,521064.4526492442,2010-09-20 14:42:30,3631.829500546364,2,45,0.5501165986061096,3.9948675632476807,45.695621910127095,45.274190347541634,181.8690821510013,165.8117709581096,6.47544875391759e-05,0.0883364379405975,0,0,0
15402,521094.467747437,2010-09-20 14:43:00,3661.8445987541977,2,45,0.5501165986061096,3.99697208404541,45.700208443147325,45.274190347541634,181.8874093823204,165.8117709581096,6.47544875391759e-05,0.0883364379405975,0,0,0
15403,521124.4830357745,2010-09-20 14:43:30,3691.8598870665614,2,45,0.5501165986061096,3.99907660484314,45.70479506864201,45.274190347541634,181.90574654105995,165.8117709581096,6.47544875391759e-05,0.0883364379405975,0,0,0
15404,521154.49832569086,2010-09-20 14:44:00,3721.87517700298,2,45,0.5501165986061096,4.001181125640869,45.70938158995257,45.274190347541634,181.92409297310104,165.8117709581096,3.23295607813634e-05,0.0883364379405975,0,0,0
15405,521184.5135876775,2010-09-20 14:44:30,3751.8904389745935,2,45,0.550297200679779,4.003447532653809,45.713968157622105,45.274190347541634,181.94244933252736,165.8117709581096,9.70840483205393e-05,0.0883364379405975,0,0,0
15406,521214.52896418,2010-09-20 14:45:00,3781.9058154720815,2,45,0.5499359965324402,4.005390167236328,45.71855477553121,45.274190347541634,181.96081579076235,165.8117709581096,6.47544875391759e-05,0.0883364379405975,0,0,0
15407,521244.5442543872,2010-09-20 14:45:30,3811.9211056741633,2,45,0.5501165986061096,4.007656574249268,45.72314129624277,45.274190347541634,181.97919185535497,165.8117709581096,3.23295607813634e-05,0.0883364379405975,0,0,0
15408,521274.5594090208,2010-09-20 14:46:00,3841.9362603128575,2,45,0.5501165986061096,4.009761333465576,45.72772785325325,45.274190347541634,181.9975780618076,165.8117709581096,6.47544875391759e-05,0.0883364379405975,0,0,0
15409,521304.5775845601,2010-09-20 14:46:30,3871.954435967473,2,45,0.550297200679779,4.0121893882751465,45.73231487832001,45.274190347541634,182.0159762900858,165.8117709581096,9.70840483205393e-05,0.0883364379405975,0,0,0
15410,521334.58997706405,2010-09-20 14:47:00,3901.9668285466414,2,45,0.5501165986061096,4.014132022857666,45.73690104649489,45.274190347541634,182.03438132452132,165.8117709581096,3.23295607813634e-05,0.0883364379405975,0,0,0
15411,521364.605203507,2010-09-20 14:47:30,3931.9820547990944,2,45,0.5501165986061096,4.0165605545043945,45.74148770368913,45.274190347541634,182.05279864271347,165.8117709581096,3.24249267578125e-05,0.0883364379405975,0,0,0
15412,521394.62047101744,2010-09-20 14:48:00,3961.997322309534,2,45,0.5501165986061096,4.018826961517334,45.74607437899613,45.274190347541634,182.071226463124,165.8117709581096,6.47544875391759e-05,0.0883364379405975,0,0,0
15413,521424.6374786866,2010-09-20 14:48:30,3992.014330073915,2,45,0.5499359965324402,4.021093368530273,45.75066125362705,45.274190347541634,182.08966540706203,165.8117709581096,3.24249267578125e-05,0.0883364379405975,0,0,0
15414,521454.6375081205,2010-09-20 14:49:00,4022.014359507771,2,45,0.550297200679779,4.023521423339844,45.75524551894848,45.274190347541634,182.1081044496058,165.8117709581096,9.70840483205393e-05,0.0883364379405975,0,0,0
15415,521484.65066351375,2010-09-20 14:49:30,4052.0275149010417,2,45,0.5501165986061096,4.025626182556152,45.75983183546851,45.274190347541634,182.12656237245204,165.8117709581096,0.0,0.0883364379405975,0,0,0
15416,521514.6659287184,2010-09-20 14:50:00,4082.042780010488,2,45,0.550297200679779,4.028054237365723,45.76441844862941,45.274190347541634,182.14503214864692,165.8117709581096,3.23295607813634e-05,0.0883364379405975,0,0,0
15417,521544.68121634907,2010-09-20 14:50:30,4112.05806764115,2,45,0.550297200679779,4.030482769012451,45.76900507617158,45.274190347541634,182.1635127383675,165.8117709581096,9.71794142969884e-05,0.0883364379405975,0,0,0
15418,521574.6965001853,2010-09-20 14:51:00,4142.073351477342,2,45,0.5499359965324402,4.032587051391602,45.77359170761485,45.274190347541634,182.182004244617,165.8117709581096,0.0,0.0883364379405975,0,0,0
15419,521604.7117807834,2010-09-20 14:51:31,4172.088632100512,2,45,0.5501165986061096,4.035177230834961,45.778178373327805,45.274190347541634,182.2005068247726,165.8117709581096,6.47544875391759e-05,0.0883364379405975,0,0,0
15420,521634.7270437124,2010-09-20 14:52:01,4202.103895004453,2,45,0.550297200679779,4.037605285644531,45.7827650142793,45.274190347541634,182.2190203323991,165.8117709581096,3.23295607813634e-05,0.0883364379405975,0,0,0
15421,521664.74228307256,2010-09-20 14:52:31,4232.119134364625,2,45,0.5501165986061096,4.04003381729126,45.787351663526,45.274190347541634,182.2375449771132,165.8117709581096,3.24249267578125e-05,0.0883364379405975,0,0,0
15422,521694.7575708335,2010-09-20 14:53:01,4262.134422125613,2,45,0.5501165986061096,4.04246187210083,45.791938311866296,45.274190347541634,182.25608070796923,165.8117709581096,6.47544875391759e-05,0.0883364379405975,0,0,0
15423,521724.7729519525,2010-09-20 14:53:31,4292.149803244637,2,45,0.5499359965324402,4.044890403747559,45.796524961114166,45.274190347541634,182.2746277983808,165.8117709581096,3.24249267578125e-05,0.0883364379405975,0,0,0
15424,521754.78811208496,2010-09-20 14:54:01,4322.164963472283,2,45,0.5499359965324402,4.047318458557129,45.80111156536855,45.274190347541634,182.2931860640936,165.8117709581096,6.47544875391759e-05,0.0883364379405975,0,0,0
15425,521784.8034510237,2010-09-20 14:54:31,4352.180302436081,2,45,0.550297200679779,4.050070762634277,45.80569824442778,45.274190347541634,182.31175620837325,165.8117709581096,6.47544875391759e-05,0.0883364379405975,0,0,0
15426,521814.8186713563,2010-09-20 14:55:01,4382.195522668507,2,45,0.550297200679779,4.052498817443848,45.81028491322069,45.274190347541634,182.33033793443556,165.8117709581096,6.47544875391759e-05,0.0883364379405975,0,0,0
15427,521844.83391327295,2010-09-20 14:55:31,4412.210764570023,2,45,0.5501165986061096,4.055251121520996,45.81487159343629,45.274190347541634,182.34893156116863,165.8117709581096,9.71794142969884e-05,0.0883364379405975,0,0,0
15428,521874.84917608666,2010-09-20 14:56:01,4442.226027378726,2,45,0.5501165986061096,4.057841300964356,45.81945830926933,45.274190347541634,182.36753727252952,165.8117709581096,6.47544875391759e-05,0.0883364379405975,0,0,0
15429,521904.8644496021,2010-09-20 14:56:31,4472.241300894155,2,45,0.550297200679779,4.060593128204346,45.82404501391212,45.274190347541634,182.3861550632024,165.8117709581096,9.70840483205393e-05,0.0883364379405975,0,0,0
15430,521934.879727313,2010-09-20 14:57:01,4502.256578605056,2,45,0.5501165986061096,4.063021659851074,45.82863166684864,45.274190347541634,182.4047842775784,165.8117709581096,6.47544875391759e-05,0.0883364379405975,0,0,0
15431,521964.8952376696,2010-09-20 14:57:31,4532.272088961678,2,45,0.5501165986061096,4.065611839294434,45.83321833385142,45.274190347541634,182.423425945195,165.8117709581096,6.47544875391759e-05,0.0883364379405975,0,0,0
15432,521994.9102593114,2010-09-20 14:58:01,4562.287110603391,2,45,0.550297200679779,4.068202018737793,45.83780488118343,45.274190347541634,182.44207944485737,165.8117709581096,6.47544875391759e-05,0.0883364379405975,0,0,0
15433,522024.92568146274,2010-09-20 14:58:31,4592.302532754839,2,45,0.550297200679779,4.071115970611572,45.84239152472174,45.274190347541634,182.4607458855742,165.8117709581096,9.71794142969884e-05,0.0883364379405975,0,0,0
15434,522054.9425599645,2010-09-20 14:59:01,4622.319411256559,2,45,0.5501165986061096,4.074029922485352,45.84697836364887,45.274190347541634,182.47942569730827,165.8117709581096,9.71794142969884e-05,0.0883364379405975,0,0,0
15435,522084.9560815769,2010-09-20 14:59:31,4652.332932964207,2,45,0.550297200679779,4.076943874359131,45.85156479537231,45.274190347541634,182.4981167040948,165.8117709581096,0.0001619339018361,0.0883364379405975,0,0,0
15436,522114.97134609486,2010-09-20 15:00:01,4682.348197386939,2,45,0.550297200679779,4.07953405380249,45.8561514708947,45.274190347541634,182.5168215938203,165.8117709581096,6.47544875391759e-05,0.0883364379405975,0,0,0
15437,522144.98661976063,2010-09-20 15:00:31,4712.363471052743,2,45,0.5501165986061096,4.0824480056762695,45.860738083127565,45.274190347541634,182.5355391871433,165.8117709581096,9.71794142969884e-05,0.0883364379405975,0,0,0
15438,522175.001936118,2010-09-20 15:01:01,4742.378787410112,2,45,0.5501165986061096,4.08519983291626,45.86532472731262,45.274190347541634,182.55427002280376,165.8117709581096,9.70840483205393e-05,0.0883364379405975,0,0,0
15439,522205.0171792176,2010-09-20 15:01:31,4772.3940305096185,2,45,0.5501165986061096,4.088275909423828,45.86991135145695,45.274190347541634,182.57301402827616,165.8117709581096,9.71794142969884e-05,0.0883364379405975,0,0,0
15440,522235.0324601765,2010-09-20 15:02:01,4802.409311488677,2,45,0.5501165986061096,4.091027736663818,45.87449800017943,45.274190347541634,182.5917715560076,165.8117709581096,3.23295607813634e-05,0.0883364379405975,0,0,0
15441,522265.0478303883,2010-09-20 15:02:31,4832.4246816854375,2,45,0.550297200679779,4.094103813171387,45.87908465354588,45.274190347541634,182.61054251612413,165.8117709581096,9.71794142969884e-05,0.0883364379405975,0,0,0
15442,522295.06301948807,2010-09-20 15:03:01,4862.439870830265,2,45,0.5501165986061096,4.096855640411377,45.883671244199455,45.274190347541634,182.629326738062,165.8117709581096,3.23295607813634e-05,0.0883364379405975,0,0,0
15443,522325.0782588432,2010-09-20 15:03:31,4892.455110135299,2,45,0.5501165986061096,4.099931716918945,45.88825793900399,45.274190347541634,182.64812503481116,165.8117709581096,6.47544875391759e-05,0.0883364379405975,0,0,0
15444,522355.09351448406,2010-09-20 15:04:01,4922.470365781122,2,45,0.550297200679779,4.103007316589356,45.89284465246375,45.274190347541634,182.66693715275733,165.8117709581096,6.47544875391759e-05,0.0883364379405975,0,0,0
15445,522385.1087875634,2010-09-20 15:04:31,4952.485638855451,2,45,0.5501165986061096,4.105921268463135,45.89743128108043,45.274190347541634,182.68576290139748,165.8117709581096,3.23295607813634e-05,0.0883364379405975,0,0,0
15446,522415.12406203616,2010-09-20 15:05:01,4982.5009133332815,2,45,0.5501165986061096,4.109158992767334,45.90201795061983,45.274190347541634,182.7046028572532,165.8117709581096,6.47544875391759e-05,0.0883364379405975,0,0,0
15447,522445.139351326,2010-09-20 15:05:31,5012.516202643136,2,45,0.5501165986061096,4.112235069274902,45.90660458824711,45.274190347541634,182.72345692356885,165.8117709581096,6.47544875391759e-05,0.0883364379405975,0,0,0
15448,522475.1545934682,2010-09-20 15:06:01,5042.53144476019,2,45,0.550297200679779,4.1153106689453125,45.9111912162529,45.274190347541634,182.74232513841216,165.8117709581096,9.71794142969884e-05,0.0883364379405975,0,0,0
15449,522505.1698678056,2010-09-20 15:06:31,5072.546719097672,2,45,0.5499359965324402,4.118386268615723,45.91577784416513,45.274190347541634,182.76120784450669,165.8117709581096,6.47544875391759e-05,0.0883364379405975,0,0,0
15450,522535.1852726238,2010-09-20 15:07:01,5102.562123915851,2,45,0.5501165986061096,4.121786117553711,45.92036450920294,45.274190347541634,182.78010526027464,165.8117709581096,9.71794142969884e-05,0.0883364379405975,0,0,0
15451,522565.2004080144,2010-09-20 15:07:31,5132.577259331562,2,45,0.5501165986061096,4.124861717224121,45.92495115496171,45.274190347541634,182.79901722209468,165.8117709581096,6.47544875391759e-05,0.0883364379405975,0,0,0
15452,522595.2159607368,2010-09-20 15:08:01,5162.592812018847,2,45,0.550297200679779,4.12809944152832,45.929537837030736,45.274190347541634,182.81794412348228,165.8117709581096,6.47544875391759e-05,0.0883364379405975,0,0,0
15453,522625.23098705016,2010-09-20 15:08:31,5192.607838362297,2,45,0.5501165986061096,4.13133716583252,45.93412448226738,45.274190347541634,182.83688584943687,165.8117709581096,6.47544875391759e-05,0.0883364379405975,0,0,0
15454,522655.2480489196,2010-09-20 15:09:01,5222.624900236744,2,45,0.5501165986061096,4.134737014770508,45.93871144939159,45.274190347541634,182.8558439770532,165.8117709581096,9.71794142969884e-05,0.0883364379405975,0,0,0
15455,522685.2619137587,2010-09-20 15:09:31,5252.638765166126,2,45,0.5501165986061096,4.137974739074707,45.943297964163335,45.274190347541634,182.87481547581,165.8117709581096,6.47544875391759e-05,0.0883364379405975,0,0,0
15456,522715.2767627696,2010-09-20 15:10:01,5282.653614061639,2,45,0.5501165986061096,4.141212463378906,45.9478846254212,45.274190347541634,182.8938028790493,165.8117709581096,6.47544875391759e-05,0.0883364379405975,0,0,0
15457,522745.2920063352,2010-09-20 15:10:31,5312.668857627308,2,45,0.5501165986061096,4.144773960113525,45.95247131598755,45.274190347541634,182.91280574619705,165.8117709581096,6.47544875391759e-05,0.0883364379405975,0,0,0
15458,522775.3072910336,2010-09-20 15:11:01,5342.684142325651,2,45,0.550297200679779,4.148173332214356,45.9570579589511,45.274190347541634,182.9318242274673,165.8117709581096,6.47544875391759e-05,0.0883364379405975,0,0,0
15459,522805.3225858623,2010-09-20 15:11:31,5372.6994371542805,2,45,0.5501165986061096,4.151573181152344,45.961644586008,45.274190347541634,182.95085833084363,165.8117709581096,0.0001295089750783,0.0883364379405975,0,0,0
15460,522835.33786457055,2010-09-20 15:12:01,5402.714715862673,2,45,0.5501165986061096,4.155134677886963,45.96623125380193,45.274190347541634,182.96990844497623,165.8117709581096,6.47544875391759e-05,0.0883364379405975,0,0,0
15461,522865.35314604593,2010-09-20 15:12:31,5432.729997363032,2,45,0.5497553944587708,4.158372402191162,45.97081789757405,45.274190347541634,182.9889743720493,165.8117709581096,6.47544875391759e-05,0.0883364379405975,0,0,0
15462,522895.3684069599,2010-09-20 15:13:01,5462.7452582519445,2,45,0.5501165986061096,4.162095546722412,45.97540446791243,45.274190347541634,183.0080560551557,165.8117709581096,6.47544875391759e-05,0.0883364379405975,0,0,0
15463,522925.3837961992,2010-09-20 15:13:31,5492.760647491238,2,45,0.5501165986061096,4.165657043457031,45.97999122100923,45.274190347541634,183.02715468688805,165.8117709581096,9.70840483205393e-05,0.0883364379405975,0,0,0
15464,522955.3989404017,2010-09-20 15:14:01,5522.775791693882,2,45,0.550297200679779,4.16921854019165,45.984577834150784,45.274190347541634,183.0462689791115,165.8117709581096,0.0001295089750783,0.0883364379405975,0,0,0
15465,522985.4142088346,2010-09-20 15:14:31,5552.791060126624,2,45,0.550297200679779,4.172942161560059,45.98916451278264,45.274190347541634,183.06539994582283,165.8117709581096,0.0001295089750783,0.0883364379405975,0,0,0
15466,523015.4294915779,2010-09-20 15:15:01,5582.806342870087,2,45,0.550297200679779,4.176503658294678,45.99375118289137,45.274190347541634,183.08454743474184,165.8117709581096,0.0001619339018361,0.0883364379405975,0,0,0
15467,523045.444748101,2010-09-20 15:15:31,5612.821599393101,2,45,0.550297200679779,4.179903030395508,45.99833782472939,45.274190347541634,183.10371148696,165.8117709581096,6.47544875391759e-05,0.0883364379405975,0,0,0
15468,523075.4600412104,2010-09-20 15:16:01,5642.836892522489,2,45,0.550297200679779,4.183788299560547,46.00292451022034,45.274190347541634,183.12289245412475,165.8117709581096,9.70840483205393e-05,0.0883364379405975,0,0,0
15469,523105.4753992969,2010-09-20 15:16:31,5672.852250593983,2,45,0.5499359965324402,4.187511920928955,46.007511186034925,45.274190347541634,183.1420902416774,165.8117709581096,0.0001295089750783,0.0883364379405975,0,0,0
15470,523135.4906015495,2010-09-20 15:17:01,5702.867452841516,2,45,0.5501165986061096,4.191073417663574,46.01209781649359,45.274190347541634,183.1613048925555,165.8117709581096,6.47544875391759e-05,0.0883364379405975,0,0,0
15471,523165.50582894974,2010-09-20 15:17:31,5732.882680241834,2,45,0.5504778623580933,4.195120334625244,46.0166844750916,45.274190347541634,183.18053676320292,165.8117709581096,0.0001295089750783,0.0883364379405975,0,0,0
15472,523195.5211018335,2010-09-20 15:18:01,5762.897953125686,2,45,0.5501165986061096,4.198681831359863,46.02127114848128,45.274190347541634,183.1997859035785,165.8117709581096,0.0001295089750783,0.0883364379405975,0,0,0
15473,523205.4741416673,2010-09-20 15:18:11,5772.850992959348,2,45,0.550297200679779,4.200138568878174,46.02279207376215,45.274190347541634,183.20617267899777,165.8117709581096,0.0001295089750783,0.0883364379405975,0,0,0
15474,523235.4782509957,2010-09-20 15:18:41,30.015243305019062,3,45,0.0,4.117414951324463,46.02279207376215,45.274190347541634,183.20617267899777,165.8117709581096,-0.0003885269106831,0.0883364379405975,0,0,0
15475,523265.493547258,2010-09-20 15:19:11,60.03053956722742,3,45,0.0,4.107054710388184,46.02279207376215,45.274190347541634,183.20617267899777,165.8117709581096,-0.0002265930233988,0.0883364379405975,0,0,0
15476,523295.5088157909,2010-09-20 15:19:41,90.04580810021939,3,45,0.0,4.100740909576416,46.02279207376215,45.274190347541634,183.20617267899777,165.8117709581096,-0.0001619339018361,0.0883364379405975,0,0,0
15477,523325.4772391061,2010-09-20 15:20:11,120.01423143539066,3,45,0.0,4.096855640411377,46.02279207376215,45.274190347541634,183.20617267899777,165.8117709581096,-0.0001295089750783,0.0883364379405975,0,0,0
15478,523325.4831308496,2010-09-20 15:20:12,0.01562808009223,4,45,1.00182044506073,4.199814796447754,46.02279642279844,45.274190347541634,183.2061909441448,165.8117709581096,0.0,0.0883364379405975,0,0,0
15479,523326.3581269244,2010-09-20 15:20:12,0.890624154909755,4,45,0.9514304399490356,4.199653148651123,46.02303214976948,45.274190347541634,183.20718093433956,165.8117709581096,-3.23295607813634e-05,0.0883364379405975,0,0,0
15480,523328.43623147806,2010-09-20 15:20:15,2.968728713596632,4,45,0.9014016389846802,4.199653148651123,46.02356581891453,45.274190347541634,183.20942218765137,165.8117709581096,-3.23295607813634e-05,0.0883364379405975,0,0,0
15481,523331.5455541659,2010-09-20 15:20:18,6.078051401382682,4,45,0.8513728976249695,4.199814796447754,46.024321543323815,45.274190347541634,183.21259602507791,165.8117709581096,0.0,0.0883364379405975,0,0,0
15482,523335.7330054434,2010-09-20 15:20:22,10.265502673982365,4,45,0.8011634945869446,4.199653148651123,46.02528138415493,45.274190347541634,183.21662710711783,165.8117709581096,0.0,0.0883364379405975,0,0,0
15483,523341.1391914605,2010-09-20 15:20:27,15.671688691001767,4,45,0.7511347532272339,4.199491024017334,46.026445701540034,45.274190347541634,183.22151693226377,165.8117709581096,-3.24249267578125e-05,0.0883364379405975,0,0,0
15484,523348.0922385607,2010-09-20 15:20:34,22.62473579126357,4,45,0.7011059522628784,4.199653148651123,46.027846691756814,45.274190347541634,183.2274007466008,165.8117709581096,0.0,0.0883364379405975,0,0,0
15485,523357.3734211604,2010-09-20 15:20:43,31.90591839090653,4,45,0.6505353450775146,4.199653148651123,46.02958708996438,45.274190347541634,183.2347099987332,165.8117709581096,0.0,0.0883364379405975,0,0,0
15486,523370.170425472,2010-09-20 15:20:56,44.70292271246304,4,45,0.600506603717804,4.199653148651123,46.031806494453264,45.274190347541634,183.24403096633668,165.8117709581096,0.0,0.0883364379405975,0,0,0
15487,523388.82616447663,2010-09-20 15:21:15,63.35866170710736,4,45,0.5504778623580933,4.199653148651123,46.03477984038238,45.274190347541634,183.25651826845208,165.8117709581096,0.0,0.0883364379405975,0,0,0
15488,523419.41951545735,2010-09-20 15:21:46,93.9520126878246,4,45,0.5004490613937378,4.199653148651123,46.03922803258902,45.274190347541634,183.27519957950057,165.8117709581096,-3.23295607813634e-05,0.0883364379405975,0,0,0
15489,523474.01263013546,2010-09-20 15:22:40,148.54512736600208,4,45,0.4504202902317047,4.199653148651123,46.04640396488831,45.274190347541634,183.30533667850509,165.8117709581096,0.0,0.0883364379405975,0,0,0
15490,523560.6367318552,2010-09-20 15:24:07,235.1692290856793,4,45,0.4002109169960022,4.199814796447754,46.05661041573901,45.274190347541634,183.34820126140107,165.8117709581096,-3.24249267578125e-05,0.0883364379405975,0,0,0
15491,523674.74486890034,2010-09-20 15:26:01,349.27736624612976,4,45,0.3501821458339691,4.199814796447754,46.0684888158516,45.274190347541634,183.3980876944313,165.8117709581096,3.23295607813634e-05,0.0883364379405975,0,0,0
15492,523811.49483235256,2010-09-20 15:28:18,486.0273295830746,4,45,0.300153374671936,4.199491024017334,46.080829984212976,45.274190347541634,183.44991766474035,165.8117709581096,-6.47544875391759e-05,0.0883364379405975,0,0,0
15493,523976.8972959583,2010-09-20 15:31:03,651.429793284005,4,45,0.2501246035099029,4.199814796447754,46.09345068047707,45.274190347541634,183.5029215738547,165.8117709581096,3.23295607813634e-05,0.0883364379405975,0,0,0
15494,524181.5668819325,2010-09-20 15:34:28,856.099379283288,4,45,0.2000958323478698,4.199653148651123,46.10621681395197,45.274190347541634,183.55653644327845,165.8117709581096,-3.23295607813634e-05,0.0883364379405975,0,0,0
15495,524451.969812658,2010-09-20 15:38:58,1126.5023098885297,4,45,0.1500670611858368,4.199653148651123,46.11929246646659,45.274190347541634,183.61145101979577,165.8117709581096,-3.23295607813634e-05,0.0883364379405975,0,0,0
15496,524845.699568327,2010-09-20 15:45:32,1520.2320655825504,4,45,0.1000382974743843,4.199653148651123,46.13281028965709,45.274190347541634,183.6682226061851,165.8117709581096,-3.23295607813634e-05,0.0883364379405975,0,0,0
15497,525567.9410393578,2010-09-20 15:57:34,2242.4735366985283,4,45,0.0500095263123512,4.199814796447754,46.14734070451978,45.274190347541634,183.7292468489989,165.8117709581096,0.0,0.0883364379405975,0,0,0
15498,525578.8783745741,2010-09-20 15:57:45,2253.4108718998577,4,45,0.0498289167881011,4.199491024017334,46.14749420123654,45.274190347541634,183.72989149750904,165.8117709581096,-6.47544875391759e-05,0.0883364379405975,0,0,0
15499,525608.8949613349,2010-09-20 15:58:15,30.01526587636061,5,45,0.0,4.192206382751465,46.14749420123654,45.274190347541634,183.72989149750904,165.8117709581096,0.0,0.0883364379405975,0,0,0
15500,525638.8946082288,2010-09-20 15:58:45,60.01491277033827,5,45,0.0,4.190749645233154,46.14749420123654,45.274190347541634,183.72989149750904,165.8117709581096,-3.23295607813634e-05,0.0883364379405975,0,0,0
15501,525639.0842489349,2010-09-20 15:58:45,0.187613271589468,6,45,-1.9243103452026844e-05,4.190749645233154,46.14749420123654,45.27419034854449,183.72989149750904,165.81177096231227,0.0,0.0931148082017898,0,0,0
15502,525643.8966555622,2010-09-20 15:58:50,5.000019913939025,6,45,0.0007031940040178,4.190749645233154,46.14749514067572,45.27419034871112,183.72989543461912,165.81177096301062,-6.47544875391759e-05,0.0931148082017898,0,0,0
15503,525673.9011856886,2010-09-20 15:59:20,30.01817001553879,7,45,-1.0993878841400146,4.018341064453125,46.14749514067572,45.283359028347526,183.72989543461912,165.8488109446781,-0.0009065627818927,0.0931148082017898,0,0,0
15504,525703.9135619921,2010-09-20 15:59:50,60.0305461987808,7,45,-1.099568486213684,3.9913063049316406,46.14749514067572,45.29252582175464,183.72989543461912,165.88551370383854,-0.000615119934082,0.0931148082017898,0,0,0
15505,525733.9288517181,2010-09-20 16:00:20,90.04583601489873,7,45,-1.099568486213684,3.973013162612915,46.14749514067572,45.3016935160752,183.72989543461912,165.9220168328371,-0.0004209041653666,0.0931148082017898,0,0,0
15506,525763.9442325564,2010-09-20 16:00:50,120.0612167680094,7,45,-1.099568486213684,3.958929061889648,46.14749514067572,45.3108611476878,183.72989543461912,165.95837233324303,-0.0003237724304199,0.0931148082017898,0,0,0
15507,525793.961100206,2010-09-20 16:01:20,150.07808444270506,7,45,-1.099568486213684,3.947111368179321,46.14749514067572,45.32002929559371,183.72989543461912,165.99461185242544,-0.0002913951757363,0.0931148082017898,0,0,0
15508,525823.9746413672,2010-09-20 16:01:50,180.09162557884872,7,45,-1.0997490882873535,3.936426877975464,46.14749514067572,45.32919641232058,183.72989543461912,166.0307457615489,-0.0003237724304199,0.0931148082017898,0,0,0
15509,525853.9899168676,2010-09-20 16:02:20,210.10690107421988,7,45,-1.099568486213684,3.926875591278076,46.14749514067572,45.33836400142855,183.72989543461912,166.06678927862163,-0.0002590179501567,0.0931148082017898,0,0,0
15510,525884.0051929845,2010-09-20 16:02:50,240.12217719114253,7,45,-1.0997490882873535,3.9174861907958975,46.14749514067572,45.34753166667896,183.72989543461912,166.10274657391767,-0.0002590179501567,0.0931148082017898,0,0,0
15511,525914.0204718633,2010-09-20 16:03:20,270.1374560649467,7,45,-1.099568486213684,3.9089064598083496,46.14749514067572,45.3567001506977,183.72989543461912,166.13862445193396,-0.0001942634553415,0.0931148082017898,0,0,0
15512,525944.0358796489,2010-09-20 16:03:51,300.15286386557216,7,45,-1.099568486213684,3.900488376617432,46.14749514067572,45.365868671419655,183.72989543461912,166.1744232508612,-0.0001295089750783,0.0931148082017898,0,0,0
15513,525974.0512672542,2010-09-20 16:04:21,330.16825157604944,7,45,-1.099568486213684,3.892232179641724,46.14749514067572,45.3750372517984,183.72989543461912,166.21014539417234,-0.0001942634553415,0.0931148082017898,0,0,0
15514,526004.0662650564,2010-09-20 16:04:51,360.18324929304305,7,45,-1.0997490882873535,3.883975982666016,46.14749514067572,45.384205642705695,183.72989543461912,166.2457922887336,-0.0002266406954731,0.0931148082017898,0,0,0
15515,526034.081550667,2010-09-20 16:05:21,390.1985348936384,7,45,-1.099568486213684,3.876043558120728,46.14749514067572,45.39337342354277,183.72989543461912,166.2813636010099,-0.0001942634553415,0.0931148082017898,0,0,0
15516,526064.0968126336,2010-09-20 16:05:51,420.21379683517705,7,45,-1.0993878841400146,3.8682730197906494,46.14749514067572,45.40254109453468,183.72989543461912,166.31686201760854,-0.0001942634553415,0.0931148082017898,0,0,0
15517,526094.1121254121,2010-09-20 16:06:21,450.22910970885016,7,45,-1.099568486213684,3.8605024814605713,46.14749514067572,45.41170882761114,183.72989543461912,166.35228914029736,-0.0001942634553415,0.0931148082017898,0,0,0
15518,526124.1273724664,2010-09-20 16:06:51,480.2443567882907,7,45,-1.099568486213684,3.853055715560913,46.14749514067572,45.42087657701883,183.72989543461912,166.38764611297282,-0.0001618862152099,0.0931148082017898,0,0,0
15519,526154.1426847286,2010-09-20 16:07:21,510.2596689551997,7,45,-1.099568486213684,3.845285177230835,46.14749514067572,45.43004428004794,183.72989543461912,166.42293414315023,-0.0001942634553415,0.0931148082017898,0,0,0
15520,526184.1580452411,2010-09-20 16:07:51,540.2750294477368,7,45,-1.099568486213684,3.8381621837615967,46.14749514067572,45.439212050898696,183.72989543461912,166.4581545665011,-0.0001942634553415,0.0931148082017898,0,0,0
15521,526214.1731751881,2010-09-20 16:08:21,570.2901593897844,7,45,-1.099568486213684,3.830877542495728,46.14749514067572,45.44837976970462,183.72989543461912,166.49330794898398,-0.0001618862152099,0.0931148082017898,0,0,0
15522,526244.1884475908,2010-09-20 16:08:51,600.3054317924357,7,45,-1.099568486213684,3.8235926628112793,46.14749514067572,45.45754750642792,183.72989543461912,166.52839491155467,-0.0002266406954731,0.0931148082017898,0,0,0
15523,526274.1897857063,2010-09-20 16:09:21,630.3067699330251,7,45,-1.0997490882873535,3.816469669342041,46.14749514067572,45.466710967718,183.72989543461912,166.56340057908326,-0.0002266406954731,0.0931148082017898,0,0,0
15524,526304.202899175,2010-09-20 16:09:51,660.3198831560319,7,45,-1.0997490882873535,3.8095085620880127,46.14749514067572,45.47587805926204,183.72989543461912,166.59835611889878,-0.0001942634553415,0.0931148082017898,0,0,0
15525,526334.2030570194,2010-09-20 16:10:21,690.3200413412711,7,45,-1.0993878841400146,3.8030331134796143,46.14749514067572,45.48504110902683,183.72989543461912,166.63323336378195,-0.0001618862152099,0.0931148082017898,0,0,0
15526,526364.2184029506,2010-09-20 16:10:51,720.3353871521606,7,45,-1.099568486213684,3.796233892440796,46.14749514067572,45.49420884429121,183.72989543461912,166.66806709229374,-0.0001942634553415,0.0931148082017898,0,0,0
15527,526394.2335430781,2010-09-20 16:11:21,750.3505272796326,7,45,-1.0993878841400146,3.7897584438323975,46.14749514067572,45.50337652272957,183.72989543461912,166.70284102734504,-0.0001618862152099,0.0931148082017898,0,0,0
15528,526424.2489538962,2010-09-20 16:11:51,780.3659381078152,7,45,-1.099568486213684,3.783444881439209,46.14749514067572,45.512544326128925,183.72989543461912,166.73755696608623,-0.0002266406954731,0.0931148082017898,0,0,0
15529,526454.2640787355,2010-09-20 16:12:21,810.3810629471258,7,45,-1.099568486213684,3.77745509147644,46.14749514067572,45.52171212022594,183.72989543461912,166.77221509929365,-0.0001295089750783,0.0931148082017898,0,0,0
15530,526484.2794790274,2010-09-20 16:12:51,840.3964632289831,7,45,-1.099568486213684,3.770979642868042,46.14749514067572,45.53087997251448,183.72989543461912,166.8068165041892,-0.0001942634553415,0.0931148082017898,0,0,0
15531,526514.2946251498,2010-09-20 16:13:21,870.411609356432,7,45,-1.0993878841400146,3.7651517391204834,46.14749514067572,45.5400476713141,183.72989543461912,166.84136138192676,-0.0001618862152099,0.0931148082017898,0,0,0
15532,526544.3099134823,2010-09-20 16:13:51,900.4268977088964,7,45,-1.099568486213684,3.759323835372925,46.14749514067572,45.54921543412498,183.72989543461912,166.87585207463798,-0.0001618862152099,0.0931148082017898,0,0,0
15533,526574.3251640153,2010-09-20 16:14:21,930.4421482419576,7,45,-1.099568486213684,3.753495931625366,46.14749514067572,45.55838322476825,183.72989543461912,166.9102893801327,-0.0001618862152099,0.0931148082017898,0,0,0
15534,526604.3404354656,2010-09-20 16:14:51,960.4574196922318,7,45,-1.099568486213684,3.7478301525115967,46.14749514067572,45.567551005080254,183.72989543461912,166.94467412176667,-0.0001295089750783,0.0931148082017898,0,0,0
15535,526634.3557393969,2010-09-20 16:15:21,990.4727237188212,7,45,-1.099568486213684,3.742164134979248,46.14749514067572,45.57671882721864,183.72989543461912,166.97900697196417,-0.0001295089750783,0.0931148082017898,0,0,0
15536,526664.3710216392,2010-09-20 16:15:51,1020.4880058708084,7,45,-1.0993878841400146,3.7368218898773193,46.14749514067572,45.58588661304668,183.72989543461912,167.01328868119978,-0.0001295089750783,0.0931148082017898,0,0,0
15537,526694.3862723476,2010-09-20 16:16:21,1050.5032565793076,7,45,-1.099568486213684,3.7311558723449703,46.14749514067572,45.59505436285617,183.72989543461912,167.04752069747724,-0.0001618862152099,0.0931148082017898,0,0,0
15538,526724.401512991,2010-09-20 16:16:51,1080.5184972226828,7,45,-1.099568486213684,3.726137399673462,46.14749514067572,45.60422207327649,183.72989543461912,167.08170443416446,-0.0001618862152099,0.0931148082017898,0,0,0
15539,526754.4168650876,2010-09-20 16:17:21,1110.533849384425,7,45,-1.099568486213684,3.720957040786743,46.14749514067572,45.61338984893048,183.72989543461912,167.11584117246736,-0.0001618862152099,0.0931148082017898,0,0,0
15540,526784.4322305125,2010-09-20 16:17:51,1140.549214719049,7,45,-1.0993878841400146,3.7159385681152335,46.14749514067572,45.62255752381344,183.72989543461912,167.14993023333315,-0.0001295089750783,0.0931148082017898,0,0,0
15541,526814.4473235073,2010-09-20 16:18:21,1170.5643077138704,7,45,-1.0993878841400146,3.7109200954437256,46.14749514067572,45.63172452708901,183.72989543461912,167.18397043738597,-0.0001295089750783,0.0931148082017898,0,0,0
15542,526844.4626103359,2010-09-20 16:18:51,1200.5795945425311,7,45,-1.099568486213684,3.705901622772217,46.14749514067572,45.6408916324244,183.72989543461912,167.21796560498498,-0.0001295089750783,0.0931148082017898,0,0,0
15543,526874.47788533,2010-09-20 16:19:21,1230.5948695617135,7,45,-1.099929690361023,3.701045036315918,46.14749514067572,45.65005943860034,183.72989543461912,167.2519187167765,-0.0001618862152099,0.0931148082017898,0,0,0
15544,526904.4931808104,2010-09-20 16:19:51,1260.61016504197,7,45,-1.099568486213684,3.696512222290039,46.14749514067572,45.65922721016749,183.72989543461912,167.28582766017325,-9.713172767078504e-05,0.0931148082017898,0,0,0
15545,526934.5084497944,2010-09-20 16:20:21,1290.625434026088,7,45,-1.099568486213684,3.69165563583374,46.14749514067572,45.66839495645257,183.72989543461912,167.3196930174837,-9.713172767078504e-05,0.0931148082017898,0,0,0
15546,526964.5237054604,2010-09-20 16:20:51,1320.6406896618869,7,45,-1.099568486213684,3.687122821807861,46.14749514067572,45.67756282199396,183.72989543461912,167.35351591697798,-9.713172767078504e-05,0.0931148082017898,0,0,0
15547,526994.538945016,2010-09-20 16:21:21,1350.655929247622,7,45,-1.099568486213684,3.682428121566773,46.14749514067572,45.68673068605129,183.72989543461912,167.38729679333656,-0.0001295089750783,0.0931148082017898,0,0,0
15548,527024.5544681244,2010-09-20 16:21:51,1380.6714523310109,7,45,-1.0993878841400146,3.678057193756104,46.14749514067572,45.69589863856876,183.72989543461912,167.421036304926,-6.47544875391759e-05,0.0931148082017898,0,0,0
15549,527054.5695578912,2010-09-20 16:22:21,1410.6865420977747,7,45,-1.0997490882873535,3.6732006072998047,46.14749514067572,45.70506644421442,183.72989543461912,167.45473428434866,-0.0001618862152099,0.0931148082017898,0,0,0
15550,527084.5852198813,2010-09-20 16:22:51,1440.7022041480463,7,45,-1.0997490882873535,3.669153690338135,46.14749514067572,45.714234496346656,183.72989543461912,167.4883933397471,-9.713172767078504e-05,0.0931148082017898,0,0,0
15551,527114.6002055783,2010-09-20 16:23:21,1470.7171897848862,7,45,-1.099568486213684,3.664944648742676,46.14749514067572,45.72340235038882,183.72989543461912,167.5220121056731,-9.713172767078504e-05,0.0931148082017898,0,0,0
15552,527144.6153659313,2010-09-20 16:23:51,1500.732350137844,7,45,-1.099568486213684,3.6608974933624263,46.14749514067572,45.7325701988264,183.72989543461912,167.55559228550396,-9.713172767078504e-05,0.0931148082017898,0,0,0
15553,527174.6306403189,2010-09-20 16:24:21,1530.7476245455002,7,45,-1.099568486213684,3.656526565551758,46.14749514067572,45.74173817489677,183.72989543461912,167.58913480277351,-0.0001295089750783,0.0931148082017898,0,0,0
15554,527204.645889288,2010-09-20 16:24:51,1560.7628734946077,7,45,-1.0997490882873535,3.652641296386719,46.14749514067572,45.750906096547176,183.72989543461912,167.6226400007613,-0.0001295089750783,0.0931148082017898,0,0,0
15555,527234.6611594701,2010-09-20 16:25:21,1590.778143676716,7,45,-1.099568486213684,3.6485941410064697,46.14749514067572,45.76007402413293,183.72989543461912,167.6561084938432,-0.0001295089750783,0.0931148082017898,0,0,0
15556,527264.6764449052,2010-09-20 16:25:51,1620.7934292321988,7,45,-1.099568486213684,3.644708871841431,46.14749514067572,45.769241855976055,183.72989543461912,167.68953989500324,-9.713172767078504e-05,0.0931148082017898,0,0,0
15557,527294.6917092429,2010-09-20 16:26:21,1650.808693449418,7,45,-1.0997490882873535,3.640823602676392,46.14749514067572,45.77840971349186,183.72989543461912,167.72293570084065,-9.713172767078504e-05,0.0931148082017898,0,0,0
15558,527324.707100848,2010-09-20 16:26:51,1680.8240850546172,7,45,-1.0997490882873535,3.636776447296143,46.14749514067572,45.78757765787073,183.72989543461912,167.75629686727322,-0.0001295089750783,0.0931148082017898,0,0,0
15559,527354.722368554,2010-09-20 16:27:21,1710.8393527705696,7,45,-1.099568486213684,3.633376836776733,46.14749514067572,45.79674548512156,183.72989543461912,167.78962334652925,-6.47544875391759e-05,0.0931148082017898,0,0,0
15560,527384.7375442903,2010-09-20 16:27:51,1740.854528516952,7,45,-1.099568486213684,3.629653453826904,46.14749514067572,45.80591329835201,183.72989543461912,167.82291630608063,-9.713172767078504e-05,0.0931148082017898,0,0,0
15561,527414.7527960263,2010-09-20 16:28:21,1770.869780232966,7,45,-1.099568486213684,3.626253843307495,46.14749514067572,45.8150812221804,183.72989543461912,167.85617691637165,-9.713172767078504e-05,0.0931148082017898,0,0,0
15562,527444.7680553714,2010-09-20 16:28:51,1800.8850395780237,7,45,-1.0997490882873535,3.622692346572876,46.14749514067572,45.82424911892782,183.72989543461912,167.88940542124612,-0.0001295089750783,0.0931148082017898,0,0,0
15563,527474.7833309771,2010-09-20 16:29:21,1830.90031518367,7,45,-1.099568486213684,3.619292736053467,46.14749514067572,45.83341700748731,183.72989543461912,167.92260259901812,-9.713172767078504e-05,0.0931148082017898,0,0,0
15564,527504.7986410689,2010-09-20 16:29:51,1860.9156253004617,7,45,-1.099568486213684,3.6158931255340576,46.14749514067572,45.84258496883738,183.72989543461912,167.9557690141749,-0.0001295089750783,0.0931148082017898,0,0,0
15565,527534.8139094765,2010-09-20 16:30:21,1890.9308936830785,7,45,-1.099568486213684,3.6126554012298575,46.14749514067572,45.8517528243953,183.72989543461912,167.98890471947797,-9.713172767078504e-05,0.0931148082017898,0,0,0
15566,527564.8291433429,2010-09-20 16:30:51,1920.946127549537,7,45,-1.099568486213684,3.609417676925659,46.14749514067572,45.86092073319176,183.72989543461912,168.02201099683606,-0.0001295089750783,0.0931148082017898,0,0,0
15567,527594.8445572739,2010-09-20 16:31:21,1950.9615414854773,7,45,-1.0997490882873535,3.60634183883667,46.14749514067572,45.87008867382526,183.72989543461912,168.05508879110388,-9.713172767078504e-05,0.0931148082017898,0,0,0
15568,527624.8598261226,2010-09-20 16:31:51,1980.9768103392696,7,45,-1.099568486213684,3.60342788696289,46.14749514067572,45.8792565431876,183.72989543461912,168.08813773609165,-6.47544875391759e-05,0.0931148082017898,0,0,0
15569,527654.8749795383,2010-09-20 16:32:21,2010.991963744886,7,45,-1.099568486213684,3.6003520488739014,46.14749514067572,45.88842437902901,183.72989543461912,168.12115853721605,-9.713172767078504e-05,0.0931148082017898,0,0,0
15570,527684.8903779153,2010-09-20 16:32:51,2041.0073621320144,7,45,-1.0997490882873535,3.597276210784912,46.14749514067572,45.89759231270804,183.72989543461912,168.15415196232976,-9.713172767078504e-05,0.0931148082017898,0,0,0
15571,527714.9055081983,2010-09-20 16:33:21,2071.0224924048875,7,45,-1.099568486213684,3.594362258911133,46.14749514067572,45.90676024865185,183.72989543461912,168.18711783106596,-6.47544875391759e-05,0.0931148082017898,0,0,0
15572,527744.9207877638,2010-09-20 16:33:51,2101.037772065656,7,45,-1.099568486213684,3.5911247730255127,46.14749514067572,45.9159281808643,183.72989543461912,168.22005642985542,-9.713172767078504e-05,0.0931148082017898,0,0,0
15573,527774.9360479108,2010-09-20 16:34:21,2131.053032117478,7,45,-1.099568486213684,3.5882108211517334,46.14749514067572,45.9250961542881,183.72989543461912,168.25296735988357,-9.713172767078504e-05,0.0931148082017898,0,0,0
15574,527804.9513364388,2010-09-20 16:34:51,2161.0683206704425,7,45,-1.099568486213684,3.585296869277954,46.14749514067572,45.93426415197708,183.72989543461912,168.28585097565843,-6.47544875391759e-05,0.0931148082017898,0,0,0
15575,527834.966593067,2010-09-20 16:35:21,2191.0835772736564,7,45,-1.0997490882873535,3.582382917404175,46.14749514067572,45.94343206438029,183.72989543461912,168.31870708669655,-6.47544875391759e-05,0.0931148082017898,0,0,0
15576,527864.9818869584,2010-09-20 16:35:51,2221.0988711649466,7,45,-1.099568486213684,3.579307079315185,46.14749514067572,45.95259995508782,183.72989543461912,168.35153582892622,-6.47544875391759e-05,0.0931148082017898,0,0,0
15577,527894.9972178119,2010-09-20 16:36:21,2251.114202113738,7,45,-1.0997490882873535,3.5762312412261963,46.14749514067572,45.96176801091088,183.72989543461912,168.38433747890963,-9.713172767078504e-05,0.0931148082017898,0,0,0
15578,527925.0124082249,2010-09-20 16:36:52,2281.1293924314923,7,45,-1.0997490882873535,3.573155403137207,46.14749514067572,45.97093597895861,183.72989543461912,168.41711118479418,-9.713172767078504e-05,0.0931148082017898,0,0,0
15579,527955.0276898706,2010-09-20 16:37:22,2311.144674077216,7,45,-1.0997490882873535,3.570241451263428,46.14749514067572,45.98010386167691,183.72989543461912,168.44985722342415,-9.713172767078504e-05,0.0931148082017898,0,0,0
15580,527985.0455829197,2010-09-20 16:37:52,2341.1625672467044,7,45,-1.099568486213684,3.5671656131744385,46.14749514067572,45.98927257365214,183.72989543461912,168.48257803099543,-9.713172767078504e-05,0.0931148082017898,0,0,0
15581,528015.0582586057,2010-09-20 16:38:22,2371.175242812251,7,45,-1.099568486213684,3.564089775085449,46.14749514067572,45.99843966759544,183.72989543461912,168.5152646709668,-9.713172767078504e-05,0.0931148082017898,0,0,0
15582,528045.0735013643,2010-09-20 16:38:52,2401.190485570906,7,45,-1.099568486213684,3.56101393699646,46.14749514067572,46.00760747225215,183.72989543461912,168.54792578185018,-6.47544875391759e-05,0.0931148082017898,0,0,0
15583,528075.0888933655,2010-09-20 16:39:22,2431.2058775871305,7,45,-1.099568486213684,3.5579380989074707,46.14749514067572,46.01677538004146,183.72989543461912,168.58055846366966,-6.47544875391759e-05,0.0931148082017898,0,0,0
15584,528105.1041803495,2010-09-20 16:39:52,2461.221164556142,7,45,-1.0993878841400146,3.554538488388061,46.14749514067572,46.025943283374765,183.72989543461912,168.61316086742133,-9.713172767078504e-05,0.0931148082017898,0,0,0
15585,528135.1193142866,2010-09-20 16:40:22,2491.236298493162,7,45,-1.099568486213684,3.5509769916534424,46.14749514067572,46.03511116919828,183.72989543461912,168.64573216277716,-0.0001295089750783,0.0931148082017898,0,0,0
15586,528165.1345955012,2010-09-20 16:40:52,2521.251579707809,7,45,-1.099568486213684,3.547577381134033,46.14749514067572,46.04427909246648,183.72989543461912,168.67827238928385,-6.47544875391759e-05,0.0931148082017898,0,0,0
15587,528195.1499819485,2010-09-20 16:41:22,2551.2669662503718,7,45,-1.099568486213684,3.544177770614624,46.14749514067572,46.05344708660378,183.72989543461912,168.71078076002442,-6.47544875391759e-05,0.0931148082017898,0,0,0
15588,528225.1651802261,2010-09-20 16:41:52,2581.282164452807,7,45,-1.099568486213684,3.540454387664795,46.14749514067572,46.06261497858686,183.72989543461912,168.74325582153602,-6.47544875391759e-05,0.0931148082017898,0,0,0
15589,528255.1805384932,2010-09-20 16:42:22,2611.297522729814,7,45,-1.0997490882873535,3.536569118499756,46.14749514067572,46.07178300632267,183.72989543461912,168.77569714289524,-9.713172767078504e-05,0.0931148082017898,0,0,0
15590,528285.1958096327,2010-09-20 16:42:52,2641.312793839237,7,45,-1.0997490882873535,3.532683849334717,46.14749514067572,46.08095097800324,183.72989543461912,168.8081027505165,-9.713172767078504e-05,0.0931148082017898,0,0,0
15591,528315.2110647422,2010-09-20 16:43:22,2671.328048978797,7,45,-1.0997490882873535,3.528474807739258,46.14749514067572,46.09011957029392,183.72989543461912,168.8404732619083,-0.0001295089750783,0.0931148082017898,0,0,0
15592,528345.226269917,2010-09-20 16:43:52,2701.34325423885,7,45,-1.0997490882873535,3.524265766143799,46.14749514067572,46.09928834243233,183.72989543461912,168.87280618203937,-0.0001295089750783,0.0931148082017898,0,0,0
15593,528375.2415086856,2010-09-20 16:44:22,2731.358492892258,7,45,-1.099568486213684,3.51989483833313,46.14749514067572,46.1084564043862,183.72989543461912,168.90509678193072,-0.0001295089750783,0.0931148082017898,0,0,0
15594,528405.256786141,2010-09-20 16:44:52,2761.3737703475213,7,45,-1.0997490882873535,3.515200138092041,46.14749514067572,46.11762446396723,183.72989543461912,168.9373455273428,-9.713172767078504e-05,0.0931148082017898,0,0,0
15595,528435.2720889044,2010-09-20 16:45:22,2791.3890732262457,7,45,-1.099568486213684,3.5101819038391118,46.14749514067572,46.12679242718462,183.72989543461912,168.96954953991406,-9.713172767078504e-05,0.0931148082017898,0,0,0
15596,528465.2873546553,2010-09-20 16:45:52,2821.4043388620057,7,45,-1.0997490882873535,3.5046777725219727,46.14749514067572,46.13596041489589,183.72989543461912,169.00170609338048,-0.0001618862152099,0.0931148082017898,0,0,0
15597,528495.302594597,2010-09-20 16:46:22,2851.419578803629,7,45,-1.0997490882873535,3.499011754989624,46.14749514067572,46.14512843253624,183.72989543461912,169.0338115403833,-0.0001618862152099,0.0931148082017898,0,0,0
15598,528525.31785914,2010-09-20 16:46:52,2881.4348433466616,7,45,-1.099568486213684,3.4925363063812256,46.14749514067572,46.15429641808255,183.72989543461912,169.0658609418922,-0.0001618862152099,0.0931148082017898,0,0,0
15599,528555.3331241793,2010-09-20 16:47:22,2911.4501083859327,7,45,-1.0997490882873535,3.4854133129119877,46.14749514067572,46.163464422373984,183.72989543461912,169.09784901145596,-0.0002266406954731,0.0931148082017898,0,0,0
15600,528585.3483462764,2010-09-20 16:47:52,2941.465330483013,7,45,-1.099568486213684,3.477480888366699,46.14749514067572,46.17263234063727,183.72989543461912,169.12976828815914,-0.0002590179501567,0.0931148082017898,0,0,0
15601,528615.36364312,2010-09-20 16:48:22,2971.4806273266727,7,45,-1.0993878841400146,3.4689009189605717,46.14749514067572,46.18180033640769,183.72989543461912,169.16161103700944,-0.0002266406954731,0.0931148082017898,0,0,0
15602,528645.3789151068,2010-09-20 16:48:52,3001.495899313286,7,45,-1.099568486213684,3.458702087402344,46.14749514067572,46.19096834657762,183.72989543461912,169.19336726082892,-0.0002590179501567,0.0931148082017898,0,0,0
15603,528675.3943751176,2010-09-20 16:49:22,3031.511359334261,7,45,-1.099568486213684,3.4468843936920166,46.14749514067572,46.20013637690265,183.72989543461912,169.22502375273686,-0.0003237724304199,0.0931148082017898,0,0,0
15604,528705.4095129895,2010-09-20 16:49:52,3061.52649718104,7,45,-1.099568486213684,3.43296217918396,46.14749514067572,46.20930431596093,183.72989543461912,169.25656239073882,-0.0003885269106831,0.0931148082017898,0,0,0
15605,528735.4248887352,2010-09-20 16:50:22,3091.5418730369265,7,45,-1.099929690361023,3.4153168201446533,46.14749514067572,46.21847236666368,183.72989543461912,169.28795876451358,-0.0005180359003134,0.0931148082017898,0,0,0
15606,528765.4400321357,2010-09-20 16:50:52,3121.557016347344,7,45,-1.099568486213684,3.3931384086608887,46.14749514067572,46.22764035859685,183.72989543461912,169.31917336238138,-0.0006151676061563,0.0931148082017898,0,0,0
15607,528795.4553033203,2010-09-20 16:51:22,3151.5722875269425,7,45,-1.0997490882873535,3.362541913986206,46.14749514067572,46.23680839599143,183.72989543461912,169.35014932748263,-0.0009713172912597,0.0931148082017898,0,0,0
15608,528825.4705898983,2010-09-20 16:51:52,3181.587574104977,7,45,-1.099568486213684,3.3198041915893555,46.14749514067572,46.24597637099127,183.72989543461912,169.38079357848568,-0.0013274669181555,0.0931148082017898,0,0,0
15609,528855.4860010624,2010-09-20 16:52:22,3211.602985279023,7,45,-1.0997490882873535,3.257963895797729,46.14749514067572,46.255144410248256,183.72989543461912,169.4109634229339,-0.0019102573860436,0.0931148082017898,0,0,0
15610,528885.5011149243,2010-09-20 16:52:52,3241.61809915597,7,45,-1.0997490882873535,3.1669840812683105,46.14749514067572,46.2643122952685,183.72989543461912,169.44044430067962,-0.0029139518737792,0.0931148082017898,0,0,0
15611,528915.5163784347,2010-09-20 16:53:22,3271.6333626413625,7,45,-1.099568486213684,3.0178873538970947,46.14749514067572,46.27348029650095,183.72989543461912,169.46886626807463,-0.0053098201751708,0.0931148082017898,0,0,0
15612,528934.7818348078,2010-09-20 16:53:41,3290.898819034436,7,45,-1.0993878841400146,2.8174726963043213,46.14749514067572,46.2793648257109,183.72989543461912,169.4861121452266,-0.0110729690641164,0.0931148082017898,0,0,0
15613,528942.1410672943,2010-09-20 16:53:49,3298.2580515008626,7,45,-1.099568486213684,2.699781894683838,46.14749514067572,46.281612637373065,183.72989543461912,169.49231641172096,-0.0131774898618459,0.0931148082017898,0,0,0
15614,529002.1344141472,2010-09-20 16:54:49,60.0149293216529,8,45,0.0,3.3988044261932373,46.14749514067572,46.281612637373065,183.72989543461912,169.49231641172096,0.0013922214275225,0.0931148082017898,0,0,0
15615,529002.3011390006,2010-09-20 16:54:49,0.187635958218785,9,45,-1.9243103452026844e-05,3.399128198623657,46.14749514067572,46.28161263837604,183.72989543461912,169.4923164151302,0.0,0.0898760333657264,0,0,0
15616,529007.1291723796,2010-09-20 16:54:54,5.01566932226982,9,45,0.0001613661734154,3.407870054244995,46.147495944599726,46.281612638459,183.7298981713172,169.4923164154122,0.0012950897216796,0.0898760333657264,0,0,0
