Data_Point,Test_Time(s),Date_Time,Step_Time(s),Step_Index,Cycle_Index,Current(A),Voltage(V),Charge_Capacity(Ah),Discharge_Capacity(Ah),Charge_Energy(Wh),Discharge_Energy(Wh),dV/dt(V/s),Internal_Resistance(Ohm),Is_FC_Data,AC_Impedance(Ohm),ACI_Phase_Angle(Deg)
16296,552392.4393961359,2010-09-20 23:24:42,30.015184082189776,1,48,0.0,3.405279874801636,48.1580973084051,48.302216014975485,191.7520010141292,176.88185446039626,0.0008741855854168,0.0897949114441871,0,0,0
16297,552422.4547069643,2010-09-20 23:25:12,60.03049491075801,1,48,0.0,3.431181669235229,48.1580973084051,48.302216014975485,191.7520010141292,176.88185446039626,0.0006475448608398,0.0897949114441871,0,0,0
16298,552452.4701585042,2010-09-20 23:25:42,90.04594654580086,1,48,0.0,3.450284004211426,48.1580973084051,48.302216014975485,191.7520010141292,176.88185446039626,0.0004209041653666,0.0897949114441871,0,0,0
16299,552482.4385028522,2010-09-20 23:26:12,120.01429079857029,1,48,0.0,3.465663194656372,48.1580973084051,48.302216014975485,191.7520010141292,176.88185446039626,0.0004209041653666,0.0897949114441871,0,0,0
16300,552512.4320572339,2010-09-20 23:26:42,30.01532345508596,2,48,0.5501165986061096,3.604237318038941,48.16268407716144,48.302216014975485,191.7683853243317,176.88185446039626,0.0014569759368896,0.0897949114441871,0,0,0
16301,552542.4474032604,2010-09-20 23:27:12,60.03066941133831,2,48,0.550297200679779,3.6474609375,48.16727099909417,48.302216014975485,191.78502278638413,176.88185446039626,0.0009713172912597,0.0897949114441871,0,0,0
16302,552572.4626945101,2010-09-20 23:27:42,90.0459606359721,2,48,0.5501165986061096,3.6790285110473633,48.171857813765975,48.302216014975485,191.80182851924343,176.88185446039626,0.0007446765666827,0.0897949114441871,0,0,0
16303,552602.4781494885,2010-09-20 23:28:12,120.06141561436048,2,48,0.550297200679779,3.7037971019744873,48.17644458825464,48.302216014975485,191.8187622818742,176.88185446039626,0.0005827903514727,0.0897949114441871,0,0,0
16304,552632.4933396108,2010-09-20 23:28:42,150.0766057366272,2,48,0.5501165986061096,3.724032878875733,48.1810312906193,48.302216014975485,191.8357986832808,176.88185446039626,0.0004856586456298,0.0897949114441871,0,0,0
16305,552662.5086756372,2010-09-20 23:29:12,180.09194176309325,2,48,0.5501165986061096,3.7403833866119385,48.18561806392885,48.302216014975485,191.85291886737244,176.88185446039626,0.0004209041653666,0.0897949114441871,0,0,0
16306,552692.5239942052,2010-09-20 23:29:42,210.10726033098004,2,48,0.5501165986061096,3.752362966537476,48.19020480803284,48.302216014975485,191.8701042024752,176.88185446039626,0.0002590179501567,0.0897949114441871,0,0,0
16307,552722.5393250937,2010-09-20 23:30:12,240.12259121962128,2,48,0.550297200679779,3.7596476078033447,48.19479156754596,48.302216014975485,191.88733330356848,176.88185446039626,0.0001942634553415,0.0897949114441871,0,0,0
16308,552752.5547544281,2010-09-20 23:30:42,270.13802057404826,2,48,0.5501165986061096,3.763856649398804,48.19937827802418,48.302216014975485,191.90458765269383,176.88185446039626,9.713172767078504e-05,0.0897949114441871,0,0,0
16309,552782.5701044395,2010-09-20 23:31:12,300.1533705753978,2,48,0.5499359965324402,3.767256259918213,48.203965079090814,48.302216014975485,191.92185988244864,176.88185446039626,6.47544875391759e-05,0.0897949114441871,0,0,0
16310,552812.5852872535,2010-09-20 23:31:42,330.168553379397,2,48,0.5501165986061096,3.770493984222412,48.20855181088715,48.302216014975485,191.93914707747544,176.88185446039626,9.713172767078504e-05,0.0897949114441871,0,0,0
16311,552842.6007359162,2010-09-20 23:32:12,360.1840020520453,2,48,0.5499359965324402,3.7737317085266113,48.21313855413237,48.302216014975485,191.95644898137093,176.88185446039626,9.713172767078504e-05,0.0897949114441871,0,0,0
16312,552872.6160583937,2010-09-20 23:32:42,390.1993245196664,2,48,0.5501165986061096,3.7769694328308105,48.21772530602647,48.302216014975485,191.97376561061537,176.88185446039626,6.47544875391759e-05,0.0897949114441871,0,0,0
16313,552902.6312811325,2010-09-20 23:33:12,420.2145472583487,2,48,0.5501165986061096,3.7800452709198,48.22231199626376,48.302216014975485,191.9910964785792,176.88185446039626,6.47544875391759e-05,0.0897949114441871,0,0,0
16314,552932.6466287028,2010-09-20 23:33:42,450.22989482862994,2,48,0.5501165986061096,3.783121109008789,48.226898703931056,48.302216014975485,192.0084416553166,176.88185446039626,6.47544875391759e-05,0.0897949114441871,0,0,0
16315,552962.6623615547,2010-09-20 23:34:12,480.2456276906586,2,48,0.5501165986061096,3.786358833312988,48.23148546225218,48.302216014975485,192.02580112107017,176.88185446039626,0.0001295089750783,0.0897949114441871,0,0,0
16316,552992.677238796,2010-09-20 23:34:42,510.2605049219012,2,48,0.550297200679779,3.789272785186768,48.23607214670859,48.302216014975485,192.0431743037516,176.88185446039626,0.0001295089750783,0.0897949114441871,0,0,0
16317,553022.692583825,2010-09-20 23:35:12,540.2758499458264,2,48,0.5501165986061096,3.792348623275757,48.2406588740434,48.302216014975485,192.06056143789007,176.88185446039626,9.713172767078504e-05,0.0897949114441871,0,0,0
16318,553052.7078815257,2010-09-20 23:35:42,570.2911476516381,2,48,0.5501165986061096,3.795100688934326,48.24524556208716,48.302216014975485,192.077962044932,176.88185446039626,6.47544875391759e-05,0.0897949114441871,0,0,0
16319,553082.7232042139,2010-09-20 23:36:12,600.3064703398097,2,48,0.5501165986061096,3.7980146408081055,48.249832284464006,48.302216014975485,192.0953763617437,176.88185446039626,6.47544875391759e-05,0.0897949114441871,0,0,0
16320,553112.73853613,2010-09-20 23:36:42,630.321802256016,2,48,0.5501165986061096,3.8012523651123047,48.25441901210266,48.302216014975485,192.1128043121852,176.88185446039626,9.713172767078504e-05,0.0897949114441871,0,0,0
16321,553142.7538669487,2010-09-20 23:37:12,660.337133074482,2,48,0.550297200679779,3.804166316986084,48.25900577634851,48.302216014975485,192.1302459899485,176.88185446039626,9.713172767078504e-05,0.0897949114441871,0,0,0
16322,553172.7691915666,2010-09-20 23:37:42,690.3524576924709,2,48,0.550297200679779,3.8070802688598633,48.263592591492845,48.302216014975485,192.1477016340164,176.88185446039626,6.47544875391759e-05,0.0897949114441871,0,0,0
16323,553202.7846255325,2010-09-20 23:38:12,720.3678916684339,2,48,0.5501165986061096,3.8103179931640634,48.26817941127729,48.302216014975485,192.16517147160772,176.88185446039626,9.713172767078504e-05,0.0897949114441871,0,0,0
16324,553232.7998215696,2010-09-20 23:38:42,750.3830876854147,2,48,0.5499359965324402,3.813231945037842,48.27276617446682,48.302216014975485,192.1826556388509,176.88185446039626,0.0,0.0897949114441871,0,0,0
16325,553262.8152874652,2010-09-20 23:39:12,780.3985535910793,2,48,0.550297200679779,3.817117214202881,48.27735293950773,48.302216014975485,192.2001550680707,176.88185446039626,0.0001295089750783,0.0897949114441871,0,0,0
16326,553292.8304755123,2010-09-20 23:39:42,810.4137416431784,2,48,0.5501165986061096,3.82035493850708,48.28193966268542,48.302216014975485,192.21766970622625,176.88185446039626,0.0001295089750783,0.0897949114441871,0,0,0
16327,553322.8458050977,2010-09-20 23:40:12,840.4290712235543,2,48,0.5501165986061096,3.823754549026489,48.28652639311871,48.302216014975485,192.2352001330309,176.88185446039626,9.713172767078504e-05,0.0897949114441871,0,0,0
16328,553352.8611190842,2010-09-20 23:40:42,870.444385210005,2,48,0.5501165986061096,3.827316045761109,48.291113145766985,48.302216014975485,192.25274660465664,176.88185446039626,0.0001295089750783,0.0897949114441871,0,0,0
16329,553382.8764393062,2010-09-20 23:41:12,900.4597054320207,2,48,0.550297200679779,3.8307156562805176,48.29569984345048,48.302216014975485,192.27030875187947,176.88185446039626,0.0001295089750783,0.0897949114441871,0,0,0
16330,553412.891760255,2010-09-20 23:41:42,930.4750263808507,2,48,0.5501165986061096,3.8339531421661377,48.30028660156603,48.302216014975485,192.2878867759736,176.88185446039626,6.47544875391759e-05,0.0897949114441871,0,0,0
16331,553442.9070683918,2010-09-20 23:42:12,960.4903345176998,2,48,0.5499359965324402,3.837352752685547,48.30487330276826,48.302216014975485,192.3054801495621,176.88185446039626,6.47544875391759e-05,0.0897949114441871,0,0,0
16332,553472.9225673951,2010-09-20 23:42:42,990.5058335259938,2,48,0.550297200679779,3.840752363204956,48.30946001013957,48.302216014975485,192.32308887522765,176.88185446039626,9.713172767078504e-05,0.0897949114441871,0,0,0
16333,553502.9379373612,2010-09-20 23:43:12,1020.5212034971912,2,48,0.5501165986061096,3.843828201293945,48.31404674742015,48.302216014975485,192.3407126753821,176.88185446039626,6.47544875391759e-05,0.0897949114441871,0,0,0
16334,553532.9531037693,2010-09-20 23:43:42,1050.5363698952383,2,48,0.5499359965324402,3.8472278118133545,48.31863333412214,48.302216014975485,192.3583505408731,176.88185446039626,6.47544875391759e-05,0.0897949114441871,0,0,0
16335,553562.968415851,2010-09-20 23:44:12,1080.5516819769346,2,48,0.5501165986061096,3.850303649902344,48.3232199926082,48.302216014975485,192.3760030270915,176.88185446039626,9.713172767078504e-05,0.0897949114441871,0,0,0
16336,553592.9837564038,2010-09-20 23:44:42,1110.5670225547617,2,48,0.5501165986061096,3.853217601776123,48.3278067176845,48.302216014975485,192.3936697506516,176.88185446039626,6.47544875391759e-05,0.0897949114441871,0,0,0
16337,553622.9990749767,2010-09-20 23:45:12,1140.5823411025983,2,48,0.5501165986061096,3.855969667434693,48.332393379898434,48.302216014975485,192.411349693302,176.88185446039626,3.237724376958795e-05,0.0897949114441871,0,0,0
16338,553653.0143964419,2010-09-20 23:45:42,1170.597662567717,2,48,0.550297200679779,3.858883619308472,48.33698014566521,48.302216014975485,192.42904316124256,176.88185446039626,6.47544875391759e-05,0.0897949114441871,0,0,0
16339,553683.0297117666,2010-09-20 23:46:12,1200.6129779877465,2,48,0.5501165986061096,3.861635684967041,48.34156694037319,48.302216014975485,192.4467491884349,176.88185446039626,9.713172767078504e-05,0.0897949114441871,0,0,0
16340,553713.045036119,2010-09-20 23:46:42,1230.6283022448342,2,48,0.550297200679779,3.8640639781951904,48.346153674145576,48.302216014975485,192.46446678278093,176.88185446039626,9.713172767078504e-05,0.0897949114441871,0,0,0
16341,553743.0606405153,2010-09-20 23:47:12,1260.6439066411926,2,48,0.5501165986061096,3.86649227142334,48.35074041532806,48.302216014975485,192.48219551634332,176.88185446039626,9.713172767078504e-05,0.0897949114441871,0,0,0
16342,553773.0756997007,2010-09-20 23:47:42,1290.6589658266207,2,48,0.5499359965324402,3.8684349060058594,48.35532717876709,48.302216014975485,192.49993489358937,176.88185446039626,3.237724376958795e-05,0.0897949114441871,0,0,0
16343,553803.0910363087,2010-09-20 23:48:13,1320.6743025448138,2,48,0.550297200679779,3.870701313018799,48.35991394853858,48.302216014975485,192.51768406353807,176.88185446039626,6.47544875391759e-05,0.0897949114441871,0,0,0
16344,553833.1063340997,2010-09-20 23:48:43,1350.689600225563,2,48,0.5499359965324402,3.872482061386109,48.36450069426546,48.302216014975485,192.53544232363032,176.88185446039626,6.47544875391759e-05,0.0897949114441871,0,0,0
16345,553863.1242595147,2010-09-20 23:49:13,1380.707525735779,2,48,0.5501165986061096,3.874262809753418,48.369087869476026,48.302216014975485,192.5532107435002,176.88185446039626,3.237724376958795e-05,0.0897949114441871,0,0,0
16346,553893.1371322623,2010-09-20 23:49:43,1410.7203985135975,2,48,0.5501165986061096,3.876043558120728,48.37367420473086,48.302216014975485,192.5709837559655,176.88185446039626,0.0,0.0897949114441871,0,0,0
16347,553923.1523317932,2010-09-20 23:50:13,1440.735598014274,2,48,0.550297200679779,3.877662420272827,48.37826096571548,48.302216014975485,192.5887657450623,176.88185446039626,6.47544875391759e-05,0.0897949114441871,0,0,0
16348,553953.1676344513,2010-09-20 23:50:43,1470.75090057721,2,48,0.550297200679779,3.879119396209717,48.38284775082161,48.302216014975485,192.60655475586373,176.88185446039626,6.47544875391759e-05,0.0897949114441871,0,0,0
16349,553983.1831995997,2010-09-20 23:51:13,1500.7664657356247,2,48,0.5501165986061096,3.880414485931397,48.387434602820285,48.302216014975485,192.62435039002008,176.88185446039626,6.47544875391759e-05,0.0897949114441871,0,0,0
16350,554013.198301236,2010-09-20 23:51:43,1530.781567392067,2,48,0.550297200679779,3.881547689437866,48.39202138086063,48.302216014975485,192.6421518760027,176.88185446039626,0.0,0.0897949114441871,0,0,0
16351,554043.2137484852,2010-09-20 23:52:13,1560.7970146110868,2,48,0.5499359965324402,3.882842779159546,48.39660822275851,48.302216014975485,192.6599594433318,176.88185446039626,0.0,0.0897949114441871,0,0,0
16352,554073.2290804365,2010-09-20 23:52:43,1590.8123465874432,2,48,0.5501165986061096,3.8841378688812256,48.40119510554232,48.302216014975485,192.6777729000239,176.88185446039626,0.0,0.0897949114441871,0,0,0
16353,554103.2442726189,2010-09-20 23:53:13,1620.82753876484,2,48,0.550297200679779,3.885432958602905,48.40578195135096,48.302216014975485,192.69559159610372,176.88185446039626,3.237724376958795e-05,0.0897949114441871,0,0,0
16354,554133.2597143743,2010-09-20 23:53:43,1650.842980505184,2,48,0.5501165986061096,3.886404275894165,48.41036881164474,48.302216014975485,192.7134158481826,176.88185446039626,0.0,0.0897949114441871,0,0,0
16355,554163.2751151473,2010-09-20 23:54:13,1680.8583813735054,2,48,0.5499359965324402,3.8876993656158447,48.41495568393894,48.302216014975485,192.7312454926484,176.88185446039626,6.47544875391759e-05,0.0897949114441871,0,0,0
16356,554193.2903569737,2010-09-20 23:54:43,1710.8736231045957,2,48,0.5501165986061096,3.8888325691223145,48.419542520478096,48.302216014975485,192.74908036560825,176.88185446039626,3.237724376958795e-05,0.0897949114441871,0,0,0
16357,554223.3057564485,2010-09-20 23:55:13,1740.8890225694138,2,48,0.5501165986061096,3.890127658843994,48.42412938274936,48.302216014975485,192.76692066685249,176.88185446039626,3.237724376958795e-05,0.0897949114441871,0,0,0
16358,554253.3208841349,2010-09-20 23:55:43,1770.9041502558307,2,48,0.5501165986061096,3.891260862350464,48.42871619385013,48.302216014975485,192.7847660427675,176.88185446039626,6.47544875391759e-05,0.0897949114441871,0,0,0
16359,554283.3362096802,2010-09-20 23:56:13,1800.9194758061467,2,48,0.550297200679779,3.8923940658569336,48.43330304007885,48.302216014975485,192.80261689371977,176.88185446039626,3.237724376958795e-05,0.0897949114441871,0,0,0
16360,554313.351532604,2010-09-20 23:56:43,1830.9347987549693,2,48,0.5501165986061096,3.8935272693634033,48.43788989765056,48.302216014975485,192.8204731296772,176.88185446039626,3.237724376958795e-05,0.0897949114441871,0,0,0
16361,554343.366875643,2010-09-20 23:57:13,1860.950141778902,2,48,0.5501165986061096,3.894660472869873,48.44247684167582,48.302216014975485,192.83833514634105,176.88185446039626,0.0,0.0897949114441871,0,0,0
16362,554373.38219188,2010-09-20 23:57:43,1890.965458000933,2,48,0.550297200679779,3.895793676376343,48.44706362968295,48.302216014975485,192.85620132858296,176.88185446039626,6.47544875391759e-05,0.0897949114441871,0,0,0
16363,554403.3975121122,2010-09-20 23:58:13,1920.9807782379864,2,48,0.550297200679779,3.8970887660980233,48.45165033668858,48.302216014975485,192.87407275616232,176.88185446039626,6.47544875391759e-05,0.0897949114441871,0,0,0
16364,554433.4128556272,2010-09-20 23:58:43,1950.996121778208,2,48,0.5501165986061096,3.898221969604492,48.456237108071726,48.302216014975485,192.89194988941097,176.88185446039626,6.47544875391759e-05,0.0897949114441871,0,0,0
16365,554463.4281730423,2010-09-20 23:59:13,1981.011439163142,2,48,0.5499359965324402,3.899355173110962,48.46082388166841,48.302216014975485,192.9098325513795,176.88185446039626,0.0,0.0897949114441871,0,0,0
16366,554493.4435687627,2010-09-20 23:59:43,2011.0268348836128,2,48,0.5501165986061096,3.9006502628326416,48.465410670496325,48.302216014975485,192.9277207781272,176.88185446039626,3.237724376958795e-05,0.0897949114441871,0,0,0
16367,554523.458945175,2010-09-21 00:00:13,2041.0422112958888,2,48,0.5501165986061096,3.9017834663391113,48.46999751393573,48.302216014975485,192.9456148260668,176.88185446039626,3.237724376958795e-05,0.0897949114441871,0,0,0
16368,554553.4741373323,2010-09-21 00:00:43,2071.057403453235,2,48,0.5501165986061096,3.903078556060791,48.4745842415168,48.302216014975485,192.96351401461564,176.88185446039626,6.47544875391759e-05,0.0897949114441871,0,0,0
16369,554583.4894747724,2010-09-21 00:01:13,2101.072740898242,2,48,0.5501165986061096,3.9042117595672607,48.479170957234174,48.302216014975485,192.98141882616795,176.88185446039626,0.0,0.0897949114441871,0,0,0
16370,554613.5047920771,2010-09-21 00:01:43,2131.088058197964,2,48,0.550297200679779,3.905506849288941,48.48375778219575,48.302216014975485,192.9993298040497,176.88185446039626,3.237724376958795e-05,0.0897949114441871,0,0,0
16371,554643.5201396524,2010-09-21 00:02:13,2161.10340579832,2,48,0.5499359965324402,3.90680193901062,48.48834450698353,48.302216014975485,193.01724605216444,176.88185446039626,3.237724376958795e-05,0.0897949114441871,0,0,0
16372,554673.535445313,2010-09-21 00:02:43,2191.118711433925,2,48,0.550297200679779,3.9080970287323,48.49293129229664,48.302216014975485,193.0351684237829,176.88185446039626,3.237724376958795e-05,0.0897949114441871,0,0,0
16373,554703.5509111836,2010-09-21 00:03:13,2221.1341773045024,2,48,0.5501165986061096,3.9092302322387695,48.49751808401816,48.302216014975485,193.05309669419592,176.88185446039626,3.237724376958795e-05,0.0897949114441871,0,0,0
16374,554733.566106148,2010-09-21 00:03:43,2251.149372268856,2,48,0.5501165986061096,3.910525321960449,48.50210489669854,48.302216014975485,193.0710310241379,176.88185446039626,-3.237724376958795e-05,0.0897949114441871,0,0,0
16375,554763.5814193124,2010-09-21 00:04:13,2281.16468546333,2,48,0.5501165986061096,3.911982297897339,48.50669171150672,48.302216014975485,193.08897133487213,176.88185446039626,3.237724376958795e-05,0.0897949114441871,0,0,0
16376,554793.5967244016,2010-09-21 00:04:43,2311.1799905275093,2,48,0.5501165986061096,3.9132773876190186,48.51127848689658,48.302216014975485,193.1069176567207,176.88185446039626,3.237724376958795e-05,0.0897949114441871,0,0,0
16377,554823.6122682468,2010-09-21 00:05:13,2341.1955343727227,2,48,0.5501165986061096,3.914572238922119,48.51586530380426,48.302216014975485,193.12487028607043,176.88185446039626,3.237724376958795e-05,0.0897949114441871,0,0,0
16378,554853.6274478328,2010-09-21 00:05:43,2371.2107139787395,2,48,0.550297200679779,3.915867328643799,48.52045216466535,48.302216014975485,193.1428291352583,176.88185446039626,0.0,0.0897949114441871,0,0,0
16379,554883.6431525295,2010-09-21 00:06:13,2401.226418665438,2,48,0.550297200679779,3.9174861907958975,48.52503901874632,48.302216014975485,193.16079419366253,176.88185446039626,6.47544875391759e-05,0.0897949114441871,0,0,0
16380,554913.6581023671,2010-09-21 00:06:43,2431.241368492892,2,48,0.5501165986061096,3.918781280517578,48.52962575107965,48.302216014975485,193.17876508892937,176.88185446039626,6.47544875391759e-05,0.0897949114441871,0,0,0
16381,554943.6734170101,2010-09-21 00:07:13,2461.256683135982,2,48,0.5501165986061096,3.920238256454468,48.53421258282327,48.302216014975485,193.19674275301372,176.88185446039626,6.47544875391759e-05,0.0897949114441871,0,0,0
16382,554973.6887274627,2010-09-21 00:07:43,2491.271993588612,2,48,0.5499359965324402,3.9213714599609375,48.53879943350288,48.302216014975485,193.2147268469882,176.88185446039626,3.237724376958795e-05,0.0897949114441871,0,0,0
16383,555003.7040560656,2010-09-21 00:08:13,2521.287322191547,2,48,0.5501165986061096,3.922828435897827,48.54338623317127,48.302216014975485,193.232717228142,176.88185446039626,3.237724376958795e-05,0.0897949114441871,0,0,0
16384,555033.7194073702,2010-09-21 00:08:43,2551.30267361645,2,48,0.550297200679779,3.924447298049927,48.54797303733541,48.302216014975485,193.25071411898796,176.88185446039626,9.713172767078504e-05,0.0897949114441871,0,0,0
16385,555063.7347959329,2010-09-21 00:09:13,2581.3180620888293,2,48,0.550297200679779,3.925904273986816,48.55255982106966,48.302216014975485,193.2687175481134,176.88185446039626,3.237724376958795e-05,0.0897949114441871,0,0,0
16386,555093.7500363657,2010-09-21 00:09:43,2611.3333025166667,2,48,0.5501165986061096,3.927199363708496,48.55714660394287,48.302216014975485,193.2867274635026,176.88185446039626,3.237724376958795e-05,0.0897949114441871,0,0,0
16387,555123.7654936599,2010-09-21 00:10:13,2641.3487597957974,2,48,0.5499359965324402,3.9286563396453857,48.56173342816694,48.302216014975485,193.3047442956785,176.88185446039626,6.47544875391759e-05,0.0897949114441871,0,0,0
16388,555153.7806843536,2010-09-21 00:10:43,2671.363950504529,2,48,0.5501165986061096,3.9301133155822754,48.56632022571267,48.302216014975485,193.3227677484619,176.88185446039626,0.0,0.0897949114441871,0,0,0
16389,555183.7961459485,2010-09-21 00:11:13,2701.3794120793827,2,48,0.550297200679779,3.931732177734375,48.57090706498258,48.302216014975485,193.34079820006409,176.88185446039626,3.237724376958795e-05,0.0897949114441871,0,0,0
16390,555213.8113368527,2010-09-21 00:11:43,2731.394602983601,2,48,0.5501165986061096,3.9331891536712646,48.5754937569979,48.302216014975485,193.3588349346824,176.88185446039626,3.237724376958795e-05,0.0897949114441871,0,0,0
16391,555243.8267510543,2010-09-21 00:12:13,2761.4100172754297,2,48,0.5501165986061096,3.9346461296081534,48.58008059001601,48.302216014975485,193.3768791330856,176.88185446039626,3.237724376958795e-05,0.0897949114441871,0,0,0
16392,555273.8420085699,2010-09-21 00:12:43,2791.425274720745,2,48,0.5501165986061096,3.936264991760254,48.584667386621696,48.302216014975485,193.39493021631537,176.88185446039626,6.47544875391759e-05,0.0897949114441871,0,0,0
16393,555303.8573247215,2010-09-21 00:13:13,2821.4405908475387,2,48,0.5501165986061096,3.937721967697144,48.58925417879296,48.302216014975485,193.4129881387213,176.88185446039626,3.237724376958795e-05,0.0897949114441871,0,0,0
16394,555333.8726683971,2010-09-21 00:13:43,2851.455934523098,2,48,0.5501165986061096,3.939340829849243,48.59384097437125,48.302216014975485,193.43105328440151,176.88185446039626,6.47544875391759e-05,0.0897949114441871,0,0,0
16395,555363.887945677,2010-09-21 00:14:13,2881.471211812948,2,48,0.5501165986061096,3.940797805786133,48.59842767386116,48.302216014975485,193.44912515851297,176.88185446039626,3.237724376958795e-05,0.0897949114441871,0,0,0
16396,555393.9032652925,2010-09-21 00:14:43,2911.486531418425,2,48,0.5501165986061096,3.9422547817230233,48.60301453329407,48.302216014975485,193.46720481125163,176.88185446039626,-3.237724376958795e-05,0.0897949114441871,0,0,0
16397,555423.9188476239,2010-09-21 00:15:13,2941.5021137797808,2,48,0.550297200679779,3.944035530090332,48.60760132725535,48.302216014975485,193.485291473955,176.88185446039626,6.47544875391759e-05,0.0897949114441871,0,0,0
16398,555453.9339259269,2010-09-21 00:15:43,2971.517192052855,2,48,0.5499359965324402,3.945654392242432,48.61218808053889,48.302216014975485,193.50338531638752,176.88185446039626,6.47544875391759e-05,0.0897949114441871,0,0,0
16399,555483.9492676125,2010-09-21 00:16:13,3001.5325337584973,2,48,0.5501165986061096,3.947111368179321,48.61677504991618,48.302216014975485,193.5214874474312,176.88185446039626,3.237724376958795e-05,0.0897949114441871,0,0,0
16400,555513.9645825814,2010-09-21 00:16:43,3031.5478487073506,2,48,0.5501165986061096,3.948892116546631,48.62136194390623,48.302216014975485,193.53959678610545,176.88185446039626,6.47544875391759e-05,0.0897949114441871,0,0,0
16401,555543.9799125327,2010-09-21 00:17:13,3061.563178658652,2,48,0.5501165986061096,3.9505109786987305,48.62594885534402,48.302216014975485,193.55771373413916,176.88185446039626,3.237724376958795e-05,0.0897949114441871,0,0,0
16402,555573.9952347346,2010-09-21 00:17:43,3091.578500860609,2,48,0.5501165986061096,3.95229172706604,48.63053578316048,48.302216014975485,193.5758384069816,176.88185446039626,9.713172767078504e-05,0.0897949114441871,0,0,0
16403,555604.0105517638,2010-09-21 00:18:13,3121.5938178896554,2,48,0.5499359965324402,3.9537487030029297,48.63512272797794,48.302216014975485,193.5939708541517,176.88185446039626,0.0,0.0897949114441871,0,0,0
16404,555634.025882116,2010-09-21 00:18:43,3151.609148241957,2,48,0.5499359965324402,3.9555294513702393,48.6397096800048,48.302216014975485,193.61211108589177,176.88185446039626,3.237724376958795e-05,0.0897949114441871,0,0,0
16405,555664.0413570192,2010-09-21 00:19:13,3181.624623150094,2,48,0.5501165986061096,3.957310199737549,48.64429669643275,48.302216014975485,193.63025940159605,176.88185446039626,3.237724376958795e-05,0.0897949114441871,0,0,0
16406,555694.0565571315,2010-09-21 00:19:43,3211.6398232773345,2,48,0.5501165986061096,3.958929061889648,48.64888365813171,48.302216014975485,193.64841540689332,176.88185446039626,0.0,0.0897949114441871,0,0,0
16407,555724.0718666717,2010-09-21 00:20:14,3241.655132797637,2,48,0.5501165986061096,3.960871696472168,48.65347057075572,48.302216014975485,193.66657923776097,176.88185446039626,3.237724376958795e-05,0.0897949114441871,0,0,0
16408,555754.0871869739,2010-09-21 00:20:44,3271.6704530998527,2,48,0.5501165986061096,3.962490558624268,48.65805752023208,48.302216014975485,193.68475132842832,176.88185446039626,6.47544875391759e-05,0.0897949114441871,0,0,0
16409,555784.1051495116,2010-09-21 00:21:14,3301.688415757795,2,48,0.5501165986061096,3.964271306991577,48.662644899663,48.302216014975485,193.70293331575203,176.88185446039626,0.0,0.0897949114441871,0,0,0
16410,555814.1179758937,2010-09-21 00:21:44,3331.701242029528,2,48,0.5504778623580933,3.966375827789306,48.667231479628654,48.302216014975485,193.7211203919804,176.88185446039626,6.47544875391759e-05,0.0897949114441871,0,0,0
16411,555844.1331711136,2010-09-21 00:22:14,3361.716437239494,2,48,0.5501165986061096,3.9679946899414062,48.6718184111317,48.302216014975485,193.73931725214385,176.88185446039626,6.47544875391759e-05,0.0897949114441871,0,0,0
16412,555874.1484988293,2010-09-21 00:22:44,3391.731764955215,2,48,0.5501165986061096,3.969937324523926,48.676405447231176,48.302216014975485,193.75752298883552,176.88185446039626,6.47544875391759e-05,0.0897949114441871,0,0,0
16413,555904.1638730812,2010-09-21 00:23:14,3421.74713923216,2,48,0.550297200679779,3.971879959106445,48.680992384556106,48.302216014975485,193.7757369010131,176.88185446039626,9.713172767078504e-05,0.0897949114441871,0,0,0
16414,555934.179215644,2010-09-21 00:23:44,3451.7624817698797,2,48,0.5501165986061096,3.973660707473755,48.68557936181645,48.302216014975485,193.79395965708784,176.88185446039626,3.237724376958795e-05,0.0897949114441871,0,0,0
16415,555964.1944741369,2010-09-21 00:24:14,3481.77774026281,2,48,0.550297200679779,3.9756033420562735,48.69016630876076,48.302216014975485,193.81219101660332,176.88185446039626,6.47544875391759e-05,0.0897949114441871,0,0,0
16416,555994.2098049504,2010-09-21 00:24:44,3511.7930710963137,2,48,0.5501165986061096,3.977545976638794,48.694753323955474,48.302216014975485,193.8304315980209,176.88185446039626,6.47544875391759e-05,0.0897949114441871,0,0,0
16417,556024.2251343754,2010-09-21 00:25:14,3541.808400501251,2,48,0.5501165986061096,3.9794886112213135,48.699340229069854,48.302216014975485,193.8486803202833,176.88185446039626,6.47544875391759e-05,0.0897949114441871,0,0,0
16418,556054.2406062058,2010-09-21 00:25:44,3571.8238724269427,2,48,0.550297200679779,3.981593132019043,48.70392703396177,48.302216014975485,193.866938165265,176.88185446039626,9.713172767078504e-05,0.0897949114441871,0,0,0
16419,556084.2559062826,2010-09-21 00:26:14,3601.839172408435,2,48,0.550297200679779,3.9835357666015625,48.70851392269512,48.302216014975485,193.8852055418118,176.88185446039626,3.237724376958795e-05,0.0897949114441871,0,0,0
16420,556114.2712842237,2010-09-21 00:26:44,3631.854550359551,2,48,0.5501165986061096,3.985478401184082,48.7131007470428,48.302216014975485,193.9034819367092,176.88185446039626,0.0,0.0897949114441871,0,0,0
16421,556144.2865683103,2010-09-21 00:27:14,3661.869834441355,2,48,0.550297200679779,3.9877448081970215,48.7176875890699,48.302216014975485,193.9217677718676,176.88185446039626,6.47544875391759e-05,0.0897949114441871,0,0,0
16422,556174.3017667936,2010-09-21 00:27:44,3691.885032924493,2,48,0.5501165986061096,3.989687442779541,48.72227440388857,48.302216014975485,193.9400629160587,176.88185446039626,3.237724376958795e-05,0.0897949114441871,0,0,0
16423,556204.3170843289,2010-09-21 00:28:14,3721.9003504547886,2,48,0.550297200679779,3.9917919635772714,48.72686124657906,48.302216014975485,193.9583677785465,176.88185446039626,6.47544875391759e-05,0.0897949114441871,0,0,0
16424,556234.3324630219,2010-09-21 00:28:44,3751.9157292379823,2,48,0.5501165986061096,3.993896484375,48.73144812427083,48.302216014975485,193.976682417635,176.88185446039626,3.237724376958795e-05,0.0897949114441871,0,0,0
16425,556264.3477508379,2010-09-21 00:29:14,3781.931016968895,2,48,0.5501165986061096,3.9960007667541504,48.73603500014987,48.302216014975485,193.99500681391663,176.88185446039626,6.47544875391759e-05,0.0897949114441871,0,0,0
16426,556294.3630755561,2010-09-21 00:29:44,3811.946341682122,2,48,0.5501165986061096,3.99810528755188,48.74062195262929,48.302216014975485,194.0133413340963,176.88185446039626,6.47544875391759e-05,0.0897949114441871,0,0,0
16427,556324.3784814671,2010-09-21 00:30:14,3841.9617477083184,2,48,0.5501165986061096,4.000371932983398,48.74520886729216,48.302216014975485,194.0316854117673,176.88185446039626,9.71794142969884e-05,0.0897949114441871,0,0,0
16428,556354.393726341,2010-09-21 00:30:44,3871.976992487016,2,48,0.5499359965324402,4.002476215362549,48.74979567881801,48.302216014975485,194.0500390855704,176.88185446039626,6.47544875391759e-05,0.0897949114441871,0,0,0
16429,556384.409068568,2010-09-21 00:31:14,3901.992334693909,2,48,0.5501165986061096,4.004742622375488,48.75438256665381,48.302216014975485,194.06840308169112,176.88185446039626,6.47544875391759e-05,0.0897949114441871,0,0,0
16430,556414.4243713865,2010-09-21 00:31:44,3932.007637512483,2,48,0.550297200679779,4.007009029388428,48.75896938385153,48.302216014975485,194.0867768495762,176.88185446039626,9.70840483205393e-05,0.0897949114441871,0,0,0
16431,556444.4398240693,2010-09-21 00:32:14,3962.023090195141,2,48,0.5501165986061096,4.008951663970947,48.76355629879899,48.302216014975485,194.10516121950985,176.88185446039626,3.23295607813634e-05,0.0897949114441871,0,0,0
16432,556474.4550264521,2010-09-21 00:32:44,3992.0382925880367,2,48,0.5501165986061096,4.011218070983887,48.76814313411385,48.302216014975485,194.12355545009493,176.88185446039626,6.47544875391759e-05,0.0897949114441871,0,0,0
16433,556504.4703653507,2010-09-21 00:33:14,4022.053631476648,2,48,0.5501165986061096,4.013646602630615,48.77273000627652,48.302216014975485,194.1419601511654,176.88185446039626,3.24249267578125e-05,0.0897949114441871,0,0,0
16434,556534.485707678,2010-09-21 00:33:44,4052.068973828904,2,48,0.5501165986061096,4.015750885009766,48.777316894279295,48.302216014975485,194.16037528120845,176.88185446039626,3.23295607813634e-05,0.0897949114441871,0,0,0
16435,556564.5010088624,2010-09-21 00:34:14,4082.084274988336,2,48,0.5501165986061096,4.018179416656494,48.78190385359248,48.302216014975485,194.1788012033525,176.88185446039626,6.47544875391759e-05,0.0897949114441871,0,0,0
16436,556594.5163298263,2010-09-21 00:34:44,4112.099595952204,2,48,0.5501165986061096,4.020445823669434,48.786491397290895,48.302216014975485,194.19723994368064,176.88185446039626,6.47544875391759e-05,0.0897949114441871,0,0,0
16437,556624.5316793615,2010-09-21 00:35:14,4142.114945487389,2,48,0.5501165986061096,4.022712230682373,48.79107894987592,48.302216014975485,194.2156893695655,176.88185446039626,3.24249267578125e-05,0.0897949114441871,0,0,0
16438,556654.5469867315,2010-09-21 00:35:44,4172.130252857325,2,48,0.5501165986061096,4.025140285491943,48.79566643594601,48.302216014975485,194.23414924131453,176.88185446039626,6.47544875391759e-05,0.0897949114441871,0,0,0
16439,556684.5623163219,2010-09-21 00:36:14,4202.145582447725,2,48,0.550297200679779,4.027406692504883,48.800254037668886,48.302216014975485,194.25262042457987,176.88185446039626,3.23295607813634e-05,0.0897949114441871,0,0,0
16440,556714.5776469598,2010-09-21 00:36:44,4232.160913115817,2,48,0.5501165986061096,4.029835224151611,48.80484101562143,48.302216014975485,194.2711000485149,176.88185446039626,6.47544875391759e-05,0.0897949114441871,0,0,0
16441,556744.5931837023,2010-09-21 00:37:14,4262.176449853288,2,48,0.550297200679779,4.032425403594971,48.80942789677357,48.302216014975485,194.2895902862627,176.88185446039626,9.71794142969884e-05,0.0897949114441871,0,0,0
16442,556774.6082633688,2010-09-21 00:37:44,4292.191529494778,2,48,0.5499359965324402,4.034691333770752,48.81401470957284,48.302216014975485,194.30809143582945,176.88185446039626,6.47544875391759e-05,0.0897949114441871,0,0,0
16443,556804.6239988073,2010-09-21 00:38:14,4322.207264948275,2,48,0.5499359965324402,4.0371198654174805,48.81860156400627,48.302216014975485,194.3266037987525,176.88185446039626,3.24249267578125e-05,0.0897949114441871,0,0,0
16444,556834.6389275723,2010-09-21 00:38:44,4352.222193703128,2,48,0.5501165986061096,4.03971004486084,48.823188311427856,48.302216014975485,194.3451271051438,176.88185446039626,6.47544875391759e-05,0.0897949114441871,0,0,0
16445,556864.6542801751,2010-09-21 00:39:14,4382.237546300959,2,48,0.550297200679779,4.042300224304199,48.82777507655285,48.302216014975485,194.36366178233865,176.88185446039626,6.47544875391759e-05,0.0897949114441871,0,0,0
16446,556894.6696062918,2010-09-21 00:39:44,4412.252872442751,2,48,0.5501165986061096,4.0447282791137695,48.83236185351398,48.302216014975485,194.38220811336947,176.88185446039626,9.70840483205393e-05,0.0897949114441871,0,0,0
16447,556924.6850376512,2010-09-21 00:40:14,4442.268303802183,2,48,0.5504778623580933,4.047480583190918,48.83694872548087,48.302216014975485,194.40076663050743,176.88185446039626,9.71794142969884e-05,0.0897949114441871,0,0,0
16448,556954.7002600289,2010-09-21 00:40:44,4472.283526174952,2,48,0.5504778623580933,4.050070762634277,48.8415355798287,48.302216014975485,194.41933687533023,176.88185446039626,9.71794142969884e-05,0.0897949114441871,0,0,0
16449,556984.7155763162,2010-09-21 00:41:14,4502.298842467159,2,48,0.5501165986061096,4.052660942077637,48.84612239630902,48.302216014975485,194.4379188376652,176.88185446039626,9.71794142969884e-05,0.0897949114441871,0,0,0
16450,557014.7310273999,2010-09-21 00:41:44,4532.314293525762,2,48,0.5501165986061096,4.055088996887207,48.850709271789306,48.302216014975485,194.45651311922964,176.88185446039626,6.47544875391759e-05,0.0897949114441871,0,0,0
16451,557044.7463540529,2010-09-21 00:42:14,4562.329620299131,2,48,0.5499359965324402,4.057841300964356,48.85529615573336,48.302216014975485,194.4751195506983,176.88185446039626,9.71794142969884e-05,0.0897949114441871,0,0,0
16452,557074.7615528719,2010-09-21 00:42:44,4592.344818997806,2,48,0.5501165986061096,4.060593128204346,48.8598830091964,48.302216014975485,194.49373812104344,176.88185446039626,6.47544875391759e-05,0.0897949114441871,0,0,0
16453,557104.7769075449,2010-09-21 00:43:14,4622.360173700891,2,48,0.5501165986061096,4.063021659851074,48.86446984624008,48.302216014975485,194.51236855101297,176.88185446039626,6.47544875391759e-05,0.0897949114441871,0,0,0
16454,557134.7922094562,2010-09-21 00:43:44,4652.375475582127,2,48,0.5501165986061096,4.065611839294434,48.86905665440107,48.302216014975485,194.5310114213367,176.88185446039626,3.24249267578125e-05,0.0897949114441871,0,0,0
16455,557164.8075570515,2010-09-21 00:44:14,4682.39082319752,2,48,0.550297200679779,4.068687438964844,48.87364346784762,48.302216014975485,194.54966688154084,176.88185446039626,9.70840483205393e-05,0.0897949114441871,0,0,0
16456,557194.8228651133,2010-09-21 00:44:44,4712.406131264194,2,48,0.5501165986061096,4.071439743041992,48.87823031225008,48.302216014975485,194.56833517807792,176.88185446039626,6.47544875391759e-05,0.0897949114441871,0,0,0
16457,557224.8382017312,2010-09-21 00:45:14,4742.421467857074,2,48,0.5501165986061096,4.074191570281982,48.88281713242433,48.302216014975485,194.5870161750033,176.88185446039626,6.47544875391759e-05,0.0897949114441871,0,0,0
16458,557254.8536792758,2010-09-21 00:45:44,4772.436945401792,2,48,0.5499359965324402,4.076943874359131,48.88740399733116,48.302216014975485,194.6057103219187,176.88185446039626,6.47544875391759e-05,0.0897949114441871,0,0,0
16459,557284.8688443255,2010-09-21 00:46:14,4802.452110451473,2,48,0.5501165986061096,4.079695701599121,48.89199078088944,48.302216014975485,194.62441721084943,176.88185446039626,3.23295607813634e-05,0.0897949114441871,0,0,0
16460,557314.8843046674,2010-09-21 00:46:44,4832.467570803275,2,48,0.5501165986061096,4.0827717781066895,48.89657765433407,48.302216014975485,194.6431375855369,176.88185446039626,6.47544875391759e-05,0.0897949114441871,0,0,0
16461,557344.8996237565,2010-09-21 00:47:14,4862.482889912512,2,48,0.550297200679779,4.0858473777771,48.90116448006014,48.302216014975485,194.66187101241604,176.88185446039626,0.0001295089750783,0.0897949114441871,0,0,0
16462,557374.9148282898,2010-09-21 00:47:44,4892.498094435727,2,48,0.5501165986061096,4.088437557220459,48.90575131835194,48.302216014975485,194.68061792095392,176.88185446039626,6.47544875391759e-05,0.0897949114441871,0,0,0
16463,557404.9302152634,2010-09-21 00:48:14,4922.513481414377,2,48,0.5501165986061096,4.091513633728027,48.91033811697286,48.302216014975485,194.69937820991137,176.88185446039626,6.47544875391759e-05,0.0897949114441871,0,0,0
16464,557434.945513691,2010-09-21 00:48:44,4952.528779816927,2,48,0.550297200679779,4.0945892333984375,48.91492499140697,48.302216014975485,194.71815236864973,176.88185446039626,9.70840483205393e-05,0.0897949114441871,0,0,0
16465,557464.9608544743,2010-09-21 00:49:14,4982.544120600267,2,48,0.5499359965324402,4.097341537475586,48.91951183205333,48.302216014975485,194.7369402256536,176.88185446039626,6.47544875391759e-05,0.0897949114441871,0,0,0
16466,557494.9761727013,2010-09-21 00:49:44,5012.559438812266,2,48,0.5501165986061096,4.100579261779785,48.92409862911511,48.302216014975485,194.7557418123336,176.88185446039626,6.47544875391759e-05,0.0897949114441871,0,0,0
16467,557524.9916257901,2010-09-21 00:50:14,5042.574891920987,2,48,0.5501165986061096,4.103654861450195,48.92868550537623,48.302216014975485,194.77455775443545,176.88185446039626,6.47544875391759e-05,0.0897949114441871,0,0,0
16468,557555.0068284085,2010-09-21 00:50:44,5072.590094534435,2,48,0.5501165986061096,4.106730937957764,48.93327232338141,48.302216014975485,194.79338766786768,176.88185446039626,6.47544875391759e-05,0.0897949114441871,0,0,0
16469,557585.0223188705,2010-09-21 00:51:14,5102.605584996395,2,48,0.550297200679779,4.109806537628174,48.937859191112096,48.302216014975485,194.8122320164814,176.88185446039626,6.47544875391759e-05,0.0897949114441871,0,0,0
16470,557615.0374824716,2010-09-21 00:51:44,5132.620748622523,2,48,0.550297200679779,4.113044261932373,48.942445961316885,48.302216014975485,194.83109035513985,176.88185446039626,6.47544875391759e-05,0.0897949114441871,0,0,0
16471,557645.0528147786,2010-09-21 00:52:15,5162.636080904643,2,48,0.5501165986061096,4.116119861602783,48.94703271491549,48.302216014975485,194.84996309826047,176.88185446039626,9.70840483205393e-05,0.0897949114441871,0,0,0
16472,557675.0682622032,2010-09-21 00:52:45,5192.651528329176,2,48,0.550297200679779,4.119519710540772,48.951619565757895,48.302216014975485,194.8688509196007,176.88185446039626,9.71794142969884e-05,0.0897949114441871,0,0,0
16473,557705.0861025058,2010-09-21 00:53:15,5222.669368752,2,48,0.550297200679779,4.122757434844971,48.95620678602951,48.302216014975485,194.88775504177443,176.88185446039626,6.47544875391759e-05,0.0897949114441871,0,0,0
16474,557735.0988112893,2010-09-21 00:53:45,5252.682077415164,2,48,0.5501165986061096,4.12599515914917,48.96079319879286,48.302216014975485,194.90667058308443,176.88185446039626,9.71794142969884e-05,0.0897949114441871,0,0,0
16475,557765.1141268697,2010-09-21 00:54:15,5282.697392995593,2,48,0.5501165986061096,4.12907075881958,48.96537996254997,48.302216014975485,194.92560258578865,176.88185446039626,6.47544875391759e-05,0.0897949114441871,0,0,0
16476,557795.1294826254,2010-09-21 00:54:45,5312.712748776369,2,48,0.5501165986061096,4.132470607757568,48.96996677028048,48.302216014975485,194.94454994930547,176.88185446039626,9.71794142969884e-05,0.0897949114441871,0,0,0
16477,557825.1449278444,2010-09-21 00:55:15,5342.728193975347,2,48,0.5501165986061096,4.135708332061768,48.97455359827431,48.302216014975485,194.96351257311952,176.88185446039626,9.71794142969884e-05,0.0897949114441871,0,0,0
16478,557855.160124112,2010-09-21 00:55:45,5372.743390237941,2,48,0.550297200679779,4.139269828796387,48.97914041764719,48.302216014975485,194.98249052962183,176.88185446039626,9.71794142969884e-05,0.0897949114441871,0,0,0
16479,557885.1754847349,2010-09-21 00:56:15,5402.758750860803,2,48,0.5501165986061096,4.142507553100586,48.98372726144724,48.302216014975485,195.00148410075792,176.88185446039626,9.71794142969884e-05,0.0897949114441871,0,0,0
16480,557915.1907696187,2010-09-21 00:56:45,5432.774035744608,2,48,0.550297200679779,4.146069049835205,48.98831408342511,48.302216014975485,195.02049329829265,176.88185446039626,6.47544875391759e-05,0.0897949114441871,0,0,0
16481,557945.2061153043,2010-09-21 00:57:15,5462.789381425173,2,48,0.5499359965324402,4.149630546569824,48.99289996743944,48.302216014975485,195.03951432878452,176.88185446039626,0.0001619339018361,0.0897949114441871,0,0,0
16482,557975.2215103029,2010-09-21 00:57:45,5492.80477653913,2,48,0.5501165986061096,4.153029918670654,48.99748574074064,48.302216014975485,195.05855073740972,176.88185446039626,0.0001295089750783,0.0897949114441871,0,0,0
16483,558005.2369254119,2010-09-21 00:58:15,5522.820191537723,2,48,0.5499359965324402,4.1562676429748535,49.00207158116821,48.302216014975485,195.07760332481996,176.88185446039626,9.70840483205393e-05,0.0897949114441871,0,0,0
16484,558035.2521831479,2010-09-21 00:58:45,5552.835449308852,2,48,0.5499359965324402,4.159991264343262,49.006657355653886,48.302216014975485,195.096671693504,176.88185446039626,0.0001295089750783,0.0897949114441871,0,0,0
16485,558065.267636036,2010-09-21 00:59:15,5582.850902387498,2,48,0.5501165986061096,4.163552761077881,49.011244034379885,48.302216014975485,195.1157601420295,176.88185446039626,9.71794142969884e-05,0.0897949114441871,0,0,0
16486,558095.2827224394,2010-09-21 00:59:45,5612.865988590366,2,48,0.5501165986061096,4.166952133178711,49.01583065045431,48.302216014975485,195.1348645656383,176.88185446039626,9.70840483205393e-05,0.0897949114441871,0,0,0
16487,558125.2980535035,2010-09-21 01:00:15,5642.8813196343945,2,48,0.550297200679779,4.17083740234375,49.02041741924353,48.302216014975485,195.153986072697,176.88185446039626,0.0001295089750783,0.0897949114441871,0,0,0
16488,558155.3134230035,2010-09-21 01:00:45,5672.896689239679,2,48,0.550297200679779,4.174398899078369,49.02500411103901,48.302216014975485,195.1731238535282,176.88185446039626,0.0001295089750783,0.0897949114441871,0,0,0
16489,558185.3286948999,2010-09-21 01:01:15,5702.911961050854,2,48,0.5501165986061096,4.177960395812988,49.02959088653124,48.302216014975485,195.1922787546775,176.88185446039626,9.70840483205393e-05,0.0897949114441871,0,0,0
16490,558215.3441560586,2010-09-21 01:01:45,5732.927422179595,2,48,0.5501165986061096,4.181521892547607,49.03417763275539,48.302216014975485,195.211450438522,176.88185446039626,9.70840483205393e-05,0.0897949114441871,0,0,0
16491,558245.3593364666,2010-09-21 01:02:15,5762.942602592626,2,48,0.5499359965324402,4.185083389282227,49.03876427881884,48.302216014975485,195.23063860578816,176.88185446039626,6.47544875391759e-05,0.0897949114441871,0,0,0
16492,558275.374672799,2010-09-21 01:02:45,5792.957938924855,2,48,0.5499359965324402,4.188968658447266,49.04335100533536,48.302216014975485,195.2498442539684,176.88185446039626,9.70840483205393e-05,0.0897949114441871,0,0,0
16493,558305.3900091011,2010-09-21 01:03:15,5822.973275257084,2,48,0.5501165986061096,4.193016052246094,49.04793775070621,48.302216014975485,195.26906720876167,176.88185446039626,0.0001295089750783,0.0897949114441871,0,0,0
16494,558335.4053421501,2010-09-21 01:03:45,5852.988608301106,2,48,0.550297200679779,4.196577072143555,49.05252451243345,48.302216014975485,195.28830757358327,176.88185446039626,6.47544875391759e-05,0.0897949114441871,0,0,0
16495,558360.5926076197,2010-09-21 01:04:10,5878.175873840856,2,48,0.550297200679779,4.200138568878174,49.056373517889696,48.302216014975485,195.30446675073887,176.88185446039626,0.0001618385285837,0.0897949114441871,0,0,0
16496,558390.6290814052,2010-09-21 01:04:40,30.015339364799058,3,48,0.0,4.120976448059082,49.056373517889696,48.302216014975485,195.30446675073887,176.88185446039626,-0.0003561973571777,0.0897949114441871,0,0,0
16497,558420.6443994921,2010-09-21 01:05:10,60.03065744647216,3,48,0.0,4.111263751983643,49.056373517889696,48.302216014975485,195.30446675073887,176.88185446039626,-0.0001942634553415,0.0897949114441871,0,0,0
16498,558450.6598551421,2010-09-21 01:05:40,90.04611310154964,3,48,0.0,4.105597496032715,49.056373517889696,48.302216014975485,195.30446675073887,176.88185446039626,-9.71794142969884e-05,0.0897949114441871,0,0,0
16499,558480.6281892045,2010-09-21 01:06:10,120.01444713380708,3,48,0.0,4.101874351501465,49.056373517889696,48.302216014975485,195.30446675073887,176.88185446039626,-3.23295607813634e-05,0.0897949114441871,0,0,0
16500,558480.635054168,2010-09-21 01:06:10,0.031404886428045,4,48,0.9935123920440674,4.199653148651123,49.05638219741982,48.302216014975485,195.3045032017549,176.88185446039626,0.0,0.0897949114441871,0,0,0
16501,558481.650543671,2010-09-21 01:06:11,1.046894399481783,4,48,0.943122386932373,4.199814796447754,49.05665386351394,48.302216014975485,195.30564409387,176.88185446039626,3.23295607813634e-05,0.0897949114441871,0,0,0
16502,558483.7911179689,2010-09-21 01:06:14,3.187468677198083,4,48,0.8929130434989929,4.199653148651123,49.0571986168585,48.302216014975485,195.30793185591727,176.88185446039626,0.0,0.0897949114441871,0,0,0
16503,558486.9629625258,2010-09-21 01:06:17,6.359313234188416,4,48,0.8428842425346375,4.199653148651123,49.05796211982152,48.302216014975485,195.3111382899316,176.88185446039626,3.24249267578125e-05,0.0897949114441871,0,0,0
16504,558491.2441696523,2010-09-21 01:06:21,10.64052036583626,4,48,0.7926748991012573,4.199653148651123,49.05893336881677,48.302216014975485,195.3152171928376,176.88185446039626,0.0,0.0897949114441871,0,0,0
16505,558496.7597885358,2010-09-21 01:06:26,16.156139334338405,4,48,0.7426460981369019,4.199653148651123,49.0601080016599,48.302216014975485,195.32015023981396,176.88185446039626,0.0,0.0897949114441871,0,0,0
16506,558503.8534269484,2010-09-21 01:06:34,23.249777656920543,4,48,0.6926173567771912,4.199491024017334,49.061520135427656,48.302216014975485,195.32608071891352,176.88185446039626,-3.24249267578125e-05,0.0897949114441871,0,0,0
16507,558513.2908276976,2010-09-21 01:06:43,32.68717850133603,4,48,0.6425885558128357,4.199653148651123,49.06326738343682,48.302216014975485,195.33341858904296,176.88185446039626,0.0,0.0897949114441871,0,0,0
16508,558526.2906964,2010-09-21 01:06:56,45.68704710835895,4,48,0.592559814453125,4.199653148651123,49.06549267095693,48.302216014975485,195.34276407093668,176.88185446039626,-3.23295607813634e-05,0.0897949114441871,0,0,0
16509,558545.6498802361,2010-09-21 01:07:15,65.04623094455005,4,48,0.5425310134887695,4.199653148651123,49.06853506230367,48.302216014975485,195.35554110616005,176.88185446039626,0.0,0.0897949114441871,0,0,0
16510,558577.102702715,2010-09-21 01:07:47,96.49905344841548,4,48,0.4925022423267364,4.199491024017334,49.07303798693279,48.302216014975485,195.3744519079449,176.88185446039626,-6.47544875391759e-05,0.0897949114441871,0,0,0
16511,558631.5085547768,2010-09-21 01:08:41,150.90490550026797,4,48,0.4424734711647033,4.199653148651123,49.08007314564138,48.302216014975485,195.4039972525193,176.88185446039626,0.0,0.0897949114441871,0,0,0
16512,558716.8513250109,2010-09-21 01:10:07,236.24767571939188,4,48,0.3924447298049927,4.199653148651123,49.089941311360846,48.302216014975485,195.44544028894296,176.88185446039626,0.0,0.0897949114441871,0,0,0
16513,558826.0066346619,2010-09-21 01:11:56,345.4029853804304,4,48,0.3424159586429596,4.199653148651123,49.1010623111362,48.302216014975485,195.49214486506756,176.88185446039626,-3.23295607813634e-05,0.0897949114441871,0,0,0
16514,558958.5833381653,2010-09-21 01:14:08,477.97968887376567,4,48,0.2922065556049347,4.199653148651123,49.11273215282107,48.302216014975485,195.5411543523796,176.88185446039626,0.0,0.0897949114441871,0,0,0
16515,559119.0036164048,2010-09-21 01:16:49,638.3999671132943,4,48,0.2421777993440628,4.199814796447754,49.1246145114781,48.302216014975485,195.591056359551,176.88185446039626,3.23295607813634e-05,0.0897949114441871,0,0,0
16516,559318.8766928533,2010-09-21 01:20:09,838.2730435618139,4,48,0.1921490281820297,4.199653148651123,49.1366360673392,48.302216014975485,195.6415429701888,176.88185446039626,-3.23295607813634e-05,0.0897949114441871,0,0,0
16517,559586.1084113203,2010-09-21 01:24:36,1105.5047620286794,4,48,0.1421202570199966,4.199653148651123,49.14896722778406,48.302216014975485,195.69332978343863,176.88185446039626,0.0,0.0897949114441871,0,0,0
16518,559986.01073156,2010-09-21 01:31:16,1505.407082273444,4,48,0.0920914858579635,4.199653148651123,49.16178793934585,48.302216014975485,195.74717259472445,176.88185446039626,0.0,0.0897949114441871,0,0,0
16519,560596.6297651592,2010-09-21 01:41:26,2116.0261158726976,4,48,0.0494676977396011,4.199491024017334,49.1734550125309,48.302216014975485,195.79617045186737,176.88185446039626,-6.47544875391759e-05,0.0897949114441871,0,0,0
16520,560626.6258254197,2010-09-21 01:41:56,30.015454336786824,5,48,0.0,4.192206382751465,49.1734550125309,48.302216014975485,195.79617045186737,176.88185446039626,-6.47544875391759e-05,0.0897949114441871,0,0,0
16521,560656.6254605994,2010-09-21 01:42:26,60.015089541586505,5,48,0.0,4.191235065460205,49.1734550125309,48.302216014975485,195.79617045186737,176.88185446039626,-3.24249267578125e-05,0.0897949114441871,0,0,0
16522,560656.793973361,2010-09-21 01:42:27,0.187415507940976,6,48,-1.9243103452026844e-05,4.191073417663574,49.1734550125309,48.30221601597729,195.79617045186737,176.88185446459485,0.0,0.0891468673944473,0,0,0
16523,560661.6221568597,2010-09-21 01:42:32,5.015598906501229,6,48,0.0007031940040178,4.191073417663574,49.173455835461205,48.30221601614427,195.7961739010148,176.8818544652947,-3.23295607813634e-05,0.0891468673944473,0,0,0
16524,560691.6498457707,2010-09-21 01:43:02,30.015330186889585,7,48,-1.099929690361023,4.027082920074463,49.173455835461205,48.31138490674398,195.7961739010148,176.91896681593116,-0.0009065627818927,0.0891468673944473,0,0,0
16525,560721.665129276,2010-09-21 01:43:32,60.030613592004656,7,48,-1.099929690361023,4.001990795135498,49.173455835461205,48.32055371588277,195.7961739010148,176.95576817266434,-0.0005503654247149,0.0891468673944473,0,0,0
16526,560751.680502731,2010-09-21 01:44:02,90.04598694664759,7,48,-1.0997490882873535,3.984992742538452,49.173455835461205,48.32972245508826,195.7961739010148,176.99238019234792,-0.0003885269106831,0.0891468673944473,0,0,0
16527,560781.6958114293,2010-09-21 01:44:32,120.06129564991072,7,48,-1.0997490882873535,3.9715561866760254,49.173455835461205,48.338891134628064,195.7961739010148,177.02885368796905,-0.0003561496851034,0.0891468673944473,0,0,0
16528,560811.7111490697,2010-09-21 01:45:02,150.07663329040568,7,48,-1.099568486213684,3.960224151611328,49.173455835461205,48.34805999232128,195.7961739010148,177.06521544685162,-0.0003237724304199,0.0891468673944473,0,0,0
16529,560841.7264492818,2010-09-21 01:45:32,180.09193347741092,7,48,-1.0997490882873535,3.9500253200531006,49.173455835461205,48.35722888507247,195.7961739010148,177.10147930557338,-0.0002590179501567,0.0891468673944473,0,0,0
16530,560871.7417854687,2010-09-21 01:46:02,210.10726966427737,7,48,-1.0997490882873535,3.940635919570923,49.173455835461205,48.36639781854208,195.7961739010148,177.13765360274004,-0.0002266406954731,0.0891468673944473,0,0,0
16531,560901.7571215201,2010-09-21 01:46:32,240.12260574588103,7,48,-1.0997490882873535,3.931732177734375,49.173455835461205,48.37556678880369,195.7961739010148,177.17374393981922,-0.0001942634553415,0.0891468673944473,0,0,0
16532,560931.7724697521,2010-09-21 01:47:02,270.1379539477388,7,48,-1.099568486213684,3.922990322113037,49.173455835461205,48.38473574106772,195.7961739010148,177.20975381771007,-0.0002266406954731,0.0891468673944473,0,0,0
16533,560961.7878020193,2010-09-21 01:47:32,300.15328622484583,7,48,-1.0997490882873535,3.914572238922119,49.173455835461205,48.39390471336578,195.7961739010148,177.2456858810361,-0.0002266406954731,0.0891468673944473,0,0,0
16534,560991.8031016949,2010-09-21 01:48:02,330.1685859005749,7,48,-1.0997490882873535,3.90664005279541,49.173455835461205,48.403073665345126,195.7961739010148,177.28154176419503,-0.0002266406954731,0.0891468673944473,0,0,0
16535,561021.8184537564,2010-09-21 01:48:32,360.1839379821169,7,48,-1.099929690361023,3.898383855819702,49.173455835461205,48.41224259488564,195.7961739010148,177.31732323722562,-0.0002266406954731,0.0891468673944473,0,0,0
16536,561051.83378064,2010-09-21 01:49:02,390.1992648406985,7,48,-1.0997490882873535,3.890775203704834,49.173455835461205,48.42141153058038,195.7961739010148,177.35303191670488,-0.0001942634553415,0.0891468673944473,0,0,0
16537,561081.8491031427,2010-09-21 01:49:32,420.21458733839467,7,48,-1.0997490882873535,3.882842779159546,49.173455835461205,48.430580508896966,195.7961739010148,177.38866952254358,-0.0002266406954731,0.0891468673944473,0,0,0
16538,561111.8645573793,2010-09-21 01:50:02,450.2300416050063,7,48,-1.0997490882873535,3.875396013259888,49.173455835461205,48.43974964018356,195.7961739010148,177.42423707064236,-0.0001618862152099,0.0891468673944473,0,0,0
16539,561141.8797699827,2010-09-21 01:50:32,480.2452541783143,7,48,-1.0997490882873535,3.86778736114502,49.173455835461205,48.448918695552216,195.7961739010148,177.45973462253593,-0.0001942634553415,0.0891468673944473,0,0,0
16540,561171.8950980793,2010-09-21 01:51:02,510.2605822749864,7,48,-1.099929690361023,3.860178709030152,49.173455835461205,48.458087849149415,195.7961739010148,177.49516369608057,-0.0002266406954731,0.0891468673944473,0,0,0
16541,561201.9104246623,2010-09-21 01:51:32,540.2759088779299,7,48,-1.099568486213684,3.853055715560913,49.173455835461205,48.46725695710385,195.7961739010148,177.5305249158124,-0.0001618862152099,0.0891468673944473,0,0,0
16542,561231.9257670545,2010-09-21 01:52:02,570.2912512702861,7,48,-1.099929690361023,3.845608949661255,49.173455835461205,48.47642600931884,195.7961739010148,177.5658194571293,-0.0002266406954731,0.0891468673944473,0,0,0
16543,561261.9412924238,2010-09-21 01:52:32,600.3067766193305,7,48,-1.0997490882873535,3.8386478424072266,49.173455835461205,48.48559519962544,195.7961739010148,177.60104884643167,-0.0001942634553415,0.0891468673944473,0,0,0
16544,561291.9565528665,2010-09-21 01:53:02,630.3220370922032,7,48,-1.0997490882873535,3.831525087356568,49.173455835461205,48.494764224925504,195.7961739010148,177.63621284401714,-0.0001942634553415,0.0891468673944473,0,0,0
16545,561321.9721517392,2010-09-21 01:53:32,660.3376359447236,7,48,-1.0997490882873535,3.824725866317749,49.173455835461205,48.503933320777534,195.7961739010148,177.67131361115165,-0.0001942634553415,0.0891468673944473,0,0,0
16546,561351.9870835815,2010-09-21 01:54:02,690.3525677772594,7,48,-1.099568486213684,3.81792664527893,49.173455835461205,48.51310223468073,195.7961739010148,177.7063513043664,-0.0001618862152099,0.0891468673944473,0,0,0
16547,561382.0024317034,2010-09-21 01:54:32,720.3679158989169,7,48,-1.0997490882873535,3.811289310455322,49.173455835461205,48.52227127444022,195.7961739010148,177.7413278711986,-0.0001618862152099,0.0891468673944473,0,0,0
16548,561412.0177473087,2010-09-21 01:55:02,750.3832315044091,7,48,-1.0997490882873535,3.804651975631714,49.173455835461205,48.53144024758103,195.7961739010148,177.77624331902663,-0.0001618862152099,0.0891468673944473,0,0,0
16549,561442.0330965382,2010-09-21 01:55:32,780.3985807538818,7,48,-1.0997490882873535,3.798500299453736,49.173455835461205,48.54060932724075,195.7961739010148,177.81110012074558,-0.0001295089750783,0.0891468673944473,0,0,0
16550,561472.048415131,2010-09-21 01:56:02,810.413899326781,7,48,-1.0997490882873535,3.792186737060547,49.173455835461205,48.5497783749275,195.7961739010148,177.84589866727347,-0.0001295089750783,0.0891468673944473,0,0,0
16551,561502.0637507517,2010-09-21 01:56:32,840.4292349472336,7,48,-1.0997490882873535,3.7858731746673584,49.173455835461205,48.55894740415744,195.7961739010148,177.88063995904758,-0.0001618862152099,0.0891468673944473,0,0,0
16552,561532.0790786378,2010-09-21 01:57:02,870.4445629286179,7,48,-1.099568486213684,3.7800452709198,49.173455835461205,48.568116392115456,195.7961739010148,177.91532513118796,-0.0001295089750783,0.0891468673944473,0,0,0
16553,561562.0945467539,2010-09-21 01:57:32,900.4600309495626,7,48,-1.0997490882873535,3.773893594741821,49.173455835461205,48.57728545539713,195.7961739010148,177.9499558151602,-0.0001942634553415,0.0891468673944473,0,0,0
16554,561592.1097398737,2010-09-21 01:58:02,930.4752240693116,7,48,-1.099568486213684,3.7682275772094727,49.173455835461205,48.58645440597987,195.7961739010148,177.98453226117576,-0.0001618862152099,0.0891468673944473,0,0,0
16555,561622.1250792986,2010-09-21 01:58:32,960.4905634942606,7,48,-1.0997490882873535,3.762399673461914,49.173455835461205,48.5956234423229,195.7961739010148,178.01905615365857,-0.0001618862152099,0.0891468673944473,0,0,0
16556,561652.1404175957,2010-09-21 01:59:02,990.5059018164573,7,48,-1.0997490882873535,3.756895542144776,49.173455835461205,48.604792535335406,195.7961739010148,178.05352836547428,-0.0001295089750783,0.0891468673944473,0,0,0
16557,561682.1557347602,2010-09-21 01:59:32,1020.521218955778,7,48,-1.099568486213684,3.751229763031006,49.173455835461205,48.61396157962392,195.7961739010148,178.08794923344612,-0.0001618862152099,0.0891468673944473,0,0,0
16558,561712.1710613531,2010-09-21 02:00:02,1050.5365455787717,7,48,-1.0997490882873535,3.745887517929077,49.173455835461205,48.62313068051091,195.7961739010148,178.1223203797702,-0.0001295089750783,0.0891468673944473,0,0,0
16559,561742.1865364115,2010-09-21 02:00:32,1080.552020607208,7,48,-1.099929690361023,3.740545272827149,49.173455835461205,48.63229979002075,195.7961739010148,178.15664229780424,-0.0001618862152099,0.0891468673944473,0,0,0
16560,561772.2018733203,2010-09-21 02:01:02,1110.5673575309138,7,48,-1.0997490882873535,3.7353649139404297,49.173455835461205,48.64146885738232,195.7961739010148,178.19091570805358,-0.0001295089750783,0.0891468673944473,0,0,0
16561,561802.217063247,2010-09-21 02:01:32,1140.582547442655,7,48,-1.0997490882873535,3.730184555053711,49.173455835461205,48.65063784472616,195.7961739010148,178.22514155106805,-0.0001618862152099,0.0891468673944473,0,0,0
16562,561832.2323952283,2010-09-21 02:02:02,1170.597879424024,7,48,-1.0997490882873535,3.725327968597412,49.173455835461205,48.65980682555322,195.7961739010148,178.25932122385396,-9.713172767078504e-05,0.0891468673944473,0,0,0
16563,561862.2478317006,2010-09-21 02:02:32,1200.613315896218,7,48,-1.099929690361023,3.720147609710693,49.173455835461205,48.66897587938399,195.7961739010148,178.29345581928916,-0.0001295089750783,0.0891468673944473,0,0,0
16564,561892.2630561285,2010-09-21 02:03:02,1230.628540334142,7,48,-1.099568486213684,3.7152910232543945,49.173455835461205,48.67814489980516,195.7961739010148,178.32754489900069,-0.0001295089750783,0.0891468673944473,0,0,0
16565,561922.2784131925,2010-09-21 02:03:32,1260.6438975033834,7,48,-1.0997490882873535,3.7105963230133057,49.173455835461205,48.68731398566806,195.7961739010148,178.36158973092634,-0.0001295089750783,0.0891468673944473,0,0,0
16566,561952.293777304,2010-09-21 02:04:02,1290.6592614996664,7,48,-1.099568486213684,3.705901622772217,49.173455835461205,48.69648303201308,195.7961739010148,178.39559091913685,-0.0001295089750783,0.0891468673944473,0,0,0
16567,561982.3090798418,2010-09-21 02:04:32,1320.6745640626025,7,48,-1.099568486213684,3.701206922531128,49.173455835461205,48.70565214567348,195.7961739010148,178.42954943752784,-0.0001295089750783,0.0891468673944473,0,0,0
16568,562012.3245175421,2010-09-21 02:05:02,1350.6900017628618,7,48,-1.099929690361023,3.696512222290039,49.173455835461205,48.7148212539356,195.7961739010148,178.46346553693684,-0.0001618862152099,0.0891468673944473,0,0,0
16569,562042.3398084309,2010-09-21 02:05:32,1380.7052927519076,7,48,-1.0997490882873535,3.69230318069458,49.173455835461205,48.72399040120099,195.7961739010148,178.49734009943424,-9.713172767078504e-05,0.0891468673944473,0,0,0
16570,562072.3550776106,2010-09-21 02:06:02,1410.7205618312637,7,48,-1.0997490882873535,3.687608480453491,49.173455835461205,48.733159465379565,195.7961739010148,178.53117319552376,-0.0001295089750783,0.0891468673944473,0,0,0
16571,562102.3704034616,2010-09-21 02:06:32,1440.7358876572675,7,48,-1.0997490882873535,3.683399438858032,49.173455835461205,48.742328514893096,195.7961739010148,178.56496604793105,-6.47544875391759e-05,0.0891468673944473,0,0,0
16572,562132.3857159042,2010-09-21 02:07:02,1470.7512000998647,7,48,-1.0993878841400146,3.679190397262573,49.173455835461205,48.751497592251305,195.7961739010148,178.5987190729092,-6.47544875391759e-05,0.0891468673944473,0,0,0
16573,562162.4011796345,2010-09-21 02:07:33,1500.7666638351116,7,48,-1.0997490882873535,3.674819469451904,49.173455835461205,48.760666781712445,195.7961739010148,178.6324334275382,-0.0001295089750783,0.0891468673944473,0,0,0
16574,562192.4163739522,2010-09-21 02:08:03,1530.7818581478382,7,48,-1.099929690361023,3.670610666275024,49.173455835461205,48.7698358595639,195.7961739010148,178.66610866092876,-0.0001295089750783,0.0891468673944473,0,0,0
16575,562222.434290079,2010-09-21 02:08:33,1560.799774399945,7,48,-1.099568486213684,3.666563510894776,49.173455835461205,48.77900574010315,195.7961739010148,178.6997489268466,-6.47544875391759e-05,0.0891468673944473,0,0,0
16576,562252.4471788317,2010-09-21 02:09:03,1590.812663057401,7,48,-1.099568486213684,3.6625163555145264,49.173455835461205,48.78817411555315,195.7961739010148,178.73334668954283,-9.713172767078504e-05,0.0891468673944473,0,0,0
16577,562282.4624035954,2010-09-21 02:09:33,1620.8278878111132,7,48,-1.0997490882873535,3.658469200134277,49.173455835461205,48.79734322091315,195.7961739010148,178.76691055849378,-0.0001295089750783,0.0891468673944473,0,0,0
16578,562312.4777143238,2010-09-21 02:10:03,1650.8431985193813,7,48,-1.099568486213684,3.654745817184448,49.173455835461205,48.80651234937121,195.7961739010148,178.8004386655394,-6.47544875391759e-05,0.0891468673944473,0,0,0
16579,562342.4930950667,2010-09-21 02:10:33,1680.8585792875292,7,48,-1.0997490882873535,3.650860548019409,49.173455835461205,48.81568147958301,195.7961739010148,178.83393144266518,-9.713172767078504e-05,0.0891468673944473,0,0,0
16580,562372.508374101,2010-09-21 02:11:03,1710.8738582966714,7,48,-1.0997490882873535,3.64713716506958,49.173455835461205,48.82485059605401,195.7961739010148,178.86738955916496,-0.0001295089750783,0.0891468673944473,0,0,0
16581,562402.5236993455,2010-09-21 02:11:33,1740.8891835412242,7,48,-1.0997490882873535,3.643413782119751,49.173455835461205,48.83401963115472,195.7961739010148,178.90081318310052,-0.0001295089750783,0.0891468673944473,0,0,0
16582,562432.5391060334,2010-09-21 02:12:03,1770.9045902290718,7,48,-1.099568486213684,3.640014171600342,49.173455835461205,48.84318874353616,195.7961739010148,178.93420430730134,-9.713172767078504e-05,0.0891468673944473,0,0,0
16583,562462.5544814381,2010-09-21 02:12:33,1800.91996572907,7,48,-1.099929690361023,3.636452674865722,49.173455835461205,48.85235786738798,195.7961739010148,178.96756308536004,-6.47544875391759e-05,0.0891468673944473,0,0,0
16584,562492.5697171493,2010-09-21 02:13:03,1830.935201369958,7,48,-1.099568486213684,3.633214950561523,49.173455835461205,48.86152687352919,195.7961739010148,179.00089010299166,-3.237724376958795e-05,0.0891468673944473,0,0,0
16585,562522.585169877,2010-09-21 02:13:33,1860.950654072666,7,48,-1.0997490882873535,3.629653453826904,49.173455835461205,48.87069598716563,195.7961739010148,179.03418670681583,-9.713172767078504e-05,0.0891468673944473,0,0,0
16586,562552.600378736,2010-09-21 02:14:03,1890.9658629517528,7,48,-1.099568486213684,3.626577615737915,49.173455835461205,48.87986503359514,195.7961739010148,179.0674528181611,-6.47544875391759e-05,0.0891468673944473,0,0,0
16587,562582.6157163816,2010-09-21 02:14:33,1920.9812005822223,7,48,-1.0997490882873535,3.623178005218506,49.173455835461205,48.8890340777628,195.7961739010148,179.10068955678605,-9.713172767078504e-05,0.0891468673944473,0,0,0
16588,562612.6310270948,2010-09-21 02:15:03,1950.9965112904904,7,48,-1.0997490882873535,3.6201021671295166,49.173455835461205,48.89820316444866,195.7961739010148,179.13389746661335,-9.713172767078504e-05,0.0891468673944473,0,0,0
16589,562642.6463663543,2010-09-21 02:15:33,1981.0118505500268,7,48,-1.099568486213684,3.617188215255737,49.173455835461205,48.907372275790365,195.7961739010148,179.16707762524712,-6.47544875391759e-05,0.0891468673944473,0,0,0
16590,562672.6616920751,2010-09-21 02:16:03,2011.027176270768,7,48,-1.0997490882873535,3.614274263381958,49.173455835461205,48.916541341278005,195.7961739010148,179.20023030715788,-6.47544875391759e-05,0.0891468673944473,0,0,0
16591,562702.6770538909,2010-09-21 02:16:33,2041.042538111671,7,48,-1.0997490882873535,3.6113603115081783,49.173455835461205,48.925710402714,195.7961739010148,179.23335604310086,-6.47544875391759e-05,0.0891468673944473,0,0,0
16592,562732.6923650503,2010-09-21 02:17:03,2071.0578492460027,7,48,-1.0997490882873535,3.6084463596344,49.173455835461205,48.93487952028693,195.7961739010148,179.26645518564143,-9.713172767078504e-05,0.0891468673944473,0,0,0
16593,562762.7076996934,2010-09-21 02:17:33,2101.073183889015,7,48,-1.0997490882873535,3.60537052154541,49.173455835461205,48.94404863182479,195.7961739010148,179.29952780778487,-9.713172767078504e-05,0.0891468673944473,0,0,0
16594,562792.7230246672,2010-09-21 02:18:03,2131.088508862892,7,48,-1.0997490882873535,3.602618455886841,49.173455835461205,48.95321768338138,195.7961739010148,179.3325735571497,-9.713172767078504e-05,0.0891468673944473,0,0,0
16595,562822.7383706184,2010-09-21 02:18:33,2161.1038548141323,7,48,-1.0997490882873535,3.5998663902282715,49.173455835461205,48.96238671463685,195.7961739010148,179.3655928808084,-6.47544875391759e-05,0.0891468673944473,0,0,0
16596,562852.7537205798,2010-09-21 02:19:03,2191.119204770369,7,48,-1.0997490882873535,3.596952438354492,49.173455835461205,48.971555810063485,195.7961739010148,179.39858622318727,-3.237724376958795e-05,0.0891468673944473,0,0,0
16597,562882.7690322354,2010-09-21 02:19:33,2221.1345164310146,7,48,-1.0997490882873535,3.594038486480713,49.173455835461205,48.98072494890586,195.7961739010148,179.43155384716545,-6.47544875391759e-05,0.0891468673944473,0,0,0
16598,562912.7845219255,2010-09-21 02:20:03,2251.150006146111,7,48,-1.0997490882873535,3.5912866592407227,49.173455835461205,48.98989404523392,195.7961739010148,179.46449573903138,-9.713172767078504e-05,0.0891468673944473,0,0,0
16599,562942.7997449648,2010-09-21 02:20:33,2281.165229160481,7,48,-1.0997490882873535,3.588372707366944,49.173455835461205,48.99906313687512,195.7961739010148,179.4974114572394,-9.713172767078504e-05,0.0891468673944473,0,0,0
16600,562972.8152041136,2010-09-21 02:21:03,2311.18068834938,7,48,-1.099568486213684,3.585620641708374,49.173455835461205,49.00823233947924,195.7961739010148,179.53030148167198,-6.47544875391759e-05,0.0891468673944473,0,0,0
16601,563002.8303602762,2010-09-21 02:21:33,2341.195844471778,7,48,-1.099568486213684,3.5827066898345947,49.173455835461205,49.01740132228085,195.7961739010148,179.56316437583433,-6.47544875391759e-05,0.0891468673944473,0,0,0
16602,563032.8456993151,2010-09-21 02:22:03,2371.2111835107635,7,48,-1.0997490882873535,3.579630851745605,49.173455835461205,49.02657040707541,195.7961739010148,179.59600082947927,-9.713172767078504e-05,0.0891468673944473,0,0,0
16603,563062.8611739225,2010-09-21 02:22:33,2401.226658148224,7,48,-1.099568486213684,3.576716899871826,49.173455835461205,49.03573958137429,195.7961739010148,179.62881049193442,-9.713172767078504e-05,0.0891468673944473,0,0,0
16604,563092.8763648618,2010-09-21 02:23:03,2431.241849057455,7,48,-1.0997490882873535,3.573641061782837,49.173455835461205,49.04490867661282,195.7961739010148,179.66159221420338,-0.0001295089750783,0.0891468673944473,0,0,0
16605,563122.8917161614,2010-09-21 02:23:33,2461.2572003921327,7,48,-1.099929690361023,3.570565223693848,49.173455835461205,49.05407778412321,195.7961739010148,179.69434591079985,-9.713172767078504e-05,0.0891468673944473,0,0,0
16606,563152.9070854108,2010-09-21 02:24:03,2491.272569606441,7,48,-1.0997490882873535,3.5673274993896484,49.173455835461205,49.063246900600056,195.7961739010148,179.72707108758405,-9.713172767078504e-05,0.0891468673944473,0,0,0
16607,563182.9227036117,2010-09-21 02:24:33,2521.288187807257,7,48,-1.099568486213684,3.564251661300659,49.173455835461205,49.07241606746146,195.7961739010148,179.75976679504302,-6.47544875391759e-05,0.0891468673944473,0,0,0
16608,563212.9378294083,2010-09-21 02:25:03,2551.303313618995,7,48,-1.0997490882873535,3.56085205078125,49.173455835461205,49.08158507006564,195.7961739010148,179.79243180593565,-6.47544875391759e-05,0.0891468673944473,0,0,0
16609,563242.9534474738,2010-09-21 02:25:33,2581.318931789737,7,48,-1.099568486213684,3.557614326477051,49.173455835461205,49.0907542986056,195.7961739010148,179.82506659411655,-6.47544875391759e-05,0.0891468673944473,0,0,0
16610,563272.9683703841,2010-09-21 02:26:03,2611.3338545746883,7,48,-1.099568486213684,3.5538909435272217,49.173455835461205,49.09992321836904,195.7961739010148,179.85766798929814,-6.47544875391759e-05,0.0891468673944473,0,0,0
16611,563302.9838483398,2010-09-21 02:26:33,2641.3493325354443,7,48,-1.099568486213684,3.5501675605773926,49.173455835461205,49.10909232702108,195.7961739010148,179.89023664237922,-6.47544875391759e-05,0.0891468673944473,0,0,0
16612,563332.9990497251,2010-09-21 02:27:03,2671.364533945888,7,48,-1.0997490882873535,3.5464441776275635,49.173455835461205,49.11826136385153,195.7961739010148,179.92277067068957,-9.713172767078504e-05,0.0891468673944473,0,0,0
16613,563363.014356624,2010-09-21 02:27:33,2701.3798408195844,7,48,-1.099568486213684,3.5422351360321045,49.173455835461205,49.12743049224867,195.7961739010148,179.95526894875974,-9.713172767078504e-05,0.0891468673944473,0,0,0
16614,563393.0296928509,2010-09-21 02:28:03,2731.3951770766266,7,48,-1.0997490882873535,3.5381879806518555,49.173455835461205,49.13659957776682,195.7961739010148,179.98772973628448,-9.713172767078504e-05,0.0891468673944473,0,0,0
16615,563423.0450360354,2010-09-21 02:28:33,2761.410520230884,7,48,-1.0997490882873535,3.533655166625977,49.173455835461205,49.145768700544046,195.7961739010148,180.02015161137285,-0.0001618862152099,0.0891468673944473,0,0,0
16616,563453.0603586432,2010-09-21 02:29:03,2791.4258428388557,7,48,-1.0997490882873535,3.529284238815308,49.173455835461205,49.15493781044507,195.7961739010148,180.05253283719932,-9.713172767078504e-05,0.0891468673944473,0,0,0
16617,563483.0758231353,2010-09-21 02:29:33,2821.441307341017,7,48,-1.0997490882873535,3.5245895385742188,49.173455835461205,49.16410700533572,195.7961739010148,180.08487171003392,-9.713172767078504e-05,0.0891468673944473,0,0,0
16618,563513.0910273278,2010-09-21 02:30:03,2851.4565115534547,7,48,-1.0997490882873535,3.5194091796875,49.173455835461205,49.173276055199445,195.7961739010148,180.11716497891243,-0.0001618862152099,0.0891468673944473,0,0,0
16619,563543.1065158148,2010-09-21 02:30:33,2881.4720000104107,7,48,-1.099929690361023,3.513743162155152,49.173455835461205,49.18244521509498,195.7961739010148,180.1494103288843,-0.0001942634553415,0.0891468673944473,0,0,0
16620,563573.1216929597,2010-09-21 02:31:03,2911.487177165309,7,48,-1.0997490882873535,3.508239269256592,49.173455835461205,49.19161429559756,195.7961739010148,180.1816032843788,-9.713172767078504e-05,0.0891468673944473,0,0,0
16621,563603.1371515371,2010-09-21 02:31:33,2941.502635732656,7,48,-1.099929690361023,3.501440048217773,49.173455835461205,49.20078348851285,195.7961739010148,180.21374011391043,-0.0001942634553415,0.0891468673944473,0,0,0
16622,563633.1523599549,2010-09-21 02:32:03,2971.517844150592,7,48,-1.0997490882873535,3.494478940963745,49.173455835461205,49.2099525747635,195.7961739010148,180.24581425573427,-0.0001942634553415,0.0891468673944473,0,0,0
16623,563663.1677050892,2010-09-21 02:32:33,3001.533189284792,7,48,-1.0997490882873535,3.486222743988037,49.173455835461205,49.21912167062512,195.7961739010148,180.2778186864176,-0.0002590179501567,0.0891468673944473,0,0,0
16624,563693.1830402785,2010-09-21 02:33:03,3031.548524474168,7,48,-1.099929690361023,3.4769952297210693,49.173455835461205,49.22829076053143,195.7961739010148,180.3097440435423,-0.0002913951757363,0.0891468673944473,0,0,0
16625,563723.1983550219,2010-09-21 02:33:33,3061.5638392175083,7,48,-1.0997490882873535,3.466310739517212,49.173455835461205,49.23745985114149,195.7961739010148,180.3415782499048,-0.0003561496851034,0.0891468673944473,0,0,0
16626,563753.2138742657,2010-09-21 02:34:03,3091.5793584713383,7,48,-1.099929690361023,3.453197956085205,49.173455835461205,49.246629089771154,195.7961739010148,180.37330513625344,-0.0004209041653666,0.0891468673944473,0,0,0
16627,563783.2291608888,2010-09-21 02:34:33,3121.594645089473,7,48,-1.0997490882873535,3.437009334564209,49.173455835461205,49.25579819083181,195.7961739010148,180.40489895246932,-0.0005504131549969,0.0891468673944473,0,0,0
16628,563813.2443736026,2010-09-21 02:35:03,3151.6098578231818,7,48,-1.099929690361023,3.415802478790283,49.173455835461205,49.26496734924227,195.7961739010148,180.436322677852,-0.0006799221155233,0.0891468673944473,0,0,0
16629,563843.2598397537,2010-09-21 02:35:33,3181.6253239493967,7,48,-1.099929690361023,3.3861773014068604,49.173455835461205,49.27413647392872,195.7961739010148,180.467515341078,-0.0009389400365762,0.0891468673944473,0,0,0
16630,563873.2750307382,2010-09-21 02:36:03,3211.6405149638904,7,48,-1.0997490882873535,3.3437633514404297,49.173455835461205,49.28330560760832,195.7961739010148,180.49838153362097,-0.0013274669181555,0.0891468673944473,0,0,0
16631,563903.290386975,2010-09-21 02:36:33,3241.6558711957928,7,48,-1.0997490882873535,3.2824084758758545,49.173455835461205,49.29247483572584,195.7961739010148,180.52877667138992,-0.0018778800731524,0.0891468673944473,0,0,0
16632,563933.305748435,2010-09-21 02:37:03,3271.671232640707,7,48,-1.0997490882873535,3.1925618648529053,49.173455835461205,49.30164400430251,195.7961739010148,180.55848839786617,-0.002816820051521,0.0891468673944473,0,0,0
16633,563963.3210463565,2010-09-21 02:37:33,3301.686530572082,7,48,-1.0997490882873535,3.0471885204315186,49.173455835461205,49.31081317983501,195.7961739010148,180.5871581660788,-0.004953718278557,0.0891468673944473,0,0,0
16634,563982.6646128092,2010-09-21 02:37:53,3321.030096999819,7,48,-1.0997490882873535,2.846774101257324,49.173455835461205,49.31672226844969,195.7961739010148,180.60466168804777,-0.0115910051390528,0.0891468673944473,0,0,0
16635,563991.1177642156,2010-09-21 02:38:01,3329.4832484362887,7,48,-1.099568486213684,2.699781894683838,49.173455835461205,49.31930454940223,195.7961739010148,180.6118269986198,-0.0143430707976222,0.0891468673944473,0,0,0
16636,564051.1462840729,2010-09-21 02:39:01,60.014921431959,8,48,0.0,3.354933261871338,49.173455835461205,49.31930454940223,195.7961739010148,180.6118269986198,0.0014569282066076,0.0891468673944473,0,0,0
16637,564051.3480290365,2010-09-21 02:39:02,0.187437718381653,9,48,-1.9243103452026844e-05,3.355257034301758,49.173455835461205,49.31930455040414,195.7961739010148,180.61182700198148,0.0,0.0868726819753646,0,0,0
16638,564056.1762278685,2010-09-21 02:39:07,5.015636620641524,9,48,0.0007031940040178,3.3638370037078857,49.173456581106414,49.31930455073896,195.7961764064705,180.61182700310584,0.0012303352123126,0.0868726819753646,0,0,0
