Data_Point,Test_Time(s),Date_Time,Step_Time(s),Step_Index,Cycle_Index,Current(A),Voltage(V),Charge_Capacity(Ah),Discharge_Capacity(Ah),Charge_Energy(Wh),Discharge_Energy(Wh),dV/dt(V/s),Internal_Resistance(Ohm),Is_FC_Data,AC_Impedance(Ohm),ACI_Phase_Angle(Deg)
16639,564086.1902721192,2010-09-21 02:39:37,30.01546574526414,1,49,0.0,3.4020421504974365,49.173456581106414,49.31930455073896,195.7961764064705,180.61182700310584,0.0008741855854168,0.0868726819753646,0,0,0
16640,564116.2054841312,2010-09-21 02:40:07,60.03067778223335,1,49,0.0,3.42826771736145,49.173456581106414,49.31930455073896,195.7961764064705,180.61182700310584,0.0006475448608398,0.0868726819753646,0,0,0
16641,564146.220933305,2010-09-21 02:40:37,90.04612693107023,1,49,0.0,3.4476938247680664,49.173456581106414,49.31930455073896,195.7961764064705,180.61182700310584,0.0005180359003134,0.0868726819753646,0,0,0
16642,564176.1892861042,2010-09-21 02:41:07,120.01447973017262,1,49,0.0,3.4627492427825928,49.173456581106414,49.31930455073896,195.7961764064705,180.61182700310584,0.0003885269106831,0.0868726819753646,0,0,0
16643,564206.2357574537,2010-09-21 02:41:37,30.01533626706664,2,49,0.5501165986061096,3.601647138595581,49.17804326670709,49.31930455073896,195.812547594799,180.61182700310584,0.0014569759368896,0.0868726819753646,0,0,0
16644,564236.2510754903,2010-09-21 02:42:07,60.03065430362713,2,49,0.5501165986061096,3.645194530487061,49.18262998083467,49.31930455073896,195.8291730606308,180.61182700310584,0.0010036944877356,0.0868726819753646,0,0,0
16645,564266.266407622,2010-09-21 02:42:37,90.04598643537136,2,49,0.5504778623580933,3.677085876464844,49.187216619648055,49.31930455073896,195.84596809167965,180.61182700310584,0.0007770538213662,0.0868726819753646,0,0,0
16646,564296.2817604203,2010-09-21 02:43:07,120.06133923370258,2,49,0.5501165986061096,3.701854467391968,49.191803256737046,49.31930455073896,195.8628923388826,180.61182700310584,0.0005827903514727,0.0868726819753646,0,0,0
16647,564326.2970830384,2010-09-21 02:43:37,150.0766618817741,2,49,0.5501165986061096,3.722414016723633,49.196389890722784,49.31930455073896,195.87992034830395,180.61182700310584,0.0004856586456298,0.0868726819753646,0,0,0
16648,564356.3124395309,2010-09-21 02:44:07,180.09201834926415,2,49,0.550297200679779,3.738926410675049,49.20097658686818,49.31930455073896,195.8970329198248,180.61182700310584,0.0004209041653666,0.0868726819753646,0,0,0
16649,564386.3277483644,2010-09-21 02:44:37,210.1073271778401,2,49,0.5501165986061096,3.751067876815796,49.20556320096565,49.31930455073896,195.9142115412238,180.61182700310584,0.0002590179501567,0.0868726819753646,0,0,0
16650,564416.3431093232,2010-09-21 02:45:07,240.12268816160332,2,49,0.5501165986061096,3.758676290512085,49.21014985010373,49.31930455073896,195.93143539985144,180.61182700310584,0.0001618862152099,0.0868726819753646,0,0,0
16651,564446.3585493944,2010-09-21 02:45:37,270.13812823278107,2,49,0.5499359965324402,3.762885332107544,49.214736513210376,49.31930455073896,195.94868559646852,180.61182700310584,9.713172767078504e-05,0.0868726819753646,0,0,0
16652,564476.3737383838,2010-09-21 02:46:07,300.1533173124453,2,49,0.5501165986061096,3.766446828842163,49.219323200082194,49.31930455073896,195.96595354045667,180.61182700310584,6.47544875391759e-05,0.0868726819753646,0,0,0
16653,564506.3891886806,2010-09-21 02:46:37,330.1687675139097,2,49,0.5501165986061096,3.769846439361572,49.22390985538495,49.31930455073896,195.98323656384704,180.61182700310584,9.713172767078504e-05,0.0868726819753646,0,0,0
16654,564536.4044705017,2010-09-21 02:47:07,360.1840493501085,2,49,0.550297200679779,3.7729222774505615,49.22849644758147,49.31930455073896,196.0005339518356,180.61182700310584,9.713172767078504e-05,0.0868726819753646,0,0,0
16655,564566.4197827538,2010-09-21 02:47:37,390.1993615721551,2,49,0.5504778623580933,3.7761600017547607,49.233083075092885,49.31930455073896,196.01784610698576,180.61182700310584,9.713172767078504e-05,0.0868726819753646,0,0,0
16656,564596.4352325292,2010-09-21 02:48:07,420.214811347556,2,49,0.5501165986061096,3.77923583984375,49.237669753353984,49.31930455073896,196.03517291070744,180.61182700310584,0.0001295089750783,0.0868726819753646,0,0,0
16657,564626.4504576639,2010-09-21 02:48:37,450.2300365022691,2,49,0.5499359965324402,3.782149791717529,49.242256407852544,49.31930455073896,196.05251379681133,180.61182700310584,9.713172767078504e-05,0.0868726819753646,0,0,0
16658,564656.4659765267,2010-09-21 02:49:07,480.2455553450729,2,49,0.5499359965324402,3.785387516021729,49.2468430806908,49.31930455073896,196.06986881076,180.61182700310584,9.713172767078504e-05,0.0868726819753646,0,0,0
16659,564686.4812482577,2010-09-21 02:49:37,510.2608271061226,2,49,0.5501165986061096,3.788301467895508,49.25142964920242,49.31930455073896,196.08723732120248,180.61182700310584,6.47544875391759e-05,0.0868726819753646,0,0,0
16660,564716.4968720725,2010-09-21 02:50:07,540.2764509961404,2,49,0.550297200679779,3.791215419769287,49.25601631536907,49.31930455073896,196.1046198543518,180.61182700310584,6.47544875391759e-05,0.0868726819753646,0,0,0
16661,564746.5119884658,2010-09-21 02:50:37,570.2915672891179,2,49,0.5499359965324402,3.7941293716430655,49.26060286224705,49.31930455073896,196.1220153716,180.61182700310584,6.47544875391759e-05,0.0868726819753646,0,0,0
16662,564776.5271291395,2010-09-21 02:51:07,600.3067079579412,2,49,0.5501165986061096,3.797205209732056,49.26518939253253,49.31930455073896,196.13942429180923,180.61182700310584,6.47544875391759e-05,0.0868726819753646,0,0,0
16663,564806.5424469105,2010-09-21 02:51:37,630.3220257288385,2,49,0.5499359965324402,3.800119161605835,49.26977598899012,49.31930455073896,196.1568469558834,180.61182700310584,9.713172767078504e-05,0.0868726819753646,0,0,0
16664,564836.5578152125,2010-09-21 02:52:07,660.3373940308694,2,49,0.5499359965324402,3.8030331134796143,49.27436256383507,49.31930455073896,196.1742830853036,180.61182700310584,6.47544875391759e-05,0.0868726819753646,0,0,0
16665,564866.5731237052,2010-09-21 02:52:37,690.3527025236069,2,49,0.5501165986061096,3.8059470653533936,49.27894914717658,49.31930455073896,196.19173291919816,180.61182700310584,6.47544875391759e-05,0.0868726819753646,0,0,0
16666,564896.5884573107,2010-09-21 02:53:07,720.3680361240172,2,49,0.5499359965324402,3.809022903442383,49.28353578741724,49.31930455073896,196.209196952787,180.61182700310584,3.237724376958795e-05,0.0868726819753646,0,0,0
16667,564926.6037856028,2010-09-21 02:53:37,750.3833644211898,2,49,0.5501165986061096,3.812098741531372,49.28812241109767,49.31930455073896,196.22667525160097,180.61182700310584,3.237724376958795e-05,0.0868726819753646,0,0,0
16668,564956.6192487717,2010-09-21 02:54:07,780.3988275850103,2,49,0.5501165986061096,3.815822124481201,49.29270902571855,49.31930455073896,196.24416871014404,180.61182700310584,0.0001295089750783,0.0868726819753646,0,0,0
16669,564986.6344538162,2010-09-21 02:54:37,810.4140326345378,2,49,0.5501165986061096,3.8192217350006095,49.29729562735102,49.31930455073896,196.2616774508892,180.61182700310584,9.713172767078504e-05,0.0868726819753646,0,0,0
16670,565016.6497958074,2010-09-21 02:55:07,840.4293746258932,2,49,0.5499359965324402,3.8224594593048096,49.30188222773688,49.31930455073896,196.2792018840492,180.61182700310584,6.47544875391759e-05,0.0868726819753646,0,0,0
16671,565046.6651359793,2010-09-21 02:55:37,870.4447147977065,2,49,0.5501165986061096,3.8260209560394287,49.306468820181465,49.31930455073896,196.29674209253704,180.61182700310584,9.713172767078504e-05,0.0868726819753646,0,0,0
16672,565076.6804515348,2010-09-21 02:56:07,900.4600303530736,2,49,0.5499359965324402,3.829258680343628,49.31105547541973,49.31930455073896,196.31429848685488,180.61182700310584,3.237724376958795e-05,0.0868726819753646,0,0,0
16673,565106.6962858249,2010-09-21 02:56:37,930.4758646432828,2,49,0.5501165986061096,3.832658290863037,49.3156421898583,49.31930455073896,196.33187089136348,180.61182700310584,3.237724376958795e-05,0.0868726819753646,0,0,0
16674,565136.7111480036,2010-09-21 02:57:07,960.4907268219516,2,49,0.5501165986061096,3.836219549179077,49.32022875273229,49.31930455073896,196.3494582315434,180.61182700310584,9.713172767078504e-05,0.0868726819753646,0,0,0
16675,565166.7266092828,2010-09-21 02:57:37,990.50618810608,2,49,0.5501165986061096,3.839457273483277,49.32481536088751,49.31930455073896,196.36706104789064,180.61182700310584,9.713172767078504e-05,0.0868726819753646,0,0,0
16676,565196.7417927684,2010-09-21 02:58:07,1020.521371581756,2,49,0.5501165986061096,3.842694997787476,49.32940202983348,49.31930455073896,196.3846790511841,180.61182700310584,9.713172767078504e-05,0.0868726819753646,0,0,0
16677,565226.7571288901,2010-09-21 02:58:37,1050.5367077084725,2,49,0.550297200679779,3.845932722091675,49.33398868396375,49.31930455073896,196.4023115405924,180.61182700310584,9.713172767078504e-05,0.0868726819753646,0,0,0
16678,565256.7725861843,2010-09-21 02:59:07,1080.5521650026412,2,49,0.5501165986061096,3.849008560180664,49.338575349816665,49.31930455073896,196.41995846183383,180.61182700310584,6.47544875391759e-05,0.0868726819753646,0,0,0
16679,565286.7878001962,2010-09-21 02:59:37,1110.5673790145402,2,49,0.5501165986061096,3.8519225120544434,49.34316198462283,49.31930455073896,196.4376192443881,180.61182700310584,6.47544875391759e-05,0.0868726819753646,0,0,0
16680,565316.8031343981,2010-09-21 03:00:07,1140.582713216452,2,49,0.550297200679779,3.8549983501434326,49.34774859256876,49.31930455073896,196.4552934114376,180.61182700310584,9.713172767078504e-05,0.0868726819753646,0,0,0
16681,565346.8184698481,2010-09-21 03:00:37,1170.5980486664791,2,49,0.5501165986061096,3.857588529586792,49.35233530042026,49.31930455073896,196.47298111754225,180.61182700310584,3.237724376958795e-05,0.0868726819753646,0,0,0
16682,565376.8338127116,2010-09-21 03:01:07,1200.6133915550738,2,49,0.5501165986061096,3.8605024814605713,49.35692194319777,49.31930455073896,196.49068099020823,180.61182700310584,9.713172767078504e-05,0.0868726819753646,0,0,0
16683,565406.8492709832,2010-09-21 03:01:37,1230.6288498016202,2,49,0.5501165986061096,3.862768888473511,49.36150856641822,49.31930455073896,196.50839265187244,180.61182700310584,6.47544875391759e-05,0.0868726819753646,0,0,0
16684,565436.8644644087,2010-09-21 03:02:07,1260.6440432271324,2,49,0.5499359965324402,3.86519718170166,49.36609517824656,49.31930455073896,196.5261154024832,180.61182700310584,9.713172767078504e-05,0.0868726819753646,0,0,0
16685,565466.8798251469,2010-09-21 03:02:37,1290.6594039652823,2,49,0.5499359965324402,3.8673017024993896,49.370681816111805,49.31930455073896,196.54384880124832,180.61182700310584,3.237724376958795e-05,0.0868726819753646,0,0,0
16686,565496.8951639303,2010-09-21 03:03:07,1320.6747427436176,2,49,0.5501165986061096,3.869406223297119,49.37526843941868,49.31930455073896,196.5615919939277,180.61182700310584,6.47544875391759e-05,0.0868726819753646,0,0,0
16687,565526.8951866624,2010-09-21 03:03:37,1350.6747655759957,2,49,0.5501165986061096,3.8715107440948486,49.379852741318544,49.31930455073896,196.57933544055965,180.61182700310584,3.237724376958795e-05,0.0868726819753646,0,0,0
16688,565556.9101992465,2010-09-21 03:04:07,1380.6897780598492,2,49,0.5499359965324402,3.873129606246948,49.38443941037443,49.31930455073896,196.59709661569403,180.61182700310584,3.237724376958795e-05,0.0868726819753646,0,0,0
16689,565586.9255255236,2010-09-21 03:04:38,1410.7051043419922,2,49,0.5499359965324402,3.874910354614258,49.38902607789777,49.31930455073896,196.61486565506087,180.61182700310584,6.47544875391759e-05,0.0868726819753646,0,0,0
16690,565616.9410176146,2010-09-21 03:05:08,1440.7205964480568,2,49,0.5501165986061096,3.876367330551148,49.393612772262,49.31930455073896,196.63264221607756,180.61182700310584,6.47544875391759e-05,0.0868726819753646,0,0,0
16691,565646.9588681377,2010-09-21 03:05:38,1470.738447076356,2,49,0.5501165986061096,3.877986192703247,49.398199790568704,49.31930455073896,196.65042687016245,180.61182700310584,3.237724376958795e-05,0.0868726819753646,0,0,0
16692,565676.9715529414,2010-09-21 03:06:08,1500.7511317546491,2,49,0.5501165986061096,3.879281282424927,49.40278611190353,49.31930455073896,196.66821538373785,180.61182700310584,0.0,0.0868726819753646,0,0,0
16693,565706.9868733939,2010-09-21 03:06:38,1530.7664522122527,2,49,0.550297200679779,3.8805763721466064,49.40737281583744,49.31930455073896,196.6860114226036,180.61182700310584,3.237724376958795e-05,0.0868726819753646,0,0,0
16694,565737.0021795558,2010-09-21 03:07:08,1560.7817583741726,2,49,0.5501165986061096,3.881871461868286,49.41195944026735,49.31930455073896,196.70381294586875,180.61182700310584,3.237724376958795e-05,0.0868726819753646,0,0,0
16695,565767.017553166,2010-09-21 03:07:38,1590.797131979441,2,49,0.5501165986061096,3.883004665374756,49.41654603290936,49.31930455073896,196.72161992195623,180.61182700310584,3.237724376958795e-05,0.0868726819753646,0,0,0
16696,565797.0328935033,2010-09-21 03:08:08,1620.8124723216797,2,49,0.5501165986061096,3.884299755096436,49.42113268094862,49.31930455073896,196.73943275652164,180.61182700310584,3.237724376958795e-05,0.0868726819753646,0,0,0
16697,565827.0482773391,2010-09-21 03:08:38,1650.827856162498,2,49,0.5501165986061096,3.8852710723876953,49.42571938077694,49.31930455073896,196.7572511874506,180.61182700310584,0.0,0.0868726819753646,0,0,0
16698,565857.0635627091,2010-09-21 03:09:08,1680.8431415275052,2,49,0.550297200679779,3.886728048324585,49.4303060105924,49.31930455073896,196.7750747542073,180.61182700310584,3.237724376958795e-05,0.0868726819753646,0,0,0
16699,565887.0789250814,2010-09-21 03:09:38,1710.8585039899597,2,49,0.5501165986061096,3.8876993656158447,49.43489270890274,49.31930455073896,196.79290391585684,180.61182700310584,6.47544875391759e-05,0.0868726819753646,0,0,0
16700,565917.0942615538,2010-09-21 03:10:08,1740.8738403773266,2,49,0.5501165986061096,3.888994455337525,49.43947935134948,49.31930455073896,196.81073817212803,180.61182700310584,6.47544875391759e-05,0.0868726819753646,0,0,0
16701,565947.1098092939,2010-09-21 03:10:38,1770.8893881122492,2,49,0.5501165986061096,3.889965772628784,49.44406599209345,49.31930455073896,196.82857771129363,180.61182700310584,3.237724376958795e-05,0.0868726819753646,0,0,0
16702,565977.1249058476,2010-09-21 03:11:08,1800.904484665955,2,49,0.5501165986061096,3.891422748565674,49.44865263234134,49.31930455073896,196.84642258420573,180.61182700310584,9.713172767078504e-05,0.0868726819753646,0,0,0
16703,566007.1403249163,2010-09-21 03:11:38,1830.919903824932,2,49,0.5499359965324402,3.892232179641724,49.45323931962829,49.31930455073896,196.86427295139947,180.61182700310584,3.237724376958795e-05,0.0868726819753646,0,0,0
16704,566037.1555948427,2010-09-21 03:12:08,1860.93517368624,2,49,0.5499359965324402,3.8935272693634033,49.45782596572966,49.31930455073896,196.88212847420195,180.61182700310584,3.237724376958795e-05,0.0868726819753646,0,0,0
16705,566067.1710343325,2010-09-21 03:12:38,1890.9506131609287,2,49,0.550297200679779,3.894660472869873,49.46241275441103,49.31930455073896,196.89998997037216,180.61182700310584,0.0,0.0868726819753646,0,0,0
16706,566097.1863709354,2010-09-21 03:13:08,1920.9659497538084,2,49,0.5499359965324402,3.895793676376343,49.46699941471615,49.31930455073896,196.91785578341512,180.61182700310584,6.47544875391759e-05,0.0868726819753646,0,0,0
16707,566127.2016005864,2010-09-21 03:13:38,1950.9811794047448,2,49,0.5497553944587708,3.8970887660980233,49.47158596913724,49.31930455073896,196.9357267695692,180.61182700310584,3.237724376958795e-05,0.0868726819753646,0,0,0
16708,566157.2171320507,2010-09-21 03:14:08,1980.996710869054,2,49,0.5501165986061096,3.898221969604492,49.47617258250044,49.31930455073896,196.95360338349053,180.61182700310584,3.237724376958795e-05,0.0868726819753646,0,0,0
16709,566187.2322523487,2010-09-21 03:14:38,2011.0118311670285,2,49,0.5501165986061096,3.899355173110962,49.48075908095363,49.31930455073896,196.97148506474093,180.61182700310584,-3.237724376958795e-05,0.0868726819753646,0,0,0
16710,566217.2475830468,2010-09-21 03:15:08,2041.0271618752192,2,49,0.5501165986061096,3.900488376617432,49.48534574850851,49.31930455073896,196.98937293680308,180.61182700310584,3.237724376958795e-05,0.0868726819753646,0,0,0
16711,566247.2629508877,2010-09-21 03:15:38,2071.0425297311367,2,49,0.5501165986061096,3.901945352554321,49.48993236179058,49.31930455073896,197.00726619580092,180.61182700310584,3.237724376958795e-05,0.0868726819753646,0,0,0
16712,566277.2782768391,2010-09-21 03:16:08,2101.057855657391,2,49,0.550297200679779,3.903240442276001,49.49451898792414,49.31930455073896,197.02516515014003,180.61182700310584,6.47544875391759e-05,0.0868726819753646,0,0,0
16713,566307.2936223291,2010-09-21 03:16:38,2131.0732011474797,2,49,0.5501165986061096,3.904373645782471,49.49910554295743,49.31930455073896,197.0430695322644,180.61182700310584,3.237724376958795e-05,0.0868726819753646,0,0,0
16714,566337.3090530019,2010-09-21 03:17:08,2161.08863194551,2,49,0.5501165986061096,3.905506849288941,49.50369221068434,49.31930455073896,197.0609800399341,180.61182700310584,3.237724376958795e-05,0.0868726819753646,0,0,0
16715,566367.3242283021,2010-09-21 03:17:38,2191.1038071505413,2,49,0.5501165986061096,3.90664005279541,49.50827890357843,49.31930455073896,197.07889637469103,180.61182700310584,0.0,0.0868726819753646,0,0,0
16716,566397.3396837867,2010-09-21 03:18:08,2221.119262630181,2,49,0.5501165986061096,3.90793514251709,49.51286635536815,49.31930455073896,197.0968215683247,180.61182700310584,0.0,0.0868726819753646,0,0,0
16717,566427.3548657937,2010-09-21 03:18:38,2251.1344446371904,2,49,0.5501165986061096,3.90939211845398,49.51745361061708,49.31930455073896,197.11475193246548,180.61182700310584,3.237724376958795e-05,0.0868726819753646,0,0,0
16718,566457.3702684114,2010-09-21 03:19:08,2281.149847229816,2,49,0.550297200679779,3.910687208175659,49.52204110073298,49.31930455073896,197.13268921176595,180.61182700310584,3.237724376958795e-05,0.0868726819753646,0,0,0
16719,566487.3856085532,2010-09-21 03:19:38,2311.16518746178,2,49,0.5499359965324402,3.911982297897339,49.526628532715485,49.31930455073896,197.15063227909172,180.61182700310584,3.237724376958795e-05,0.0868726819753646,0,0,0
16720,566517.4009388152,2010-09-21 03:20:08,2341.180517633632,2,49,0.550297200679779,3.9132773876190186,49.5312159489874,49.31930455073896,197.1685813696254,180.61182700310584,3.237724376958795e-05,0.0868726819753646,0,0,0
16721,566547.4163305458,2010-09-21 03:20:38,2371.195909379181,2,49,0.5501165986061096,3.914896011352539,49.53580341969618,49.31930455073896,197.1865368456832,180.61182700310584,9.713172767078504e-05,0.0868726819753646,0,0,0
16722,566577.4317224667,2010-09-21 03:21:08,2401.211301290143,2,49,0.5501165986061096,3.915867328643799,49.54039019579653,49.31930455073896,197.2044957296027,180.61182700310584,3.237724376958795e-05,0.0868726819753646,0,0,0
16723,566607.4471588988,2010-09-21 03:21:38,2431.226737742288,2,49,0.5499359965324402,3.917324304580689,49.544976863689946,49.31930455073896,197.22246050767453,180.61182700310584,0.0,0.0868726819753646,0,0,0
16724,566637.4622757433,2010-09-21 03:22:08,2461.2418545615783,2,49,0.5501165986061096,3.918781280517578,49.54956355700846,49.31930455073896,197.2404317355583,180.61182700310584,3.237724376958795e-05,0.0868726819753646,0,0,0
16725,566667.478026149,2010-09-21 03:22:38,2491.25760506765,2,49,0.550297200679779,3.920238256454468,49.5541503417581,49.31930455073896,197.25840974509123,180.61182700310584,3.237724376958795e-05,0.0868726819753646,0,0,0
16726,566697.4929490442,2010-09-21 03:23:08,2521.2725278576136,2,49,0.5501165986061096,3.921533346176148,49.558737036297806,49.31930455073896,197.27639377708147,180.61182700310584,3.237724376958795e-05,0.0868726819753646,0,0,0
16727,566727.5084202832,2010-09-21 03:23:38,2551.2879991016034,2,49,0.5501165986061096,3.922990322113037,49.56332375290338,49.31930455073896,197.29438442730336,180.61182700310584,0.0,0.0868726819753646,0,0,0
16728,566757.5236127714,2010-09-21 03:24:08,2581.303191594788,2,49,0.550297200679779,3.9246091842651367,49.56791049051525,49.31930455073896,197.31238173209536,180.61182700310584,6.47544875391759e-05,0.0868726819753646,0,0,0
16729,566787.5389487828,2010-09-21 03:24:38,2611.318527606217,2,49,0.5501165986061096,3.925904273986816,49.57249725945994,49.31930455073896,197.33038581343672,180.61182700310584,3.237724376958795e-05,0.0868726819753646,0,0,0
16730,566817.5542990849,2010-09-21 03:25:08,2641.3338779083174,2,49,0.5501165986061096,3.927199363708496,49.577084011638654,49.31930455073896,197.3483963633392,180.61182700310584,0.0,0.0868726819753646,0,0,0
16731,566847.5696328558,2010-09-21 03:25:38,2671.3492116741404,2,49,0.5499359965324402,3.928818225860596,49.581670725184686,49.31930455073896,197.36641356145404,180.61182700310584,0.0,0.0868726819753646,0,0,0
16732,566877.5851191273,2010-09-21 03:26:08,2701.364697955666,2,49,0.550297200679779,3.930598974227905,49.5862574985126,49.31930455073896,197.3844378279492,180.61182700310584,9.713172767078504e-05,0.0868726819753646,0,0,0
16733,566907.600453254,2010-09-21 03:26:38,2731.3800320773776,2,49,0.550297200679779,3.931894063949585,49.590844225934106,49.31930455073896,197.40246869403265,180.61182700310584,3.237724376958795e-05,0.0868726819753646,0,0,0
16734,566937.6156347598,2010-09-21 03:27:08,2761.395213578124,2,49,0.550297200679779,3.933512926101685,49.59543099936619,49.31930455073896,197.4205066456774,180.61182700310584,9.713172767078504e-05,0.0868726819753646,0,0,0
16735,566967.6309898439,2010-09-21 03:27:38,2791.4105686571484,2,49,0.5499359965324402,3.9346461296081534,49.60001779915369,49.31930455073896,197.43855168241825,180.61182700310584,0.0,0.0868726819753646,0,0,0
16736,566997.64630774,2010-09-21 03:28:08,2821.425886563383,2,49,0.5501165986061096,3.936426877975464,49.60460457468344,49.31930455073896,197.45660366036265,180.61182700310584,3.237724376958795e-05,0.0868726819753646,0,0,0
16737,567027.6616464833,2010-09-21 03:28:38,2851.441225301618,2,49,0.5501165986061096,3.9378838539123535,49.6091913477169,49.31930455073896,197.4746625900131,180.61182700310584,0.0,0.0868726819753646,0,0,0
16738,567057.6769815874,2010-09-21 03:29:08,2881.456560405782,2,49,0.5501165986061096,3.939502716064453,49.61377815637703,49.31930455073896,197.49272891705544,180.61182700310584,0.0,0.0868726819753646,0,0,0
16739,567087.6923391225,2010-09-21 03:29:38,2911.471917966,2,49,0.550297200679779,3.9411215782165527,49.61836488932951,49.31930455073896,197.5108021660732,180.61182700310584,3.237724376958795e-05,0.0868726819753646,0,0,0
16740,567117.7076657607,2010-09-21 03:30:08,2941.487244599018,2,49,0.5499359965324402,3.942740440368652,49.62295156815687,49.31930455073896,197.52888248890025,180.61182700310584,3.237724376958795e-05,0.0868726819753646,0,0,0
16741,567147.7229852057,2010-09-21 03:30:38,2971.5025640440945,2,49,0.5501165986061096,3.944359302520752,49.62753827182837,49.31930455073896,197.54697030806204,180.61182700310584,6.47544875391759e-05,0.0868726819753646,0,0,0
16742,567177.7383496981,2010-09-21 03:31:08,3001.5179285165664,2,49,0.550297200679779,3.945978164672852,49.63212495876654,49.31930455073896,197.56506542425012,180.61182700310584,6.47544875391759e-05,0.0868726819753646,0,0,0
16743,567207.7539472826,2010-09-21 03:31:38,3031.5335261109462,2,49,0.5499359965324402,3.947597026824951,49.63671174445937,49.31930455073896,197.58316836851108,180.61182700310584,6.47544875391759e-05,0.0868726819753646,0,0,0
16744,567237.7690262574,2010-09-21 03:32:08,3061.5486050757468,2,49,0.5499359965324402,3.949215888977051,49.64129832916591,49.31930455073896,197.6012780420004,180.61182700310584,6.47544875391759e-05,0.0868726819753646,0,0,0
16745,567267.7844951554,2010-09-21 03:32:38,3091.564073973881,2,49,0.5499359965324402,3.9508347511291504,49.64588504878475,49.31930455073896,197.6193959011269,180.61182700310584,3.237724376958795e-05,0.0868726819753646,0,0,0
16746,567297.7996565159,2010-09-21 03:33:08,3121.5792353594165,2,49,0.5501165986061096,3.95261549949646,49.65047181065633,49.31930455073896,197.63752164696868,180.61182700310584,6.47544875391759e-05,0.0868726819753646,0,0,0
16747,567327.8150203519,2010-09-21 03:33:38,3151.5945991902863,2,49,0.5499359965324402,3.9540724754333496,49.65505846954309,49.31930455073896,197.65565466953177,180.61182700310584,3.237724376958795e-05,0.0868726819753646,0,0,0
16748,567357.8302503135,2010-09-21 03:34:08,3181.6098291620237,2,49,0.5501165986061096,3.956015110015869,49.6596444480726,49.31930455073896,197.67379261320144,180.61182700310584,3.237724376958795e-05,0.0868726819753646,0,0,0
16749,567387.8456834625,2010-09-21 03:34:38,3211.625262280847,2,49,0.5499359965324402,3.9576339721679688,49.66423041897946,49.31930455073896,197.6919384921709,180.61182700310584,6.47544875391759e-05,0.0868726819753646,0,0,0
16750,567417.861036742,2010-09-21 03:35:08,3241.6406155904547,2,49,0.5501165986061096,3.9594147205352783,49.66881639446283,49.31930455073896,197.7100924365432,180.61182700310584,6.47544875391759e-05,0.0868726819753646,0,0,0
16751,567447.8764049439,2010-09-21 03:35:38,3271.65598376216,2,49,0.5501165986061096,3.961195468902588,49.67340234292294,49.31930455073896,197.72825433175217,180.61182700310584,3.237724376958795e-05,0.0868726819753646,0,0,0
16752,567477.8917185593,2010-09-21 03:36:08,3301.6712974077604,2,49,0.5499359965324402,3.9629762172698975,49.67798828747473,49.31930455073896,197.74642442104656,180.61182700310584,3.237724376958795e-05,0.0868726819753646,0,0,0
16753,567507.9070871972,2010-09-21 03:36:39,3331.6866660406167,2,49,0.5501165986061096,3.964756965637207,49.682574124894174,49.31930455073896,197.7646023512584,180.61182700310584,3.237724376958795e-05,0.0868726819753646,0,0,0
16754,567537.9226046014,2010-09-21 03:37:09,3361.7021834197667,2,49,0.550297200679779,3.966861486434937,49.68716065566776,49.31930455073896,197.7827915498676,180.61182700310584,6.47544875391759e-05,0.0868726819753646,0,0,0
16755,567567.94036921,2010-09-21 03:37:39,3391.7199481235853,2,49,0.5501165986061096,3.968480348587036,49.69174785881606,49.31930455073896,197.80099196593724,180.61182700310584,3.237724376958795e-05,0.0868726819753646,0,0,0
16756,567597.9530871763,2010-09-21 03:38:09,3421.7326660899707,2,49,0.5501165986061096,3.970422983169556,49.69633433210655,49.31930455073896,197.81919807092103,180.61182700310584,3.237724376958795e-05,0.0868726819753646,0,0,0
16757,567627.9684065563,2010-09-21 03:38:39,3451.747985404722,2,49,0.5501165986061096,3.972365617752075,49.700921202878455,49.31930455073896,197.8374144866047,180.61182700310584,6.47544875391759e-05,0.0868726819753646,0,0,0
16758,567657.9837572944,2010-09-21 03:39:09,3481.7633361128355,2,49,0.5501165986061096,3.9741463661193848,49.70550805421231,49.31930455073896,197.8556395015738,180.61182700310584,3.237724376958795e-05,0.0868726819753646,0,0,0
16759,567687.9992328843,2010-09-21 03:39:39,3511.778811702673,2,49,0.5499359965324402,3.976089000701904,49.71009498602449,49.31930455073896,197.8738737711336,180.61182700310584,0.0,0.0868726819753646,0,0,0
16760,567718.0144614475,2010-09-21 03:40:09,3541.794040376169,2,49,0.5501165986061096,3.977869749069214,49.71468183154466,49.31930455073896,197.8921165174596,180.61182700310584,0.0,0.0868726819753646,0,0,0
16761,567748.0297592987,2010-09-21 03:40:39,3571.809338122081,2,49,0.5501165986061096,3.9802980422973633,49.71926859253964,49.31930455073896,197.9103680399939,180.61182700310584,9.713172767078504e-05,0.0868726819753646,0,0,0
16762,567778.0451012901,2010-09-21 03:41:09,3601.824680113437,2,49,0.5501165986061096,3.982078790664673,49.72385535589532,49.31930455073896,197.928628947052,180.61182700310584,3.237724376958795e-05,0.0868726819753646,0,0,0
16763,567808.060441136,2010-09-21 03:41:39,3631.840019954425,2,49,0.5501165986061096,3.9841833114624015,49.72844213370794,49.31930455073896,197.94689921587212,180.61182700310584,3.237724376958795e-05,0.0868726819753646,0,0,0
16764,567838.0758792022,2010-09-21 03:42:09,3661.855458040648,2,49,0.5499359965324402,3.986287832260132,49.73302892378922,49.31930455073896,197.96517890354443,180.61182700310584,6.47544875391759e-05,0.0868726819753646,0,0,0
16765,567868.0912140958,2010-09-21 03:42:39,3691.870792909224,2,49,0.550297200679779,3.988392353057861,49.7376156956507,49.31930455073896,197.98346792643275,180.61182700310584,9.713172767078504e-05,0.0868726819753646,0,0,0
16766,567898.1064259624,2010-09-21 03:43:09,3721.886004785793,2,49,0.5499359965324402,3.990334987640381,49.74220244119553,49.31930455073896,198.0017663414791,180.61182700310584,0.0,0.0868726819753646,0,0,0
16767,567928.1219044094,2010-09-21 03:43:39,3751.9014832327616,2,49,0.5501165986061096,3.99260139465332,49.7467892524109,49.31930455073896,198.02007466413608,180.61182700310584,6.47544875391759e-05,0.0868726819753646,0,0,0
16768,567958.1370928023,2010-09-21 03:44:09,3781.916671620699,2,49,0.5499359965324402,3.994705677032471,49.75137604418035,49.31930455073896,198.0383926391591,180.61182700310584,6.47544875391759e-05,0.0868726819753646,0,0,0
16769,567988.1524327185,2010-09-21 03:44:39,3811.9320115368746,2,49,0.550297200679779,3.9968101978302,49.75596296131987,49.31930455073896,198.05672103145756,180.61182700310584,3.237724376958795e-05,0.0868726819753646,0,0,0
16770,568018.16776678,2010-09-21 03:45:09,3841.947345598436,2,49,0.5501165986061096,3.9989147186279297,49.76054987869166,49.31930455073896,198.0750592385748,180.61182700310584,3.237724376958795e-05,0.0868726819753646,0,0,0
16771,568048.1831142902,2010-09-21 03:45:39,3871.9626931085672,2,49,0.5501165986061096,4.001019477844238,49.76513669502986,49.31930455073896,198.0934070055683,180.61182700310584,0.0,0.0868726819753646,0,0,0
16772,568078.1984535948,2010-09-21 03:46:09,3901.978032413216,2,49,0.5501165986061096,4.003285884857178,49.7697235226016,49.31930455073896,198.11176485606023,180.61182700310584,0.0,0.0868726819753646,0,0,0
16773,568108.2137849897,2010-09-21 03:46:39,3931.9933638081206,2,49,0.5501165986061096,4.005552291870117,49.77431038577247,49.31930455073896,198.13013291332933,180.61182700310584,6.47544875391759e-05,0.0868726819753646,0,0,0
16774,568138.2291327806,2010-09-21 03:47:09,3962.0087115989527,2,49,0.5501165986061096,4.007818698883057,49.7788972375364,49.31930455073896,198.14851105970644,180.61182700310584,9.71794142969884e-05,0.0868726819753646,0,0,0
16775,568168.2444699248,2010-09-21 03:47:39,3992.024048743209,2,49,0.5501165986061096,4.010085105895996,49.783484092801245,49.31930455073896,198.16689944596683,180.61182700310584,9.71794142969884e-05,0.0868726819753646,0,0,0
16776,568198.2598195804,2010-09-21 03:48:09,4022.039398418745,2,49,0.5499359965324402,4.0121893882751465,49.78807093435321,49.31930455073896,198.1852980457934,180.61182700310584,3.23295607813634e-05,0.0868726819753646,0,0,0
16777,568228.2751385742,2010-09-21 03:48:39,4052.0547173926448,2,49,0.5501165986061096,4.014455795288086,49.79265780498277,49.31930455073896,198.2037071664175,180.61182700310584,6.47544875391759e-05,0.0868726819753646,0,0,0
16778,568258.2905531017,2010-09-21 03:49:09,4082.070131920063,2,49,0.5504778623580933,4.017045974731445,49.79724466274912,49.31930455073896,198.22212672215764,180.61182700310584,6.47544875391759e-05,0.0868726819753646,0,0,0
16779,568288.3058392287,2010-09-21 03:49:39,4112.085418046971,2,49,0.5501165986061096,4.018988609313965,49.80183155046032,49.31930455073896,198.240557001802,180.61182700310584,3.23295607813634e-05,0.0868726819753646,0,0,0
16780,568318.3212636558,2010-09-21 03:50:09,4142.1008424740985,2,49,0.5501165986061096,4.021417140960693,49.806418433537154,49.31930455073896,198.25899777398885,180.61182700310584,3.24249267578125e-05,0.0868726819753646,0,0,0
16781,568348.3365929304,2010-09-21 03:50:39,4172.116171863999,2,49,0.5501165986061096,4.023683547973633,49.81100525844455,49.31930455073896,198.2774491147771,180.61182700310584,3.24249267578125e-05,0.0868726819753646,0,0,0
16782,568378.3518077342,2010-09-21 03:51:09,4202.131386552587,2,49,0.5499359965324402,4.026273727416992,49.8155920846452,49.31930455073896,198.29591129650905,180.61182700310584,3.24249267578125e-05,0.0868726819753646,0,0,0
16783,568408.3671774147,2010-09-21 03:51:39,4232.146756233059,2,49,0.5501165986061096,4.028540134429932,49.8201789876009,49.31930455073896,198.31438474942289,180.61182700310584,3.24249267578125e-05,0.0868726819753646,0,0,0
16784,568438.3824891155,2010-09-21 03:52:09,4262.162067933805,2,49,0.5501165986061096,4.030968189239502,49.82476584961627,49.31930455073896,198.332868973758,180.61182700310584,6.47544875391759e-05,0.0868726819753646,0,0,0
16785,568468.3978328812,2010-09-21 03:52:39,4292.177411699588,2,49,0.5501165986061096,4.033558368682861,49.82935271440352,49.31930455073896,198.3513643253741,180.61182700310584,9.70840483205393e-05,0.0868726819753646,0,0,0
16786,568498.4131661558,2010-09-21 03:53:09,4322.192744974186,2,49,0.5501165986061096,4.035986423492432,49.83393955214926,49.31930455073896,198.36987080270345,180.61182700310584,6.47544875391759e-05,0.0868726819753646,0,0,0
16787,568528.428519325,2010-09-21 03:53:39,4352.208098143443,2,49,0.5501165986061096,4.03841495513916,49.83852641178744,49.31930455073896,198.3883886835476,180.61182700310584,9.71794142969884e-05,0.0868726819753646,0,0,0
16788,568558.4438632212,2010-09-21 03:54:09,4382.2234420395525,2,49,0.5501165986061096,4.0408430099487305,49.843113309214296,49.31930455073896,198.4069181847545,180.61182700310584,3.23295607813634e-05,0.0868726819753646,0,0,0
16789,568588.4595652212,2010-09-21 03:54:39,4412.23914404957,2,49,0.5499359965324402,4.043271541595459,49.847700286449104,49.31930455073896,198.42545957585355,180.61182700310584,3.24249267578125e-05,0.0868726819753646,0,0,0
16790,568618.474510763,2010-09-21 03:55:09,4442.254089581302,2,49,0.5501165986061096,4.046023368835449,49.85228723852976,49.31930455073896,198.44401256726275,180.61182700310584,6.47544875391759e-05,0.0868726819753646,0,0,0
16791,568648.4899853152,2010-09-21 03:55:39,4472.269564138562,2,49,0.550297200679779,4.048613548278809,49.85687419263119,49.31930455073896,198.46257733319084,180.61182700310584,6.47544875391759e-05,0.0868726819753646,0,0,0
16792,568678.5051785903,2010-09-21 03:56:09,4502.284757408686,2,49,0.5501165986061096,4.051203727722168,49.861461058421455,49.31930455073896,198.4811536248133,180.61182700310584,0.0001295089750783,0.0868726819753646,0,0,0
16793,568708.5205240303,2010-09-21 03:56:39,4532.300102853661,2,49,0.5501165986061096,4.053793907165527,49.86604797688796,49.31930455073896,198.499742104668,180.61182700310584,6.47544875391759e-05,0.0868726819753646,0,0,0
16794,568738.5358632347,2010-09-21 03:57:09,4562.315442053048,2,49,0.5501165986061096,4.056546211242676,49.8706349002209,49.31930455073896,198.51834278196213,180.61182700310584,3.24249267578125e-05,0.0868726819753646,0,0,0
16795,568768.5512179929,2010-09-21 03:57:39,4592.330796816284,2,49,0.5501165986061096,4.059136390686035,49.87522185205525,49.31930455073896,198.5369557841761,180.61182700310584,3.24249267578125e-05,0.0868726819753646,0,0,0
16796,568798.5665346261,2010-09-21 03:58:09,4622.346113444329,2,49,0.5501165986061096,4.061888217926025,49.87980881289037,49.31930455073896,198.5555809319402,180.61182700310584,6.47544875391759e-05,0.0868726819753646,0,0,0
16797,568828.5819996394,2010-09-21 03:58:39,4652.361578467791,2,49,0.5501165986061096,4.064478397369385,49.884395692017904,49.31930455073896,198.5742180703612,180.61182700310584,6.47544875391759e-05,0.0868726819753646,0,0,0
16798,568858.5972126537,2010-09-21 03:59:09,4682.376791472175,2,49,0.550297200679779,4.067230701446533,49.88898262916462,49.31930455073896,198.5928680756764,180.61182700310584,6.47544875391759e-05,0.0868726819753646,0,0,0
16799,568888.6126898126,2010-09-21 03:59:39,4712.392268640954,2,49,0.5501165986061096,4.0701446533203125,49.89356948033007,49.31930455073896,198.61153044496305,180.61182700310584,9.71794142969884e-05,0.0868726819753646,0,0,0
16800,568918.627883218,2010-09-21 04:00:09,4742.407462041403,2,49,0.5501165986061096,4.072896480560303,49.89815632903302,49.31930455073896,198.63020556731783,180.61182700310584,9.70840483205393e-05,0.0868726819753646,0,0,0
16801,568948.643220242,2010-09-21 04:00:39,4772.422799060347,2,49,0.5499359965324402,4.075810432434082,49.902743206542524,49.31930455073896,198.648893756197,180.61182700310584,9.70840483205393e-05,0.0868726819753646,0,0,0
16802,568978.6585738623,2010-09-21 04:01:09,4802.438152705792,2,49,0.5501165986061096,4.078724384307861,49.90733012385604,49.31930455073896,198.6675953211337,180.61182700310584,9.70840483205393e-05,0.0868726819753646,0,0,0
16803,569008.6738990969,2010-09-21 04:01:39,4832.45347792027,2,49,0.5501165986061096,4.08147668838501,49.91191704551923,49.31930455073896,198.6863103526266,180.61182700310584,6.47544875391759e-05,0.0868726819753646,0,0,0
16804,569038.6893608622,2010-09-21 04:02:09,4862.4689396856,2,49,0.5499359965324402,4.08455228805542,49.91650396342072,49.31930455073896,198.70503905426995,180.61182700310584,0.0001295089750783,0.0868726819753646,0,0,0
16805,569068.7045866235,2010-09-21 04:02:39,4892.48416545184,2,49,0.5499359965324402,4.087466239929199,49.92109076577424,49.31930455073896,198.72378120393665,180.61182700310584,3.23295607813634e-05,0.0868726819753646,0,0,0
16806,569098.719887818,2010-09-21 04:03:09,4922.499466636335,2,49,0.5501165986061096,4.090542316436768,49.92567755445073,49.31930455073896,198.7425373457707,180.61182700310584,3.24249267578125e-05,0.0868726819753646,0,0,0
16807,569128.7355071015,2010-09-21 04:03:39,4952.515086010078,2,49,0.5501165986061096,4.093780040740967,49.9302644241453,49.31930455073896,198.761307999582,180.61182700310584,9.71794142969884e-05,0.0868726819753646,0,0,0
16808,569158.7505227582,2010-09-21 04:04:09,4982.530101586653,2,49,0.5501165986061096,4.096855640411377,49.93485113560641,49.31930455073896,198.7800922432364,180.61182700310584,6.47544875391759e-05,0.0868726819753646,0,0,0
16809,569188.7658601983,2010-09-21 04:04:39,5012.545439041684,2,49,0.5499359965324402,4.100093364715576,49.939437985539655,49.31930455073896,198.79889153395612,180.61182700310584,3.23295607813634e-05,0.0868726819753646,0,0,0
16810,569218.7811669015,2010-09-21 04:05:09,5042.560745719893,2,49,0.5499359965324402,4.103331089019775,49.94402487690896,49.31930455073896,198.817705615484,180.61182700310584,6.47544875391759e-05,0.0868726819753646,0,0,0
16811,569248.7965149981,2010-09-21 04:05:39,5072.576093816488,2,49,0.5501165986061096,4.106568813323975,49.948611700575725,49.31930455073896,198.83653422448324,180.61182700310584,6.47544875391759e-05,0.0868726819753646,0,0,0
16812,569278.8119687083,2010-09-21 04:06:09,5102.5915475367365,2,49,0.5499359965324402,4.109806537628174,49.95319852896375,49.31930455073896,198.85537793597825,180.61182700310584,6.47544875391759e-05,0.0868726819753646,0,0,0
16813,569308.8271290864,2010-09-21 04:06:39,5132.606707904732,2,49,0.5499359965324402,4.113206386566162,49.95778524778671,49.31930455073896,198.87423631127444,180.61182700310584,6.47544875391759e-05,0.0868726819753646,0,0,0
16814,569338.8424490027,2010-09-21 04:07:09,5162.622027820984,2,49,0.5501165986061096,4.116443634033203,49.96237194154042,49.31930455073896,198.8931098096828,180.61182700310584,6.47544875391759e-05,0.0868726819753646,0,0,0
16815,569368.8577858411,2010-09-21 04:07:39,5192.637364659477,2,49,0.5501165986061096,4.120005130767822,49.966958682914125,49.31930455073896,198.911998893711,180.61182700310584,9.70840483205393e-05,0.0868726819753646,0,0,0
16816,569398.8731228249,2010-09-21 04:08:09,5222.652701663384,2,49,0.5501165986061096,4.122919082641602,49.9715454360224,49.31930455073896,198.93090339067385,180.61182700310584,3.23295607813634e-05,0.0868726819753646,0,0,0
16817,569428.8883942652,2010-09-21 04:08:40,5252.667973083582,2,49,0.5501165986061096,4.126480579376221,49.97613215722553,49.31930455073896,198.9498232560631,180.61182700310584,9.70840483205393e-05,0.0868726819753646,0,0,0
16818,569458.9036998958,2010-09-21 04:09:10,5282.683278714176,2,49,0.5501165986061096,4.13004207611084,49.9807188696937,49.31930455073896,198.9687587637023,180.61182700310584,9.70840483205393e-05,0.0868726819753646,0,0,0
16819,569488.9216404436,2010-09-21 04:09:40,5312.7012193571645,2,49,0.550297200679779,4.133441925048828,49.985306012476094,49.31930455073896,198.98771188103063,180.61182700310584,9.71794142969884e-05,0.0868726819753646,0,0,0
16820,569518.9344574471,2010-09-21 04:10:10,5342.714036365775,2,49,0.5499359965324402,4.137003421783447,49.98989233052716,49.31930455073896,199.0066774959928,180.61182700310584,0.0001295089750783,0.0868726819753646,0,0,0
16821,569548.9496345669,2010-09-21 04:10:40,5372.72921347556,2,49,0.5501165986061096,4.140564918518066,49.99447899621277,49.31930455073896,199.02566062037675,180.61182700310584,9.71794142969884e-05,0.0868726819753646,0,0,0
16822,569578.9650485129,2010-09-21 04:11:10,5402.744627356363,2,49,0.5501165986061096,4.143802642822266,49.99906576869188,49.31930455073896,199.0446602856837,180.61182700310584,6.47544875391759e-05,0.0868726819753646,0,0,0
16823,569608.980391602,2010-09-21 04:11:40,5432.759970445458,2,49,0.5501165986061096,4.147687911987305,50.003652441933255,49.31930455073896,199.0636761636956,180.61182700310584,9.71794142969884e-05,0.0868726819753646,0,0,0
16824,569638.9955591679,2010-09-21 04:12:10,5462.775137986359,2,49,0.5501165986061096,4.151249408721924,50.00823908758933,49.31930455073896,199.08270829698327,180.61182700310584,6.47544875391759e-05,0.0868726819753646,0,0,0
16825,569669.0109360965,2010-09-21 04:12:40,5492.790515010161,2,49,0.5501165986061096,4.154810905456543,50.01282574891222,49.31930455073896,199.101757029556,180.61182700310584,6.47544875391759e-05,0.0868726819753646,0,0,0
16826,569699.026162334,2010-09-21 04:13:10,5522.805741152338,2,49,0.550297200679779,4.158534049987793,50.01741240414651,49.31930455073896,199.12082235682925,180.61182700310584,9.70840483205393e-05,0.0868726819753646,0,0,0
16827,569729.041474571,2010-09-21 04:13:40,5552.821053389422,2,49,0.5501165986061096,4.162257671356201,50.02199912088019,49.31930455073896,199.13990468827103,180.61182700310584,9.71794142969884e-05,0.0868726819753646,0,0,0
16828,569759.057029955,2010-09-21 04:14:10,5582.836608888726,2,49,0.5499359965324402,4.16581916809082,50.02658583936143,49.31930455073896,199.15900385537844,180.61182700310584,9.71794142969884e-05,0.0868726819753646,0,0,0
16829,569789.0721837467,2010-09-21 04:14:40,5612.851762575044,2,49,0.5501165986061096,4.16954231262207,50.03117246461904,49.31930455073896,199.178119605665,180.61182700310584,9.70840483205393e-05,0.0868726819753646,0,0,0
16830,569819.0873627311,2010-09-21 04:15:10,5642.866941549482,2,49,0.5501165986061096,4.173265933990479,50.03575911808073,49.31930455073896,199.19725260598787,180.61182700310584,9.71794142969884e-05,0.0868726819753646,0,0,0
16831,569849.1026496901,2010-09-21 04:15:40,5672.88222850847,2,49,0.5501165986061096,4.1769890785217285,50.04034575842881,49.31930455073896,199.21640276196052,180.61182700310584,6.47544875391759e-05,0.0868726819753646,0,0,0
16832,569879.117930549,2010-09-21 04:16:10,5702.897509367229,2,49,0.550297200679779,4.181036472320557,50.04493242650873,49.31930455073896,199.2355703615613,180.61182700310584,0.0001619339018361,0.0868726819753646,0,0,0
16833,569909.1332170216,2010-09-21 04:16:40,5732.91279584,2,49,0.5499359965324402,4.184597969055176,50.04951906178002,49.31930455073896,199.25475539156,180.61182700310584,9.71794142969884e-05,0.0868726819753646,0,0,0
16834,569939.1485075996,2010-09-21 04:17:10,5762.928086418021,2,49,0.5501165986061096,4.188644886016846,50.05410570293916,49.31930455073896,199.27395799580384,180.61182700310584,9.70840483205393e-05,0.0868726819753646,0,0,0
16835,569969.1638152302,2010-09-21 04:17:40,5792.943394048606,2,49,0.550297200679779,4.192530155181885,50.05869233449059,49.31930455073896,199.29317832888435,180.61182700310584,9.70840483205393e-05,0.0868726819753646,0,0,0
16836,569999.1790929311,2010-09-21 04:18:10,5822.958671749482,2,49,0.5499359965324402,4.196415424346924,50.06327902957405,49.31930455073896,199.3124168318168,180.61182700310584,9.71794142969884e-05,0.0868726819753646,0,0,0
16837,570026.1475534827,2010-09-21 04:18:37,5849.927132306026,2,49,0.5501165986061096,4.200138568878174,50.06740004726695,49.31930455073896,199.3297173926367,180.61182700310584,0.0001295089750783,0.0868726819753646,0,0,0
16838,570056.1418407913,2010-09-21 04:19:07,30.015279174554948,3,49,0.0,4.1190338134765625,50.06740004726695,49.31930455073896,199.3297173926367,180.61182700310584,-0.0004209518374409,0.0868726819753646,0,0,0
16839,570086.1571723918,2010-09-21 04:19:37,60.03061080504799,3,49,0.0,4.108835220336914,50.06740004726695,49.31930455073896,199.3297173926367,180.61182700310584,-0.0002590179501567,0.0868726819753646,0,0,0
16840,570116.1724368796,2010-09-21 04:20:07,90.0458752628677,3,49,0.0,4.1031694412231445,50.06740004726695,49.31930455073896,199.3297173926367,180.61182700310584,-0.0001295089750783,0.0868726819753646,0,0,0
16841,570146.1408332225,2010-09-21 04:20:37,120.01427161067431,3,49,0.0,4.0992841720581055,50.06740004726695,49.31930455073896,199.3297173926367,180.61182700310584,-6.47544875391759e-05,0.0868726819753646,0,0,0
16842,570146.1524604831,2010-09-21 04:20:37,0.031255568708044,4,49,0.993331789970398,4.199814796447754,50.067408689992526,49.31930455073896,199.329753690123,180.61182700310584,3.23295607813634e-05,0.0868726819753646,0,0,0
16843,570147.1680821412,2010-09-21 04:20:38,1.046877226615667,4,49,0.9425805807113647,4.199653148651123,50.06768011574548,49.31930455073896,199.3308935952961,180.61182700310584,0.0,0.0868726819753646,0,0,0
16844,570149.3087142281,2010-09-21 04:20:40,3.187509313632876,4,49,0.8925517797470093,4.199814796447754,50.06822467135466,49.31930455073896,199.3331805652728,180.61182700310584,3.23295607813634e-05,0.0868726819753646,0,0,0
16845,570152.5117567099,2010-09-21 04:20:43,6.390551795443241,4,49,0.8423424363136292,4.199491024017334,50.068995395210735,49.31930455073896,199.33641738352043,180.61182700310584,-3.24249267578125e-05,0.0868726819753646,0,0,0
16846,570156.7929930144,2010-09-21 04:20:48,10.67178809991093,4,49,0.7919524312019348,4.199653148651123,50.06996614301014,49.31930455073896,199.34049425326708,180.61182700310584,0.0,0.0868726819753646,0,0,0
16847,570162.3554090506,2010-09-21 04:20:53,16.234204136093556,4,49,0.7417430281639099,4.199491024017334,50.07114992704152,49.31930455073896,199.34546580441364,180.61182700310584,-3.24249267578125e-05,0.0868726819753646,0,0,0
16848,570169.5271883601,2010-09-21 04:21:00,23.405983455625773,4,49,0.6917142868041992,4.199814796447754,50.07257595869926,49.31930455073896,199.35145474177176,180.61182700310584,0.0,0.0868726819753646,0,0,0
16849,570178.9645846632,2010-09-21 04:21:10,32.84337974868036,4,49,0.6416855454444885,4.199814796447754,50.07432075148743,49.31930455073896,199.3587823951134,180.61182700310584,-3.24249267578125e-05,0.0868726819753646,0,0,0
16850,570191.9644513102,2010-09-21 04:21:23,45.84324641586113,4,49,0.5916567444801331,4.199814796447754,50.076542626869326,49.31930455073896,199.3681136787864,180.61182700310584,-3.24249267578125e-05,0.0868726819753646,0,0,0
16851,570211.354849006,2010-09-21 04:21:42,65.23364409159788,4,49,0.5412667393684387,4.199814796447754,50.07958506964573,49.31930455073896,199.38089114164544,180.61182700310584,0.0,0.0868726819753646,0,0,0
16852,570242.9951145616,2010-09-21 04:22:14,96.87390965217024,4,49,0.491237998008728,4.199814796447754,50.084105687879024,49.31930455073896,199.399876560733,180.61182700310584,0.0,0.0868726819753646,0,0,0
16853,570298.1663961635,2010-09-21 04:23:09,152.0451912489252,4,49,0.4412092268466949,4.199653148651123,50.0912217302626,49.31930455073896,199.42976207583692,180.61182700310584,-3.23295607813634e-05,0.0868726819753646,0,0,0
16854,570384.8372425098,2010-09-21 04:24:36,238.71603759538232,4,49,0.3909998536109924,4.199653148651123,50.10121437446063,49.31930455073896,199.4717285139336,180.61182700310584,-3.23295607813634e-05,0.0868726819753646,0,0,0
16855,570496.8673208207,2010-09-21 04:26:28,350.7461159112554,4,49,0.3409710824489593,4.199653148651123,50.112588966964616,49.31930455073896,199.51949885556888,180.61182700310584,0.0,0.0868726819753646,0,0,0
16856,570633.9906319012,2010-09-21 04:28:45,487.8694269865935,4,49,0.2909423112869262,4.199653148651123,50.124603332078586,49.31930455073896,199.5699561078758,180.61182700310584,0.0,0.0868726819753646,0,0,0
16857,570799.1450037315,2010-09-21 04:31:30,653.0237988370973,4,49,0.240913525223732,4.199814796447754,50.13677550166817,49.31930455073896,199.6210761707441,180.61182700310584,0.0,0.0868726819753646,0,0,0
16858,571007.8769488642,2010-09-21 04:34:59,861.7557439497053,4,49,0.1908847689628601,4.199653148651123,50.149246419029325,49.31930455073896,199.6734508498501,180.61182700310584,0.0,0.0868726819753646,0,0,0
16859,571286.842488123,2010-09-21 04:39:38,1140.7212832084704,4,49,0.140855997800827,4.199491024017334,50.162014861878085,49.31930455073896,199.72707520743973,180.61182700310584,-6.47544875391759e-05,0.0868726819753646,0,0,0
16860,571708.7750265766,2010-09-21 04:46:40,1562.6538216621489,4,49,0.0908272266387939,4.199814796447754,50.17538703905865,49.31930455073896,199.7832351041047,180.61182700310584,0.0,0.0868726819753646,0,0,0
16861,572333.4397308157,2010-09-21 04:57:04,2187.318526101692,4,49,0.0498289167881011,4.199653148651123,50.18725142373317,49.31930455073896,199.8330626806085,180.61182700310584,0.0,0.0868726819753646,0,0,0
16862,572363.4605670328,2010-09-21 04:57:35,30.01524622230105,5,49,0.0,4.192044734954834,50.18725142373317,49.31930455073896,199.8330626806085,180.61182700310584,-9.70840483205393e-05,0.0868726819753646,0,0,0
16863,572393.460216428,2010-09-21 04:58:05,60.0148956175222,5,49,0.0,4.190911293029785,50.18725142373317,49.31930455073896,199.8330626806085,180.61182700310584,-3.24249267578125e-05,0.0868726819753646,0,0,0
16864,572393.6543447917,2010-09-21 04:58:05,0.187638735150433,6,49,-1.9243103452026844e-05,4.190749645233154,50.18725142373317,49.31930455174195,199.8330626806085,180.6118270073091,0.0,0.0900387018918991,0,0,0
16865,572398.4823111985,2010-09-21 04:58:10,5.015605162116205,6,49,0.0008838032954372,4.190749645233154,50.18725242766656,49.31930455182493,199.83306688800968,180.61182700765684,-6.47544875391759e-05,0.0900387018918991,0,0,0
16866,572428.4727958536,2010-09-21 04:58:40,30.015233330120186,7,49,-1.0997490882873535,4.017855644226074,50.18725242766656,49.32847225579788,199.83306688800968,180.6488596780143,-0.0009713172912597,0.0900387018918991,0,0,0
16867,572458.488092226,2010-09-21 04:59:10,60.03052970260381,7,49,-1.099568486213684,3.9908206462860103,50.18725242766656,49.33763994641932,199.83306688800968,180.68556158589115,-0.0006151676061563,0.0900387018918991,0,0,0
16868,572488.5033372153,2010-09-21 04:59:40,90.0457746918269,7,49,-1.099568486213684,3.972365617752075,50.18725242766656,49.34680758118048,199.83306688800968,180.7220590348968,-0.0004532813909463,0.0900387018918991,0,0,0
16869,572518.5186056581,2010-09-21 05:00:10,120.06104313459365,7,49,-1.0993878841400146,3.958119630813599,50.18725242766656,49.35597519324413,199.83306688800968,180.75840813643808,-0.0003885269106831,0.0900387018918991,0,0,0
16870,572548.5338760758,2010-09-21 05:00:40,150.07631355730263,7,49,-1.0993878841400146,3.9464638233184814,50.18725242766656,49.36514269844625,199.83306688800968,180.7946384678586,-0.0002590179501567,0.0900387018918991,0,0,0
16871,572578.5491729294,2010-09-21 05:01:10,180.0916104059749,7,49,-1.0993878841400146,3.935779333114624,50.18725242766656,49.374310287376176,199.83306688800968,180.8307670363205,-0.0002590179501567,0.0900387018918991,0,0,0
16872,572608.5644370364,2010-09-21 05:01:40,210.1068745129188,7,49,-1.0997490882873535,3.925904273986816,50.18725242766656,49.3834778940197,199.83306688800968,180.8668030791856,-0.0002590179501567,0.0900387018918991,0,0,0
16873,572638.579817609,2010-09-21 05:02:10,240.122255085579,7,49,-1.099568486213684,3.9168386459350586,50.18725242766656,49.39264550389109,199.83306688800968,180.9027527637284,-0.0002590179501567,0.0900387018918991,0,0,0
16874,572668.5949499721,2010-09-21 05:02:40,270.1373874486699,7,49,-1.0993878841400146,3.9080970287323,50.18725242766656,49.40181304184336,199.83306688800968,180.9386195356323,-0.0001618862152099,0.0900387018918991,0,0,0
16875,572698.6102300038,2010-09-21 05:03:10,300.1526674803644,7,49,-1.0993878841400146,3.899517059326172,50.18725242766656,49.41098035809444,199.83306688800968,180.9744059482061,-0.0002266406954731,0.0900387018918991,0,0,0
16876,572728.6254915243,2010-09-21 05:03:40,330.1679290008521,7,49,-1.099568486213684,3.890937089920044,50.18725242766656,49.420147229906966,199.83306688800968,181.0101135580097,-0.0002590179501567,0.0900387018918991,0,0,0
16877,572758.640768323,2010-09-21 05:04:10,360.18320579947635,7,49,-1.0993878841400146,3.882842779159546,50.18725242766656,49.42931405416961,199.83306688800968,181.0457457025904,-0.0002590179501567,0.0900387018918991,0,0,0
16878,572788.6560246504,2010-09-21 05:04:40,390.1984621270016,7,49,-1.0993878841400146,3.874910354614258,50.18725242766656,49.43848094780547,199.83306688800968,181.0813038771982,-0.0002266406954731,0.0900387018918991,0,0,0
16879,572818.6713304213,2010-09-21 05:05:10,420.2137679230078,7,49,-1.099568486213684,3.8669779300689697,50.18725242766656,49.44764813953982,199.83306688800968,181.11679008587484,-0.0002266406954731,0.0900387018918991,0,0,0
16880,572848.686572749,2010-09-21 05:05:40,450.2290102505871,7,49,-1.099568486213684,3.8593692779541016,50.18725242766656,49.45681571582963,199.83306688800968,181.1522060434592,-0.0001942634553415,0.0900387018918991,0,0,0
16881,572878.7018402645,2010-09-21 05:06:10,480.2442777610266,7,49,-1.099568486213684,3.851598739624024,50.18725242766656,49.46598330955533,199.83306688800968,181.1875514665795,-0.0002266406954731,0.0900387018918991,0,0,0
16882,572908.7172211277,2010-09-21 05:06:40,510.2596586143874,7,49,-1.099568486213684,3.844151973724365,50.18725242766656,49.47515069787001,199.83306688800968,181.2228263250896,-0.0001942634553415,0.0900387018918991,0,0,0
16883,572938.7325862368,2010-09-21 05:07:10,540.2750237134231,7,49,-1.0993878841400146,3.836705207824707,50.18725242766656,49.48431802572252,199.83306688800968,181.2580325758264,-0.0002266406954731,0.0900387018918991,0,0,0
16884,572968.7477575873,2010-09-21 05:07:40,570.2901950738575,7,49,-1.0997490882873535,3.829258680343628,50.18725242766656,49.49348528525636,199.83306688800968,181.293171316743,-0.0002266406954731,0.0900387018918991,0,0,0
16885,572998.7633544799,2010-09-21 05:08:10,600.3057919614731,7,49,-1.0993878841400146,3.8222975730896,50.18725242766656,49.5026526638652,199.83306688800968,181.32824438903904,-0.0001618862152099,0.0900387018918991,0,0,0
16886,573028.7782035558,2010-09-21 05:08:40,630.3206410574859,7,49,-1.0993878841400146,3.8153364658355713,50.18725242766656,49.51182005956186,199.83306688800968,181.36325274053772,-0.0001618862152099,0.0900387018918991,0,0,0
16887,573058.7934555626,2010-09-21 05:09:10,660.3358931594635,7,49,-1.099568486213684,3.808537244796753,50.18725242766656,49.52098764442026,199.83306688800968,181.39819760173103,-0.0001295089750783,0.0900387018918991,0,0,0
16888,573088.8086961609,2010-09-21 05:09:40,690.3511336374257,7,49,-1.0997490882873535,3.801414251327514,50.18725242766656,49.53015517518353,199.83306688800968,181.43307960123508,-0.0002266406954731,0.0900387018918991,0,0,0
16889,573118.8239737264,2010-09-21 05:10:10,720.3664112029644,7,49,-1.099568486213684,3.794938802719116,50.18725242766656,49.53932283686239,199.83306688800968,181.46790055025835,-0.0001618862152099,0.0900387018918991,0,0,0
16890,573148.8393672964,2010-09-21 05:10:40,750.3818047981309,7,49,-1.099568486213684,3.7884633541107178,50.18725242766656,49.54849050130748,199.83306688800968,181.50266120601216,-0.0001618862152099,0.0900387018918991,0,0,0
16891,573178.8545983358,2010-09-21 05:11:10,780.3970359377832,7,49,-1.099568486213684,3.7819879055023193,50.18725242766656,49.55765813768743,199.83306688800968,181.5373623329264,-0.0001618862152099,0.0900387018918991,0,0,0
16892,573208.8697717113,2010-09-21 05:11:40,810.4122092129971,7,49,-1.0993878841400146,3.775674343109131,50.18725242766656,49.56682570807673,199.83306688800968,181.57200513419835,-0.0001942634553415,0.0900387018918991,0,0,0
16893,573238.8852072663,2010-09-21 05:12:10,840.4276447729139,7,49,-1.0997490882873535,3.7693607807159424,50.18725242766656,49.57599337213032,199.83306688800968,181.60659087099043,-0.0001618862152099,0.0900387018918991,0,0,0
16894,573268.9003055994,2010-09-21 05:12:40,870.4427431060609,7,49,-1.099568486213684,3.763209104537964,50.18725242766656,49.58516097101898,199.83306688800968,181.64112002413623,-0.0001942634553415,0.0900387018918991,0,0,0
16895,573298.9155873705,2010-09-21 05:13:10,900.4580248470219,7,49,-1.099568486213684,3.757381200790405,50.18725242766656,49.59432861790419,199.83306688800968,181.6755941096248,-0.0001618862152099,0.0900387018918991,0,0,0
16896,573328.9309690108,2010-09-21 05:13:40,930.4734064873472,7,49,-1.099568486213684,3.751553535461426,50.18725242766656,49.6034962245183,199.83306688800968,181.71001389854447,-0.0001618862152099,0.0900387018918991,0,0,0
16897,573358.946134281,2010-09-21 05:14:10,960.4885718478048,7,49,-1.099568486213684,3.745725631713867,50.18725242766656,49.612663861837774,199.83306688800968,181.74438010432783,-0.0001618862152099,0.0900387018918991,0,0,0
16898,573388.9615066682,2010-09-21 05:14:40,990.5039441498202,7,49,-1.0993878841400146,3.740221500396729,50.18725242766656,49.62183151795813,199.83306688800968,181.7786942126575,-0.0001295089750783,0.0900387018918991,0,0,0
16899,573418.9766798883,2010-09-21 05:15:10,1020.519117364884,7,49,-1.099568486213684,3.73455548286438,50.18725242766656,49.630999091705874,199.83306688800968,181.8129567121221,-0.0001618862152099,0.0900387018918991,0,0,0
16900,573448.9919674889,2010-09-21 05:15:40,1050.534404990534,7,49,-1.099568486213684,3.729213237762451,50.18725242766656,49.64016670771702,199.83306688800968,181.84716889452568,-0.0001618862152099,0.0900387018918991,0,0,0
16901,573479.0073050292,2010-09-21 05:16:10,1080.5497425107287,7,49,-1.099568486213684,3.7238709926605225,50.18725242766656,49.64933426478608,199.83306688800968,181.88133221003315,-0.0001295089750783,0.0900387018918991,0,0,0
16902,573509.0224384901,2010-09-21 05:16:40,1110.564875966547,7,49,-1.099568486213684,3.7185287475585938,50.18725242766656,49.65850181997362,199.83306688800968,181.91544702491657,-0.0001618862152099,0.0900387018918991,0,0,0
16903,573539.0378843356,2010-09-21 05:17:10,1140.5803218271762,7,49,-1.099568486213684,3.713510274887085,50.18725242766656,49.667669556593154,199.83306688800968,181.94951454336464,-0.0001295089750783,0.0900387018918991,0,0,0
16904,573569.0529856512,2010-09-21 05:17:40,1170.595423152793,7,49,-1.099568486213684,3.708329916000366,50.18725242766656,49.67683730735831,199.83306688800968,181.98353459278624,-0.0001618862152099,0.0900387018918991,0,0,0
16905,573599.068248545,2010-09-21 05:18:10,1200.6106860216462,7,49,-1.0993878841400146,3.7033114433288574,50.18725242766656,49.68600503891586,199.83306688800968,182.0175082383292,-0.0001295089750783,0.0900387018918991,0,0,0
16906,573629.0835296495,2010-09-21 05:18:40,1230.6259671260184,7,49,-1.099568486213684,3.6982929706573486,50.18725242766656,49.69517276095081,199.83306688800968,182.0514362559799,-0.0001618862152099,0.0900387018918991,0,0,0
16907,573659.0988015158,2010-09-21 05:19:10,1260.6412390123808,7,49,-1.099568486213684,3.69343638420105,50.18725242766656,49.70434041675851,199.83306688800968,182.08531913696984,-0.0001295089750783,0.0900387018918991,0,0,0
16908,573689.1140480539,2010-09-21 05:19:40,1290.6564855604952,7,49,-1.0997490882873535,3.688579797744751,50.18725242766656,49.71350806123277,199.83306688800968,182.11915766489344,-0.0001618862152099,0.0900387018918991,0,0,0
16909,573719.1293157147,2010-09-21 05:20:10,1320.6717531962477,7,49,-1.099568486213684,3.684046983718872,50.18725242766656,49.722675659563166,199.83306688800968,182.1529527539149,-0.0001295089750783,0.0900387018918991,0,0,0
16910,573749.1445821925,2010-09-21 05:20:40,1350.6870196690973,7,49,-1.099568486213684,3.679352283477783,50.18725242766656,49.731843324904375,199.83306688800968,182.1867055694365,-0.0001295089750783,0.0900387018918991,0,0,0
16911,573779.1598694522,2010-09-21 05:21:10,1380.7023069238214,7,49,-1.099568486213684,3.674819469451904,50.18725242766656,49.74101118704588,199.83306688800968,182.22041689966423,-0.0001295089750783,0.0900387018918991,0,0,0
16912,573809.17512186,2010-09-21 05:21:40,1410.717559331562,7,49,-1.099568486213684,3.670286893844605,50.18725242766656,49.75017971974446,199.83306688800968,182.25408874035784,-0.0001295089750783,0.0900387018918991,0,0,0
16913,573839.1903879268,2010-09-21 05:22:11,1440.732825433486,7,49,-1.099568486213684,3.6660778522491455,50.18725242766656,49.7593482466046,199.83306688800968,182.28771964826,-6.47544875391759e-05,0.0900387018918991,0,0,0
16914,573869.2056749309,2010-09-21 05:22:41,1470.7481124225471,7,49,-1.099568486213684,3.6615450382232666,50.18725242766656,49.76851679324158,199.83306688800968,182.32131084632212,-0.0001295089750783,0.0900387018918991,0,0,0
16915,573899.2056841544,2010-09-21 05:23:11,1500.7481216409424,7,49,-1.0993878841400146,3.6574978828430176,50.18725242766656,49.7776805249379,199.83306688800968,182.35484520846103,-0.0001295089750783,0.0900387018918991,0,0,0
16916,573929.2217460677,2010-09-21 05:23:41,1530.7641836345338,7,49,-1.099568486213684,3.653288841247559,50.18725242766656,49.78684844547424,199.83306688800968,182.38835690527907,-9.713172767078504e-05,0.0900387018918991,0,0,0
16917,573959.2359046852,2010-09-21 05:24:11,1560.778342282081,7,49,-1.0993878841400146,3.6492416858673096,50.18725242766656,49.79601578948887,199.83306688800968,182.42182846427187,-6.47544875391759e-05,0.0900387018918991,0,0,0
16918,573989.2512287267,2010-09-21 05:24:41,1590.7936663186183,7,49,-1.0993878841400146,3.6450326442718506,50.18725242766656,49.805183417209285,199.83306688800968,182.4552632603557,-9.713172767078504e-05,0.0900387018918991,0,0,0
16919,574019.2665180768,2010-09-21 05:25:11,1620.808955648523,7,49,-1.099568486213684,3.641147375106812,50.18725242766656,49.814351059056,199.83306688800968,182.4886617455388,-6.47544875391759e-05,0.0900387018918991,0,0,0
16920,574049.2816404949,2010-09-21 05:25:41,1650.824077991602,7,49,-1.099568486213684,3.6371002197265625,50.18725242766656,49.82351864218948,199.83306688800968,182.5220240088643,-9.713172767078504e-05,0.0900387018918991,0,0,0
16921,574079.2970208321,2010-09-21 05:26:11,1680.8394583086242,7,49,-1.0997490882873535,3.633214950561523,50.18725242766656,49.83268629839632,199.83306688800968,182.5553510473433,-0.0001618862152099,0.0900387018918991,0,0,0
16922,574109.3121544783,2010-09-21 05:26:41,1710.8545919549183,7,49,-1.099568486213684,3.629653453826904,50.18725242766656,49.84185389980113,199.83306688800968,182.5886433119541,-0.0001295089750783,0.0900387018918991,0,0,0
16923,574139.3274246705,2010-09-21 05:27:11,1740.8698621420392,7,49,-1.099568486213684,3.625930070877075,50.18725242766656,49.85102162519654,199.83306688800968,182.62190205540097,-9.713172767078504e-05,0.0900387018918991,0,0,0
16924,574169.3427089679,2010-09-21 05:27:41,1770.885146464444,7,49,-1.099568486213684,3.622530460357666,50.18725242766656,49.86018928836008,199.83306688800968,182.65512734421856,-6.47544875391759e-05,0.0900387018918991,0,0,0
16925,574199.3579668592,2010-09-21 05:28:11,1800.9004043308105,7,49,-1.099568486213684,3.618968963623047,50.18725242766656,49.8693569375642,199.83306688800968,182.6883200033,-6.47544875391759e-05,0.0900387018918991,0,0,0
16926,574229.3733849105,2010-09-21 05:28:41,1830.9158223870352,7,49,-1.099568486213684,3.615407466888428,50.18725242766656,49.8785247231385,199.83306688800968,182.72148127839327,-9.713172767078504e-05,0.0900387018918991,0,0,0
16927,574259.3885002059,2010-09-21 05:29:11,1860.9309376775104,7,49,-1.0993878841400146,3.612169742584229,50.18725242766656,49.88769232264893,199.83306688800968,182.7546110284776,-9.713172767078504e-05,0.0900387018918991,0,0,0
16928,574289.4037429246,2010-09-21 05:29:41,1890.946180416116,7,49,-1.099568486213684,3.6087701320648193,50.18725242766656,49.896860021305656,199.83306688800968,182.78771035499744,-9.713172767078504e-05,0.0900387018918991,0,0,0
16929,574319.4190001342,2010-09-21 05:30:11,1920.961437630856,7,49,-1.099568486213684,3.60553240776062,50.18725242766656,49.90602772651026,199.83306688800968,182.8207796607431,-9.713172767078504e-05,0.0900387018918991,0,0,0
16930,574349.4342829129,2010-09-21 05:30:41,1950.976720499632,7,49,-1.099568486213684,3.602294683456421,50.18725242766656,49.9151953881844,199.83306688800968,182.8538193277984,-9.713172767078504e-05,0.0900387018918991,0,0,0
16931,574379.4495363581,2010-09-21 05:31:11,1980.9919738547376,7,49,-1.099568486213684,3.5990569591522217,50.18725242766656,49.92436302723756,199.83306688800968,182.88682988305112,-0.0001295089750783,0.0900387018918991,0,0,0
16932,574409.464954314,2010-09-21 05:31:41,2011.007391790662,7,49,-1.099568486213684,3.5963048934936523,50.18725242766656,49.93353073084855,199.83306688800968,182.91981232152173,-6.47544875391759e-05,0.0900387018918991,0,0,0
16933,574439.4800876696,2010-09-21 05:32:11,2041.0225251662805,7,49,-1.0993878841400146,3.593229055404663,50.18725242766656,49.94269840633336,199.83306688800968,182.9527666538308,-6.47544875391759e-05,0.0900387018918991,0,0,0
16934,574469.4954599367,2010-09-21 05:32:41,2071.037897413158,7,49,-1.099568486213684,3.589991569519043,50.18725242766656,49.95186615044137,199.83306688800968,182.9856932119577,-9.713172767078504e-05,0.0900387018918991,0,0,0
16935,574499.5107238431,2010-09-21 05:33:11,2101.0531613246144,7,49,-1.0993878841400146,3.587077617645264,50.18725242766656,49.96103380640087,199.83306688800968,183.01859147113296,-6.47544875391759e-05,0.0900387018918991,0,0,0
16936,574529.5258740908,2010-09-21 05:33:41,2131.0683115873853,7,49,-1.099568486213684,3.5840017795562744,50.18725242766656,49.97020142085074,199.83306688800968,183.05146176814628,-6.47544875391759e-05,0.0900387018918991,0,0,0
16937,574559.5411433154,2010-09-21 05:34:11,2161.0835807870417,7,49,-1.099568486213684,3.580925941467285,50.18725242766656,49.97936906518887,199.83306688800968,183.0843046462737,-9.713172767078504e-05,0.0900387018918991,0,0,0
16938,574589.5564225803,2010-09-21 05:34:41,2191.0988600568344,7,49,-1.099568486213684,3.577850103378296,50.18725242766656,49.98853675656002,199.83306688800968,183.11711985167008,-9.713172767078504e-05,0.0900387018918991,0,0,0
16939,574619.5716618552,2010-09-21 05:35:11,2221.114099356856,7,49,-1.0997490882873535,3.574774265289306,50.18725242766656,49.99770450049838,199.83306688800968,183.14990695650903,-6.47544875391759e-05,0.0900387018918991,0,0,0
16940,574649.587084909,2010-09-21 05:35:41,2251.129522410556,7,49,-1.099568486213684,3.571860313415528,50.18725242766656,50.00687221687185,199.83306688800968,183.182665909614,-6.47544875391759e-05,0.0900387018918991,0,0,0
16941,574679.602192039,2010-09-21 05:36:11,2281.1446295356486,7,49,-1.099568486213684,3.568622589111328,50.18725242766656,50.01603983451601,199.83306688800968,183.21539640446244,-9.713172767078504e-05,0.0900387018918991,0,0,0
16942,574709.6175954287,2010-09-21 05:36:41,2311.160032905213,7,49,-1.099568486213684,3.565546751022339,50.18725242766656,50.02520752877816,199.83306688800968,183.24809879345392,-6.47544875391759e-05,0.0900387018918991,0,0,0
16943,574739.6328520218,2010-09-21 05:37:11,2341.1752894933893,7,49,-1.099568486213684,3.5624709129333496,50.18725242766656,50.0343751517801,199.83306688800968,183.28077261452452,-9.713172767078504e-05,0.0900387018918991,0,0,0
16944,574769.6480090766,2010-09-21 05:37:41,2371.190446573177,7,49,-1.099568486213684,3.5592331886291504,50.18725242766656,50.0435427984603,199.83306688800968,183.31341824544705,-9.713172767078504e-05,0.0900387018918991,0,0,0
16945,574799.6633903711,2010-09-21 05:38:11,2401.2058278676386,7,49,-1.0993878841400146,3.556157350540161,50.18725242766656,50.05271052719101,199.83306688800968,183.3460341466187,-6.47544875391759e-05,0.0900387018918991,0,0,0
16946,574829.678517832,2010-09-21 05:38:41,2431.2209553335056,7,49,-1.0997490882873535,3.552595853805542,50.18725242766656,50.06187816913366,199.83306688800968,183.37861935640152,-9.713172767078504e-05,0.0900387018918991,0,0,0
16947,574859.6938033672,2010-09-21 05:39:11,2461.2362408639256,7,49,-1.0997490882873535,3.5493581295013428,50.18725242766656,50.07104583285334,199.83306688800968,183.4111738074112,-6.47544875391759e-05,0.0900387018918991,0,0,0
16948,574889.7091312936,2010-09-21 05:39:41,2491.251568795185,7,49,-1.099568486213684,3.545796632766724,50.18725242766656,50.08021357731081,199.83306688800968,183.44369717558263,-9.713172767078504e-05,0.0900387018918991,0,0,0
16949,574919.7243301376,2010-09-21 05:40:11,2521.266767609148,7,49,-1.0997490882873535,3.5423970222473145,50.18725242766656,50.089381232020216,199.83306688800968,183.4761886757373,-6.47544875391759e-05,0.0900387018918991,0,0,0
16950,574949.7399979472,2010-09-21 05:40:41,2551.2824354488707,7,49,-1.099568486213684,3.5388355255126958,50.18725242766656,50.09854903195794,199.83306688800968,183.5086486035122,-6.47544875391759e-05,0.0900387018918991,0,0,0
16951,574979.7548633439,2010-09-21 05:41:11,2581.297300815497,7,49,-1.099568486213684,3.535112142562866,50.18725242766656,50.10771667806629,199.83306688800968,183.54107443322252,-9.713172767078504e-05,0.0900387018918991,0,0,0
16952,575009.7702315357,2010-09-21 05:41:41,2611.3126691024904,7,49,-1.0993878841400146,3.531226873397827,50.18725242766656,50.116884355693074,199.83306688800968,183.573465956611,-0.0001295089750783,0.0900387018918991,0,0,0
16953,575039.7853906706,2010-09-21 05:42:11,2641.3278281421703,7,49,-1.0993878841400146,3.527341604232788,50.18725242766656,50.126052023706734,199.83306688800968,183.60582135115612,-9.713172767078504e-05,0.0900387018918991,0,0,0
16954,575069.8007345566,2010-09-21 05:42:41,2671.3431721585803,7,49,-1.099568486213684,3.523132562637329,50.18725242766656,50.13521972638325,199.83306688800968,183.63813953125253,-9.713172767078504e-05,0.0900387018918991,0,0,0
16955,575099.8159174961,2010-09-21 05:43:11,2701.358354977617,7,49,-1.0997490882873535,3.51876163482666,50.18725242766656,50.144387435897066,199.83306688800968,183.6704190079472,-0.0001295089750783,0.0900387018918991,0,0,0
16956,575129.8311942797,2010-09-21 05:43:41,2731.373631751179,7,49,-1.099568486213684,3.514228820800781,50.18725242766656,50.153555119373245,199.83306688800968,183.7026575504004,-9.713172767078504e-05,0.0900387018918991,0,0,0
16957,575159.8464454894,2010-09-21 05:44:11,2761.3888830511546,7,49,-1.099568486213684,3.509372472763061,50.18725242766656,50.16272279316739,199.83306688800968,183.73485222862791,-0.0001295089750783,0.0900387018918991,0,0,0
16958,575189.8618474103,2010-09-21 05:44:41,2791.404284906941,7,49,-1.0993878841400146,3.504030227661133,50.18725242766656,50.17189048065182,199.83306688800968,183.76700052736444,-0.0001618862152099,0.0900387018918991,0,0,0
16959,575219.8769771368,2010-09-21 05:45:11,2821.4194146134005,7,49,-1.0993878841400146,3.498526096343994,50.18725242766656,50.18105814944551,199.83306688800968,183.79909855290416,-9.713172767078504e-05,0.0900387018918991,0,0,0
16960,575249.8922471886,2010-09-21 05:45:41,2851.434684670196,7,49,-1.0993878841400146,3.4922125339508057,50.18725242766656,50.19022586759576,199.83306688800968,183.8311424639663,-0.0001942634553415,0.0900387018918991,0,0,0
16961,575279.9076504579,2010-09-21 05:46:11,2881.4500879344982,7,49,-1.0993878841400146,3.4854133129119877,50.18725242766656,50.19939358731976,199.83306688800968,183.86312716239004,-0.0001618862152099,0.0900387018918991,0,0,0
16962,575309.9227658687,2010-09-21 05:46:41,2911.465203340261,7,49,-1.099568486213684,3.477804660797119,50.18725242766656,50.20856125676997,199.83306688800968,183.89504563008532,-0.0001942634553415,0.0900387018918991,0,0,0
16963,575339.9380328427,2010-09-21 05:47:11,2941.480470314362,7,49,-1.099568486213684,3.469224691390991,50.18725242766656,50.21772899849864,199.83306688800968,183.92689039133984,-0.0002266406954731,0.0900387018918991,0,0,0
16964,575369.9533113256,2010-09-21 05:47:41,2971.4957488924274,7,49,-1.0993878841400146,3.4596734046936035,50.18725242766656,50.22689659921242,199.83306688800968,183.95865168064492,-0.0002590179501567,0.0900387018918991,0,0,0
16965,575399.9686020289,2010-09-21 05:48:11,3001.51103961581,7,49,-1.099568486213684,3.4483413696289062,50.18725242766656,50.23606428740598,199.83306688800968,183.9903182814076,-0.0002913951757363,0.0900387018918991,0,0,0
16966,575429.9838359054,2010-09-21 05:48:41,3031.5262733770064,7,49,-1.099568486213684,3.4352285861968994,50.18725242766656,50.24523194474556,199.83306688800968,184.02187384479043,-0.0003561496851034,0.0900387018918991,0,0,0
16967,575459.99921526,2010-09-21 05:49:11,3061.5416527366388,7,49,-1.0993878841400146,3.4193639755249023,50.18725242766656,50.254399696311,199.83306688800968,184.05329693549697,-0.0004532813909463,0.0900387018918991,0,0,0
16968,575490.0144141543,2010-09-21 05:49:41,3091.556851630801,7,49,-1.099568486213684,3.399128198623657,50.18725242766656,50.26356676360107,199.83306688800968,184.0845537159784,-0.0006151676061563,0.0900387018918991,0,0,0
16969,575520.0296228679,2010-09-21 05:50:11,3121.572060364525,7,49,-1.099568486213684,3.372902631759644,50.18725242766656,50.272733651256594,199.83306688800968,184.1155996237291,-0.0008094310760498,0.0900387018918991,0,0,0
16970,575550.0449189246,2010-09-21 05:50:41,3151.5873563961586,7,49,-1.099568486213684,3.3366403579711914,50.18725242766656,50.28190131572778,199.83306688800968,184.14636385278956,-0.0011332035064697,0.0900387018918991,0,0,0
16971,575580.0601968812,2010-09-21 05:51:11,3181.6026343827475,7,49,-1.0997490882873535,3.284998655319214,50.18725242766656,50.29106899337088,199.83306688800968,184.17673062885223,-0.0015864849556237,0.0900387018918991,0,0,0
16972,575610.0754474544,2010-09-21 05:51:41,3211.617884925834,7,49,-1.099568486213684,3.210045576095581,50.18725242766656,50.30023670146873,199.83306688800968,184.2065250738803,-0.0022987842094153,0.0900387018918991,0,0,0
16973,575640.0907072756,2010-09-21 05:52:11,3241.63314474708,7,49,-1.0997490882873535,3.094783067703247,50.18725242766656,50.30940443786897,199.83306688800968,184.23546684120183,-0.0037233352195471,0.0900387018918991,0,0,0
16974,575667.2778792344,2010-09-21 05:52:39,3268.8203167059314,7,49,-1.0997490882873535,2.8946921825408936,50.18725242766656,50.31770837801707,199.83306688800968,184.26045704730012,-0.0085152145475149,0.0900387018918991,0,0,0
16975,575680.7777183647,2010-09-21 05:52:52,3282.320155836299,7,49,-1.099568486213684,2.699620008468628,50.18725242766656,50.32183168448117,199.83306688800968,184.27201527870756,-0.012918472290039,0.0900387018918991,0,0,0
16976,575740.8070946599,2010-09-21 05:53:52,60.01488741204005,8,49,0.0,3.407708168029785,50.18725242766656,50.32183168448117,199.83306688800968,184.27201527870756,0.0015217304462566,0.0900387018918991,0,0,0
16977,575741.0098560638,2010-09-21 05:53:53,0.187547181618733,9,49,-1.9243103452026844e-05,3.407870054244995,50.18725242766656,50.32183168548367,199.83306688800968,184.27201528212396,0.0,0.0891468673944473,0,0,0
16978,575745.8380175526,2010-09-21 05:53:57,5.015708560213764,9,49,0.0003419754502829,3.416773796081543,50.18725330748947,50.32183168556827,199.8330698906932,184.27201528241224,0.0012950897216796,0.0891468673944473,0,0,0
