Data_Point,Test_Time(s),Date_Time,Step_Time(s),Step_Index,Cycle_Index,Current(A),Voltage(V),Charge_Capacity(Ah),Discharge_Capacity(Ah),Charge_Energy(Wh),Discharge_Energy(Wh),dV/dt(V/s),Internal_Resistance(Ohm),Is_FC_Data,AC_Impedance(Ohm),ACI_Phase_Angle(Deg)
7360,251164.4350405676,2010-09-17 11:43:43,30.01551126388562,1,22,0.0,3.4389519691467285,21.782803635969472,21.902385727056377,86.76872935204389,80.17113914758652,0.0007122993702068,0.0897949114441871,0,0,0
7361,251194.43522331413,2010-09-17 11:44:13,60.01569400040872,1,22,0.0,3.460320949554444,21.782803635969472,21.902385727056377,86.76872935204389,80.17113914758652,0.0005504131549969,0.0897949114441871,0,0,0
7362,251224.4497382009,2010-09-17 11:44:43,90.03020888718378,1,22,0.0,3.4757001399993896,21.782803635969472,21.902385727056377,86.76872935204389,80.17113914758652,0.0003885269106831,0.0897949114441871,0,0,0
7363,251254.43373350104,2010-09-17 11:45:13,120.0142041773504,1,22,0.0,3.487517833709717,21.782803635969472,21.902385727056377,86.76872935204389,80.17113914758652,0.0002590179501567,0.0897949114441871,0,0,0
7364,251284.45040857737,2010-09-17 11:45:43,30.015259410220125,2,22,0.550297200679779,3.6252825260162354,21.7873907598523,21.902385727056377,86.7852209144127,80.17113914758652,0.0013598442310467,0.0897949114441871,0,0,0
7365,251314.4656719876,2010-09-17 11:46:13,60.03052284548739,2,22,0.5501165986061096,3.665592193603516,21.79197807267693,21.902385727056377,86.80194874916185,80.17113914758652,0.0009389400365762,0.0897949114441871,0,0,0
7366,251344.48093891656,2010-09-17 11:46:43,90.04578974941296,2,22,0.5501165986061096,3.695379018783569,21.79656532218837,21.902385727056377,86.81883509175884,80.17113914758652,0.0006799221155233,0.0897949114441871,0,0,0
7367,251374.49637710804,2010-09-17 11:47:13,120.06122794089862,2,22,0.550297200679779,3.7191762924194336,21.801152525661116,21.902385727056377,86.83584272014838,80.17113914758652,0.0006151676061563,0.0897949114441871,0,0,0
7368,251404.51146055403,2010-09-17 11:47:43,150.07631139690997,2,22,0.5501165986061096,3.737955093383789,21.80573907271444,21.902385727056377,86.8529451029243,80.17113914758652,0.0004856586456298,0.0897949114441871,0,0,0
7369,251434.52686060028,2010-09-17 11:48:13,180.0917114331543,2,22,0.5499359965324402,3.7528486251831055,21.81032553484629,21.902385727056377,86.8701250458097,80.17113914758652,0.0003561496851034,0.0897949114441871,0,0,0
7370,251464.5420491837,2010-09-17 11:48:43,210.10690001657983,2,22,0.5501165986061096,3.762885332107544,21.81491190481542,21.902385727056377,86.88736176988573,80.17113914758652,0.0002266406954731,0.0897949114441871,0,0,0
7371,251494.5448973636,2010-09-17 11:49:13,240.10974820648465,2,22,0.5499359965324402,3.7683894634246826,21.81949645096611,21.902385727056377,86.90462675797285,80.17113914758652,0.0001295089750783,0.0897949114441871,0,0,0
7372,251524.55695426988,2010-09-17 11:49:43,270.1218051177747,2,22,0.5501165986061096,3.772436618804932,21.82408242874864,21.902385727056377,86.92191828844122,80.17113914758652,0.0001295089750783,0.0897949114441871,0,0,0
7373,251554.57566683472,2010-09-17 11:50:13,300.1405178029003,2,22,0.5499359965324402,3.775674343109131,21.82866939499468,21.902385727056377,86.93922972279076,80.17113914758652,6.47544875391759e-05,0.0897949114441871,0,0,0
7374,251584.5882294132,2010-09-17 11:50:43,330.1530802711383,2,22,0.550297200679779,3.77891206741333,21.83325541037684,21.902385727056377,86.9565523380882,80.17113914758652,9.713172767078504e-05,0.0897949114441871,0,0,0
7375,251614.6039207466,2010-09-17 11:51:13,360.1687716847053,2,22,0.5501165986061096,3.7819879055023193,21.83784190898653,21.902385727056377,86.9738912341019,80.17113914758652,9.713172767078504e-05,0.0897949114441871,0,0,0
7376,251644.6180347527,2010-09-17 11:51:43,390.1828856056077,2,22,0.5501165986061096,3.7850637435913086,21.84242817924093,21.902385727056377,86.9912435745312,80.17113914758652,6.47544875391759e-05,0.0897949114441871,0,0,0
7377,251674.6332582032,2010-09-17 11:52:13,420.1981090510544,2,22,0.5501165986061096,3.788301467895508,21.847014624652665,21.902385727056377,87.00861095739003,80.17113914758652,6.47544875391759e-05,0.0897949114441871,0,0,0
7378,251704.64842381925,2010-09-17 11:52:43,450.21327467717487,2,22,0.5501165986061096,3.791377305984497,21.8516010385636,21.902385727056377,87.02599256713948,80.17113914758652,9.713172767078504e-05,0.0897949114441871,0,0,0
7379,251734.6508435196,2010-09-17 11:53:13,480.2156943624663,2,22,0.5499359965324402,3.794291257858277,21.85618551143828,21.902385727056377,87.04338094258814,80.17113914758652,9.713172767078504e-05,0.0897949114441871,0,0,0
7380,251764.66343499025,2010-09-17 11:53:43,510.228285923324,2,22,0.5501165986061096,3.797528982162476,21.86077151377337,21.902385727056377,87.06078910653189,80.17113914758652,6.47544875391759e-05,0.0897949114441871,0,0,0
7381,251794.6788149363,2010-09-17 11:54:13,540.243665779195,2,22,0.550297200679779,3.800442934036255,21.865357924333143,21.902385727056377,87.07821266727356,80.17113914758652,9.713172767078504e-05,0.0897949114441871,0,0,0
7382,251824.69386692377,2010-09-17 11:54:43,570.258717786706,2,22,0.550297200679779,3.803518772125244,21.86994439839784,21.902385727056377,87.09565013105126,80.17113914758652,9.713172767078504e-05,0.0897949114441871,0,0,0
7383,251854.70934176177,2010-09-17 11:55:13,600.2741926096295,2,22,0.5501165986061096,3.8062708377838135,21.874530864761766,21.902385727056377,87.11310124683996,80.17113914758652,6.47544875391759e-05,0.0897949114441871,0,0,0
7384,251884.72448210977,2010-09-17 11:55:43,630.2893330528897,2,22,0.550297200679779,3.8093466758728023,21.87911731415122,21.902385727056377,87.13056577067476,80.17113914758652,9.713172767078504e-05,0.0897949114441871,0,0,0
7385,251914.7401279596,2010-09-17 11:56:13,660.3049788225223,2,22,0.5501165986061096,3.812098741531372,21.88370388514764,21.902385727056377,87.14804418714877,80.17113914758652,6.47544875391759e-05,0.0897949114441871,0,0,0
7386,251944.75502494516,2010-09-17 11:56:43,690.3198757779998,2,22,0.5499359965324402,3.8153364658355713,21.888290307740355,21.902385727056377,87.16553606260301,80.17113914758652,0.0001295089750783,0.0897949114441871,0,0,0
7387,251974.7702881799,2010-09-17 11:57:13,720.3351390278041,2,22,0.5499359965324402,3.818412303924561,21.892876762078163,21.902385727056377,87.1830421980628,80.17113914758652,6.47544875391759e-05,0.0897949114441871,0,0,0
7388,252004.78553273805,2010-09-17 11:57:43,750.3503835709136,2,22,0.5501165986061096,3.82165002822876,21.897463136896185,21.902385727056377,87.20056259374572,80.17113914758652,3.237724376958795e-05,0.0897949114441871,0,0,0
7389,252034.80024437595,2010-09-17 11:58:13,780.3650949230965,2,22,0.5501165986061096,3.825049638748169,21.90204939573673,21.902385727056377,87.21809747762349,80.17113914758652,0.0001295089750783,0.0897949114441871,0,0,0
7390,252064.8005698237,2010-09-17 11:58:43,810.3654206816245,2,22,0.5501165986061096,3.828449249267578,21.90663353468867,21.902385727056377,87.23563952092698,80.17113914758652,9.713172767078504e-05,0.0897949114441871,0,0,0
7391,252094.8150888959,2010-09-17 11:59:13,840.3799395032214,2,22,0.5501165986061096,3.8318488597869873,21.91121980459456,21.902385727056377,87.2532051398179,80.17113914758652,0.0001295089750783,0.0897949114441871,0,0,0
7392,252124.81536296543,2010-09-17 11:59:43,870.3802138033013,2,22,0.5501165986061096,3.835086345672608,21.91580393137482,21.902385727056377,87.27077795273759,80.17113914758652,6.47544875391759e-05,0.0897949114441871,0,0,0
7393,252154.83065017004,2010-09-17 12:00:13,900.3955010981258,2,22,0.5501165986061096,3.8384859561920166,21.92039029186412,21.902385727056377,87.28837472637392,80.17113914758652,9.713172767078504e-05,0.0897949114441871,0,0,0
7394,252184.8452909059,2010-09-17 12:00:43,930.4101414380513,2,22,0.5501165986061096,3.841885566711426,21.92497650387881,21.902385727056377,87.30598618293591,80.17113914758652,0.0001295089750783,0.0897949114441871,0,0,0
7395,252214.84557130627,2010-09-17 12:01:13,960.410422169184,2,22,0.5501165986061096,3.844961404800415,21.9295605529028,21.902385727056377,87.32360436537462,80.17113914758652,9.713172767078504e-05,0.0897949114441871,0,0,0
7396,252244.86095602423,2010-09-17 12:01:43,990.4258068621288,2,22,0.5501165986061096,3.8481991291046143,21.934146943393444,21.902385727056377,87.34124628506271,80.17113914758652,9.713172767078504e-05,0.0897949114441871,0,0,0
7397,252274.87621163492,2010-09-17 12:02:13,1020.441062492915,2,22,0.5501165986061096,3.851274967193604,21.93873331789601,21.902385727056377,87.35890253580709,80.17113914758652,6.47544875391759e-05,0.0897949114441871,0,0,0
7398,252304.89134233896,2010-09-17 12:02:43,1050.456193191852,2,22,0.5499359965324402,3.854188919067383,21.943319721668832,21.902385727056377,87.37657297745771,80.17113914758652,6.47544875391759e-05,0.0897949114441871,0,0,0
7399,252334.90661006497,2010-09-17 12:03:13,1080.4714608977797,2,22,0.5499359965324402,3.857102870941162,21.947906055904312,21.902385727056377,87.39425709743861,80.17113914758652,3.237724376958795e-05,0.0897949114441871,0,0,0
7400,252364.92187359545,2010-09-17 12:03:43,1110.486724433297,2,22,0.550297200679779,3.860340595245361,21.952492406524005,21.902385727056377,87.41195493728081,80.17113914758652,9.713172767078504e-05,0.0897949114441871,0,0,0
7401,252394.9371615268,2010-09-17 12:04:13,1140.5020123596978,2,22,0.5501165986061096,3.86309266090393,21.957078798227045,21.902385727056377,87.42966627027207,80.17113914758652,6.47544875391759e-05,0.0897949114441871,0,0,0
7402,252424.9525641395,2010-09-17 12:04:43,1170.5174149823983,2,22,0.5501165986061096,3.86600661277771,21.96166522502359,21.902385727056377,87.44739055782624,80.17113914758652,9.713172767078504e-05,0.0897949114441871,0,0,0
7403,252454.96770696872,2010-09-17 12:05:13,1200.532557826652,2,22,0.5499359965324402,3.8682730197906494,21.966251630321157,21.902385727056377,87.46512704162586,80.17113914758652,0.0,0.0897949114441871,0,0,0
7404,252484.9830837319,2010-09-17 12:05:43,1230.5479345747651,2,22,0.5501165986061096,3.8710250854492183,21.9708380201557,21.902385727056377,87.48287510433663,80.17113914758652,6.47544875391759e-05,0.0897949114441871,0,0,0
7405,252514.99823355355,2010-09-17 12:06:13,1260.563084416486,2,22,0.5499359965324402,3.873291492462158,21.975424398141172,21.902385727056377,87.50063417822027,80.17113914758652,9.713172767078504e-05,0.0897949114441871,0,0,0
7406,252545.01349948504,2010-09-17 12:06:43,1290.578350347984,2,22,0.5501165986061096,3.875396013259888,21.98001086707873,21.902385727056377,87.51840387899271,80.17113914758652,0.0,0.0897949114441871,0,0,0
7407,252575.0287820481,2010-09-17 12:07:13,1320.5936329059846,2,22,0.5501165986061096,3.8773386478424072,21.984597285866105,21.902385727056377,87.53618301438178,80.17113914758652,0.0,0.0897949114441871,0,0,0
7408,252605.04402279167,2010-09-17 12:07:43,1350.60887364961,2,22,0.5501165986061096,3.8794431686401367,21.989183718723584,21.902385727056377,87.55397119785974,80.17113914758652,6.47544875391759e-05,0.0897949114441871,0,0,0
7409,252635.05930437223,2010-09-17 12:08:13,1380.6241552151332,2,22,0.5499359965324402,3.881062030792236,21.99377017685521,21.902385727056377,87.57176766215095,80.17113914758652,3.237724376958795e-05,0.0897949114441871,0,0,0
7410,252665.07467590732,2010-09-17 12:08:43,1410.6395267702844,2,22,0.5499359965324402,3.882680892944336,21.99835661885684,21.902385727056377,87.58957167330314,80.17113914758652,3.237724376958795e-05,0.0897949114441871,0,0,0
7411,252695.08981729296,2010-09-17 12:09:13,1440.6546681408593,2,22,0.5499359965324402,3.883975982666016,22.00294302027381,21.902385727056377,87.60738257248082,80.17113914758652,0.0,0.0897949114441871,0,0,0
7412,252725.10508482848,2010-09-17 12:09:43,1470.6699356813738,2,22,0.5499359965324402,3.885432958602905,22.007529518831017,21.902385727056377,87.6252001329013,80.17113914758652,0.0,0.0897949114441871,0,0,0
7413,252755.12288108605,2010-09-17 12:10:13,1500.687732024168,2,22,0.550297200679779,3.886889934539795,22.01211624099662,21.902385727056377,87.64302456880009,80.17113914758652,9.713172767078504e-05,0.0897949114441871,0,0,0
7414,252785.13567728773,2010-09-17 12:10:43,1530.7005282057903,2,22,0.5499359965324402,3.8880231380462646,22.016702261206124,21.902385727056377,87.66085190416814,80.17113914758652,3.237724376958795e-05,0.0897949114441871,0,0,0
7415,252815.15086535487,2010-09-17 12:11:13,1560.7157162027522,2,22,0.550297200679779,3.8891563415527344,22.02128860683175,21.902385727056377,87.67868597331868,80.17113914758652,0.0,0.0897949114441871,0,0,0
7416,252845.1661928099,2010-09-17 12:11:44,1590.731043738023,2,22,0.5501165986061096,3.890289545059204,22.02587504854842,21.902385727056377,87.69652569372246,80.17113914758652,6.47544875391759e-05,0.0897949114441871,0,0,0
7417,252875.1814053281,2010-09-17 12:12:14,1620.7462561910306,2,22,0.5501165986061096,3.891260862350464,22.030461487163898,21.902385727056377,87.71437056041127,80.17113914758652,0.0,0.0897949114441871,0,0,0
7418,252905.19678305867,2010-09-17 12:12:44,1650.7616339215967,2,22,0.5501165986061096,3.8923940658569336,22.035047882927948,21.902385727056377,87.73222033231029,80.17113914758652,0.0,0.0897949114441871,0,0,0
7419,252935.21196592785,2010-09-17 12:13:14,1680.776816885996,2,22,0.5501165986061096,3.8935272693634033,22.03963428324836,21.902385727056377,87.75007508196481,80.17113914758652,3.237724376958795e-05,0.0897949114441871,0,0,0
7420,252965.2271717693,2010-09-17 12:13:44,1710.7920226272504,2,22,0.5501165986061096,3.894660472869873,22.04422071357702,21.902385727056377,87.7679348281304,80.17113914758652,0.0,0.0897949114441871,0,0,0
7421,252995.2424434201,2010-09-17 12:14:14,1740.8072942830372,2,22,0.5499359965324402,3.895308017730713,22.04880722189058,21.902385727056377,87.78579924597788,80.17113914758652,0.0,0.0897949114441871,0,0,0
7422,253025.2576998278,2010-09-17 12:14:44,1770.8225506606875,2,22,0.5499359965324402,3.8966031074523926,22.05339354633218,21.902385727056377,87.80366795248922,80.17113914758652,3.237724376958795e-05,0.0897949114441871,0,0,0
7423,253055.27299175924,2010-09-17 12:15:14,1800.8378426021106,2,22,0.5504778623580933,3.897898197174072,22.057979879040328,21.902385727056377,87.82154166775408,80.17113914758652,9.713172767078504e-05,0.0897949114441871,0,0,0
7424,253085.28825645265,2010-09-17 12:15:44,1830.8531072955184,2,22,0.5501165986061096,3.898869514465332,22.06256631807251,21.902385727056377,87.8394209355844,80.17113914758652,3.237724376958795e-05,0.0897949114441871,0,0,0
7425,253115.3035238127,2010-09-17 12:16:14,1860.8683746555823,2,22,0.5501165986061096,3.9000027179718018,22.06715276514251,21.902385727056377,87.85730526142532,80.17113914758652,6.47544875391759e-05,0.0897949114441871,0,0,0
7426,253145.3187661854,2010-09-17 12:16:44,1890.883617043312,2,22,0.5501165986061096,3.9009740352630615,22.071739209094,21.902385727056377,87.87519442344869,80.17113914758652,0.0,0.0897949114441871,0,0,0
7427,253175.33403519457,2010-09-17 12:17:14,1920.8988860524928,2,22,0.5501165986061096,3.9021072387695312,22.07632562289984,21.902385727056377,87.89308860916715,80.17113914758652,3.237724376958795e-05,0.0897949114441871,0,0,0
7428,253205.3494961278,2010-09-17 12:17:44,1950.914346970708,2,22,0.5501165986061096,3.903402328491211,22.080912094252213,21.902385727056377,87.91098808011623,80.17113914758652,3.237724376958795e-05,0.0897949114441871,0,0,0
7429,253235.36469260097,2010-09-17 12:18:14,1980.9295435340523,2,22,0.5501165986061096,3.9042117595672607,22.08549848117012,21.902385727056377,87.9288923700985,80.17113914758652,0.0,0.0897949114441871,0,0,0
7430,253265.37995513395,2010-09-17 12:18:44,2010.94480607208,2,22,0.5501165986061096,3.9053449630737305,22.09008493692731,21.902385727056377,87.94680198553006,80.17113914758652,0.0,0.0897949114441871,0,0,0
7431,253295.39573391053,2010-09-17 12:19:14,2040.960584467768,2,22,0.5501165986061096,3.9064781665802,22.09467145517556,21.902385727056377,87.96471688893907,80.17113914758652,3.237724376958795e-05,0.0897949114441871,0,0,0
7432,253325.41096002268,2010-09-17 12:19:44,2070.9758109908967,2,22,0.5501165986061096,3.90777325630188,22.09925783723335,21.902385727056377,87.9826364549248,80.17113914758652,6.47544875391759e-05,0.0897949114441871,0,0,0
7433,253355.42564256795,2010-09-17 12:20:14,2100.990493400835,2,22,0.5501165986061096,3.9089064598083496,22.103844110592995,21.902385727056377,88.00056078010849,80.17113914758652,6.47544875391759e-05,0.0897949114441871,0,0,0
7434,253385.44091885537,2010-09-17 12:20:44,2131.0057697132456,2,22,0.5497553944587708,3.90987777709961,22.108430564377453,21.902385727056377,88.01849105543944,80.17113914758652,3.237724376958795e-05,0.0897949114441871,0,0,0
7435,253415.4561693433,2010-09-17 12:21:14,2161.021020276382,2,22,0.5497553944587708,3.911010980606079,22.11301705899656,21.902385727056377,88.0364266245446,80.17113914758652,3.237724376958795e-05,0.0897949114441871,0,0,0
7436,253445.45909211936,2010-09-17 12:21:44,2191.0239430524657,2,22,0.5501165986061096,3.912306070327759,22.11760155686409,21.902385727056377,88.0543597567862,80.17113914758652,3.237724376958795e-05,0.0897949114441871,0,0,0
7437,253475.47394725544,2010-09-17 12:22:14,2221.038798108355,2,22,0.5499359965324402,3.913439273834229,22.12218792768883,21.902385727056377,88.07230566109237,80.17113914758652,6.47544875391759e-05,0.0897949114441871,0,0,0
7438,253505.48634584463,2010-09-17 12:22:44,2251.051196707551,2,22,0.5501165986061096,3.914734125137329,22.126773895047844,21.902385727056377,88.09025551118492,80.17113914758652,6.47544875391759e-05,0.0897949114441871,0,0,0
7439,253535.5016230944,2010-09-17 12:23:14,2281.066473937251,2,22,0.5501165986061096,3.915705442428589,22.13136032234843,21.902385727056377,88.10821261667336,80.17113914758652,0.0,0.0897949114441871,0,0,0
7440,253565.505003192,2010-09-17 12:23:44,2311.0698540449043,2,22,0.5501165986061096,3.9171624183654794,22.13594493350673,21.902385727056377,88.12616815955391,80.17113914758652,3.237724376958795e-05,0.0897949114441871,0,0,0
7441,253595.51590683952,2010-09-17 12:24:14,2341.0807574468577,2,22,0.5501165986061096,3.918457508087158,22.14053071663468,21.902385727056377,88.14413403105905,80.17113914758652,3.237724376958795e-05,0.0897949114441871,0,0,0
7442,253625.51839962733,2010-09-17 12:24:44,2371.0832504652,2,22,0.5501165986061096,3.919428825378418,22.14511515004464,21.902385727056377,88.16210031596502,80.17113914758652,0.0,0.0897949114441871,0,0,0
7443,253655.53141743212,2010-09-17 12:25:14,2401.096268295091,2,22,0.5499359965324402,3.920885801315308,22.149701219239898,21.902385727056377,88.18007887940372,80.17113914758652,3.237724376958795e-05,0.0897949114441871,0,0,0
7444,253685.5330925238,2010-09-17 12:25:44,2431.0979433566863,2,22,0.5501165986061096,3.9221808910369873,22.15428559044912,21.902385727056377,88.19805666110676,80.17113914758652,3.237724376958795e-05,0.0897949114441871,0,0,0
7445,253715.5463033705,2010-09-17 12:26:14,2461.111154203377,2,22,0.5501165986061096,3.923475980758667,22.15887172767875,21.902385727056377,88.21604733997037,80.17113914758652,3.237724376958795e-05,0.0897949114441871,0,0,0
7446,253745.56161379308,2010-09-17 12:26:44,2491.126464625932,2,22,0.5501165986061096,3.9249329566955566,22.163458180094807,21.902385727056377,88.23404527322256,80.17113914758652,9.713172767078504e-05,0.0897949114441871,0,0,0
7447,253775.5768371483,2010-09-17 12:27:14,2521.1416879811527,2,22,0.550297200679779,3.926228046417236,22.168044633815487,21.902385727056377,88.25204942635891,80.17113914758652,6.47544875391759e-05,0.0897949114441871,0,0,0
7448,253805.5921211248,2010-09-17 12:27:44,2551.1569719576946,2,22,0.5501165986061096,3.927523136138916,22.172631091824343,21.902385727056377,88.2700598412502,80.17113914758652,-3.237724376958795e-05,0.0897949114441871,0,0,0
7449,253835.6073740739,2010-09-17 12:28:14,2581.172224926837,2,22,0.5501165986061096,3.929141998291016,22.177217410195187,21.902385727056377,88.2880762024666,80.17113914758652,9.713172767078504e-05,0.0897949114441871,0,0,0
7450,253865.62265532865,2010-09-17 12:28:44,2611.187506181584,2,22,0.5501165986061096,3.9304370880126953,22.181803717257203,21.902385727056377,88.30609899010709,80.17113914758652,6.47544875391759e-05,0.0897949114441871,0,0,0
7451,253895.63789629287,2010-09-17 12:29:14,2641.2027471257097,2,22,0.5501165986061096,3.931732177734375,22.18639009728908,21.902385727056377,88.32412842301851,80.17113914758652,0.0,0.0897949114441871,0,0,0
7452,253925.65320942216,2010-09-17 12:29:44,2671.218060275072,2,22,0.550297200679779,3.9333510398864746,22.190976452009973,21.902385727056377,88.34216423760088,80.17113914758652,6.47544875391759e-05,0.0897949114441871,0,0,0
7453,253955.66845075224,2010-09-17 12:30:14,2701.2333016101734,2,22,0.5501165986061096,3.934484243392944,22.19556290513668,21.902385727056377,88.36020697574513,80.17113914758652,0.0,0.0897949114441871,0,0,0
7454,253985.68369678408,2010-09-17 12:30:44,2731.248547641999,2,22,0.550297200679779,3.936103105545044,22.20014938739482,21.902385727056377,88.37825651883803,80.17113914758652,3.237724376958795e-05,0.0897949114441871,0,0,0
7455,254015.69896456017,2010-09-17 12:31:14,2761.2638153930384,2,22,0.5501165986061096,3.9375600814819336,22.204735788112696,21.902385727056377,88.39631227568951,80.17113914758652,0.0,0.0897949114441871,0,0,0
7456,254045.7146466104,2010-09-17 12:31:44,2791.2794974733083,2,22,0.5499359965324402,3.9390170574188232,22.209322261630906,21.902385727056377,88.4143753163998,80.17113914758652,3.237724376958795e-05,0.0897949114441871,0,0,0
7457,254075.7295048843,2010-09-17 12:32:14,2821.294355717156,2,22,0.5501165986061096,3.940474033355713,22.21390865171425,21.902385727056377,88.43244494146653,80.17113914758652,3.237724376958795e-05,0.0897949114441871,0,0,0
7458,254105.7447613321,2010-09-17 12:32:44,2851.309612164981,2,22,0.5501165986061096,3.942092895507813,22.21849577049302,21.902385727056377,88.4505243106856,80.17113914758652,6.47544875391759e-05,0.0897949114441871,0,0,0
7459,254135.7484763608,2010-09-17 12:33:14,2881.313327318962,2,22,0.550297200679779,3.943711757659912,22.22308118875359,21.902385727056377,88.46860396638101,80.17113914758652,6.47544875391759e-05,0.0897949114441871,0,0,0
7460,254165.7596778769,2010-09-17 12:33:44,2911.3245287247782,2,22,0.550297200679779,3.945330619812012,22.22766715989708,21.902385727056377,88.48669287990407,80.17113914758652,6.47544875391759e-05,0.0897949114441871,0,0,0
7461,254195.77495837977,2010-09-17 12:34:14,2941.339809242687,2,22,0.5499359965324402,3.946787595748901,22.232253527567757,21.902385727056377,88.50479058842818,80.17113914758652,6.47544875391759e-05,0.0897949114441871,0,0,0
7462,254225.7902042512,2010-09-17 12:34:44,2971.3550551040867,2,22,0.5499359965324402,3.948244571685791,22.23683987549747,21.902385727056377,88.52289536580862,80.17113914758652,6.47544875391759e-05,0.0897949114441871,0,0,0
7463,254255.8054838919,2010-09-17 12:35:14,3001.370334724755,2,22,0.5501165986061096,3.9500253200531006,22.24142634456209,21.902385727056377,88.54100809522085,80.17113914758652,3.237724376958795e-05,0.0897949114441871,0,0,0
7464,254285.82073890115,2010-09-17 12:35:44,3031.38558973399,2,22,0.5499359965324402,3.9514822959899902,22.246012786533186,21.902385727056377,88.5591282261713,80.17113914758652,0.0,0.0897949114441871,0,0,0
7465,254315.8361730325,2010-09-17 12:36:14,3061.401023875366,2,22,0.5501165986061096,3.9532630443573,22.25059933326298,21.902385727056377,88.57725619927989,80.17113914758652,6.47544875391759e-05,0.0897949114441871,0,0,0
7466,254345.85128036307,2010-09-17 12:36:44,3091.4161311959465,2,22,0.5501165986061096,3.9548819065094,22.255185844266517,21.902385727056377,88.5953916428304,80.17113914758652,3.237724376958795e-05,0.0897949114441871,0,0,0
7467,254375.8665421693,2010-09-17 12:37:14,3121.431393022198,2,22,0.5501165986061096,3.956500768661499,22.259772416440487,21.902385727056377,88.61353499428921,80.17113914758652,0.0,0.0897949114441871,0,0,0
7468,254405.8818264416,2010-09-17 12:37:44,3151.446677274427,2,22,0.5501165986061096,3.9584434032440186,22.264358960202035,21.902385727056377,88.63168581196003,80.17113914758652,6.47544875391759e-05,0.0897949114441871,0,0,0
7469,254435.89750872232,2010-09-17 12:38:14,3181.462359555197,2,22,0.5499359965324402,3.959738492965698,22.26894557526407,21.902385727056377,88.6498447339528,80.17113914758652,0.0,0.0897949114441871,0,0,0
7470,254465.91235425443,2010-09-17 12:38:44,3211.477205087314,2,22,0.550297200679779,3.961843013763428,22.27353203388843,21.902385727056377,88.66801089679656,80.17113914758652,9.713172767078504e-05,0.0897949114441871,0,0,0
7471,254495.92760811083,2010-09-17 12:39:14,3241.492458943671,2,22,0.5501165986061096,3.9634618759155273,22.27811854045509,21.902385727056377,88.68618515455495,80.17113914758652,6.47544875391759e-05,0.0897949114441871,0,0,0
7472,254525.9429334155,2010-09-17 12:39:44,3271.507784268424,2,22,0.550297200679779,3.965242624282837,22.282705076893752,21.902385727056377,88.70436756600397,80.17113914758652,6.47544875391759e-05,0.0897949114441871,0,0,0
7473,254555.9581738484,2010-09-17 12:40:14,3301.5230246912483,2,22,0.5501165986061096,3.9670233726501465,22.28729167604989,21.902385727056377,88.72255834541427,80.17113914758652,6.47544875391759e-05,0.0897949114441871,0,0,0
7474,254585.9734067073,2010-09-17 12:40:44,3331.538257540168,2,22,0.5501165986061096,3.968642234802246,22.2918782371918,21.902385727056377,88.74075710657391,80.17113914758652,3.237724376958795e-05,0.0897949114441871,0,0,0
7475,254615.9886766889,2010-09-17 12:41:14,3361.553527647088,2,22,0.5501165986061096,3.9705848693847656,22.296464757848643,21.902385727056377,88.75896398835638,80.17113914758652,6.47544875391759e-05,0.0897949114441871,0,0,0
7476,254646.0040733818,2010-09-17 12:41:44,3391.568924214674,2,22,0.550297200679779,3.972365617752075,22.301051326805187,21.902385727056377,88.77717949000555,80.17113914758652,3.237724376958795e-05,0.0897949114441871,0,0,0
7477,254676.0192773737,2010-09-17 12:42:14,3421.5841283519244,2,22,0.5499359965324402,3.9741463661193848,22.30563791519313,21.902385727056377,88.79540351012172,80.17113914758652,0.0,0.0897949114441871,0,0,0
7478,254706.03447351092,2010-09-17 12:42:44,3451.599324343843,2,22,0.5501165986061096,3.976089000701904,22.3102244824922,21.902385727056377,88.8136360152158,80.17113914758652,6.47544875391759e-05,0.0897949114441871,0,0,0
7479,254736.0497729511,2010-09-17 12:43:14,3481.614623824084,2,22,0.5501165986061096,3.977869749069214,22.314811111452507,21.902385727056377,88.8318773627386,80.17113914758652,3.237724376958795e-05,0.0897949114441871,0,0,0
7480,254766.0651514085,2010-09-17 12:43:44,3511.6300022664263,2,22,0.550297200679779,3.979974269866944,22.31939760702647,21.902385727056377,88.85012667892967,80.17113914758652,6.47544875391759e-05,0.0897949114441871,0,0,0
7481,254796.08030166625,2010-09-17 12:44:14,3541.645152499123,2,22,0.550297200679779,3.981916904449463,22.323984071233024,21.902385727056377,88.8683850916976,80.17113914758652,3.237724376958795e-05,0.0897949114441871,0,0,0
7482,254826.0955373322,2010-09-17 12:44:44,3571.660388165073,2,22,0.5501165986061096,3.9838595390319824,22.328570633352733,21.902385727056377,88.88665286982472,80.17113914758652,3.237724376958795e-05,0.0897949114441871,0,0,0
7483,254856.11083556936,2010-09-17 12:45:14,3601.675686402212,2,22,0.5501165986061096,3.985964059829712,22.333157152834552,21.902385727056377,88.90492953097194,80.17113914758652,6.47544875391759e-05,0.0897949114441871,0,0,0
7484,254886.12606584185,2010-09-17 12:45:44,3631.6909167047743,2,22,0.5501165986061096,3.987906694412232,22.337743661085653,21.902385727056377,88.92321537601404,80.17113914758652,6.47544875391759e-05,0.0897949114441871,0,0,0
7485,254916.141342054,2010-09-17 12:46:15,3661.70619288686,2,22,0.550297200679779,3.990011215209961,22.34233012389061,21.902385727056377,88.94151017617521,80.17113914758652,9.713172767078504e-05,0.0897949114441871,0,0,0
7486,254946.15661487269,2010-09-17 12:46:45,3691.721465730612,2,22,0.5499359965324402,3.991953849792481,22.34691656731147,21.902385727056377,88.9598143524705,80.17113914758652,3.237724376958795e-05,0.0897949114441871,0,0,0
7487,254976.171866704,2010-09-17 12:47:15,3721.7367176320895,2,22,0.5501165986061096,3.993896484375,22.3515030459783,21.902385727056377,88.97812815790893,80.17113914758652,3.237724376958795e-05,0.0897949114441871,0,0,0
7488,255006.1871277082,2010-09-17 12:47:45,3751.751978546063,2,22,0.5501165986061096,3.99616265296936,22.35608955278033,21.902385727056377,88.99645161220623,80.17113914758652,3.237724376958795e-05,0.0897949114441871,0,0,0
7489,255036.20246170452,2010-09-17 12:48:15,3781.7673125374495,2,22,0.5501165986061096,3.99826717376709,22.36067608869613,21.902385727056377,89.01478483848689,80.17113914758652,6.47544875391759e-05,0.0897949114441871,0,0,0
7490,255066.21766023285,2010-09-17 12:48:45,3811.7825110957738,2,22,0.550297200679779,4.000371932983398,22.365262590476444,21.902385727056377,89.03312743086397,80.17113914758652,6.47544875391759e-05,0.0897949114441871,0,0,0
7491,255096.23292927208,2010-09-17 12:49:15,3841.797780104954,2,22,0.550297200679779,4.002638339996338,22.369849025735707,21.902385727056377,89.05147956250394,80.17113914758652,9.71794142969884e-05,0.0897949114441871,0,0,0
7492,255126.24849552824,2010-09-17 12:49:45,3871.8133463711342,2,22,0.5499359965324402,4.004418849945068,22.374435578308105,21.902385727056377,89.06984199805814,80.17113914758652,3.23295607813634e-05,0.0897949114441871,0,0,0
7493,255156.26349621767,2010-09-17 12:50:15,3901.8283470505226,2,22,0.5501165986061096,4.006685256958008,22.3790219673876,21.902385727056377,89.0882136370426,80.17113914758652,6.47544875391759e-05,0.0897949114441871,0,0,0
7494,255186.2788441338,2010-09-17 12:50:45,3931.8436949817046,2,22,0.5499359965324402,4.008790016174316,22.383608477571453,21.902385727056377,89.10659573238237,80.17113914758652,0.0,0.0897949114441871,0,0,0
7495,255216.2940723712,2010-09-17 12:51:15,3961.8589234246247,2,22,0.550297200679779,4.011056423187256,22.38819494154417,21.902385727056377,89.12498757058023,80.17113914758652,6.47544875391759e-05,0.0897949114441871,0,0,0
7496,255246.3092612053,2010-09-17 12:51:45,3991.8741120381255,2,22,0.5499359965324402,4.013322830200195,22.39278138106801,21.902385727056377,89.14338939452601,80.17113914758652,3.24249267578125e-05,0.0897949114441871,0,0,0
7497,255276.3247056424,2010-09-17 12:52:15,4021.8895564752015,2,22,0.5499359965324402,4.015427112579346,22.397367865423337,21.902385727056377,89.16180152941976,80.17113914758652,6.47544875391759e-05,0.0897949114441871,0,0,0
7498,255306.33978880264,2010-09-17 12:52:45,4051.904639665549,2,22,0.5499359965324402,4.017693519592285,22.401954310071048,21.902385727056377,89.18022381179253,80.17113914758652,6.47544875391759e-05,0.0897949114441871,0,0,0
7499,255336.3550502329,2010-09-17 12:53:15,4081.9199010657367,2,22,0.5501165986061096,4.020122051239014,22.4065408152129,21.902385727056377,89.198656577918,80.17113914758652,6.47544875391759e-05,0.0897949114441871,0,0,0
7500,255366.3704639633,2010-09-17 12:53:45,4111.935314806189,2,22,0.5499359965324402,4.022388458251953,22.41112729919643,21.902385727056377,89.21709972971338,80.17113914758652,6.47544875391759e-05,0.0897949114441871,0,0,0
7501,255396.39036361128,2010-09-17 12:54:15,4141.955214569444,2,22,0.5501165986061096,4.024492740631104,22.415714501333955,21.902385727056377,89.23555625779585,80.17113914758652,3.23295607813634e-05,0.0897949114441871,0,0,0
7502,255426.40088829788,2010-09-17 12:54:45,4171.965739220978,2,22,0.5501165986061096,4.026921272277832,22.42030024061392,21.902385727056377,89.2540174624024,80.17113914758652,6.47544875391759e-05,0.0897949114441871,0,0,0
7503,255456.4161180641,2010-09-17 12:55:15,4201.980968896977,2,22,0.5501165986061096,4.029349327087402,22.4248867234347,21.902385727056377,89.27249233363574,80.17113914758652,9.70840483205393e-05,0.0897949114441871,0,0,0
7504,255486.4313848628,2010-09-17 12:55:45,4231.9962357006525,2,22,0.5501165986061096,4.031615734100342,22.429473169472185,21.902385727056377,89.29097777244115,80.17113914758652,3.23295607813634e-05,0.0897949114441871,0,0,0
7505,255516.44607612985,2010-09-17 12:56:15,4262.010926651912,2,22,0.5501165986061096,4.03404426574707,22.43405949478372,21.902385727056377,89.30947359547213,80.17113914758652,9.71794142969884e-05,0.0897949114441871,0,0,0
7506,255546.4462983449,2010-09-17 12:56:45,4292.01114920783,2,22,0.5501165986061096,4.036310195922852,22.438643648012192,21.902385727056377,89.32797153067412,80.17113914758652,6.47544875391759e-05,0.0897949114441871,0,0,0
7507,255576.46157375004,2010-09-17 12:57:15,4322.026424607963,2,22,0.5499359965324402,4.03873872756958,22.44323009548028,21.902385727056377,89.34648970435049,80.17113914758652,6.47544875391759e-05,0.0897949114441871,0,0,0
7508,255606.47684668904,2010-09-17 12:57:45,4352.041697521891,2,22,0.5499359965324402,4.04100513458252,22.447816583678176,21.902385727056377,89.36501891488984,80.17113914758652,6.47544875391759e-05,0.0897949114441871,0,0,0
7509,255636.49209255044,2010-09-17 12:58:15,4382.0569434083545,2,22,0.5501165986061096,4.043595314025879,22.452402990497248,21.902385727056377,89.3835588328812,80.17113914758652,9.71794142969884e-05,0.0897949114441871,0,0,0
7510,255666.5073979555,2010-09-17 12:58:45,4412.072248798347,2,22,0.5501165986061096,4.046185493469238,22.456989509280945,21.902385727056377,89.40211043841943,80.17113914758652,0.0001295089750783,0.0897949114441871,0,0,0
7511,255696.52263372668,2010-09-17 12:59:15,4442.087484559535,2,22,0.550297200679779,4.048613548278809,22.461576007153223,21.902385727056377,89.42067317866582,80.17113914758652,6.47544875391759e-05,0.0897949114441871,0,0,0
7512,255726.53801758253,2010-09-17 12:59:45,4472.102868440453,2,22,0.550297200679779,4.051042079925537,22.46616252615852,21.902385727056377,89.43924730186465,80.17113914758652,6.47544875391759e-05,0.0897949114441871,0,0,0
7513,255756.5533253284,2010-09-17 13:00:15,4502.11817625149,2,22,0.5501165986061096,4.053308486938477,22.470748956671308,21.902385727056377,89.45783240494433,80.17113914758652,0.0,0.0897949114441871,0,0,0
7514,255786.55394350688,2010-09-17 13:00:45,4532.118794394854,2,22,0.5499359965324402,4.055898666381836,22.475333178606704,21.902385727056377,89.4764201098266,80.17113914758652,6.47544875391759e-05,0.0897949114441871,0,0,0
7515,255816.56805652048,2010-09-17 13:01:15,4562.132907353355,2,22,0.5501165986061096,4.058488845825195,22.479919472493098,21.902385727056377,89.49502783201024,80.17113914758652,6.47544875391759e-05,0.0897949114441871,0,0,0
7516,255846.58344246657,2010-09-17 13:01:45,4592.148293309453,2,22,0.5501165986061096,4.061079025268555,22.48450602931344,21.902385727056377,89.51364841744378,80.17113914758652,9.71794142969884e-05,0.0897949114441871,0,0,0
7517,255876.59860154137,2010-09-17 13:02:15,4622.163452399259,2,22,0.5501165986061096,4.063830852508545,22.48909249016332,21.902385727056377,89.53228049751867,80.17113914758652,9.70840483205393e-05,0.0897949114441871,0,0,0
7518,255906.61386095156,2010-09-17 13:02:45,4652.178711784416,2,22,0.5501165986061096,4.066583156585693,22.493678947272727,21.902385727056377,89.55092483920595,80.17113914758652,0.0001295089750783,0.0897949114441871,0,0,0
7519,255936.6291160861,2010-09-17 13:03:15,4682.193966918963,2,22,0.5501165986061096,4.069173336029053,22.498265402173672,21.902385727056377,89.56958155534164,80.17113914758652,6.47544875391759e-05,0.0897949114441871,0,0,0
7520,255966.6443891203,2010-09-17 13:03:45,4712.209239953191,2,22,0.5499359965324402,4.071925163269043,22.50285197202649,21.902385727056377,89.58825121473981,80.17113914758652,9.70840483205393e-05,0.0897949114441871,0,0,0
7521,255996.65965532756,2010-09-17 13:04:15,4742.2245061704025,2,22,0.5501165986061096,4.074677467346191,22.507438387631893,21.902385727056377,89.60693285342168,80.17113914758652,6.47544875391759e-05,0.0897949114441871,0,0,0
7522,256026.67494889803,2010-09-17 13:04:45,4772.239799730866,2,22,0.5497553944587708,4.077429294586182,22.512024889286817,21.902385727056377,89.62562771147527,80.17113914758652,9.70840483205393e-05,0.0897949114441871,0,0,0
7523,256056.6909476788,2010-09-17 13:05:15,4802.255798516682,2,22,0.5499359965324402,4.080343246459961,22.516611459541025,21.902385727056377,89.64433576122808,80.17113914758652,6.47544875391759e-05,0.0897949114441871,0,0,0
7524,256086.70548129737,2010-09-17 13:05:45,4832.270332240477,2,22,0.5501165986061096,4.08325719833374,22.521197854511104,21.902385727056377,89.66305611607899,80.17113914758652,9.70840483205393e-05,0.0897949114441871,0,0,0
7525,256116.72087543385,2010-09-17 13:06:15,4862.285726266719,2,22,0.5499359965324402,4.086009502410889,22.525784328961706,21.902385727056377,89.68178995843857,80.17113914758652,6.47544875391759e-05,0.0897949114441871,0,0,0
7526,256146.7361773702,2010-09-17 13:06:45,4892.30102829833,2,22,0.550297200679779,4.088923454284668,22.530370827593284,21.902385727056377,89.7005372065102,80.17113914758652,6.47544875391759e-05,0.0897949114441871,0,0,0
7527,256176.75128829983,2010-09-17 13:07:15,4922.316139132681,2,22,0.5501165986061096,4.091837406158447,22.5349573260639,21.902385727056377,89.71929789071667,80.17113914758652,6.47544875391759e-05,0.0897949114441871,0,0,0
7528,256206.7666580204,2010-09-17 13:07:45,4952.331508863278,2,22,0.5501165986061096,4.094751358032227,22.539543797225853,21.902385727056377,89.73807194752317,80.17113914758652,6.47544875391759e-05,0.0897949114441871,0,0,0
7529,256236.78179745612,2010-09-17 13:08:15,4982.346648288999,2,22,0.5501165986061096,4.097826957702637,22.54413024827831,21.902385727056377,89.7568596313029,80.17113914758652,3.23295607813634e-05,0.0897949114441871,0,0,0
7530,256266.7970771169,2010-09-17 13:08:45,5012.361927979842,2,22,0.550297200679779,4.100903034210205,22.54871670757342,21.902385727056377,89.77566117655573,80.17113914758652,9.71794142969884e-05,0.0897949114441871,0,0,0
7531,256296.81260215017,2010-09-17 13:09:15,5042.3774530080855,2,22,0.5501165986061096,4.103978633880615,22.553303251726465,21.902385727056377,89.79447694237142,80.17113914758652,9.70840483205393e-05,0.0897949114441871,0,0,0
7532,256326.82760078445,2010-09-17 13:09:45,5072.3924516173065,2,22,0.5501165986061096,4.107216358184815,22.557889648184126,21.902385727056377,89.81330617429552,80.17113914758652,0.0001295089750783,0.0897949114441871,0,0,0
7533,256356.8428874176,2010-09-17 13:10:15,5102.407738345717,2,22,0.5501165986061096,4.109968662261963,22.56247610433771,21.902385727056377,89.83214978382009,80.17113914758652,6.47544875391759e-05,0.0897949114441871,0,0,0
7534,256386.8581623516,2010-09-17 13:10:45,5132.423013184449,2,22,0.550297200679779,4.113368034362793,22.56706262027721,21.902385727056377,89.85100793945726,80.17113914758652,0.0001618385285837,0.0897949114441871,0,0,0
7535,256416.87340162657,2010-09-17 13:11:15,5162.438252459408,2,22,0.550297200679779,4.116443634033203,22.571649029813024,21.902385727056377,89.86988004804476,80.17113914758652,9.70840483205393e-05,0.0897949114441871,0,0,0
7536,256446.8890450052,2010-09-17 13:11:45,5192.453895838073,2,22,0.5501165986061096,4.119519710540772,22.57623558775412,21.902385727056377,89.88876730691705,80.17113914758652,9.71794142969884e-05,0.0897949114441871,0,0,0
7537,256476.89213445736,2010-09-17 13:12:15,5222.456985435568,2,22,0.5501165986061096,4.122757434844971,22.58081962438311,21.902385727056377,89.90765869611602,80.17113914758652,0.0001295089750783,0.0897949114441871,0,0,0
7538,256506.90361260896,2010-09-17 13:12:45,5252.46846353706,2,22,0.5497553944587708,4.125833034515381,22.58540450940848,21.902385727056377,89.92656807261508,80.17113914758652,6.47544875391759e-05,0.0897949114441871,0,0,0
7539,256536.91887690136,2010-09-17 13:13:15,5282.483727759292,2,22,0.5501165986061096,4.129232883453369,22.589989931294404,21.902385727056377,89.94549457368602,80.17113914758652,6.47544875391759e-05,0.0897949114441871,0,0,0
7540,256566.9341247828,2010-09-17 13:13:45,5312.498975615672,2,22,0.5499359965324402,4.132470607757568,22.59457538812911,21.902385727056377,89.96443626969801,80.17113914758652,6.47544875391759e-05,0.0897949114441871,0,0,0
7541,256596.9493965539,2010-09-17 13:14:15,5342.514247481984,2,22,0.5501165986061096,4.135869979858398,22.599161482018697,21.902385727056377,89.98339584877125,80.17113914758652,6.47544875391759e-05,0.0897949114441871,0,0,0
7542,256626.96464151304,2010-09-17 13:14:45,5372.529492370956,2,22,0.5499359965324402,4.139107704162598,22.60374795675196,21.902385727056377,90.00237240615583,80.17113914758652,9.70840483205393e-05,0.0897949114441871,0,0,0
7543,256656.9799440509,2010-09-17 13:15:15,5402.544794933893,2,22,0.5501165986061096,4.142507553100586,22.608334411266885,21.902385727056377,90.02136431455915,80.17113914758652,9.71794142969884e-05,0.0897949114441871,0,0,0
7544,256686.99517309532,2010-09-17 13:15:45,5432.560023928189,2,22,0.5499359965324402,4.146069049835205,22.61292087121735,21.902385727056377,90.04037189834757,80.17113914758652,0.0001295089750783,0.0897949114441871,0,0,0
7545,256717.01043618476,2010-09-17 13:16:15,5462.575287042657,2,22,0.5499359965324402,4.149306774139404,22.617507312711545,21.902385727056377,90.05939526355753,80.17113914758652,6.47544875391759e-05,0.0897949114441871,0,0,0
7546,256747.0257242214,2010-09-17 13:16:45,5492.590575054271,2,22,0.5501165986061096,4.152868270874023,22.622093772028,21.902385727056377,90.0784345285503,80.17113914758652,6.47544875391759e-05,0.0897949114441871,0,0,0
7547,256777.0409802883,2010-09-17 13:17:15,5522.605831121145,2,22,0.5501165986061096,4.156429767608643,22.626680222158253,21.902385727056377,90.09748962060335,80.17113914758652,6.47544875391759e-05,0.0897949114441871,0,0,0
7548,256807.05623778875,2010-09-17 13:17:45,5552.621088621598,2,22,0.5501165986061096,4.159829139709473,22.63126665423201,21.902385727056377,90.1165606093348,80.17113914758652,9.70840483205393e-05,0.0897949114441871,0,0,0
7549,256837.07149962505,2010-09-17 13:18:15,5582.636350457874,2,22,0.5501165986061096,4.163390636444092,22.63585311020835,21.902385727056377,90.1356479063556,80.17113914758652,9.70840483205393e-05,0.0897949114441871,0,0,0
7550,256867.0868022481,2010-09-17 13:18:45,5612.65165310101,2,22,0.5501165986061096,4.166952133178711,22.640439601536112,21.902385727056377,90.15475155379976,80.17113914758652,9.70840483205393e-05,0.0897949114441871,0,0,0
7551,256897.10205041524,2010-09-17 13:19:15,5642.66690127819,2,22,0.5501165986061096,4.170675754547119,22.64502603760357,21.902385727056377,90.17387135963143,80.17113914758652,9.71794142969884e-05,0.0897949114441871,0,0,0
7552,256927.11736928893,2010-09-17 13:19:46,5672.682220242065,2,22,0.5499359965324402,4.174237251281738,22.64961248126037,21.902385727056377,90.19300774653324,80.17113914758652,6.47544875391759e-05,0.0897949114441871,0,0,0
7553,256957.1325707595,2010-09-17 13:20:16,5702.697421597371,2,22,0.5501165986061096,4.177636623382568,22.65419888341033,21.902385727056377,90.2121605674624,80.17113914758652,6.47544875391759e-05,0.0897949114441871,0,0,0
7554,256987.1478285056,2010-09-17 13:20:46,5732.712679338425,2,22,0.5501165986061096,4.181521892547607,22.65878533195344,21.902385727056377,90.23133035252982,80.17113914758652,9.70840483205393e-05,0.0897949114441871,0,0,0
7555,257017.1631596348,2010-09-17 13:21:16,5762.728010467667,2,22,0.550297200679779,4.185245513916016,22.663371788580967,21.902385727056377,90.25051705067028,80.17113914758652,0.0001295089750783,0.0897949114441871,0,0,0
7556,257047.17836225827,2010-09-17 13:21:46,5792.743213091138,2,22,0.5501165986061096,4.188968658447266,22.667958199880733,21.902385727056377,90.26972057101555,80.17113914758652,9.70840483205393e-05,0.0897949114441871,0,0,0
7557,257077.19364296665,2010-09-17 13:22:16,5822.7584938245855,2,22,0.5501165986061096,4.192692279815674,22.672544601894675,21.902385727056377,90.28894114097564,80.17113914758652,9.71794142969884e-05,0.0897949114441871,0,0,0
7558,257107.20892990052,2010-09-17 13:22:46,5852.773780828684,2,22,0.5499359965324402,4.196253299713135,22.67713104829626,21.902385727056377,90.30817913077216,80.17113914758652,6.47544875391759e-05,0.0897949114441871,0,0,0
7559,257135.13044017585,2010-09-17 13:23:14,5880.69529102876,2,22,0.5499359965324402,4.200138568878174,22.681397565250407,21.902385727056377,90.32609080548472,80.17113914758652,0.0001618385285837,0.0897949114441871,0,0,0
7560,257165.1393400665,2010-09-17 13:23:44,30.015259244807236,3,22,0.0,4.117577075958252,22.681397565250407,21.902385727056377,90.32609080548472,80.17113914758652,-0.0003561019839253,0.0897949114441871,0,0,0
7561,257195.15461820847,2010-09-17 13:24:14,60.0305373867847,3,22,0.0,4.107054710388184,22.681397565250407,21.902385727056377,90.32609080548472,80.17113914758652,-0.0002265930233988,0.0897949114441871,0,0,0
7562,257225.17000100168,2010-09-17 13:24:44,90.04592019001277,3,22,0.0,4.100903034210205,22.681397565250407,21.902385727056377,90.32609080548472,80.17113914758652,-0.0001295089750783,0.0897949114441871,0,0,0
7563,257255.1382638713,2010-09-17 13:25:14,120.0141830496123,3,22,0.0,4.096855640411377,22.681397565250407,21.902385727056377,90.32609080548472,80.17113914758652,-6.47544875391759e-05,0.0897949114441871,0,0,0
7564,257285.14362426143,2010-09-17 13:25:44,30.015186633558383,5,22,0.0,4.094265460968018,22.681397565250528,21.902385727056377,90.32609080548522,80.17113914758652,-6.47544875391759e-05,0.0897949114441871,0,0,0
7565,257315.14332176675,2010-09-17 13:26:14,60.01488415891976,5,22,0.0,4.091999053955078,22.681397565250528,21.902385727056377,90.32609080548522,80.17113914758652,-0.0001295089750783,0.0897949114441871,0,0,0
7566,257315.3301585475,2010-09-17 13:26:14,0.191017093051502,6,22,-1.9243103452026844e-05,4.092484951019287,22.681397565250528,21.902385728077423,90.32609080548522,80.17113915176512,0.0,0.0909321531653404,0,0,0
7567,257320.1547156342,2010-09-17 13:26:19,5.015574084541798,6,22,0.0010644125286489,4.092161178588867,22.681398515679547,21.902385728077423,90.3260946948698,80.17113915176512,-3.23295607813634e-05,0.0909321531653404,0,0,0
7568,257350.1659360116,2010-09-17 13:26:49,30.015344146735504,7,22,-1.099568486213684,3.926551818847656,22.681398515679547,21.911553225684862,90.3260946948698,80.20731702332459,-0.0008741855854168,0.0909321531653404,0,0,0
7569,257380.18114531168,2010-09-17 13:27:19,60.03055346692321,7,22,-1.0997490882873535,3.902269124984741,22.681398515679547,21.92072076316304,90.3260946948698,80.24319447304448,-0.0005180359003134,0.0909321531653404,0,0,0
7570,257410.1966809314,2010-09-17 13:27:49,90.04608923698,7,22,-1.0997490882873535,3.8855948448181152,22.681398515679547,21.929888317913868,90.3260946948698,80.27888792991702,-0.0003885269106831,0.0909321531653404,0,0,0
7571,257440.21168401177,2010-09-17 13:28:19,120.06109217199857,7,22,-1.0993878841400146,3.8726439476013184,22.681398515679547,21.939055685424904,90.3260946948698,80.31444619643133,-0.0002590179501567,0.0909321531653404,0,0,0
7572,257470.22693401348,2010-09-17 13:28:49,150.0763421436586,7,22,-1.099568486213684,3.861635684967041,22.681398515679547,21.94822315606277,90.3260946948698,80.34989606923693,-0.0002266406954731,0.0909321531653404,0,0,0
7573,257500.24575675832,2010-09-17 13:29:19,180.0951649837479,7,22,-1.099568486213684,3.8519225120544434,22.681398515679547,21.957391662887268,90.3260946948698,80.38525567065419,-0.0002266406954731,0.0909321531653404,0,0,0
7574,257530.2575073199,2010-09-17 13:29:49,210.10691563556725,7,22,-1.0993878841400146,3.8428568840026855,22.681398515679547,21.9665580143794,90.3260946948698,80.4205219415094,-0.0002913951757363,0.0909321531653404,0,0,0
7575,257560.272763457,2010-09-17 13:30:19,240.1221715871541,7,22,-1.099568486213684,3.8346006870269775,22.681398515679547,21.975725476821097,90.3260946948698,80.45571335029963,-0.0002266406954731,0.0909321531653404,0,0,0
7576,257590.2880300752,2010-09-17 13:30:49,270.1374382053665,7,22,-1.0993878841400146,3.8265066146850586,22.681398515679547,21.98489291138488,90.3260946948698,80.49082962799001,-0.0001942634553415,0.0909321531653404,0,0,0
7577,257620.3032606484,2010-09-17 13:31:19,300.15266877860506,7,22,-1.099568486213684,3.8188979625701904,22.681398515679547,21.99406036824292,90.3260946948698,80.52587445369481,-0.0002266406954731,0.0909321531653404,0,0,0
7578,257650.3186429053,2010-09-17 13:31:49,330.16805105551936,7,22,-1.099568486213684,3.811451196670532,22.681398515679547,22.003227891395117,90.3260946948698,80.56085054999274,-0.0002266406954731,0.0909321531653404,0,0,0
7579,257680.33380262667,2010-09-17 13:32:19,360.1832107769008,7,22,-1.099568486213684,3.804328203201294,22.681398515679547,22.012395285357183,90.3260946948698,80.59575947761671,-0.0001942634553415,0.0909321531653404,0,0,0
7580,257710.34904549053,2010-09-17 13:32:49,390.1984536107437,7,22,-1.099568486213684,3.797528982162476,22.681398515679547,22.021562734741277,90.3260946948698,80.63060422848906,-0.0001295089750783,0.0909321531653404,0,0,0
7581,257740.36431036945,2010-09-17 13:33:19,420.2137185247021,7,22,-1.0993878841400146,3.790729761123657,22.681398515679547,22.030730187528555,90.3260946948698,80.6653857973874,-0.0001295089750783,0.0909321531653404,0,0,0
7582,257770.37957300773,2010-09-17 13:33:49,450.2289811178673,7,22,-1.099568486213684,3.783930540084839,22.681398515679547,22.03989769693298,90.3260946948698,80.70010602725114,-0.0001942634553415,0.0909321531653404,0,0,0
7583,257800.3949447634,2010-09-17 13:34:19,480.2443530088567,7,22,-1.0997490882873535,3.77745509147644,22.681398515679547,22.04906526402958,90.3260946948698,80.7347664602351,-0.0001942634553415,0.0909321531653404,0,0,0
7584,257830.41011882052,2010-09-17 13:34:49,510.2595269507347,7,22,-1.0993878841400146,3.771141529083252,22.681398515679547,22.05823275728412,90.3260946948698,80.76936797156027,-0.0001618862152099,0.0909321531653404,0,0,0
7585,257860.42538033103,2010-09-17 13:35:19,540.2747884611974,7,22,-1.099568486213684,3.7651517391204834,22.681398515679547,22.067400198292667,90.3260946948698,80.80391180273362,-0.0001618862152099,0.0909321531653404,0,0,0
7586,257890.44066022732,2010-09-17 13:35:49,570.2900684527917,7,22,-1.0993878841400146,3.758838176727295,22.681398515679547,22.076567707244173,90.3260946948698,80.83839921057861,-0.0001618862152099,0.0909321531653404,0,0,0
7587,257920.45592622907,2010-09-17 13:36:19,600.3053343592275,7,22,-1.099568486213684,3.753010272979736,22.681398515679547,22.08573518389588,90.3260946948698,80.87283077410484,-9.713172767078504e-05,0.0909321531653404,0,0,0
7588,257950.47117594507,2010-09-17 13:36:50,630.3205840752494,7,22,-1.0997490882873535,3.747020721435547,22.681398515679547,22.09490271541242,90.3260946948698,80.90720811320762,-0.0001295089750783,0.0909321531653404,0,0,0
7589,257980.48644976623,2010-09-17 13:37:20,660.3358579916792,7,22,-1.099568486213684,3.7413547039031982,22.681398515679547,22.104070254696666,90.3260946948698,80.94153246903575,-0.0001295089750783,0.0909321531653404,0,0,0
7590,258010.5017232316,2010-09-17 13:37:50,690.3511313868079,7,22,-1.099568486213684,3.73552680015564,22.681398515679547,22.113237778882784,90.3260946948698,80.97580466332207,-0.0001942634553415,0.0909321531653404,0,0,0
7591,258040.51699396005,2010-09-17 13:38:20,720.3664020902174,7,22,-1.0993878841400146,3.730184555053711,22.681398515679547,22.12240530525111,90.3260946948698,81.01002577969159,-0.0001295089750783,0.0909321531653404,0,0,0
7592,258070.5322505783,2010-09-17 13:38:50,750.3816587084685,7,22,-1.0997490882873535,3.724680423736572,22.681398515679547,22.131572740265103,90.3260946948698,81.04419664541875,-0.0001295089750783,0.0909321531653404,0,0,0
7593,258100.54753101603,2010-09-17 13:39:20,780.3969391461765,7,22,-1.0997490882873535,3.7191762924194336,22.681398515679547,22.14074026172784,90.3260946948698,81.07831805512126,-0.0001942634553415,0.0909321531653404,0,0,0
7594,258130.5627954688,2010-09-17 13:39:50,810.4122036942215,7,22,-1.099568486213684,3.713995933532715,22.681398515679547,22.149907761424338,90.3260946948698,81.11239062782985,-0.0001618862152099,0.0909321531653404,0,0,0
7595,258160.57827275287,2010-09-17 13:40:20,840.4276810334258,7,22,-1.099568486213684,3.708815574645996,22.681398515679547,22.159075372024507,90.3260946948698,81.14641554553373,-0.0001618862152099,0.0909321531653404,0,0,0
7596,258190.59331057497,2010-09-17 13:40:50,870.4427187051525,7,22,-1.099568486213684,3.703958988189697,22.681398515679547,22.16824281281968,90.3260946948698,81.18039274804036,-9.713172767078504e-05,0.0909321531653404,0,0,0
7597,258220.6085914638,2010-09-17 13:41:20,900.4579996140367,7,22,-1.099568486213684,3.698616743087769,22.681398515679547,22.17741036603601,90.3260946948698,81.21432398971119,-0.0001618862152099,0.0909321531653404,0,0,0
7598,258250.62383519992,2010-09-17 13:41:50,930.4732433300816,7,22,-1.0993878841400146,3.6937601566314697,22.681398515679547,22.186577845854693,90.3260946948698,81.24820908227197,-0.0001295089750783,0.0909321531653404,0,0,0
7599,258280.6391248957,2010-09-17 13:42:20,960.4885330258992,7,22,-1.099568486213684,3.689065456390381,22.681398515679547,22.195745364153307,90.3260946948698,81.28204964476005,-9.713172767078504e-05,0.0909321531653404,0,0,0
7600,258310.65452699712,2010-09-17 13:42:50,990.5039351272984,7,22,-1.0993878841400146,3.684370756149292,22.681398515679547,22.204912834901176,90.3260946948698,81.31584659178189,-9.713172767078504e-05,0.0909321531653404,0,0,0
7601,258340.6696335558,2010-09-17 13:43:20,1020.5190416859778,7,22,-1.099568486213684,3.679676055908203,22.681398515679547,22.21408034593717,90.3260946948698,81.34960082683146,-9.713172767078504e-05,0.0909321531653404,0,0,0
7602,258370.68504239904,2010-09-17 13:43:50,1050.5344505542682,7,22,-1.099568486213684,3.675143241882324,22.681398515679547,22.223247933498826,90.3260946948698,81.38331294334876,-9.713172767078504e-05,0.0909321531653404,0,0,0
7603,258400.70019608035,2010-09-17 13:44:20,1080.54960421051,7,22,-1.099568486213684,3.670610666275024,22.681398515679547,22.232415407349265,90.3260946948698,81.41698334537719,-0.0001295089750783,0.0909321531653404,0,0,0
7604,258430.715454468,2010-09-17 13:44:50,1110.5648625981778,7,22,-1.099568486213684,3.666239738464356,22.681398515679547,22.24158295391444,90.3260946948698,81.45061352714274,-9.713172767078504e-05,0.0909321531653404,0,0,0
7605,258460.733999249,2010-09-17 13:45:20,1140.5834075947269,7,22,-1.099568486213684,3.662030696868897,22.681398515679547,22.250751490011588,90.3260946948698,81.48420840584338,-0.0001295089750783,0.0909321531653404,0,0,0
7606,258490.7459766869,2010-09-17 13:45:50,1170.595384912339,7,22,-1.0997490882873535,3.6578216552734375,22.681398515679547,22.25991796988773,90.3260946948698,81.51775740660418,-9.713172767078504e-05,0.0909321531653404,0,0,0
7607,258520.76125697928,2010-09-17 13:46:20,1200.6106651395212,7,22,-1.099568486213684,3.653774499893189,22.681398515679547,22.269085452011183,90.3260946948698,81.55127300059148,-0.0001295089750783,0.0909321531653404,0,0,0
7608,258550.77650019908,2010-09-17 13:46:50,1230.6259083292523,7,22,-1.0997490882873535,3.649889230728149,22.681398515679547,22.278253019913787,90.3260946948698,81.58475227103177,-9.713172767078504e-05,0.0909321531653404,0,0,0
7609,258580.79176117323,2010-09-17 13:47:20,1260.6411693033765,7,22,-1.0997490882873535,3.645842075347901,22.681398515679547,22.28742049158917,90.3260946948698,81.61819439985152,-9.713172767078504e-05,0.0909321531653404,0,0,0
7610,258610.8070204631,2010-09-17 13:47:50,1290.6564286183589,7,22,-1.099568486213684,3.6421186923980713,22.681398515679547,22.296587958334303,90.3260946948698,81.65160072649071,-9.713172767078504e-05,0.0909321531653404,0,0,0
7611,258640.8223543192,2010-09-17 13:48:20,1320.671762449345,7,22,-1.0993878841400146,3.638395309448242,22.681398515679547,22.3057554650849,90.3260946948698,81.68497216560418,-9.713172767078504e-05,0.0909321531653404,0,0,0
7612,258670.83755715817,2010-09-17 13:48:50,1350.6869652983794,7,22,-1.099568486213684,3.634671926498413,22.681398515679547,22.31492300757423,90.3260946948698,81.71830990179288,-9.713172767078504e-05,0.0909321531653404,0,0,0
7613,258700.85281822755,2010-09-17 13:49:20,1380.7022263527035,7,22,-1.099568486213684,3.630948543548584,22.681398515679547,22.32409057788779,90.3260946948698,81.75161461681806,-9.713172767078504e-05,0.0909321531653404,0,0,0
7614,258730.86809670532,2010-09-17 13:49:50,1410.7175048355318,7,22,-1.0993878841400146,3.6277108192443848,22.681398515679547,22.33325814929726,90.3260946948698,81.78488660369618,-6.47544875391759e-05,0.0909321531653404,0,0,0
7615,258760.88341782964,2010-09-17 13:50:20,1440.732825984862,7,22,-1.0997490882873535,3.6241493225097656,22.681398515679547,22.3424257081385,90.3260946948698,81.8181270984731,-6.47544875391759e-05,0.0909321531653404,0,0,0
7616,258790.89862975632,2010-09-17 13:50:50,1470.7480378864936,7,22,-1.099568486213684,3.6209115982055664,22.681398515679547,22.35159325030279,90.3260946948698,81.85133675167458,-9.713172767078504e-05,0.0909321531653404,0,0,0
7617,258820.9138817079,2010-09-17 13:51:20,1500.7632898431082,7,22,-1.0993878841400146,3.617511987686157,22.681398515679547,22.36076076582425,90.3260946948698,81.88451498283737,-3.237724376958795e-05,0.0909321531653404,0,0,0
7618,258850.9291761957,2010-09-17 13:51:50,1530.7785843509375,7,22,-1.099568486213684,3.614274263381958,22.681398515679547,22.369928360264765,90.3260946948698,81.91766269963064,-9.713172767078504e-05,0.0909321531653404,0,0,0
7619,258880.94442709463,2010-09-17 13:52:20,1560.7938353150753,7,22,-1.099568486213684,3.610874652862549,22.681398515679547,22.37909587272229,90.3260946948698,81.95078008877003,-6.47544875391759e-05,0.0909321531653404,0,0,0
7620,258910.95969208883,2010-09-17 13:52:50,1590.8091002190083,7,22,-1.099568486213684,3.60747504234314,22.681398515679547,22.388263389702093,90.3260946948698,81.98386807085113,-0.0001618862152099,0.0909321531653404,0,0,0
7621,258940.974947474,2010-09-17 13:53:20,1620.8243556242312,7,22,-1.099568486213684,3.60456109046936,22.681398515679547,22.39743166860835,90.3260946948698,82.01692933128032,-6.47544875391759e-05,0.0909321531653404,0,0,0
7622,258970.99027845287,2010-09-17 13:53:50,1650.8396865830478,7,22,-1.099568486213684,3.601323366165161,22.681398515679547,22.406600037648563,90.3260946948698,82.04996213427489,-9.713172767078504e-05,0.0909321531653404,0,0,0
7623,259001.005529397,2010-09-17 13:54:20,1680.8549375221226,7,22,-1.099568486213684,3.598085641860962,22.681398515679547,22.415767744796742,90.3260946948698,82.0829643338844,-0.0001295089750783,0.0909321531653404,0,0,0
7624,259031.02139960683,2010-09-17 13:54:50,1710.8708077420176,7,22,-1.0993878841400146,3.5951716899871826,22.681398515679547,22.42493547503251,90.3260946948698,82.11593803219311,-9.713172767078504e-05,0.0909321531653404,0,0,0
7625,259061.0361012297,2010-09-17 13:55:20,1740.8855093599022,7,22,-1.0997490882873535,3.5919342041015625,22.681398515679547,22.434102850822377,90.3260946948698,82.148881802861,-9.70840483205393e-05,0.0909321531653404,0,0,0
7626,259091.05132361257,2010-09-17 13:55:50,1770.9007317376838,7,22,-1.0997490882873535,3.588858366012573,22.681398515679547,22.44327038413552,90.3260946948698,82.18179757250797,-9.713172767078504e-05,0.0909321531653404,0,0,0
7627,259121.06667583945,2010-09-17 13:56:20,1800.9160840899012,7,22,-1.099568486213684,3.585944414138794,22.681398515679547,22.45243798648429,90.3260946948698,82.21468582790162,-6.47544875391759e-05,0.0909321531653404,0,0,0
7628,259151.08183376133,2010-09-17 13:56:50,1830.9312418914908,7,22,-1.099568486213684,3.5828685760498047,22.681398515679547,22.46160547239012,90.3260946948698,82.24754576764828,-9.713172767078504e-05,0.0909321531653404,0,0,0
7629,259181.09710363767,2010-09-17 13:57:20,1860.9465117628235,7,22,-1.099568486213684,3.5799546241760254,22.681398515679547,22.47077307855864,90.3260946948698,82.28037806129262,-3.237724376958795e-05,0.0909321531653404,0,0,0
7630,259211.1123973184,2010-09-17 13:57:50,1890.9618054636385,7,22,-1.099568486213684,3.576716899871826,22.681398515679547,22.47994065802633,90.3260946948698,82.31318216850512,-6.47544875391759e-05,0.0909321531653404,0,0,0
7631,259241.1276427638,2010-09-17 13:58:20,1920.977050893962,7,22,-1.099568486213684,3.573317289352417,22.681398515679547,22.489108224053453,90.3260946948698,82.34595739574993,-9.713172767078504e-05,0.0909321531653404,0,0,0
7632,259271.14307304556,2010-09-17 13:58:50,1950.992481175704,7,22,-1.0993878841400146,3.5704033374786377,22.681398515679547,22.498275812697717,90.3260946948698,82.37870387893845,-6.47544875391759e-05,0.0909321531653404,0,0,0
7633,259301.15818390995,2010-09-17 13:59:20,1981.0075920401307,7,22,-1.099568486213684,3.5671656131744385,22.681398515679547,22.507443395757043,90.3260946948698,82.41142088335957,-6.47544875391759e-05,0.0909321531653404,0,0,0
7634,259331.1734462074,2010-09-17 13:59:50,2011.022854367633,7,22,-1.099568486213684,3.56360411643982,22.681398515679547,22.516610978902804,90.3260946948698,82.4441076295108,-0.0001618862152099,0.0909321531653404,0,0,0
7635,259361.18871019903,2010-09-17 14:00:20,2041.0381183242016,7,22,-1.099568486213684,3.56052827835083,22.681398515679547,22.52577851490052,90.3260946948698,82.47676410173882,-9.713172767078504e-05,0.0909321531653404,0,0,0
7636,259391.2039545166,2010-09-17 14:00:50,2071.053362641748,7,22,-1.099568486213684,3.557128667831421,22.681398515679547,22.534946012878347,90.3260946948698,82.50938995261816,-9.713172767078504e-05,0.0909321531653404,0,0,0
7637,259421.21943196107,2010-09-17 14:01:20,2101.068840121303,7,22,-1.099568486213684,3.553729057312012,22.681398515679547,22.544113644606327,90.3260946948698,82.54198481149068,-6.47544875391759e-05,0.0909321531653404,0,0,0
7638,259451.2221993643,2010-09-17 14:01:50,2131.0716076197896,7,22,-1.099568486213684,3.5501675605773926,22.681398515679547,22.55327740105769,90.3260946948698,82.57453387922337,-9.713172767078504e-05,0.0909321531653404,0,0,0
7639,259481.23419059665,2010-09-17 14:02:20,2161.083598812035,7,22,-1.099568486213684,3.546606063842773,22.681398515679547,22.56244396897178,90.3260946948698,82.60706041386558,-9.713172767078504e-05,0.0909321531653404,0,0,0
7640,259511.24942203207,2010-09-17 14:02:50,2191.098830162213,7,22,-1.099568486213684,3.5428826808929443,22.681398515679547,22.57161151935495,90.3260946948698,82.63955706471434,-6.47544875391759e-05,0.0909321531653404,0,0,0
7641,259541.26467936207,2010-09-17 14:03:20,2221.1140874922403,7,22,-1.099568486213684,3.5391592979431152,22.681398515679547,22.58077911219901,90.3260946948698,82.67202005610591,-9.713172767078504e-05,0.0909321531653404,0,0,0
7642,259571.27994299785,2010-09-17 14:03:50,2251.129351223245,7,22,-1.099568486213684,3.535274028778076,22.681398515679547,22.58994667880043,90.3260946948698,82.70444836695994,-9.713172767078504e-05,0.0909321531653404,0,0,0
7643,259601.2952093404,2010-09-17 14:04:20,2281.14461746552,7,22,-1.099568486213684,3.531550645828247,22.681398515679547,22.599114362032378,90.3260946948698,82.73684170137676,-9.713172767078504e-05,0.0909321531653404,0,0,0
7644,259631.310508174,2010-09-17 14:04:50,2311.159916324209,7,22,-1.099568486213684,3.527341604232788,22.681398515679547,22.60828203225968,90.3260946948698,82.76919810759372,-9.713172767078504e-05,0.0909321531653404,0,0,0
7645,259661.3257380154,2010-09-17 14:05:20,2341.175146140559,7,22,-1.099568486213684,3.523132562637329,22.681398515679547,22.61744964004951,90.3260946948698,82.80151627257433,-9.713172767078504e-05,0.0909321531653404,0,0,0
7646,259691.34113593132,2010-09-17 14:05:50,2371.190544061523,7,22,-1.0993878841400146,3.51876163482666,22.681398515679547,22.62661729519115,90.3260946948698,82.83379525131579,-0.0001295089750783,0.0909321531653404,0,0,0
7647,259721.3562708809,2010-09-17 14:06:20,2401.20567901107,7,22,-1.099568486213684,3.5140669345855717,22.681398515679547,22.635784818623662,90.3260946948698,82.86603228187718,-0.0001295089750783,0.0909321531653404,0,0,0
7648,259751.3715533788,2010-09-17 14:06:50,2431.2209615039083,7,22,-1.099568486213684,3.509210586547852,22.681398515679547,22.64495240515952,90.3260946948698,82.8982258781628,-0.0001295089750783,0.0909321531653404,0,0,0
7649,259781.3869366682,2010-09-17 14:07:20,2461.2363448936,7,22,-1.0997490882873535,3.5041921138763428,22.681398515679547,22.654120072327004,90.3260946948698,82.93037383038345,-0.0001295089750783,0.0909321531653404,0,0,0
7650,259811.4020577331,2010-09-17 14:07:50,2491.251465973526,7,22,-1.099568486213684,3.498526096343994,22.681398515679547,22.663287695291302,90.3260946948698,82.9624727156495,-0.0001618862152099,0.0909321531653404,0,0,0
7651,259841.41737035112,2010-09-17 14:08:20,2521.266778501336,7,22,-1.099568486213684,3.4926981925964355,22.681398515679547,22.67245539337707,90.3260946948698,82.994519029504,-9.713172767078504e-05,0.0909321531653404,0,0,0
7652,259871.4326697712,2010-09-17 14:08:50,2551.2820779164144,7,22,-1.0997490882873535,3.485898971557617,22.681398515679547,22.681623043706367,90.3260946948698,83.02650759177294,-0.0001618862152099,0.0909321531653404,0,0,0
7653,259901.44785014915,2010-09-17 14:09:21,2581.2972582793204,7,22,-1.0997490882873535,3.478614091873169,22.681398515679547,22.69079074348423,90.3260946948698,83.05843251783139,-0.0002266406954731,0.0909321531653404,0,0,0
7654,259931.46311539892,2010-09-17 14:09:51,2611.312523524105,7,22,-1.099568486213684,3.470357894897461,22.681398515679547,22.699958369036658,90.3260946948698,83.09028655231444,-0.0002590179501567,0.0909321531653404,0,0,0
7655,259961.4785035957,2010-09-17 14:10:21,2641.327911725808,7,22,-1.0993878841400146,3.461292266845703,22.681398515679547,22.70912600751337,90.3260946948698,83.12206116556978,-0.0002266406954731,0.0909321531653404,0,0,0
7656,259991.49365422933,2010-09-17 14:10:51,2671.3430623544923,7,22,-1.099568486213684,3.450445890426636,22.681398515679547,22.718293529404843,90.3260946948698,83.15374438667905,-0.0002913951757363,0.0909321531653404,0,0,0
7657,260021.50891072227,2010-09-17 14:11:21,2701.358318847431,7,22,-1.099568486213684,3.437818765640259,22.681398515679547,22.727461185537084,90.3260946948698,83.18532055153977,-0.0003561496851034,0.0909321531653404,0,0,0
7658,260051.52419170635,2010-09-17 14:11:51,2731.373599851552,7,22,-1.099568486213684,3.422116041183472,22.681398515679547,22.736628796841003,90.3260946948698,83.21676727238496,-0.0004532813909463,0.0909321531653404,0,0,0
7659,260081.53944429453,2010-09-17 14:12:21,2761.388852419694,7,22,-1.0993878841400146,3.4023659229278564,22.681398515679547,22.745796450301413,90.3260946948698,83.2480529280525,-0.0005827903514727,0.0909321531653404,0,0,0
7660,260111.55490551857,2010-09-17 14:12:51,2791.40431375896,7,22,-1.099568486213684,3.3763022422790527,22.681398515679547,22.754964169396963,90.3260946948698,83.27913147365861,-0.0008094310760498,0.0909321531653404,0,0,0
7661,260141.56998345576,2010-09-17 14:13:21,2821.4193915909327,7,22,-1.099568486213684,3.3403637409210205,22.681398515679547,22.76413179810317,90.3260946948698,83.30992942734079,-0.0010684489971026,0.0909321531653404,0,0,0
7662,260171.5852732318,2010-09-17 14:13:51,2851.4346813619377,7,22,-1.0992072820663452,3.289207696914673,22.681398515679547,22.77329945664388,90.3260946948698,83.34033285846911,-0.0015864849556237,0.0909321531653404,0,0,0
7663,260201.6005001409,2010-09-17 14:14:21,2881.4499082660177,7,22,-1.099568486213684,3.2136070728302,22.681398515679547,22.782467081042657,90.3260946948698,83.37016294526585,-0.0023959160316735,0.0909321531653404,0,0,0
7664,260231.61579571635,2010-09-17 14:14:51,2911.4652038665745,7,22,-1.0997490882873535,3.098830223083496,22.681398515679547,22.79163465385773,90.3260946948698,83.399138918944,-0.0037233352195471,0.0909321531653404,0,0,0
7665,260259.92793966332,2010-09-17 14:15:19,2939.7773477885185,7,22,-1.099568486213684,2.8985774517059326,22.681398515679547,22.80028210595864,90.3260946948698,83.42519094098807,-0.008094310760498,0.0909321531653404,0,0,0
7666,260274.0683885392,2010-09-17 14:15:33,2953.917796664366,7,22,-1.099568486213684,2.699943780899048,22.681398515679547,22.80460102134041,90.3260946948698,83.43731270541848,-0.0129508497193455,0.0909321531653404,0,0,0
7667,260334.08322324333,2010-09-17 14:16:33,60.01490105609772,8,22,0.0,3.405279874801636,22.681398515679547,22.80460102134041,90.3260946948698,83.43731270541848,0.0012950897216796,0.0909321531653404,0,0,0
7668,260334.27132204344,2010-09-17 14:16:34,0.187498720652706,9,22,-1.9243103452026844e-05,3.4057655334472656,22.681398515679547,22.80460102234265,90.3260946948698,83.43731270883185,0.0,0.0897949114441871,0,0,0
7669,260339.0995065247,2010-09-17 14:16:38,5.015683231990622,9,22,0.0008838032954372,3.413050413131714,22.68139938198138,22.804601022427264,90.32609764879416,83.43731270912004,0.0011332035064697,0.0897949114441871,0,0,0
