Data_Point,Test_Time(s),Date_Time,Step_Time(s),Step_Index,Cycle_Index,Current(A),Voltage(V),Charge_Capacity(Ah),Discharge_Capacity(Ah),Charge_Energy(Wh),Discharge_Energy(Wh),dV/dt(V/s),Internal_Resistance(Ohm),Is_FC_Data,AC_Impedance(Ohm),ACI_Phase_Angle(Deg)
8358,284113.8513666104,2010-09-17 20:52:56,30.0153653195862,1,25,0.0,3.412888526916504,24.72578794214666,24.85137216110673,98.4834682076679,90.91688367610972,0.0007446765666827,0.0873680263757705,0,0,0
8359,284143.8666606321,2010-09-17 20:53:26,60.03065937127676,1,25,0.0,3.4352285861968994,24.72578794214666,24.85137216110673,98.4834682076679,90.91688367610972,0.0005180359003134,0.0873680263757705,0,0,0
8360,284173.8819384532,2010-09-17 20:53:56,90.0459371623784,1,25,0.0,3.451579093933105,24.72578794214666,24.85137216110673,98.4834682076679,90.91688367610972,0.0004532813909463,0.0873680263757705,0,0,0
8361,284203.85036146257,2010-09-17 20:54:26,120.0143601717364,1,25,0.0,3.4640443325042725,24.72578794214666,24.85137216110673,98.4834682076679,90.91688367610972,0.0002913951757363,0.0873680263757705,0,0,0
8362,284233.8709610378,2010-09-17 20:54:56,30.01529985116695,2,25,0.550297200679779,3.601970911026001,24.73037463376164,24.85137216110673,98.49984511961269,90.91688367610972,0.0014245987404137,0.0873680263757705,0,0,0
8363,284263.8862273202,2010-09-17 20:55:26,60.03056610346596,2,25,0.550297200679779,3.645194530487061,24.734961352151952,24.85137216110673,98.51647117076094,90.91688367610972,0.0010036944877356,0.0873680263757705,0,0,0
8364,284293.9015323092,2010-09-17 20:55:56,90.04587112253279,2,25,0.5501165986061096,3.676923990249634,24.739547994926745,24.85137216110673,98.53326616281278,90.91688367610972,0.0007122993702068,0.0873680263757705,0,0,0
8365,284323.9169310071,2010-09-17 20:56:26,120.06126988559906,2,25,0.5501165986061096,3.7023401260375977,24.744134664724264,24.85137216110673,98.55019108885668,90.91688367610972,0.0006475448608398,0.0873680263757705,0,0,0
8366,284353.93210772594,2010-09-17 20:56:56,150.07644650917095,2,25,0.5501165986061096,3.7230615615844727,24.748721267045184,24.85137216110673,98.5672209354302,90.91688367610972,0.0004856586456298,0.0873680263757705,0,0,0
8367,284383.9473981736,2010-09-17 20:57:26,180.09173698694048,2,25,0.5501165986061096,3.739735841751098,24.75330793108427,24.85137216110673,98.58433700458836,90.91688367610972,0.0003561496851034,0.0873680263757705,0,0,0
8368,284413.96276664606,2010-09-17 20:57:56,210.1071054543842,2,25,0.5501165986061096,3.752362966537476,24.757894555552166,24.85137216110673,98.60152088328194,90.91688367610972,0.0002590179501567,0.0873680263757705,0,0,0
8369,284443.9781875093,2010-09-17 20:58:26,240.12252631260336,2,25,0.5501165986061096,3.7599713802337646,24.76248122919568,24.85137216110673,98.61875117894076,90.91688367610972,0.0001295089750783,0.0873680263757705,0,0,0
8370,284473.99328851915,2010-09-17 20:58:56,270.137627422682,2,25,0.5501165986061096,3.764504194259644,24.76706779896613,24.85137216110673,98.63600776300656,90.91688367610972,9.713172767078504e-05,0.0873680263757705,0,0,0
8371,284504.0085833177,2010-09-17 20:59:26,300.1529221209866,2,25,0.550297200679779,3.7679038047790527,24.771654438433828,24.85137216110673,98.65328231052486,90.91688367610972,6.47544875391759e-05,0.0873680263757705,0,0,0
8372,284534.02386669273,2010-09-17 20:59:56,330.1682054759765,2,25,0.550297200679779,3.771141529083252,24.77624102261152,24.85137216110673,98.67057148106512,90.91688367610972,9.713172767078504e-05,0.0873680263757705,0,0,0
8373,284564.0391647795,2010-09-17 21:00:26,360.1835035627393,2,25,0.550297200679779,3.774217367172241,24.78082763975744,24.85137216110673,98.6878751065409,90.91688367610972,9.713172767078504e-05,0.0873680263757705,0,0,0
8374,284594.0544588312,2010-09-17 21:00:56,390.19879761442985,2,25,0.550297200679779,3.77745509147644,24.785414256551025,24.85137216110673,98.70519300845544,90.91688367610972,0.0001295089750783,0.0873680263757705,0,0,0
8375,284624.0701313927,2010-09-17 21:01:26,420.2144701859642,2,25,0.550297200679779,3.78036904335022,24.79000096245868,24.85137216110673,98.72252545062555,90.91688367610972,6.47544875391759e-05,0.0873680263757705,0,0,0
8376,284654.08510683407,2010-09-17 21:01:56,450.229445642392,2,25,0.5497553944587708,3.783444881439209,24.794587557057262,24.85137216110673,98.73987150469276,90.91688367610972,9.713172767078504e-05,0.0873680263757705,0,0,0
8377,284684.1003441942,2010-09-17 21:02:26,480.24468300257183,2,25,0.5501165986061096,3.786358833312988,24.799174211900397,24.85137216110673,98.75723167264508,90.91688367610972,6.47544875391759e-05,0.0873680263757705,0,0,0
8378,284714.1156208174,2010-09-17 21:02:56,510.25995963077065,2,25,0.5499359965324402,3.789272785186768,24.80376085195748,24.85137216110673,98.77460557743348,90.91688367610972,6.47544875391759e-05,0.0873680263757705,0,0,0
8379,284744.13090699946,2010-09-17 21:03:26,540.2752458078048,2,25,0.550297200679779,3.792348623275757,24.80834752129588,24.85137216110673,98.7919931965914,90.91688367610972,9.713172767078504e-05,0.0873680263757705,0,0,0
8380,284774.1462116125,2010-09-17 21:03:56,570.2905503957957,2,25,0.5499359965324402,3.795262575149536,24.812934170146644,24.85137216110673,98.80939425328368,90.91688367610972,3.237724376958795e-05,0.0873680263757705,0,0,0
8381,284804.1615042106,2010-09-17 21:04:26,600.3058430239328,2,25,0.5501165986061096,3.798176527023315,24.817520861324383,24.85137216110673,98.8268089136742,90.91688367610972,6.47544875391759e-05,0.0873680263757705,0,0,0
8382,284834.17678470846,2010-09-17 21:04:56,630.3211235217909,2,25,0.550297200679779,3.8012523651123047,24.82210754116286,24.85137216110673,98.84423705104116,90.91688367610972,9.713172767078504e-05,0.0873680263757705,0,0,0
8383,284864.1922206594,2010-09-17 21:05:26,660.3365594426086,2,25,0.5499359965324402,3.804166316986084,24.82669422200019,24.85137216110673,98.8616786020656,90.91688367610972,6.47544875391759e-05,0.0873680263757705,0,0,0
8384,284894.2075031772,2010-09-17 21:05:56,690.3518419605091,2,25,0.550297200679779,3.807242155075073,24.83128093480815,24.85137216110673,98.87913397175316,90.91688367610972,9.713172767078504e-05,0.0873680263757705,0,0,0
8385,284924.22266988107,2010-09-17 21:06:26,720.3670086943948,2,25,0.5501165986061096,3.8103179931640634,24.8358676416981,24.85137216110673,98.89660324071784,90.91688367610972,9.713172767078504e-05,0.0873680263757705,0,0,0
8386,284954.2380792255,2010-09-17 21:06:56,750.3824180037864,2,25,0.5501165986061096,3.813393831253052,24.84045436464321,24.85137216110673,98.91408695109068,90.91688367610972,6.47544875391759e-05,0.0873680263757705,0,0,0
8387,284984.2532498341,2010-09-17 21:07:26,780.3975886173564,2,25,0.5501165986061096,3.816793441772461,24.845041045196776,24.85137216110673,98.93158554034912,90.91688367610972,9.713172767078504e-05,0.0873680263757705,0,0,0
8388,285014.26855127426,2010-09-17 21:07:56,810.4128900574896,2,25,0.550297200679779,3.82003116607666,24.849627654669572,24.85137216110673,98.94909901408616,90.91688367610972,9.713172767078504e-05,0.0873680263757705,0,0,0
8389,285044.26868966507,2010-09-17 21:08:26,840.413028458344,2,25,0.550297200679779,3.8235926628112793,24.85421201140576,24.85137216110673,98.96661951094568,90.91688367610972,9.713172767078504e-05,0.0873680263757705,0,0,0
8390,285074.28364042484,2010-09-17 21:08:56,870.4279792131128,2,25,0.5499359965324402,3.826992273330689,24.858798576286212,24.85137216110673,98.98416429487722,90.91688367610972,0.0001295089750783,0.0873680263757705,0,0,0
8391,285104.2988071838,2010-09-17 21:09:26,900.443145992111,2,25,0.5501165986061096,3.8303918838500977,24.863385194165787,24.85137216110673,99.0017252165122,90.91688367610972,6.47544875391759e-05,0.0873680263757705,0,0,0
8392,285134.3140908446,2010-09-17 21:09:56,930.4584296278016,2,25,0.5501165986061096,3.8339531421661377,24.867971824239383,24.85137216110673,99.01930209203368,90.91688367610972,9.713172767078504e-05,0.0873680263757705,0,0,0
8393,285164.3293830617,2010-09-17 21:10:26,960.473721874988,2,25,0.5501165986061096,3.837352752685547,24.872558430582647,24.85137216110673,99.0368945747946,90.91688367610972,9.713172767078504e-05,0.0873680263757705,0,0,0
8394,285194.3456074606,2010-09-17 21:10:56,990.489946339131,2,25,0.5499359965324402,3.840428590774536,24.877145016399403,24.85137216110673,99.0545023002114,90.91688367610972,6.47544875391759e-05,0.0873680263757705,0,0,0
8395,285224.3469957464,2010-09-17 21:11:26,1020.4913346248906,2,25,0.5501165986061096,3.843828201293945,24.881729448473088,24.85137216110673,99.07211683790028,90.91688367610972,6.47544875391759e-05,0.0873680263757705,0,0,0
8396,285254.3598021185,2010-09-17 21:11:56,1050.5041410270253,2,25,0.550297200679779,3.847065925598145,24.886315626392804,24.85137216110673,99.08975285122035,90.91688367610972,6.47544875391759e-05,0.0873680263757705,0,0,0
8397,285284.3749392334,2010-09-17 21:12:26,1080.5192780166649,2,25,0.550297200679779,3.850303649902344,24.89090216087904,24.85137216110673,99.10740479585724,90.91688367610972,9.713172767078504e-05,0.0873680263757705,0,0,0
8398,285314.39023798687,2010-09-17 21:12:56,1110.5345767700917,2,25,0.5501165986061096,3.853217601776123,24.895488811003908,24.85137216110673,99.1250715067402,90.91688367610972,3.237724376958795e-05,0.0873680263757705,0,0,0
8399,285344.40555091563,2010-09-17 21:13:26,1140.5498897289774,2,25,0.5504778623580933,3.856293439865112,24.900075395557543,24.85137216110673,99.14275170771111,90.91688367610972,9.713172767078504e-05,0.0873680263757705,0,0,0
8400,285374.420847634,2010-09-17 21:13:56,1170.565186442312,2,25,0.5499359965324402,3.859207391738892,24.90466196890577,24.85137216110673,99.1604453876402,90.91688367610972,9.713172767078504e-05,0.0873680263757705,0,0,0
8401,285404.43611273344,2010-09-17 21:14:26,1200.5804515467455,2,25,0.5501165986061096,3.861797571182251,24.90924862422685,24.85137216110673,99.17815228909352,90.91688367610972,6.47544875391759e-05,0.0873680263757705,0,0,0
8402,285434.4514151259,2010-09-17 21:14:56,1230.5957539091812,2,25,0.5501165986061096,3.86454963684082,24.91383524452554,24.85137216110673,99.19587128240352,90.91688367610972,9.713172767078504e-05,0.0873680263757705,0,0,0
8403,285464.4669137834,2010-09-17 21:15:26,1260.6112525665988,2,25,0.5499359965324402,3.86681604385376,24.918421820536533,24.85137216110673,99.21360167952584,90.91688367610972,3.237724376958795e-05,0.0873680263757705,0,0,0
8404,285494.4819270291,2010-09-17 21:15:56,1290.6262658424298,2,25,0.5501165986061096,3.869244337081909,24.923008335252344,24.85137216110673,99.23134278525345,90.91688367610972,6.47544875391759e-05,0.0873680263757705,0,0,0
8405,285524.4972667598,2010-09-17 21:16:27,1320.6416055681295,2,25,0.5499359965324402,3.8711869716644287,24.927594841987183,24.85137216110673,99.24909398974351,90.91688367610972,0.0,0.0873680263757705,0,0,0
8406,285554.5125876134,2010-09-17 21:16:57,1350.6569263916467,2,25,0.5499359965324402,3.873291492462158,24.93218138189573,24.85137216110673,99.2668548881144,90.91688367610972,6.47544875391759e-05,0.0873680263757705,0,0,0
8407,285584.5278932139,2010-09-17 21:17:27,1380.672232027253,2,25,0.5499359965324402,3.875072240829468,24.93676794630865,24.85137216110673,99.2846246648344,90.91688367610972,3.237724376958795e-05,0.0873680263757705,0,0,0
8408,285614.5430805342,2010-09-17 21:17:57,1410.6874193124374,2,25,0.5501165986061096,3.876852989196777,24.94135447190496,24.85137216110673,99.30240255489107,90.91688367610972,6.47544875391759e-05,0.0873680263757705,0,0,0
8409,285644.55856575305,2010-09-17 21:18:27,1440.702904536323,2,25,0.550297200679779,3.878633737564087,24.94594111305136,24.85137216110673,99.32018856694738,90.91688367610972,3.237724376958795e-05,0.0873680263757705,0,0,0
8410,285674.5739016041,2010-09-17 21:18:57,1470.7182403873514,2,25,0.5501165986061096,3.879928827285767,24.95052779184248,24.85137216110673,99.3379817392544,90.91688367610972,0.0,0.0873680263757705,0,0,0
8411,285704.589081566,2010-09-17 21:19:27,1500.7334203492564,2,25,0.550297200679779,3.881385803222656,24.955114419435247,24.85137216110673,99.35578124892768,90.91688367610972,0.0,0.0873680263757705,0,0,0
8412,285734.604337277,2010-09-17 21:19:57,1530.7486760853053,2,25,0.5501165986061096,3.882842779159546,24.95970105170869,24.85137216110673,99.37358690834854,90.91688367610972,6.47544875391759e-05,0.0873680263757705,0,0,0
8413,285764.6197590926,2010-09-17 21:20:27,1560.7640978908892,2,25,0.550297200679779,3.883975982666016,24.96428763979417,24.85137216110673,99.39139827130464,90.91688367610972,3.237724376958795e-05,0.0873680263757705,0,0,0
8414,285794.6349530544,2010-09-17 21:20:57,1590.7792918677776,2,25,0.5501165986061096,3.885432958602905,24.96887423899728,24.85137216110673,99.40921511756518,90.91688367610972,6.47544875391759e-05,0.0873680263757705,0,0,0
8415,285824.65023817384,2010-09-17 21:21:27,1620.7945769771468,2,25,0.5499359965324402,3.886242389678955,24.97346080696079,24.85137216110673,99.427037237974,90.91688367610972,3.237724376958795e-05,0.0873680263757705,0,0,0
8416,285854.6655202857,2010-09-17 21:21:57,1650.8098590940465,2,25,0.5501165986061096,3.887375593185425,24.97804739644148,24.85137216110673,99.44486467328116,90.91688367610972,6.47544875391759e-05,0.0873680263757705,0,0,0
8417,285884.680953585,2010-09-17 21:22:27,1680.8252923782827,2,25,0.5501165986061096,3.8885087966918954,24.98263401824214,24.85137216110673,99.46269738456422,90.91688367610972,3.237724376958795e-05,0.0873680263757705,0,0,0
8418,285914.69611662463,2010-09-17 21:22:57,1710.8404554079225,2,25,0.5501165986061096,3.889642000198364,24.987220638946606,24.85137216110673,99.48053526641424,90.91688367610972,3.237724376958795e-05,0.0873680263757705,0,0,0
8419,285944.7114403404,2010-09-17 21:23:27,1740.8557791236587,2,25,0.5501165986061096,3.890937089920044,24.99180732099213,24.85137216110673,99.49837840841836,90.91688367610972,6.47544875391759e-05,0.0873680263757705,0,0,0
8420,285974.7268315346,2010-09-17 21:23:57,1770.871170337882,2,25,0.550297200679779,3.891908407211304,24.996394032738767,24.85137216110673,99.5162267597933,90.91688367610972,3.237724376958795e-05,0.0873680263757705,0,0,0
8421,286004.74202089495,2010-09-17 21:24:27,1800.8863597032594,2,25,0.5501165986061096,3.892879724502564,25.000980668050538,24.85137216110673,99.53407989420762,90.91688367610972,0.0,0.0873680263757705,0,0,0
8422,286034.7573020745,2010-09-17 21:24:57,1830.9016408878315,2,25,0.550297200679779,3.894174814224243,25.00556735860425,24.85137216110673,99.55193838063654,90.91688367610972,6.47544875391759e-05,0.0873680263757705,0,0,0
8423,286064.77260055725,2010-09-17 21:25:27,1860.9169393405075,2,25,0.5501165986061096,3.895146131515503,25.01015405196045,24.85137216110673,99.5698017664628,90.91688367610972,6.47544875391759e-05,0.0873680263757705,0,0,0
8424,286094.78801390674,2010-09-17 21:25:57,1890.9323526849712,2,25,0.550297200679779,3.8962793350219727,25.01474073156161,24.85137216110673,99.5876699155936,90.91688367610972,0.0,0.0873680263757705,0,0,0
8425,286124.80318389373,2010-09-17 21:26:27,1920.9475227020523,2,25,0.5501165986061096,3.8974125385284415,25.0193273605738,24.85137216110673,99.60554317973023,90.91688367610972,6.47544875391759e-05,0.0873680263757705,0,0,0
8426,286154.8184827474,2010-09-17 21:26:57,1950.9628215306668,2,25,0.5501165986061096,3.898545742034912,25.02391401154604,24.85137216110673,99.62342163972528,90.91688367610972,0.0,0.0873680263757705,0,0,0
8427,286184.8337991148,2010-09-17 21:27:27,1980.978137898061,2,25,0.550297200679779,3.899678945541382,25.02850069707899,24.85137216110673,99.6413055184958,90.91688367610972,3.237724376958795e-05,0.0873680263757705,0,0,0
8428,286214.84910956747,2010-09-17 21:27:57,2010.9934483757536,2,25,0.5501165986061096,3.900812149047852,25.033087417601607,24.85137216110673,99.65919471519652,90.91688367610972,3.237724376958795e-05,0.0873680263757705,0,0,0
8429,286244.8643657546,2010-09-17 21:28:27,2041.0087045378657,2,25,0.5501165986061096,3.901945352554321,25.03767406295821,24.85137216110673,99.67708893818065,90.91688367610972,6.47544875391759e-05,0.0873680263757705,0,0,0
8430,286274.8796670293,2010-09-17 21:28:57,2071.024005812586,2,25,0.5501165986061096,3.903240442276001,25.042260688631163,24.85137216110673,99.69498837901592,90.91688367610972,3.237724376958795e-05,0.0873680263757705,0,0,0
8431,286304.8950408351,2010-09-17 21:29:27,2101.0393796434173,2,25,0.5501165986061096,3.9042117595672607,25.04684733400515,24.85137216110673,99.71289331413148,90.91688367610972,3.237724376958795e-05,0.0873680263757705,0,0,0
8432,286334.91025465657,2010-09-17 21:29:57,2131.054593449804,2,25,0.550297200679779,3.905506849288941,25.05143399131345,24.85137216110673,99.73080369181932,90.91688367610972,3.237724376958795e-05,0.0873680263757705,0,0,0
8433,286364.92555095383,2010-09-17 21:30:27,2161.0698897370744,2,25,0.5499359965324402,3.9064781665802,25.05602068347513,24.85137216110673,99.7487196912167,90.91688367610972,0.0,0.0873680263757705,0,0,0
8434,286394.9408527047,2010-09-17 21:30:57,2191.085191487983,2,25,0.5501165986061096,3.90777325630188,25.06060728255761,24.85137216110673,99.76664086622976,90.91688367610972,0.0,0.0873680263757705,0,0,0
8435,286424.9563891214,2010-09-17 21:31:27,2221.1007278996417,2,25,0.5501165986061096,3.90906834602356,25.06519397355951,24.85137216110673,99.78456802279216,90.91688367610972,0.0,0.0873680263757705,0,0,0
8436,286454.97144502867,2010-09-17 21:31:57,2251.1157838419745,2,25,0.5499359965324402,3.910201549530029,25.06978049457438,24.85137216110673,99.80250020380852,90.91688367610972,0.0,0.0873680263757705,0,0,0
8437,286484.9867458522,2010-09-17 21:32:27,2281.1310846354936,2,25,0.5499359965324402,3.911496639251709,25.074367133597875,24.85137216110673,99.82043851194663,90.91688367610972,3.237724376958795e-05,0.0873680263757705,0,0,0
8438,286515.0020400443,2010-09-17 21:32:57,2311.146378852597,2,25,0.5501165986061096,3.912953615188599,25.07895385882696,24.85137216110673,99.83838299281216,90.91688367610972,6.47544875391759e-05,0.0873680263757705,0,0,0
8439,286545.017361354,2010-09-17 21:33:27,2341.1617001372656,2,25,0.550297200679779,3.914248466491699,25.083540524818098,24.85137216110673,99.85633307878828,90.91688367610972,6.47544875391759e-05,0.0873680263757705,0,0,0
8440,286575.01754208055,2010-09-17 21:33:57,2371.161880999109,2,25,0.5501165986061096,3.915543556213379,25.08812489437003,24.85137216110673,99.87428014368588,90.91688367610972,3.237724376958795e-05,0.0873680263757705,0,0,0
8441,286605.0323391868,2010-09-17 21:34:27,2401.176678000085,2,25,0.5499359965324402,3.9168386459350586,25.09271145626952,24.85137216110673,99.89224154241715,90.91688367610972,3.237724376958795e-05,0.0873680263757705,0,0,0
8442,286635.048002039,2010-09-17 21:34:57,2431.192340827296,2,25,0.5501165986061096,3.9181337356567374,25.09729819505633,24.85137216110673,99.9102097975054,90.91688367610972,6.47544875391759e-05,0.0873680263757705,0,0,0
8443,286665.0629835706,2010-09-17 21:35:27,2461.207322449113,2,25,0.5499359965324402,3.919428825378418,25.10188476268256,24.85137216110673,99.92818345343706,90.91688367610972,6.47544875391759e-05,0.0873680263757705,0,0,0
8444,286695.0784480778,2010-09-17 21:35:57,2491.2227868811,2,25,0.5501165986061096,3.920885801315308,25.106471422816597,24.85137216110673,99.94616366327064,90.91688367610972,6.47544875391759e-05,0.0873680263757705,0,0,0
8445,286725.09351587977,2010-09-17 21:36:27,2521.2378547532107,2,25,0.550297200679779,3.9221808910369873,25.111058837171804,24.85137216110673,99.96415296195498,90.91688367610972,3.237724376958795e-05,0.0873680263757705,0,0,0
8446,286755.1088484476,2010-09-17 21:36:57,2551.2531873260564,2,25,0.550297200679779,3.923475980758667,25.115646283995364,24.85137216110673,99.98214867442118,90.91688367610972,3.237724376958795e-05,0.0873680263757705,0,0,0
8447,286785.12416856934,2010-09-17 21:37:27,2581.2685073726334,2,25,0.5501165986061096,3.9249329566955566,25.12023291965828,24.85137216110673,100.00014754489705,90.91688367610972,6.47544875391759e-05,0.0873680263757705,0,0,0
8448,286815.13941841066,2010-09-17 21:37:57,2611.2837572039434,2,25,0.5501165986061096,3.926228046417236,25.12481954597493,24.85137216110673,100.0181527275696,90.91688367610972,0.0,0.0873680263757705,0,0,0
8449,286845.1548420809,2010-09-17 21:38:27,2641.2991808892198,2,25,0.5501165986061096,3.927685022354126,25.129406194120207,24.85137216110673,100.03616444821635,90.91688367610972,3.237724376958795e-05,0.0873680263757705,0,0,0
8450,286875.1701299271,2010-09-17 21:38:57,2671.314468705345,2,25,0.5501165986061096,3.9289801120758057,25.133992786160192,24.85137216110673,100.05418243613774,90.91688367610972,3.237724376958795e-05,0.0873680263757705,0,0,0
8451,286905.1854310765,2010-09-17 21:39:27,2701.329769884828,2,25,0.5501165986061096,3.930598974227905,25.138579398292297,24.85137216110673,100.07220708553788,90.91688367610972,3.237724376958795e-05,0.0873680263757705,0,0,0
8452,286935.2006093642,2010-09-17 21:39:57,2731.344948147491,2,25,0.5501165986061096,3.931894063949585,25.14316608887252,24.85137216110673,100.09023866253384,90.91688367610972,0.0,0.0873680263757705,0,0,0
8453,286965.2158969247,2010-09-17 21:40:27,2761.3602357079785,2,25,0.5501165986061096,3.933512926101685,25.1477527363872,24.85137216110673,100.10827674095586,90.91688367610972,6.47544875391759e-05,0.0873680263757705,0,0,0
8454,286995.23122179334,2010-09-17 21:40:57,2791.375560596643,2,25,0.5501165986061096,3.934969902038574,25.15233933755718,24.85137216110673,100.12632133954293,90.91688367610972,3.237724376958795e-05,0.0873680263757705,0,0,0
8455,287025.2464987072,2010-09-17 21:41:27,2821.39083752058,2,25,0.5499359965324402,3.936264991760254,25.15692604047195,24.85137216110673,100.1443731615222,90.91688367610972,0.0,0.0873680263757705,0,0,0
8456,287055.2618019519,2010-09-17 21:41:57,2851.406140735143,2,25,0.5501165986061096,3.9378838539123535,25.161512687228463,24.85137216110673,100.1624315014742,90.91688367610972,3.237724376958795e-05,0.0873680263757705,0,0,0
8457,287085.27736540104,2010-09-17 21:42:27,2881.421704194316,2,25,0.5501165986061096,3.939340829849243,25.16609940632916,24.85137216110673,100.18049711778416,90.91688367610972,3.237724376958795e-05,0.0873680263757705,0,0,0
8458,287115.2923655842,2010-09-17 21:42:57,2911.4367043975158,2,25,0.5501165986061096,3.940959692001343,25.17068600202793,24.85137216110673,100.19856910437784,90.91688367610972,6.47544875391759e-05,0.0873680263757705,0,0,0
8459,287145.3076587136,2010-09-17 21:43:27,2941.4519974968284,2,25,0.5499359965324402,3.942416667938232,25.17527264554728,24.85137216110673,100.21664820305188,90.91688367610972,3.237724376958795e-05,0.0873680263757705,0,0,0
8460,287175.3256766094,2010-09-17 21:43:57,2971.4700155179657,2,25,0.5501165986061096,3.944035530090332,25.179859776685383,24.85137216110673,100.23473648780995,90.91688367610972,6.47544875391759e-05,0.0873680263757705,0,0,0
8461,287205.3383651724,2010-09-17 21:44:27,3001.4827041461185,2,25,0.5499359965324402,3.9454925060272217,25.18444606483173,24.85137216110673,100.25282858091818,90.91688367610972,0.0,0.0873680263757705,0,0,0
8462,287235.3536032544,2010-09-17 21:44:57,3031.4979420677,2,25,0.5501165986061096,3.9469494819641113,25.18903281681425,24.85137216110673,100.27092968712644,90.91688367610972,-3.237724376958795e-05,0.0873680263757705,0,0,0
8463,287265.36890631355,2010-09-17 21:45:27,3061.513245096799,2,25,0.5501165986061096,3.948730230331421,25.193619453722967,24.85137216110673,100.28903764936766,90.91688367610972,6.47544875391759e-05,0.0873680263757705,0,0,0
8464,287295.3842114479,2010-09-17 21:45:57,3091.5285502612287,2,25,0.5501165986061096,3.950349092483521,25.19820605264142,24.85137216110673,100.30715281065903,90.91688367610972,3.237724376958795e-05,0.0873680263757705,0,0,0
8465,287325.39962954924,2010-09-17 21:46:27,3121.543968332491,2,25,0.5501165986061096,3.95212984085083,25.20279270923656,24.85137216110673,100.32527562003656,90.91688367610972,6.47544875391759e-05,0.0873680263757705,0,0,0
8466,287355.414796644,2010-09-17 21:46:57,3151.5591354322905,2,25,0.5501165986061096,3.95358681678772,25.207379317108693,24.85137216110673,100.34340567586408,90.91688367610972,3.237724376958795e-05,0.0873680263757705,0,0,0
8467,287385.4302289809,2010-09-17 21:47:27,3181.5745677892123,2,25,0.5501165986061096,3.955367565155029,25.211966034133475,24.85137216110673,100.36154369285047,90.91688367610972,6.47544875391759e-05,0.0873680263757705,0,0,0
8468,287415.4456403905,2010-09-17 21:47:57,3211.589979289072,2,25,0.5499359965324402,3.956824541091919,25.21655275438261,24.85137216110673,100.3796893977878,90.91688367610972,3.237724376958795e-05,0.0873680263757705,0,0,0
8469,287445.46072961093,2010-09-17 21:48:27,3241.6050685846594,2,25,0.5501165986061096,3.958605289459229,25.22113937874015,24.85137216110673,100.3978422083776,90.91688367610972,6.47544875391759e-05,0.0873680263757705,0,0,0
8470,287475.4759907905,2010-09-17 21:48:58,3271.620329573821,2,25,0.5501165986061096,3.960386037826538,25.22572603684883,24.85137216110673,100.41600302889496,90.91688367610972,6.47544875391759e-05,0.0873680263757705,0,0,0
8471,287505.49129445624,2010-09-17 21:49:28,3301.6356332395094,2,25,0.5501165986061096,3.9620048999786377,25.230312709345892,24.85137216110673,100.4341718473754,90.91688367610972,6.47544875391759e-05,0.0873680263757705,0,0,0
8472,287535.50672997104,2010-09-17 21:49:58,3331.651068784389,2,25,0.5501165986061096,3.963947534561157,25.23489937620332,24.85137216110673,100.45234853043203,90.91688367610972,9.713172767078504e-05,0.0873680263757705,0,0,0
8473,287565.52188400825,2010-09-17 21:50:28,3361.666222816569,2,25,0.5501165986061096,3.965566396713257,25.23948603364297,24.85137216110673,100.4705333060302,90.91688367610972,3.237724376958795e-05,0.0873680263757705,0,0,0
8474,287595.5371904559,2010-09-17 21:50:58,3391.681529239139,2,25,0.5501165986061096,3.967185258865357,25.24407269798513,24.85137216110673,100.4887263000332,90.91688367610972,0.0,0.0873680263757705,0,0,0
8475,287625.55263127893,2010-09-17 21:51:28,3421.6969700872564,2,25,0.550297200679779,3.969451665878296,25.24865945097001,24.85137216110673,100.5069278120984,90.91688367610972,0.0001295089750783,0.0873680263757705,0,0,0
8476,287655.56779681484,2010-09-17 21:51:58,3451.712135598089,2,25,0.5501165986061096,3.971070528030396,25.25324613703669,24.85137216110673,100.5251374771274,90.91688367610972,3.237724376958795e-05,0.0873680263757705,0,0,0
8477,287685.5830809067,2010-09-17 21:52:28,3481.727419714981,2,25,0.5501165986061096,3.972689390182495,25.25783281866813,24.85137216110673,100.54335558790451,90.91688367610972,0.0,0.0873680263757705,0,0,0
8478,287715.59851113823,2010-09-17 21:52:58,3511.742849921535,2,25,0.550297200679779,3.9749557971954346,25.26241959710461,24.85137216110673,100.5615827021628,90.91688367610972,9.713172767078504e-05,0.0873680263757705,0,0,0
8479,287745.61372230307,2010-09-17 21:53:28,3541.7580611915896,2,25,0.5501165986061096,3.976574659347534,25.26700627119613,24.85137216110673,100.579818034563,90.91688367610972,3.237724376958795e-05,0.0873680263757705,0,0,0
8480,287775.62902654015,2010-09-17 21:53:58,3571.7733653234422,2,25,0.5501165986061096,3.978679180145264,25.27159303056532,24.85137216110673,100.59806209896834,90.91688367610972,0.0001295089750783,0.0873680263757705,0,0,0
8481,287805.6442879755,2010-09-17 21:54:28,3601.788626758717,2,25,0.550297200679779,3.980783700942993,25.27617962833671,24.85137216110673,100.61631483152956,90.91688367610972,9.713172767078504e-05,0.0873680263757705,0,0,0
8482,287835.65973230224,2010-09-17 21:54:58,3631.8040710955424,2,25,0.550297200679779,3.982564449310303,25.280766263071207,24.85137216110673,100.63457671691329,90.91688367610972,6.47544875391759e-05,0.0873680263757705,0,0,0
8483,287865.6748883395,2010-09-17 21:55:28,3661.819227122703,2,25,0.5501165986061096,3.9845070838928223,25.28535284472117,24.85137216110673,100.65284739689392,90.91688367610972,3.237724376958795e-05,0.0873680263757705,0,0,0
8484,287895.6902202406,2010-09-17 21:55:58,3691.834559023871,2,25,0.5499359965324402,3.986449718475342,25.28993955439583,24.85137216110673,100.6711278262849,90.91688367610972,6.47544875391759e-05,0.0873680263757705,0,0,0
8485,287925.7054913902,2010-09-17 21:56:28,3721.8498301733935,2,25,0.5501165986061096,3.9885542392730713,25.29452619730281,24.85137216110673,100.689417253125,90.91688367610972,3.237724376958795e-05,0.0873680263757705,0,0,0
8486,287955.7207914568,2010-09-17 21:56:58,3751.865130240099,2,25,0.5501165986061096,3.990658760070801,25.29911287289492,24.85137216110673,100.70771614873507,90.91688367610972,6.47544875391759e-05,0.0873680263757705,0,0,0
8487,287985.7360998794,2010-09-17 21:57:28,3781.8804386626616,2,25,0.550297200679779,3.9927632808685294,25.303699482236063,24.85137216110673,100.7260242151708,90.91688367610972,6.47544875391759e-05,0.0873680263757705,0,0,0
8488,288015.75147996086,2010-09-17 21:57:58,3811.8958188393335,2,25,0.550297200679779,3.9948675632476807,25.308286163376767,24.85137216110673,100.74434207777657,90.91688367610972,9.713172767078504e-05,0.0873680263757705,0,0,0
8489,288045.76684680925,2010-09-17 21:58:28,3841.9111856025233,2,25,0.5501165986061096,3.9968101978302,25.312872779938797,24.85137216110673,100.76266932474708,90.91688367610972,6.47544875391759e-05,0.0873680263757705,0,0,0
8490,288075.78198958334,2010-09-17 21:58:58,3871.926328366577,2,25,0.5501165986061096,3.99875283241272,25.31745936002933,24.85137216110673,100.78100602135255,90.91688367610972,3.237724376958795e-05,0.0873680263757705,0,0,0
8491,288105.7972945924,2010-09-17 21:59:28,3901.941633375618,2,25,0.5501165986061096,4.001181125640869,25.32204594413569,24.85137216110673,100.79935249565688,90.91688367610972,9.70840483205393e-05,0.0873680263757705,0,0,0
8492,288135.8126132505,2010-09-17 21:59:58,3931.9569520337295,2,25,0.5501165986061096,4.003285884857178,25.326632633958155,24.85137216110673,100.81770923467276,90.91688367610972,9.71794142969884e-05,0.0873680263757705,0,0,0
8493,288165.82789996883,2010-09-17 22:00:28,3961.972238762141,2,25,0.550297200679779,4.005390167236328,25.33121920116088,24.85137216110673,100.83607529321208,90.91688367610972,3.23295607813634e-05,0.0873680263757705,0,0,0
8494,288195.84320136387,2010-09-17 22:00:58,3991.987540147136,2,25,0.5501165986061096,4.007656574249268,25.33580579381358,24.85137216110673,100.85445142553684,90.91688367610972,6.47544875391759e-05,0.0873680263757705,0,0,0
8495,288225.85849637794,2010-09-17 22:01:28,4022.002835191304,2,25,0.5499359965324402,4.009761333465576,25.340392462379096,24.85137216110673,100.87283787374326,90.91688367610972,3.24249267578125e-05,0.0873680263757705,0,0,0
8496,288255.873829006,2010-09-17 22:01:58,4052.018167809262,2,25,0.5501165986061096,4.011865615844727,25.34497908727991,24.85137216110673,100.89123421140752,90.91688367610972,3.23295607813634e-05,0.0873680263757705,0,0,0
8497,288285.8890976994,2010-09-17 22:02:28,4082.033436482605,2,25,0.5501165986061096,4.014132022857666,25.34956571583588,24.85137216110673,100.90964075554368,90.91688367610972,6.47544875391759e-05,0.0873680263757705,0,0,0
8498,288315.9044097059,2010-09-17 22:02:58,4112.048748489113,2,25,0.5501165986061096,4.0163984298706055,25.3541523902981,24.85137216110673,100.9280577025938,90.91688367610972,3.23295607813634e-05,0.0873680263757705,0,0,0
8499,288345.9197017024,2010-09-17 22:03:28,4142.064040580912,2,25,0.5501165986061096,4.018664836883545,25.35873902655021,24.85137216110673,100.94648487138436,90.91688367610972,6.47544875391759e-05,0.0873680263757705,0,0,0
8500,288375.93527756253,2010-09-17 22:03:58,4172.079616441039,2,25,0.5501165986061096,4.020931243896484,25.3633257199638,24.85137216110673,100.96492254481936,90.91688367610972,3.23295607813634e-05,0.0873680263757705,0,0,0
8501,288405.95031722425,2010-09-17 22:04:28,4202.094656007495,2,25,0.5499359965324402,4.023197650909424,25.36791229567428,24.85137216110673,100.98337038632437,90.91688367610972,3.23295607813634e-05,0.0873680263757705,0,0,0
8502,288435.9656171506,2010-09-17 22:04:58,4232.109955963925,2,25,0.5501165986061096,4.025626182556152,25.37249890430666,24.85137216110673,101.00182895479446,90.91688367610972,6.47544875391759e-05,0.0873680263757705,0,0,0
8503,288465.9809355831,2010-09-17 22:05:28,4262.125274391462,2,25,0.5499359965324402,4.027892589569092,25.377085530618537,24.85137216110673,101.02029832639371,90.91688367610972,9.71794142969884e-05,0.0873680263757705,0,0,0
8504,288495.99625366984,2010-09-17 22:05:58,4292.1405924530845,2,25,0.5501165986061096,4.030320644378662,25.381672234475523,24.85137216110673,101.0387787543972,90.91688367610972,6.47544875391759e-05,0.0873680263757705,0,0,0
8505,288526.0115086791,2010-09-17 22:06:28,4322.15584746232,2,25,0.550297200679779,4.032749176025391,25.386258863457247,24.85137216110673,101.05726974836747,90.91688367610972,6.47544875391759e-05,0.0873680263757705,0,0,0
8506,288556.02721018787,2010-09-17 22:06:58,4352.17154898111,2,25,0.5501165986061096,4.035177230834961,25.390845539849096,24.85137216110673,101.07577197986107,90.91688367610972,9.71794142969884e-05,0.0873680263757705,0,0,0
8507,288586.0421309277,2010-09-17 22:07:28,4382.186469710932,2,25,0.5501165986061096,4.0374436378479,25.39543208711133,24.85137216110673,101.0942847559987,90.91688367610972,6.47544875391759e-05,0.0873680263757705,0,0,0
8508,288616.0576707629,2010-09-17 22:07:58,4412.202009556161,2,25,0.5499359965324402,4.039871692657471,25.40001871983154,24.85137216110673,101.11280913872064,90.91688367610972,3.23295607813634e-05,0.0873680263757705,0,0,0
8509,288646.07269244466,2010-09-17 22:08:28,4442.217031237975,2,25,0.5501165986061096,4.042300224304199,25.40460523276572,24.85137216110673,101.1313442207814,90.91688367610972,3.24249267578125e-05,0.0873680263757705,0,0,0
8510,288676.08801462664,2010-09-17 22:08:58,4472.232353439933,2,25,0.5499359965324402,4.0447282791137695,25.409191752633827,24.85137216110673,101.14989076981485,90.91688367610972,3.23295607813634e-05,0.0873680263757705,0,0,0
8511,288706.10328375606,2010-09-17 22:09:28,4502.247622539338,2,25,0.5501165986061096,4.047642230987549,25.41377836438328,24.85137216110673,101.16844926700412,90.91688367610972,9.70840483205393e-05,0.0873680263757705,0,0,0
8512,288736.1186639628,2010-09-17 22:09:58,4532.2630027460855,2,25,0.5501165986061096,4.050232410430908,25.41836491001169,24.85137216110673,101.18701926935164,90.91688367610972,9.70840483205393e-05,0.0873680263757705,0,0,0
8513,288766.13396635035,2010-09-17 22:10:28,4562.278305138596,2,25,0.5501165986061096,4.052660942077637,25.422951459180105,24.85137216110673,101.20560103679878,90.91688367610972,6.47544875391759e-05,0.0873680263757705,0,0,0
8514,288796.14939293783,2010-09-17 22:10:58,4592.293731736141,2,25,0.5499359965324402,4.055088996887207,25.427537881731418,24.85137216110673,101.22419421103324,90.91688367610972,3.23295607813634e-05,0.0873680263757705,0,0,0
8515,288826.1645492407,2010-09-17 22:11:28,4622.308888054027,2,25,0.5499359965324402,4.057841300964356,25.43212443420639,24.85137216110673,101.24279992431144,90.91688367610972,6.47544875391759e-05,0.0873680263757705,0,0,0
8516,288856.17985450535,2010-09-17 22:11:58,4652.324193308682,2,25,0.5499359965324402,4.060593128204346,25.43671032540739,24.85137216110673,101.26141495628067,90.91688367610972,9.70840483205393e-05,0.0873680263757705,0,0,0
8517,288886.1952890377,2010-09-17 22:12:28,4682.339627831009,2,25,0.5501165986061096,4.063021659851074,25.44129581913556,24.85137216110673,101.28004006051653,90.91688367610972,6.47544875391759e-05,0.0873680263757705,0,0,0
8518,288916.21044953604,2010-09-17 22:12:58,4712.35478834938,2,25,0.5501165986061096,4.0657734870910645,25.445881330557157,24.85137216110673,101.29867769306765,90.91688367610972,6.47544875391759e-05,0.0873680263757705,0,0,0
8519,288946.22587307094,2010-09-17 22:13:28,4742.37021188428,2,25,0.5499359965324402,4.068525791168213,25.45046691286095,24.85137216110673,101.31732802187354,90.91688367610972,6.47544875391759e-05,0.0873680263757705,0,0,0
8520,288976.2410357447,2010-09-17 22:13:58,4772.38537455302,2,25,0.5501165986061096,4.071277618408203,25.45505310506972,24.85137216110673,101.33599359671304,90.91688367610972,6.47544875391759e-05,0.0873680263757705,0,0,0
8521,289006.2563651046,2010-09-17 22:14:28,4802.400703912844,2,25,0.5501165986061096,4.074191570281982,25.45963955661626,24.85137216110673,101.35467295907014,90.91688367610972,9.70840483205393e-05,0.0873680263757705,0,0,0
8522,289036.2716304546,2010-09-17 22:14:58,4832.415969262891,2,25,0.550297200679779,4.077105522155762,25.46422610496501,24.85137216110673,101.37336557296112,90.91688367610972,9.70840483205393e-05,0.0873680263757705,0,0,0
8523,289066.2869321403,2010-09-17 22:15:28,4862.431270923575,2,25,0.5497553944587708,4.07985782623291,25.468812635411933,24.85137216110673,101.3920710766826,90.91688367610972,9.71794142969884e-05,0.0873680263757705,0,0,0
8524,289096.3039175289,2010-09-17 22:15:58,4892.448256342177,2,25,0.550297200679779,4.0826096534729,25.473399446681626,24.85137216110673,101.41079072877312,90.91688367610972,9.70840483205393e-05,0.0873680263757705,0,0,0
8525,289126.3175708901,2010-09-17 22:16:28,4922.461909768615,2,25,0.5501165986061096,4.08552360534668,25.47798568664571,24.85137216110673,101.42952125270824,90.91688367610972,3.23295607813634e-05,0.0873680263757705,0,0,0
8526,289156.33308478555,2010-09-17 22:16:58,4952.477423573844,2,25,0.550297200679779,4.088437557220459,25.482572225059428,24.85137216110673,101.44826627419523,90.91688367610972,6.47544875391759e-05,0.0873680263757705,0,0,0
8527,289186.348143565,2010-09-17 22:17:28,4982.492482358271,2,25,0.5501165986061096,4.091351509094238,25.48715873804246,24.85137216110673,101.46702464619445,90.91688367610972,6.47544875391759e-05,0.0873680263757705,0,0,0
8528,289216.3634813408,2010-09-17 22:17:58,5012.507820124079,2,25,0.5501165986061096,4.094265460968018,25.491745262443946,24.85137216110673,101.48579650240012,90.91688367610972,9.70840483205393e-05,0.0873680263757705,0,0,0
8529,289246.3788089964,2010-09-17 22:18:28,5042.523147874888,2,25,0.5501165986061096,4.097341537475586,25.49633179658577,24.85137216110673,101.50458207805924,90.91688367610972,9.71794142969884e-05,0.0873680263757705,0,0,0
8530,289276.39405342925,2010-09-17 22:18:58,5072.538392212484,2,25,0.550297200679779,4.100255489349365,25.500918383247537,24.85137216110673,101.5233816744982,90.91688367610972,9.71794142969884e-05,0.0873680263757705,0,0,0
8531,289306.409379967,2010-09-17 22:19:28,5102.553718780339,2,25,0.5501165986061096,4.103331089019775,25.50550493325051,24.85137216110673,101.54219493369035,90.91688367610972,3.23295607813634e-05,0.0873680263757705,0,0,0
8532,289336.4246887254,2010-09-17 22:19:58,5132.569027538741,2,25,0.550297200679779,4.106407165527344,25.510091493106625,24.85137216110673,101.56102234467927,90.91688367610972,6.47544875391759e-05,0.0873680263757705,0,0,0
8533,289366.4399725867,2010-09-17 22:20:28,5162.584311374932,2,25,0.5501165986061096,4.109482765197754,25.514678047400963,24.85137216110673,101.57986382652192,90.91688367610972,9.70840483205393e-05,0.0873680263757705,0,0,0
8534,289396.4552676058,2010-09-17 22:20:59,5192.59960639905,2,25,0.5501165986061096,4.112558841705322,25.51926453197069,24.85137216110673,101.59871925083688,90.91688367610972,6.47544875391759e-05,0.0873680263757705,0,0,0
8535,289426.47056861984,2010-09-17 22:21:29,5222.614907403095,2,25,0.5501165986061096,4.115796089172363,25.523851023283605,24.85137216110673,101.61758901704243,90.91688367610972,6.47544875391759e-05,0.0873680263757705,0,0,0
8536,289456.48600630503,2010-09-17 22:21:59,5252.630345093329,2,25,0.5501165986061096,4.1190338134765625,25.5284375521229,24.85137216110673,101.63647353533288,90.91688367610972,9.70840483205393e-05,0.0873680263757705,0,0,0
8537,289486.5011664074,2010-09-17 22:22:29,5282.645505190649,2,25,0.5501165986061096,4.122109889984131,25.53302408753205,24.85137216110673,101.65537276987638,90.91688367610972,6.47544875391759e-05,0.0873680263757705,0,0,0
8538,289516.51661710005,2010-09-17 22:22:59,5312.660955893365,2,25,0.5497553944587708,4.12534761428833,25.53761061104201,24.85137216110673,101.67428665808292,90.91688367610972,6.47544875391759e-05,0.0873680263757705,0,0,0
8539,289546.5317774531,2010-09-17 22:23:29,5342.6761162413095,2,25,0.5501165986061096,4.128585338592529,25.54219709917851,24.85137216110673,101.6932152959508,90.91688367610972,6.47544875391759e-05,0.0873680263757705,0,0,0
8540,289576.54710286803,2010-09-17 22:23:59,5372.691441681351,2,25,0.5501165986061096,4.131984710693359,25.54678355579557,24.85137216110673,101.71215879292058,90.91688367610972,9.70840483205393e-05,0.0873680263757705,0,0,0
8541,289606.5623801378,2010-09-17 22:24:29,5402.706718951151,2,25,0.5501165986061096,4.135384559631348,25.55137013763203,24.85137216110673,101.73111797017457,90.91688367610972,0.0001295089750783,0.0873680263757705,0,0,0
8542,289636.57768352283,2010-09-17 22:24:59,5432.722022306064,2,25,0.5501165986061096,4.138622283935547,25.555956665790493,24.85137216110673,101.75009219288268,90.91688367610972,9.71794142969884e-05,0.0873680263757705,0,0,0
8543,289666.5929886922,2010-09-17 22:25:29,5462.737327480519,2,25,0.5499359965324402,4.141860008239746,25.56054318068224,24.85137216110673,101.76908177375002,90.91688367610972,6.47544875391759e-05,0.0873680263757705,0,0,0
8544,289696.60844796133,2010-09-17 22:25:59,5492.75278675463,2,25,0.550297200679779,4.145583152770996,25.56512978026293,24.85137216110673,101.78808731179292,90.91688367610972,0.0001295089750783,0.0873680263757705,0,0,0
8545,289726.62375348166,2010-09-17 22:26:29,5522.768092274948,2,25,0.5501165986061096,4.148820877075195,25.56971626169461,24.85137216110673,101.80710824045391,90.91688367610972,9.70840483205393e-05,0.0873680263757705,0,0,0
8546,289756.6390502451,2010-09-17 22:26:59,5552.783389028383,2,25,0.5499359965324402,4.152382373809815,25.574302786466177,24.85137216110673,101.82614513300427,90.91688367610972,6.47544875391759e-05,0.0873680263757705,0,0,0
8547,289786.654362387,2010-09-17 22:27:29,5582.798701180254,2,25,0.5501165986061096,4.155782222747803,25.57888927475553,24.85137216110673,101.84519773751168,90.91688367610972,9.71794142969884e-05,0.0873680263757705,0,0,0
8548,289816.66960101534,2010-09-17 22:27:59,5612.813939893812,2,25,0.550297200679779,4.159505367279053,25.583475759691225,24.85137216110673,101.86426634130186,90.91688367610972,0.0001295089750783,0.0873680263757705,0,0,0
8549,289846.68482346827,2010-09-17 22:28:29,5642.829162256556,2,25,0.5501165986061096,4.162743091583252,25.58806223798789,24.85137216110673,101.8833510340706,90.91688367610972,9.70840483205393e-05,0.0873680263757705,0,0,0
8550,289876.7001082619,2010-09-17 22:28:59,5672.8444470551485,2,25,0.5504778623580933,4.166628360748291,25.592648697583623,24.85137216110673,101.9024518350589,90.91688367610972,0.0001295089750783,0.0873680263757705,0,0,0
8551,289906.71541152656,2010-09-17 22:29:29,5702.859750309812,2,25,0.5501165986061096,4.16986608505249,25.597235263070157,24.85137216110673,101.92156945684869,90.91688367610972,9.70840483205393e-05,0.0873680263757705,0,0,0
8552,289936.7308745701,2010-09-17 22:29:59,5732.875213368369,2,25,0.550297200679779,4.173589706420898,25.60182178067365,24.85137216110673,101.94070336804016,90.91688367610972,0.0001295089750783,0.0873680263757705,0,0,0
8553,289966.7461494639,2010-09-17 22:30:29,5762.890488247202,2,25,0.5501165986061096,4.177151203155518,25.606408260220583,24.85137216110673,101.95985373717788,90.91688367610972,9.71794142969884e-05,0.0873680263757705,0,0,0
8554,289996.7613153106,2010-09-17 22:30:59,5792.905654098885,2,25,0.5501165986061096,4.180874347686768,25.61099474402428,24.85137216110673,101.97902086463132,90.91688367610972,6.47544875391759e-05,0.0873680263757705,0,0,0
8555,290026.7769231556,2010-09-17 22:31:29,5822.921261943852,2,25,0.5501165986061096,4.184597969055176,25.615581283754445,24.85137216110673,101.99820516923562,90.91688367610972,0.0001295089750783,0.0873680263757705,0,0,0
8556,290056.7919408174,2010-09-17 22:31:59,5852.936279600618,2,25,0.5499359965324402,4.188159465789795,25.620167760953297,24.85137216110673,102.0174061209802,90.91688367610972,3.24249267578125e-05,0.0873680263757705,0,0,0
8557,290086.8073585177,2010-09-17 22:32:29,5882.951697326018,2,25,0.5501165986061096,4.192044734954834,25.624754302085098,24.85137216110673,102.03662453944608,90.91688367610972,9.71794142969884e-05,0.0873680263757705,0,0,0
8558,290116.8225290962,2010-09-17 22:32:59,5912.96686788445,2,25,0.5501165986061096,4.195767879486084,25.629340808250028,24.85137216110673,102.05586007779232,90.91688367610972,9.71794142969884e-05,0.0873680263757705,0,0,0
8559,290146.8378586665,2010-09-17 22:33:29,5942.982197449788,2,25,0.5501165986061096,4.199653148651123,25.633927316066348,24.85137216110673,102.0751130034655,90.91688367610972,9.71794142969884e-05,0.0873680263757705,0,0,0
8560,290148.4784752379,2010-09-17 22:33:31,5944.622814051228,2,25,0.550297200679779,4.200138568878174,25.634178011460133,24.85137216110673,102.0761658655036,90.91688367610972,0.0001618385285837,0.0873680263757705,0,0,0
8561,290178.5012721761,2010-09-17 22:34:01,30.01531083859325,3,25,0.0,4.120328903198242,25.634178011460133,24.85137216110673,102.0761658655036,90.91688367610972,-0.0003885269106831,0.0873680263757705,0,0,0
8562,290208.5165377116,2010-09-17 22:34:31,60.03057646432827,3,25,0.0,4.110616207122803,25.634178011460133,24.85137216110673,102.0761658655036,90.91688367610972,-0.0002265930233988,0.0873680263757705,0,0,0
8563,290238.5322686438,2010-09-17 22:35:01,90.0463073013021,3,25,0.0,4.104788303375244,25.634178011460133,24.85137216110673,102.0761658655036,90.91688367610972,-0.0001295089750783,0.0873680263757705,0,0,0
8564,290268.5002804317,2010-09-17 22:35:31,120.014319089188,3,25,0.0,4.101064682006836,25.634178011460133,24.85137216110673,102.0761658655036,90.91688367610972,-6.47544875391759e-05,0.0873680263757705,0,0,0
8565,290268.509076148,2010-09-17 22:35:31,2.651618849e-06,4,25,1.0043489933013916,4.199814796447754,25.634178012199897,24.85137216110673,102.07616586861047,90.91688367610972,0.0,0.0873680263757705,0,0,0
8566,290269.2590617123,2010-09-17 22:35:32,0.749988236019911,4,25,0.9539589285850524,4.199653148651123,25.63438030348447,24.85137216110673,102.0770154167808,90.91688367610972,-3.23295607813634e-05,0.0873680263757705,0,0,0
8567,290271.2121707379,2010-09-17 22:35:34,2.703097266638648,4,25,0.9039301872253418,4.199491024017334,25.634883142138225,24.85137216110673,102.07912715003944,90.91688367610972,-6.47544875391759e-05,0.0873680263757705,0,0,0
8568,290274.2121393561,2010-09-17 22:35:37,5.703065879830809,4,25,0.8539014458656311,4.199653148651123,25.63561435444421,24.85137216110673,102.08219797536752,90.91688367610972,0.0,0.0873680263757705,0,0,0
8569,290278.2746299276,2010-09-17 22:35:41,9.76555646132076,4,25,0.8038726449012756,4.199814796447754,25.63654839917045,24.85137216110673,102.0861206342215,90.91688367610972,6.47544875391759e-05,0.0873680263757705,0,0,0
8570,290283.55578624125,2010-09-17 22:35:46,15.0467127749652,4,25,0.7534826397895813,4.199491024017334,25.637689401096125,24.85137216110673,102.09091245679345,90.91688367610972,0.0,0.0873680263757705,0,0,0
8571,290290.3839916073,2010-09-17 22:35:53,21.87491814105209,4,25,0.7034538984298706,4.199814796447754,25.639069255609947,24.85137216110673,102.09670738831176,90.91688367610972,3.23295607813634e-05,0.0873680263757705,0,0,0
8572,290299.27438382903,2010-09-17 22:36:02,30.765310372815225,4,25,0.6534250974655151,4.199814796447754,25.640741801934656,24.85137216110673,102.10373155022724,90.91688367610972,3.23295607813634e-05,0.0873680263757705,0,0,0
8573,290311.49298676173,2010-09-17 22:36:14,42.9839132954953,4,25,0.6033963561058044,4.199653148651123,25.64286972432016,24.85137216110673,102.1126681524065,90.91688367610972,0.0,0.0873680263757705,0,0,0
8574,290329.19592184626,2010-09-17 22:36:32,60.68684837999468,4,25,0.553367555141449,4.199653148651123,25.64570499150513,24.85137216110673,102.1245753635284,90.91688367610972,0.0,0.0873680263757705,0,0,0
8575,290357.7112437567,2010-09-17 22:37:00,89.20217029045578,4,25,0.5033388137817383,4.199814796447754,25.649872608822804,24.85137216110673,102.14207801894857,90.91688367610972,6.47544875391759e-05,0.0873680263757705,0,0,0
8576,290406.8513530996,2010-09-17 22:37:49,138.34227962838008,4,25,0.4531294405460357,4.199491024017334,25.656372466500365,24.85137216110673,102.16937527660352,90.91688367610972,-3.24249267578125e-05,0.0873680263757705,0,0,0
8577,290487.0848611444,2010-09-17 22:39:09,218.5757876780888,4,25,0.4031006693840027,4.199491024017334,25.66588819113653,24.85137216110673,102.20933818245668,90.91688367610972,-3.24249267578125e-05,0.0873680263757705,0,0,0
8578,290594.4743376943,2010-09-17 22:40:57,325.9652642179903,4,25,0.3528912961483001,4.199653148651123,25.677150217937555,24.85137216110673,102.25663506280016,90.91688367610972,-3.23295607813634e-05,0.0873680263757705,0,0,0
8579,290723.34794969653,2010-09-17 22:43:06,454.83887622527,4,25,0.3028625249862671,4.199653148651123,25.68887175313318,24.85137216110673,102.30586172852206,90.91688367610972,0.0,0.0873680263757705,0,0,0
8580,290878.53416264383,2010-09-17 22:45:41,610.025089167576,4,25,0.2526531219482422,4.199653148651123,25.70082728525514,24.85137216110673,102.35607113745732,90.91688367610972,-3.23295607813634e-05,0.0873680263757705,0,0,0
8581,291071.672370414,2010-09-17 22:48:54,803.1632969577907,4,25,0.2026243656873703,4.199653148651123,25.71300794404516,24.85137216110673,102.40722597505778,90.91688367610972,-3.23295607813634e-05,0.0873680263757705,0,0,0
8582,291323.57603807794,2010-09-17 22:53:06,1055.0669646116653,4,25,0.1525955945253372,4.199814796447754,25.725368173180087,24.85137216110673,102.45913476806022,90.91688367610972,3.23295607813634e-05,0.0873680263757705,0,0,0
8583,291690.1032574563,2010-09-17 22:59:12,1421.5941839800116,4,25,0.1025668233633041,4.199491024017334,25.73821158521235,24.85137216110673,102.51307293494897,90.91688367610972,-3.24249267578125e-05,0.0873680263757705,0,0,0
8584,292353.4086813814,2010-09-17 23:10:16,2084.89960791013,4,25,0.0523574464023113,4.199491024017334,25.751999414455923,24.85137216110673,102.57097736074115,90.91688367610972,-6.47544875391759e-05,0.0873680263757705,0,0,0
8585,292402.8456606774,2010-09-17 23:11:05,2134.336587201129,4,25,0.0498289167881011,4.199491024017334,25.75271039664234,24.85137216110673,102.57396325727784,90.91688367610972,-3.24249267578125e-05,0.0873680263757705,0,0,0
8586,292432.8769423306,2010-09-17 23:11:35,30.01531723455857,5,25,0.0,4.192206382751465,25.75271039664234,24.85137216110673,102.57396325727784,90.91688367610972,-3.24249267578125e-05,0.0873680263757705,0,0,0
8587,292462.87660812674,2010-09-17 23:12:05,60.0149829555313,5,25,0.0,4.191073417663574,25.75271039664234,24.85137216110673,102.57396325727784,90.91688367610972,-3.23295607813634e-05,0.0873680263757705,0,0,0
8588,292463.04944771744,2010-09-17 23:12:06,0.187505507593956,6,25,-1.9243103452026844e-05,4.191073417663574,25.75271039664234,24.85137216210901,102.57396325727784,90.91688368031032,0.0,0.090522177517414,0,0,0
8589,292467.87764146685,2010-09-17 23:12:10,5.01569925699149,6,25,0.0007031940040178,4.191073417663574,25.75271124515779,24.85137216219363,102.57396681354776,90.91688368066498,-3.23295607813634e-05,0.090522177517414,0,0,0
8590,292497.87821722816,2010-09-17 23:12:41,30.015297445161192,7,25,-1.0997490882873535,4.025949954986572,25.75271124515779,24.86054079229765,102.57396681354776,90.9539839032716,-0.0008741378551349,0.090522177517414,0,0,0
8591,292527.8935201921,2010-09-17 23:13:11,60.0306004090981,7,25,-1.099568486213684,4.000695705413818,25.75271124515779,24.86970934652595,102.57396681354776,90.99077166889224,-0.0005503654247149,0.090522177517414,0,0,0
8592,292557.90882988786,2010-09-17 23:13:41,90.04591010483863,7,25,-1.099568486213684,3.9835357666015625,25.75271124515779,24.87887790628748,102.57396681354776,91.02736925719972,-0.0003885269106831,0.090522177517414,0,0,0
8593,292587.92426821974,2010-09-17 23:14:11,120.06134846674968,7,25,-1.099568486213684,3.9702610969543457,25.75271124515779,24.888046400051383,102.57396681354776,91.06382799535186,-0.0002913951757363,0.090522177517414,0,0,0
8594,292617.9394389336,2010-09-17 23:14:41,150.0765191504949,7,25,-1.0997490882873535,3.9587671756744394,25.75271124515779,24.89721475955416,102.57396681354776,91.10017391783272,-0.0002913951757363,0.090522177517414,0,0,0
8595,292647.954770168,2010-09-17 23:15:11,180.09185040504954,7,25,-1.0993878841400146,3.948730230331421,25.75271124515779,24.90638322245664,102.57396681354776,91.13642249893724,-0.0002266406954731,0.090522177517414,0,0,0
8596,292677.97005849547,2010-09-17 23:15:41,210.10713871741385,7,25,-1.0997490882873535,3.939340829849243,25.75271124515779,24.915551671057365,102.57396681354776,91.17258204588816,-0.0001942634553415,0.090522177517414,0,0,0
8597,292707.98537205084,2010-09-17 23:16:11,240.1224522677761,7,25,-1.099568486213684,3.9304370880126953,25.75271124515779,24.924720085756757,102.57396681354776,91.20865771981532,-0.0001942634553415,0.090522177517414,0,0,0
8598,292738.0006802228,2010-09-17 23:16:41,270.1377604447256,7,25,-1.099568486213684,3.921857118606568,25.75271124515779,24.933888586975907,102.57396681354776,91.24465373089042,-0.0002266406954731,0.090522177517414,0,0,0
8599,292768.0161092413,2010-09-17 23:17:11,300.1531895535394,7,25,-1.099568486213684,3.9136011600494394,25.75271124515779,24.94305718418127,102.57396681354776,91.280572915537,-0.0001942157687153,0.090522177517414,0,0,0
8600,292798.0314101401,2010-09-17 23:17:41,330.1684903570836,7,25,-1.099568486213684,3.905506849288941,25.75271124515779,24.952225694017795,102.57396681354776,91.31641669091714,-0.0001942634553415,0.090522177517414,0,0,0
8601,292828.0466060719,2010-09-17 23:18:11,360.1836862888518,7,25,-1.099568486213684,3.897574424743652,25.75271124515779,24.96139415790624,102.57396681354776,91.35218678948088,-0.0001618862152099,0.090522177517414,0,0,0
8602,292858.06204506033,2010-09-17 23:18:41,390.19912527732686,7,25,-1.099568486213684,3.889642000198364,25.75271124515779,24.970562659672737,102.57396681354776,91.38788511036816,-0.0002266406954731,0.090522177517414,0,0,0
8603,292888.0772021251,2010-09-17 23:19:11,420.21428234207696,7,25,-1.0997490882873535,3.882033348083496,25.75271124515779,24.97973106861784,102.57396681354776,91.42351236228116,-0.0002266406954731,0.090522177517414,0,0,0
8604,292918.0925151742,2010-09-17 23:19:41,450.229595391188,7,25,-1.099568486213684,3.874424695968628,25.75271124515779,24.98889955603996,102.57396681354776,91.4590701451578,-0.0002266406954731,0.090522177517414,0,0,0
8605,292948.10783578723,2010-09-17 23:20:11,480.2449160041797,7,25,-1.099568486213684,3.8669779300689697,25.75271124515779,24.9980679456958,102.57396681354776,91.49455881914844,-0.0001942634553415,0.090522177517414,0,0,0
8606,292978.12313327246,2010-09-17 23:20:41,510.26021348944096,7,25,-1.0997490882873535,3.8596930503845215,25.75271124515779,25.007236414019065,102.57396681354776,91.52997989025845,-0.0002266406954731,0.090522177517414,0,0,0
8607,293008.1384397201,2010-09-17 23:21:11,540.2755199370737,7,25,-1.0997490882873535,3.8522462844848633,25.75271124515779,25.016404885825395,102.57396681354776,91.5653340604646,-0.0001942634553415,0.090522177517414,0,0,0
8608,293038.1537757867,2010-09-17 23:21:41,570.2908560036399,7,25,-1.099568486213684,3.845285177230835,25.75271124515779,25.0255733519504,102.57396681354776,91.60062227937668,-0.0001942634553415,0.090522177517414,0,0,0
8609,293068.16911017906,2010-09-17 23:22:11,600.3061905113148,7,25,-1.0997490882873535,3.838324069976807,25.75271124515779,25.034741885220186,102.57396681354776,91.63584591402946,-0.0001942634553415,0.090522177517414,0,0,0
8610,293098.18450071657,2010-09-17 23:22:41,630.3215809536111,7,25,-1.0997490882873535,3.831363201141357,25.75271124515779,25.04391039583954,102.57396681354776,91.6710056220102,-0.0002266406954731,0.090522177517414,0,0,0
8611,293128.1997104829,2010-09-17 23:23:11,660.3367907199124,7,25,-1.099568486213684,3.824563980102539,25.75271124515779,25.053078915542244,102.57396681354776,91.7061027360904,-0.0002266406954731,0.090522177517414,0,0,0
8612,293158.21510435874,2010-09-17 23:23:41,690.352184600792,7,25,-1.099568486213684,3.81792664527893,25.75271124515779,25.06224746453117,102.57396681354776,91.7411380423597,-0.0001618862152099,0.090522177517414,0,0,0
8613,293188.23029720783,2010-09-17 23:24:11,720.3673774248026,7,25,-1.099568486213684,3.811289310455322,25.75271124515779,25.071415931606797,102.57396681354776,91.77611229951997,-0.0001618862152099,0.090522177517414,0,0,0
8614,293218.2455863423,2010-09-17 23:24:41,750.382666559219,7,25,-1.099568486213684,3.804975748062134,25.75271124515779,25.08058440868242,102.57396681354776,91.81102641380322,-0.0001295089750783,0.090522177517414,0,0,0
8615,293248.26089842897,2010-09-17 23:25:11,780.3979786459277,7,25,-1.099568486213684,3.798500299453736,25.75271124515779,25.089752848548653,102.57396681354776,91.84588198155676,-0.0002266406954731,0.090522177517414,0,0,0
8616,293278.2762312424,2010-09-17 23:25:41,810.4133115746614,7,25,-1.0997490882873535,3.792348623275757,25.75271124515779,25.09892138623967,102.57396681354776,91.88068059906183,-0.0001618862152099,0.090522177517414,0,0,0
8617,293308.29172237107,2010-09-17 23:26:11,840.4288025879983,7,25,-1.0993878841400146,3.786358833312988,25.75271124515779,25.10808986943684,102.57396681354776,91.91542254998096,-0.0001618862152099,0.090522177517414,0,0,0
8618,293338.306842664,2010-09-17 23:26:41,870.4439228809605,7,25,-1.0993878841400146,3.78036904335022,25.75271124515779,25.117258336022317,102.57396681354776,91.9501087727566,-0.0001295089750783,0.090522177517414,0,0,0
8619,293368.3221253323,2010-09-17 23:27:11,900.4592055542489,7,25,-1.0997490882873535,3.774379253387451,25.75271124515779,25.126426832443297,102.57396681354776,91.98474079380114,-0.0001618862152099,0.090522177517414,0,0,0
8620,293398.3374472134,2010-09-17 23:27:41,930.4745274504436,7,25,-1.099568486213684,3.768713235855103,25.75271124515779,25.13559533870588,102.57396681354776,92.01931943786302,-0.0001295089750783,0.090522177517414,0,0,0
8621,293428.352754854,2010-09-17 23:28:11,960.489835166242,7,25,-1.0997490882873535,3.762885332107544,25.75271124515779,25.14476379040714,102.57396681354776,92.05384573113018,-0.0001618862152099,0.090522177517414,0,0,0
8622,293458.3681097476,2010-09-17 23:28:41,990.5051899745904,7,25,-1.099929690361023,3.757381200790405,25.75271124515779,25.153932402652703,102.57396681354776,92.08832129202628,-0.0001295089750783,0.090522177517414,0,0,0
8623,293488.38391260937,2010-09-17 23:29:11,1020.5209929466243,7,25,-1.099568486213684,3.752039194107056,25.75271124515779,25.163101159178723,102.57396681354776,92.1227470634596,-0.0001618862152099,0.090522177517414,0,0,0
8624,293518.3987715499,2010-09-17 23:29:41,1050.5358517669104,7,25,-1.099568486213684,3.746696949005127,25.75271124515779,25.172269531166588,102.57396681354776,92.15712193948644,-0.0001295089750783,0.090522177517414,0,0,0
8625,293548.4139902335,2010-09-17 23:30:11,1080.551070450471,7,25,-1.0997490882873535,3.741516590118408,25.75271124515779,25.18143802243967,102.57396681354776,92.19144897931942,-9.713172767078504e-05,0.090522177517414,0,0,0
8626,293578.4292853228,2010-09-17 23:30:41,1110.5663655397514,7,25,-1.099568486213684,3.7363362312316895,25.75271124515779,25.19060658407528,102.57396681354776,92.22572876316048,-0.0001295089750783,0.090522177517414,0,0,0
8627,293608.4445898356,2010-09-17 23:31:11,1140.5816700525545,7,25,-1.099929690361023,3.7311558723449703,25.75271124515779,25.19977512741483,102.57396681354776,92.25996160567982,-9.713172767078504e-05,0.090522177517414,0,0,0
8628,293638.4600326988,2010-09-17 23:31:41,1170.5971129207137,7,25,-1.0997490882873535,3.726137399673462,25.75271124515779,25.20894373821919,102.57396681354776,92.29414885278366,-0.0001618862152099,0.090522177517414,0,0,0
8629,293668.475249663,2010-09-17 23:32:11,1200.612329905032,7,25,-1.099568486213684,3.721280813217163,25.75271124515779,25.21811222452996,102.57396681354776,92.3282906500632,-0.0001295089750783,0.090522177517414,0,0,0
8630,293698.4905371483,2010-09-17 23:32:41,1230.6276173652695,7,25,-1.099568486213684,3.716586112976074,25.75271124515779,25.22728077195352,102.57396681354776,92.36238808793392,-0.0001618862152099,0.090522177517414,0,0,0
8631,293728.50595569075,2010-09-17 23:33:11,1260.643035907708,7,25,-1.099929690361023,3.711729526519776,25.75271124515779,25.23644937994512,102.57396681354776,92.39644160963311,-0.0001295089750783,0.090522177517414,0,0,0
8632,293758.5211292015,2010-09-17 23:33:41,1290.65820941851,7,25,-1.0997490882873535,3.7070348262786874,25.75271124515779,25.245617943328103,102.57396681354776,92.43045164087216,-0.0001618862152099,0.090522177517414,0,0,0
8633,293788.5365755133,2010-09-17 23:34:11,1320.67365574029,7,25,-1.0997490882873535,3.702502012252808,25.75271124515779,25.254786513767552,102.57396681354776,92.46441940645286,-0.0001295089750783,0.090522177517414,0,0,0
8634,293818.551748182,2010-09-17 23:34:41,1350.6888284039776,7,25,-1.099568486213684,3.6979691982269287,25.75271124515779,25.263955129897862,102.57396681354776,92.49834528068952,-0.0001618862152099,0.090522177517414,0,0,0
8635,293848.5670594216,2010-09-17 23:35:11,1380.7041396385594,7,25,-1.099568486213684,3.69343638420105,25.75271124515779,25.27312372382276,102.57396681354776,92.5322299614489,-0.0001295089750783,0.090522177517414,0,0,0
8636,293878.582364972,2010-09-17 23:35:41,1410.7194451889525,7,25,-1.099568486213684,3.689227342605591,25.75271124515779,25.282292316256022,102.57396681354776,92.56607394260358,-9.713172767078504e-05,0.090522177517414,0,0,0
8637,293908.5977095598,2010-09-17 23:36:11,1440.734789806864,7,25,-1.0997490882873535,3.684694528579712,25.75271124515779,25.29146028505513,102.57396681354776,92.59987562164451,-0.0001295089750783,0.090522177517414,0,0,0
8638,293938.61295754154,2010-09-17 23:36:41,1470.7500377584818,7,25,-1.0997490882873535,3.680323600769043,25.75271124515779,25.300628122315505,102.57396681354776,92.63363754645316,-0.0001618862152099,0.090522177517414,0,0,0
8639,293968.62826323224,2010-09-17 23:37:11,1500.7653434492252,7,25,-1.099568486213684,3.676438331604004,25.75271124515779,25.30979595823021,102.57396681354776,92.6673608394006,-9.713172767078504e-05,0.090522177517414,0,0,0
8640,293998.6437018147,2010-09-17 23:37:41,1530.7807820316868,7,25,-1.099568486213684,3.672229528427124,25.75271124515779,25.31896375462783,102.57396681354776,92.70104586466763,-0.0001294612884521,0.090522177517414,0,0,0
8641,294028.6615034157,2010-09-17 23:38:11,1560.798583752906,7,25,-1.0993878841400146,3.668344259262085,25.75271124515779,25.32813238319636,102.57396681354776,92.73469639950817,-6.47544875391759e-05,0.090522177517414,0,0,0
8642,294058.6742276226,2010-09-17 23:38:41,1590.8113080300443,7,25,-1.099568486213684,3.664135217666626,25.75271124515779,25.33729935562787,102.57396681354776,92.76830375698472,-6.47544875391759e-05,0.090522177517414,0,0,0
8643,294088.6895166317,2010-09-17 23:39:11,1620.8265968486724,7,25,-1.0997490882873535,3.660088062286377,25.75271124515779,25.346467503369144,102.57396681354776,92.80187905119988,-9.713172767078504e-05,0.090522177517414,0,0,0
8644,294118.704865826,2010-09-17 23:39:41,1650.8419460430073,7,25,-1.0997490882873535,3.656364679336548,25.75271124515779,25.35563592274101,102.57396681354776,92.83541948707978,-9.713172767078504e-05,0.090522177517414,0,0,0
8645,294148.7202043637,2010-09-17 23:40:11,1680.8572846709671,7,25,-1.0997490882873535,3.652641296386719,25.75271124515779,25.36480435965725,102.57396681354776,92.86892518088854,-6.47544875391759e-05,0.090522177517414,0,0,0
8646,294178.73542969394,2010-09-17 23:40:41,1710.8725099108929,7,25,-1.099929690361023,3.64875602722168,25.75271124515779,25.37397275264632,102.57396681354776,92.90239605575564,-9.713172767078504e-05,0.090522177517414,0,0,0
8647,294208.7507433295,2010-09-17 23:41:11,1740.887823546468,7,25,-1.099568486213684,3.645194530487061,25.75271124515779,25.38314114660263,102.57396681354776,92.93583284563884,-9.713172767078504e-05,0.090522177517414,0,0,0
8648,294238.7660582182,2010-09-17 23:41:41,1770.9031384351708,7,25,-1.0997490882873535,3.641471147537232,25.75271124515779,25.39230953062424,102.57396681354776,92.96923656766305,-9.713172767078504e-05,0.090522177517414,0,0,0
8649,294268.7815669558,2010-09-17 23:42:11,1800.9186471727503,7,25,-1.0997490882873535,3.6380715370178223,25.75271124515779,25.401477907981,102.57396681354776,93.00260771938102,-6.47544875391759e-05,0.090522177517414,0,0,0
8650,294298.79668068734,2010-09-17 23:42:41,1830.9337609043343,7,25,-1.099568486213684,3.634671926498413,25.75271124515779,25.410646171029644,102.57396681354776,93.03594699816485,-9.713172767078504e-05,0.090522177517414,0,0,0
8651,294328.81202419254,2010-09-17 23:43:12,1860.949104524756,7,25,-1.0997490882873535,3.631272315979004,25.75271124515779,25.4198145838103,102.57396681354776,93.06925592987008,-9.713172767078504e-05,0.090522177517414,0,0,0
8652,294358.8272968057,2010-09-17 23:43:42,1890.9643770226453,7,25,-1.0997490882873535,3.6280345916748047,25.75271124515779,25.428982944225595,102.57396681354776,93.10253459395528,-0.0001295089750783,0.090522177517414,0,0,0
8653,294388.84261632094,2010-09-17 23:44:12,1920.9796965378964,7,25,-1.099568486213684,3.6251206398010254,25.75271124515779,25.438151341478623,102.57396681354776,93.13578390110072,-3.237724376958795e-05,0.090522177517414,0,0,0
8654,294418.8579044729,2010-09-17 23:44:42,1950.9949846898603,7,25,-1.099568486213684,3.621882915496826,25.75271124515779,25.44731972295559,102.57396681354776,93.16900471826234,-6.47544875391759e-05,0.090522177517414,0,0,0
8655,294448.87322242424,2010-09-17 23:45:12,1981.010302641208,7,25,-1.0993878841400146,3.618968963623047,25.75271124515779,25.456488115876816,102.57396681354776,93.20219722921132,-3.237724376958795e-05,0.090522177517414,0,0,0
8656,294478.88852466136,2010-09-17 23:45:42,2011.0256048783308,7,25,-1.099568486213684,3.616055011749268,25.75271124515779,25.46565651735189,102.57396681354776,93.2353622299936,-3.237724376958795e-05,0.090522177517414,0,0,0
8657,294508.9038505826,2010-09-17 23:46:12,2041.0409307995728,7,25,-1.099568486213684,3.612817287445069,25.75271124515779,25.474824847419853,102.57396681354776,93.26850003282584,-9.713172767078504e-05,0.090522177517414,0,0,0
8658,294538.91929099464,2010-09-17 23:46:42,2071.056371216614,7,25,-1.099568486213684,3.609903335571289,25.75271124515779,25.48399333442612,102.57396681354776,93.30161177638776,-9.713172767078504e-05,0.090522177517414,0,0,0
8659,294568.93446354306,2010-09-17 23:47:12,2101.0715437650138,7,25,-1.0993878841400146,3.6073131561279297,25.75271124515779,25.493161729508596,102.57396681354776,93.3346969032616,-3.237724376958795e-05,0.090522177517414,0,0,0
8660,294598.9498931782,2010-09-17 23:47:42,2131.086973485354,7,25,-1.0997490882873535,3.6043992042541504,25.75271124515779,25.50233019254431,102.57396681354776,93.36775636427572,-6.47544875391759e-05,0.090522177517414,0,0,0
8661,294628.96508109494,2010-09-17 23:48:12,2161.10216133194,7,25,-1.0997490882873535,3.601647138595581,25.75271124515779,25.51149848793124,102.57396681354776,93.4007896307637,-6.47544875391759e-05,0.090522177517414,0,0,0
8662,294658.9803772619,2010-09-17 23:48:42,2191.117457503923,7,25,-1.099568486213684,3.598895072937012,25.75271124515779,25.520666602664956,102.57396681354776,93.43379661922548,-9.713172767078504e-05,0.090522177517414,0,0,0
8663,294688.9958196839,2010-09-17 23:49:12,2221.132899905919,7,25,-1.099568486213684,3.5961430072784424,25.75271124515779,25.52983479218886,102.57396681354776,93.4667784245305,-3.237724376958795e-05,0.090522177517414,0,0,0
8664,294719.01100277866,2010-09-17 23:49:42,2251.1480830206942,7,25,-1.0993878841400146,3.593390941619873,25.75271124515779,25.539002850146485,102.57396681354776,93.49973426529898,-3.237724376958795e-05,0.090522177517414,0,0,0
8665,294749.0263314217,2010-09-17 23:50:12,2281.1634116637297,7,25,-1.099568486213684,3.590639114379883,25.75271124515779,25.548171057339022,102.57396681354776,93.53266536187844,-3.237724376958795e-05,0.090522177517414,0,0,0
8666,294779.0415938795,2010-09-17 23:50:42,2311.178674091482,7,25,-1.099568486213684,3.5877251625061035,25.75271124515779,25.557339514991625,102.57396681354776,93.56557193923804,-9.713172767078504e-05,0.090522177517414,0,0,0
8667,294809.0568795904,2010-09-17 23:51:12,2341.1939598374406,7,25,-1.0997490882873535,3.5846493244171143,25.75271124515779,25.566507935571096,102.57396681354776,93.59845274848988,-0.0001295089750783,0.090522177517414,0,0,0
8668,294839.07236128545,2010-09-17 23:51:42,2371.209441507455,7,25,-1.099568486213684,3.582221031188965,25.75271124515779,25.575676448228915,102.57396681354776,93.63130781707235,0.0,0.090522177517414,0,0,0
8669,294869.087601172,2010-09-17 23:52:12,2401.2246813889287,7,25,-1.099568486213684,3.579145193099976,25.75271124515779,25.58484494499551,102.57396681354776,93.66413661328365,-9.713172767078504e-05,0.090522177517414,0,0,0
8670,294899.1030248071,2010-09-17 23:52:42,2431.2401050341045,7,25,-1.099568486213684,3.5763931274414062,25.75271124515779,25.594013406404343,102.57396681354776,93.69693863488206,-3.237724376958795e-05,0.090522177517414,0,0,0
8671,294929.11822921503,2010-09-17 23:53:12,2461.255309437018,7,25,-1.099568486213684,3.573317289352417,25.75271124515779,25.60318177475841,102.57396681354776,93.72971306763954,-6.47544875391759e-05,0.090522177517414,0,0,0
8672,294959.13371934113,2010-09-17 23:53:42,2491.270799668403,7,25,-1.099568486213684,3.570241451263428,25.75271124515779,25.61235027063874,102.57396681354776,93.76246006176896,-6.47544875391759e-05,0.090522177517414,0,0,0
8673,294989.14885998995,2010-09-17 23:54:12,2521.285940206901,7,25,-1.0997490882873535,3.5668418407440186,25.75271124515779,25.62151864838325,102.57396681354776,93.79517789412604,-9.713172767078504e-05,0.090522177517414,0,0,0
8674,295019.1641593749,2010-09-17 23:54:42,2551.3012395919045,7,25,-1.099568486213684,3.56360411643982,25.75271124515779,25.63068715624948,102.57396681354776,93.82786691260658,-0.0001295089750783,0.090522177517414,0,0,0
8675,295049.1795794412,2010-09-17 23:55:12,2581.316659653134,7,25,-1.0997490882873535,3.56052827835083,25.75271124515779,25.639855609400136,102.57396681354776,93.86052643408772,-9.713172767078504e-05,0.090522177517414,0,0,0
8676,295079.1947777289,2010-09-17 23:55:42,2611.3318579457955,7,25,-1.099568486213684,3.557128667831421,25.75271124515779,25.649024026377965,102.57396681354776,93.89315550400558,-6.47544875391759e-05,0.090522177517414,0,0,0
8677,295109.2101103117,2010-09-17 23:56:12,2641.347190623904,7,25,-1.099568486213684,3.5535671710968018,25.75271124515779,25.658192555926128,102.57396681354776,93.92575285358154,-9.713172767078504e-05,0.090522177517414,0,0,0
8678,295139.2253829098,2010-09-17 23:56:42,2671.3624631268053,7,25,-1.0997490882873535,3.5498437881469727,25.75271124515779,25.66736097538785,102.57396681354776,93.95831720697736,-0.0001295089750783,0.090522177517414,0,0,0
8679,295169.24070969323,2010-09-17 23:57:12,2701.377789930249,7,25,-1.0997490882873535,3.546120405197144,25.75271124515779,25.67652936328846,102.57396681354776,93.99084780608476,-0.0001295089750783,0.090522177517414,0,0,0
8680,295199.25600268727,2010-09-17 23:57:42,2731.393082904249,7,25,-1.0997490882873535,3.5422351360321045,25.75271124515779,25.68569785008767,102.57396681354776,94.0233435177757,-0.0001618862152099,0.090522177517414,0,0,0
8681,295229.27155261766,2010-09-17 23:58:12,2761.4086328346525,7,25,-1.099568486213684,3.538349866867065,25.75271124515779,25.69486640319964,102.57396681354776,94.05580302775031,-9.713172767078504e-05,0.090522177517414,0,0,0
8682,295259.2866264096,2010-09-17 23:58:42,2791.423706626541,7,25,-1.099568486213684,3.5341408252716064,25.75271124515779,25.704034864036604,102.57396681354776,94.08822413815804,-0.0001295089750783,0.090522177517414,0,0,0
8683,295289.301946817,2010-09-17 23:59:12,2821.4390270340195,7,25,-1.099568486213684,3.529769897460937,25.75271124515779,25.71320341474809,102.57396681354776,94.12060610867049,-0.0001295089750783,0.090522177517414,0,0,0
8684,295319.31728371565,2010-09-17 23:59:42,2851.4543640279007,7,25,-1.0997490882873535,3.5249133110046387,25.75271124515779,25.72237192873504,102.57396681354776,94.15294676805104,-9.713172767078504e-05,0.090522177517414,0,0,0
8685,295349.332597241,2010-09-18 00:00:12,2881.469677457962,7,25,-1.099568486213684,3.52021861076355,25.75271124515779,25.7315404733024,102.57396681354776,94.1852438510556,-9.713172767078504e-05,0.090522177517414,0,0,0
8686,295379.3478859544,2010-09-18 00:00:42,2911.4849661963904,7,25,-1.099568486213684,3.515038251876831,25.75271124515779,25.74070901934637,102.57396681354776,94.2174950319092,-9.713172767078504e-05,0.090522177517414,0,0,0
8687,295409.3635787764,2010-09-18 00:01:12,2941.5006590134603,7,25,-1.099568486213684,3.5095343589782715,25.75271124515779,25.749877564311507,102.57396681354776,94.24969691579886,-9.713172767078504e-05,0.090522177517414,0,0,0
8688,295439.3784847745,2010-09-18 00:01:42,2971.515564991459,7,25,-1.0997490882873535,3.503382682800293,25.75271124515779,25.759046020050167,102.57396681354776,94.28184540740143,-0.0001942634553415,0.090522177517414,0,0,0
8689,295469.3938141443,2010-09-18 00:02:12,3001.530894361309,7,25,-1.099568486213684,3.496745347976685,25.75271124515779,25.768214530718225,102.57396681354776,94.31393640550566,-0.0001942634553415,0.090522177517414,0,0,0
8690,295499.4092306617,2010-09-18 00:02:42,3031.5463108837066,7,25,-1.099568486213684,3.4894604682922363,25.75271124515779,25.77738309074638,102.57396681354776,94.34596386313656,-0.0002266406954731,0.090522177517414,0,0,0
8691,295529.4244107941,2010-09-18 00:03:12,3061.5614910110235,7,25,-1.099568486213684,3.4812042713165283,25.75271124515779,25.78655156934035,102.57396681354776,94.37791982083225,-0.0002266406954731,0.090522177517414,0,0,0
8692,295559.43973173783,2010-09-18 00:03:42,3091.576811954841,7,25,-1.0997490882873535,3.4714910984039307,25.75271124515779,25.79572006879486,102.57396681354776,94.4097934784452,-0.0002590179501567,0.090522177517414,0,0,0
8693,295589.4550554135,2010-09-18 00:04:12,3121.59213565554,7,25,-1.0997490882873535,3.4601590633392334,25.75271124515779,25.804888596087963,102.57396681354776,94.44157162362728,-0.0003237724304199,0.090522177517414,0,0,0
8694,295619.470340954,2010-09-18 00:04:42,3151.607421170923,7,25,-1.099568486213684,3.446074962615967,25.75271124515779,25.814057126556225,102.57396681354776,94.47323396613368,-0.0003885269106831,0.090522177517414,0,0,0
8695,295649.4857792858,2010-09-18 00:05:12,3181.622859527821,7,25,-1.0993878841400146,3.4279439449310303,25.75271124515779,25.82322570079125,102.57396681354776,94.5047503298273,-0.0005504131549969,0.090522177517414,0,0,0
8696,295679.5009674582,2010-09-18 00:05:42,3211.6380476801705,7,25,-1.099568486213684,3.403499126434326,25.75271124515779,25.83239420301572,102.57396681354776,94.53607287006145,-0.0007446765666827,0.090522177517414,0,0,0
8697,295709.5162958957,2010-09-18 00:06:12,3241.653376112681,7,25,-1.099929690361023,3.3678841590881348,25.75271124515779,25.841562707161795,102.57396681354776,94.5671245563244,-0.0011332035064697,0.090522177517414,0,0,0
8698,295739.531708393,2010-09-18 00:06:42,3271.6687886100303,7,25,-1.0997490882873535,3.316890239715576,25.75271124515779,25.850731305860133,102.57396681354776,94.59778442363331,-0.0015541076427325,0.090522177517414,0,0,0
8699,295769.5468920342,2010-09-18 00:07:12,3301.6839722561317,7,25,-1.0997490882873535,3.2422609329223637,25.75271124515779,25.85989978977831,102.57396681354776,94.62787504151622,-0.0023635388351976,0.090522177517414,0,0,0
8700,295799.5622299604,2010-09-18 00:07:42,3331.699310177328,7,25,-1.099568486213684,3.13039779663086,25.75271124515779,25.869068317106816,102.57396681354776,94.65712855946347,-0.0036262511275708,0.090522177517414,0,0,0
8701,295828.2338071179,2010-09-18 00:08:11,3360.3708873349246,7,25,-1.0997490882873535,2.929983377456665,25.75271124515779,25.877826385447044,102.57396681354776,94.68379882710724,-0.0084504131227731,0.090522177517414,0,0,0
8702,295841.21801840694,2010-09-18 00:08:24,3373.355098623873,7,25,-1.0997490882873535,2.7297306060791016,25.75271124515779,25.881792558889327,102.57396681354776,94.69505195253102,-0.0140516757965087,0.090522177517414,0,0,0
8703,295842.88989169983,2010-09-18 00:08:26,3375.026971916823,7,25,-1.099568486213684,2.699943780899048,25.75271124515779,25.882303264833144,102.57396681354776,94.69643843194989,-0.0142135620117187,0.090522177517414,0,0,0
8704,295902.9101724609,2010-09-18 00:09:26,60.0149821535294,8,25,0.0,3.355742692947388,25.75271124515779,25.882303264833144,102.57396681354776,94.69643843194989,0.0013274193042889,0.090522177517414,0,0,0
8705,295903.0878677059,2010-09-18 00:09:26,0.187516444895142,9,25,-1.9243103452026844e-05,3.3559045791625977,25.75271124515779,25.88230326583548,102.57396681354776,94.6964384353136,0.0,0.0881769880652427,0,0,0
8706,295907.915994844,2010-09-18 00:09:31,5.01564269580607,9,25,0.0005225847125984,3.363675117492676,25.752712135353622,25.88230326600453,102.57396980498972,94.69643843588092,0.0011332035064697,0.0881769880652427,0,0,0
