Data_Point,Test_Time(s),Date_Time,Step_Time(s),Step_Index,Cycle_Index,Current(A),Voltage(V),Charge_Capacity(Ah),Discharge_Capacity(Ah),Charge_Energy(Wh),Discharge_Energy(Wh),dV/dt(V/s),Internal_Resistance(Ohm),Is_FC_Data,AC_Impedance(Ohm),ACI_Phase_Angle(Deg)
5618,191721.86349489453,2010-09-16 19:12:54,30.01486470998762,1,17,0.0,3.43312406539917,16.620941100944556,16.740183264760642,66.20274416087399,61.28098838032793,0.000615119934082,0.0898760333657264,0,0,0
5619,191751.87876454028,2010-09-16 19:13:24,60.03013426553204,1,17,0.0,3.453197956085205,16.620941100944556,16.740183264760642,66.20274416087399,61.28098838032793,0.0004209041653666,0.0898760333657264,0,0,0
5620,191781.8940072739,2010-09-16 19:13:54,90.04537699912474,1,17,0.0,3.4679296016693115,16.620941100944556,16.740183264760642,66.20274416087399,61.28098838032793,0.0003561496851034,0.0898760333657264,0,0,0
5621,191811.86240006785,2010-09-16 19:14:24,120.01376979306038,1,17,0.0,3.479099750518799,16.620941100944556,16.740183264760642,66.20274416087399,61.28098838032793,0.0002266406954731,0.0898760333657264,0,0,0
5622,191841.87324989188,2010-09-16 19:14:54,30.01528134497264,2,17,0.5499359965324402,3.618968963623047,16.625526464271577,16.740183264760642,66.21919872253264,61.28098838032793,0.0013598442310467,0.0898760333657264,0,0,0
5623,191871.8884890916,2010-09-16 19:15:24,60.030520544744384,2,17,0.5501165986061096,3.6608974933624263,16.63011184680094,16.740183264760642,66.23589495015216,61.28098838032793,0.0009713172912597,0.0898760333657264,0,0,0
5624,191901.90374977505,2010-09-16 19:15:54,90.04578122814256,2,17,0.5495747923851013,3.69133186340332,16.63469712615991,16.740183264760642,66.2527544829778,61.28098838032793,0.0007122993702068,0.0898760333657264,0,0,0
5625,191931.91901929548,2010-09-16 19:16:24,120.0610507586244,2,17,0.5499359965324402,3.7159385681152335,16.639282478867326,16.740183264760642,66.26973956462513,61.28098838032793,0.0006151676061563,0.0898760333657264,0,0,0
5626,191961.93429782343,2010-09-16 19:16:54,150.0763292765403,2,17,0.5501165986061096,3.7360124588012695,16.64386776843899,16.740183264760642,66.28682515993343,61.28098838032793,0.0005180359003134,0.0898760333657264,0,0,0
5627,191991.94956423112,2010-09-16 19:17:24,180.09159568422714,2,17,0.5497553944587708,3.751553535461426,16.64845308466235,16.740183264760642,66.30399266884963,61.28098838032793,0.0003885269106831,0.0898760333657264,0,0,0
5628,192021.96479317528,2010-09-16 19:17:54,210.10682462839932,2,17,0.5499359965324402,3.762561559677124,16.65303837558885,16.740183264760642,66.32122189840665,61.28098838032793,0.0002266406954731,0.0898760333657264,0,0,0
5629,192051.98005016445,2010-09-16 19:18:24,240.1220816175762,2,17,0.5499359965324402,3.768875122070313,16.65762368573868,16.740183264760642,66.33849038839135,61.28098838032793,0.0001295089750783,0.0898760333657264,0,0,0
5630,192081.9953232087,2010-09-16 19:18:54,270.13735466182897,2,17,0.5501165986061096,3.773084163665772,16.662208993334723,16.740183264760642,66.35578188024047,61.28098838032793,0.0001295089750783,0.0898760333657264,0,0,0
5631,192112.0105873357,2010-09-16 19:19:24,300.15261878882285,2,17,0.5499359965324402,3.7763218879699703,16.66679432061432,16.740183264760642,66.37308999680425,61.28098838032793,6.47544875391759e-05,0.0898760333657264,0,0,0
5632,192142.02585992383,2010-09-16 19:19:54,330.1678914070121,2,17,0.5497553944587708,3.77939772605896,16.671379599623815,16.740183264760642,66.39041261228682,61.28098838032793,6.47544875391759e-05,0.0898760333657264,0,0,0
5633,192172.04127351395,2010-09-16 19:20:24,360.18330496701384,2,17,0.5499359965324402,3.782635450363159,16.675964941683564,16.740183264760642,66.40774986459873,61.28098838032793,6.47544875391759e-05,0.0898760333657264,0,0,0
5634,192202.05657283872,2010-09-16 19:20:54,390.198604291867,2,17,0.5499359965324402,3.785711288452149,16.680550311048457,16.740183264760642,66.42510150937409,61.28098838032793,9.713172767078504e-05,0.0898760333657264,0,0,0
5635,192232.0717642092,2010-09-16 19:21:24,420.2137957574869,2,17,0.5497553944587708,3.7887871265411377,16.685135622834853,16.740183264760642,66.44246733272638,61.28098838032793,6.47544875391759e-05,0.0898760333657264,0,0,0
5636,192262.0870044365,2010-09-16 19:21:54,450.2290359246735,2,17,0.5497553944587708,3.792024850845337,16.68972099616295,16.740183264760642,66.4598476685079,61.28098838032793,9.713172767078504e-05,0.0898760333657264,0,0,0
5637,192292.1021331605,2010-09-16 19:22:24,480.2441646135931,2,17,0.5499359965324402,3.795100688934326,16.694306362023365,16.740183264760642,66.47724218394248,61.28098838032793,9.713172767078504e-05,0.0898760333657264,0,0,0
5638,192322.1175469811,2010-09-16 19:22:54,510.259578449283,2,17,0.5499359965324402,3.7980146408081055,16.69889173459145,16.740183264760642,66.49465074984447,61.28098838032793,6.47544875391759e-05,0.0898760333657264,0,0,0
5639,192352.1326615448,2010-09-16 19:23:24,540.2746930029189,2,17,0.5495747923851013,3.800766706466675,16.703477040978736,16.740183264760642,66.51207297042743,61.28098838032793,0.0,0.0898760333657264,0,0,0
5640,192382.14793882964,2010-09-16 19:23:55,570.2899702927692,2,17,0.5499359965324402,3.804166316986084,16.70806231003657,16.740183264760642,66.52950874893739,61.28098838032793,0.0001295089750783,0.0898760333657264,0,0,0
5641,192412.1633062996,2010-09-16 19:24:25,600.3053377577106,2,17,0.5497553944587708,3.806918382644653,16.71264764272984,16.740183264760642,66.5469584299808,61.28098838032793,6.47544875391759e-05,0.0898760333657264,0,0,0
5642,192442.1784540511,2010-09-16 19:24:55,630.3204855042009,2,17,0.5499359965324402,3.8099942207336426,16.7172329781885,16.740183264760642,66.56442169188189,61.28098838032793,9.713172767078504e-05,0.0898760333657264,0,0,0
5643,192472.19382884435,2010-09-16 19:25:25,660.3358603275099,2,17,0.5499359965324402,3.813070058822632,16.721818368711567,16.740183264760642,66.58189884863535,61.28098838032793,9.713172767078504e-05,0.0898760333657264,0,0,0
5644,192502.2090962846,2010-09-16 19:25:55,690.3511277677742,2,17,0.5497553944587708,3.815984010696411,16.726403694073426,16.740183264760642,66.59938985042133,61.28098838032793,6.47544875391759e-05,0.0898760333657264,0,0,0
5645,192532.22429947948,2010-09-16 19:26:25,720.3663310278349,2,17,0.5499359965324402,3.8192217350006095,16.730989062082084,16.740183264760642,66.6168950359946,61.28098838032793,6.47544875391759e-05,0.0898760333657264,0,0,0
5646,192562.23950160676,2010-09-16 19:26:55,750.3815330748677,2,17,0.5499359965324402,3.8222975730896,16.735574387385025,16.740183264760642,66.63441444813913,61.28098838032793,0.0001295089750783,0.0898760333657264,0,0,0
5647,192592.25476932267,2010-09-16 19:27:25,780.3968007757827,2,17,0.5499359965324402,3.825697183609009,16.740159703157097,16.740183264760642,66.6519485190037,61.28098838032793,9.713172767078504e-05,0.0898760333657264,0,0,0
5648,192622.27001124425,2010-09-16 19:27:55,810.4120426973484,2,17,0.5497553944587708,3.828934907913208,16.744745064638593,16.740183264760642,66.66949799372959,61.28098838032793,6.47544875391759e-05,0.0898760333657264,0,0,0
5649,192652.2852639377,2010-09-16 19:28:25,840.4272953908024,2,17,0.5499359965324402,3.8321726322174072,16.749330429350625,16.740183264760642,66.68706292111065,61.28098838032793,3.237724376958795e-05,0.0898760333657264,0,0,0
5650,192682.3005472375,2010-09-16 19:28:55,870.4425786956672,2,17,0.5497553944587708,3.8357338905334473,16.753915829443095,16.740183264760642,66.70464353007976,61.28098838032793,9.713172767078504e-05,0.0898760333657264,0,0,0
5651,192712.31578966536,2010-09-16 19:29:25,900.4578211184843,2,17,0.5497553944587708,3.839133501052856,16.758501180573028,16.740183264760642,66.72223957031278,61.28098838032793,9.713172767078504e-05,0.0898760333657264,0,0,0
5652,192742.3313086335,2010-09-16 19:29:55,930.4733400916134,2,17,0.5499359965324402,3.8425331115722656,16.763086592985818,16.740183264760642,66.73985138915253,61.28098838032793,9.713172767078504e-05,0.0898760333657264,0,0,0
5653,192772.34630700716,2010-09-16 19:30:25,960.4883384602334,2,17,0.5501165986061096,3.845770835876465,16.767671911456233,16.740183264760642,66.75747797753034,61.28098838032793,9.713172767078504e-05,0.0898760333657264,0,0,0
5654,192802.36176599556,2010-09-16 19:30:55,990.503797553894,2,17,0.5497553944587708,3.848846673965454,16.772257362190246,16.740183264760642,66.77512008294745,61.28098838032793,3.237724376958795e-05,0.0898760333657264,0,0,0
5655,192832.3768244692,2010-09-16 19:31:25,1020.518855932308,2,17,0.5499359965324402,3.852084398269653,16.776842735656,16.740183264760642,66.79277654880043,61.28098838032793,9.713172767078504e-05,0.0898760333657264,0,0,0
5656,192862.392085318,2010-09-16 19:31:55,1050.534116781119,2,17,0.5501165986061096,3.855322122573853,16.78142816163264,16.740183264760642,66.81044753206494,61.28098838032793,9.713172767078504e-05,0.0898760333657264,0,0,0
5657,192892.407472447,2010-09-16 19:32:25,1080.5495039101447,2,17,0.5501165986061096,3.858397960662842,16.786013547621693,16.740183264760642,66.82813255168976,61.28098838032793,9.713172767078504e-05,0.0898760333657264,0,0,0
5658,192922.42261685012,2010-09-16 19:32:55,1110.564648303265,2,17,0.5499359965324402,3.861150026321411,16.790598917728214,16.740183264760642,66.84583132068873,61.28098838032793,3.237724376958795e-05,0.0898760333657264,0,0,0
5659,192952.43800440023,2010-09-16 19:33:25,1140.5800358683791,2,17,0.5499359965324402,3.8643877506256095,16.795184278000406,16.740183264760642,66.86354345473512,61.28098838032793,9.713172767078504e-05,0.0898760333657264,0,0,0
5660,192982.453131014,2010-09-16 19:33:55,1170.5951624670813,2,17,0.5501165986061096,3.8669779300689697,16.79976964996532,16.740183264760642,66.88126866596801,61.28098838032793,9.713172767078504e-05,0.0898760333657264,0,0,0
5661,193012.46844195784,2010-09-16 19:34:25,1200.6104734109372,2,17,0.5499359965324402,3.869568109512329,16.804354966312925,16.740183264760642,66.89900617877291,61.28098838032793,6.47544875391759e-05,0.0898760333657264,0,0,0
5662,193042.4836747416,2010-09-16 19:34:55,1230.6257063099815,2,17,0.5501165986061096,3.872158288955689,16.808940240335186,16.740183264760642,66.91675531157564,61.28098838032793,9.713172767078504e-05,0.0898760333657264,0,0,0
5663,193072.4989040216,2010-09-16 19:35:25,1260.6409354797163,2,17,0.5501165986061096,3.874424695968628,16.813525546743158,16.740183264760642,66.9345157098585,61.28098838032793,6.47544875391759e-05,0.0898760333657264,0,0,0
5664,193102.5141782939,2010-09-16 19:35:55,1290.65620974201,2,17,0.5499359965324402,3.876691102981568,16.81811082143982,16.740183264760642,66.9522865237321,61.28098838032793,3.237724376958795e-05,0.0898760333657264,0,0,0
5665,193132.5294690925,2010-09-16 19:36:25,1320.6715006458428,2,17,0.5499359965324402,3.878795623779297,16.822696069158074,16.740183264760642,66.97006708148587,61.28098838032793,6.47544875391759e-05,0.0898760333657264,0,0,0
5666,193162.5447073449,2010-09-16 19:36:55,1350.6867388330872,2,17,0.5499359965324402,3.880738258361816,16.827281428394105,16.740183264760642,66.98785728666593,61.28098838032793,3.237724376958795e-05,0.0898760333657264,0,0,0
5667,193192.56001959703,2010-09-16 19:37:25,1380.7020512004967,2,17,0.5497553944587708,3.882357120513916,16.83186684692933,16.740183264760642,67.00565621860508,61.28098838032793,0.0,0.0898760333657264,0,0,0
5668,193222.5752427317,2010-09-16 19:37:55,1410.7172741898044,2,17,0.5499359965324402,3.8841378688812256,16.83645219942161,16.740183264760642,67.02346266254443,61.28098838032793,3.237724376958795e-05,0.0898760333657264,0,0,0
5669,193252.59046445283,2010-09-16 19:38:25,1440.7324959059345,2,17,0.5497553944587708,3.8855948448181152,16.84103760094902,16.740183264760642,67.04127632464171,61.28098838032793,0.0,0.0898760333657264,0,0,0
5670,193282.60574816872,2010-09-16 19:38:55,1470.7477796268377,2,17,0.5499359965324402,3.886889934539795,16.845622924318935,16.740183264760642,67.05909627819644,61.28098838032793,3.237724376958795e-05,0.0898760333657264,0,0,0
5671,193312.6209858447,2010-09-16 19:39:25,1500.763017297793,2,17,0.5501165986061096,3.888346910476685,16.85020828672682,16.740183264760642,67.07692244734174,61.28098838032793,3.237724376958795e-05,0.0898760333657264,0,0,0
5672,193342.6362544228,2010-09-16 19:39:55,1530.7782858909354,2,17,0.5499359965324402,3.889318227767944,16.85479371648327,16.740183264760642,67.09475458737938,61.28098838032793,0.0,0.0898760333657264,0,0,0
5673,193372.65150759244,2010-09-16 19:40:25,1560.793539045541,2,17,0.5499359965324402,3.890613317489624,16.859379166394028,16.740183264760642,67.11259209652047,61.28098838032793,6.47544875391759e-05,0.0898760333657264,0,0,0
5674,193402.66677598507,2010-09-16 19:40:55,1590.8088074381822,2,17,0.5501165986061096,3.8917465209960938,16.863964523345533,16.740183264760642,67.1304344152348,61.28098838032793,3.237724376958795e-05,0.0898760333657264,0,0,0
5675,193432.6820473401,2010-09-16 19:41:25,1620.8240787932184,2,17,0.5499359965324402,3.8927178382873535,16.86854994909537,16.740183264760642,67.14828201688252,61.28098838032793,3.237724376958795e-05,0.0898760333657264,0,0,0
5676,193462.69768473384,2010-09-16 19:41:55,1650.839716191956,2,17,0.5501165986061096,3.894012928009033,16.87313541414664,16.740183264760642,67.1661346902982,61.28098838032793,6.47544875391759e-05,0.0898760333657264,0,0,0
5677,193492.7125491832,2010-09-16 19:42:25,1680.8545806362806,2,17,0.5501165986061096,3.894822359085083,16.87772082820054,16.740183264760642,67.18399203758112,61.28098838032793,0.0,0.0898760333657264,0,0,0
5678,193522.7278141723,2010-09-16 19:42:55,1710.8698456254267,2,17,0.5501165986061096,3.8959555625915527,16.882306265589147,16.740183264760642,67.20185363289198,61.28098838032793,6.47544875391759e-05,0.0898760333657264,0,0,0
5679,193552.7430665049,2010-09-16 19:43:25,1740.8850979579795,2,17,0.5499359965324402,3.896926879882813,16.886891655212594,16.740183264760642,67.21972004578082,61.28098838032793,6.47544875391759e-05,0.0898760333657264,0,0,0
5680,193582.7583215492,2010-09-16 19:43:55,1770.9003530123268,2,17,0.5499359965324402,3.8977363109588623,16.891477028145562,16.740183264760642,67.23759115583427,61.28098838032793,-3.237724376958795e-05,0.0898760333657264,0,0,0
5681,193612.7737135955,2010-09-16 19:44:25,1800.9157450586272,2,17,0.5497553944587708,3.899031400680542,16.89606237282845,16.740183264760642,67.25546698593124,61.28098838032793,3.237724376958795e-05,0.0898760333657264,0,0,0
5682,193642.7888644698,2010-09-16 19:44:55,1830.9308959329248,2,17,0.5497553944587708,3.9000027179718018,16.90064776143978,16.740183264760642,67.2733478120443,61.28098838032793,3.237724376958795e-05,0.0898760333657264,0,0,0
5683,193672.80423200992,2010-09-16 19:45:25,1860.946263473054,2,17,0.5497553944587708,3.9009740352630615,16.905233194711172,16.740183264760642,67.29123353595847,61.28098838032793,0.0,0.0898760333657264,0,0,0
5684,193702.81950177092,2010-09-16 19:45:55,1890.9615333143115,2,17,0.5499359965324402,3.9021072387695312,16.909818566291282,16.740183264760642,67.30912392801797,61.28098838032793,3.237724376958795e-05,0.0898760333657264,0,0,0
5685,193732.83463516663,2010-09-16 19:46:25,1920.9766666197547,2,17,0.5499359965324402,3.903078556060791,16.914403933632958,16.740183264760642,67.32701916156519,61.28098838032793,0.0,0.0898760333657264,0,0,0
5686,193762.85002054632,2010-09-16 19:46:55,1950.9920520094388,2,17,0.5501165986061096,3.904373645782471,16.91898930068531,16.740183264760642,67.34491934875899,61.28098838032793,6.47544875391759e-05,0.0898760333657264,0,0,0
5687,193792.86514211743,2010-09-16 19:47:25,1981.0071735705665,2,17,0.5501165986061096,3.9053449630737305,16.923574608529528,16.740183264760642,67.36282427920605,61.28098838032793,0.0,0.0898760333657264,0,0,0
5688,193822.88040640985,2010-09-16 19:47:55,2011.0224378629737,2,17,0.5501165986061096,3.9064781665802,16.928159946405884,16.740183264760642,67.38073428499429,61.28098838032793,0.0,0.0898760333657264,0,0,0
5689,193852.89582051625,2010-09-16 19:48:25,2041.0378519843764,2,17,0.5501165986061096,3.90777325630188,16.932745280621255,16.740183264760642,67.39864945254229,61.28098838032793,9.713172767078504e-05,0.0898760333657264,0,0,0
5690,193882.9109366087,2010-09-16 19:48:55,2071.052968061816,2,17,0.5501165986061096,3.90874457359314,16.937330646751068,16.740183264760642,67.41656986725621,61.28098838032793,3.237724376958795e-05,0.0898760333657264,0,0,0
5691,193912.92620840983,2010-09-16 19:49:25,2101.0682398930408,2,17,0.5501165986061096,3.910201549530029,16.941915963373106,16.740183264760642,67.43449537303074,61.28098838032793,6.47544875391759e-05,0.0898760333657264,0,0,0
5692,193942.9415821956,2010-09-16 19:49:55,2131.0836136837725,2,17,0.5501165986061096,3.911172866821289,16.946501381813256,16.740183264760642,67.4524264680785,61.28098838032793,6.47544875391759e-05,0.0898760333657264,0,0,0
5693,193972.9567041527,2010-09-16 19:50:25,2161.098735610813,2,17,0.5501165986061096,3.912306070327759,16.951086625185486,16.740183264760642,67.4703622526417,61.28098838032793,3.237724376958795e-05,0.0898760333657264,0,0,0
5694,194002.97210939697,2010-09-16 19:50:55,2191.1141408600706,2,17,0.5499359965324402,3.913439273834229,16.955672055227815,16.740183264760642,67.48830415797156,61.28098838032793,6.47544875391759e-05,0.0898760333657264,0,0,0
5695,194032.98722855208,2010-09-16 19:51:25,2221.1292600051665,2,17,0.5501165986061096,3.914734125137329,16.960257393936878,16.740183264760642,67.50625119904211,61.28098838032793,9.713172767078504e-05,0.0898760333657264,0,0,0
5696,194063.00251639824,2010-09-16 19:51:55,2251.1445478513674,2,17,0.5501165986061096,3.915705442428589,16.964842791303788,16.740183264760642,67.52420398593434,61.28098838032793,3.237724376958795e-05,0.0898760333657264,0,0,0
5697,194093.0177930265,2010-09-16 19:52:25,2281.1598245697915,2,17,0.5499359965324402,3.9171624183654794,16.96942819898693,16.740183264760642,67.54216230376929,61.28098838032793,6.47544875391759e-05,0.0898760333657264,0,0,0
5698,194123.03326380928,2010-09-16 19:52:55,2311.175295262405,2,17,0.5499359965324402,3.9181337356567374,16.974013621215608,16.740183264760642,67.56012647447065,61.28098838032793,0.0,0.0898760333657264,0,0,0
5699,194153.0482787743,2010-09-16 19:53:25,2341.1903102274523,2,17,0.5497553944587708,3.919266939163208,16.978598961504815,16.740183264760642,67.5780960707218,61.28098838032793,0.0,0.0898760333657264,0,0,0
5700,194183.06353635,2010-09-16 19:53:55,2371.2055678281554,2,17,0.5501165986061096,3.9210476875305176,16.983184371228322,16.740183264760642,67.59607183540393,61.28098838032793,9.713172767078504e-05,0.0898760333657264,0,0,0
5701,194213.0787978003,2010-09-16 19:54:25,2401.220829278468,2,17,0.5501165986061096,3.922342777252197,16.98776978170867,16.740183264760642,67.61405339152441,61.28098838032793,9.713172767078504e-05,0.0898760333657264,0,0,0
5702,194243.094079431,2010-09-16 19:54:55,2431.236110884091,2,17,0.5499359965324402,3.923314094543457,16.992355222704493,16.740183264760642,67.63204107613188,61.28098838032793,0.0,0.0898760333657264,0,0,0
5703,194273.1093422798,2010-09-16 19:55:25,2461.2513737328945,2,17,0.5499359965324402,3.9247710704803462,16.996940598092884,16.740183264760642,67.65003447383864,61.28098838032793,6.47544875391759e-05,0.0898760333657264,0,0,0
5704,194303.12457603097,2010-09-16 19:55:56,2491.2666074840654,2,17,0.5501165986061096,3.9260661602020255,17.001525996791326,16.740183264760642,67.66803408211221,61.28098838032793,3.237724376958795e-05,0.0898760333657264,0,0,0
5705,194333.13984507523,2010-09-16 19:56:26,2521.281876528334,2,17,0.5499359965324402,3.927361249923706,17.006111408002802,16.740183264760642,67.68603975915443,61.28098838032793,0.0,0.0898760333657264,0,0,0
5706,194363.1551008463,2010-09-16 19:56:56,2551.2971323094957,2,17,0.5497553944587708,3.928494453430176,17.01069685517705,16.740183264760642,67.70405186612453,61.28098838032793,-3.237724376958795e-05,0.0898760333657264,0,0,0
5707,194393.17048192027,2010-09-16 19:57:26,2581.312513463607,2,17,0.5499359965324402,3.9301133155822754,17.01528228186951,16.740183264760642,67.72207018195483,61.28098838032793,3.237724376958795e-05,0.0898760333657264,0,0,0
5708,194423.18574292448,2010-09-16 19:57:56,2611.3277743926183,2,17,0.5501165986061096,3.931570291519165,17.01986776781866,16.740183264760642,67.74009510275064,61.28098838032793,3.237724376958795e-05,0.0898760333657264,0,0,0
5709,194453.2008853176,2010-09-16 19:58:26,2641.342916770708,2,17,0.5501165986061096,3.933027267456055,17.02445319142797,16.740183264760642,67.75812625568643,61.28098838032793,3.237724376958795e-05,0.0898760333657264,0,0,0
5710,194483.2163055292,2010-09-16 19:58:56,2671.358336987326,2,17,0.5499359965324402,3.934484243392944,17.02903862727857,16.740183264760642,67.77616396455826,61.28098838032793,3.237724376958795e-05,0.0898760333657264,0,0,0
5711,194513.2313962333,2010-09-16 19:59:26,2701.37342771148,2,17,0.5499359965324402,3.935779333114624,17.03362400672531,16.740183264760642,67.79420804283536,61.28098838032793,0.0,0.0898760333657264,0,0,0
5712,194543.2466517438,2010-09-16 19:59:56,2731.388683196903,2,17,0.5499359965324402,3.9372363090515137,17.03820945194873,16.740183264760642,67.81225886260818,61.28098838032793,6.47544875391759e-05,0.0898760333657264,0,0,0
5713,194573.2620417951,2010-09-16 20:00:26,2761.404073273286,2,17,0.5497553944587708,3.9386932849884033,17.042794866661186,16.740183264760642,67.8303163591827,61.28098838032793,3.237724376958795e-05,0.0898760333657264,0,0,0
5714,194603.2773133807,2010-09-16 20:00:56,2791.419344838848,2,17,0.5499359965324402,3.940150260925293,17.04738028211277,16.740183264760642,67.8483804920327,61.28098838032793,3.237724376958795e-05,0.0898760333657264,0,0,0
5715,194633.2925609163,2010-09-16 20:01:26,2821.4345923694145,2,17,0.5499359965324402,3.9414453506469727,17.051965697236483,16.740183264760642,67.86645129099327,61.28098838032793,0.0,0.0898760333657264,0,0,0
5716,194663.30780242183,2010-09-16 20:01:56,2851.4498338749418,2,17,0.5501165986061096,3.943226099014282,17.056551085492035,16.740183264760642,67.88452857383882,61.28098838032793,6.47544875391759e-05,0.0898760333657264,0,0,0
5717,194693.3229595768,2010-09-16 20:02:26,2881.464991039942,2,17,0.5499359965324402,3.944683074951172,17.061136468397773,16.740183264760642,67.90261256241367,61.28098838032793,3.237724376958795e-05,0.0898760333657264,0,0,0
5718,194723.3383874726,2010-09-16 20:02:56,2911.480418945753,2,17,0.5499359965324402,3.945978164672852,17.065721932037945,16.740183264760642,67.920703654272,61.28098838032793,6.47544875391759e-05,0.0898760333657264,0,0,0
5719,194753.35350619163,2010-09-16 20:03:26,2941.4955376447365,2,17,0.5497553944587708,3.947435140609741,17.070307363056692,16.740183264760642,67.93880117209274,61.28098838032793,3.237724376958795e-05,0.0898760333657264,0,0,0
5720,194783.36876572715,2010-09-16 20:03:56,2971.510797190294,2,17,0.5501165986061096,3.949054002761841,17.07489271557034,16.740183264760642,67.95690517955235,61.28098838032793,0.0,0.0898760333657264,0,0,0
5721,194813.3840297088,2010-09-16 20:04:26,3001.5260611619005,2,17,0.5501165986061096,3.9505109786987305,17.079478073159923,16.740183264760642,67.97501595136367,61.28098838032793,6.47544875391759e-05,0.0898760333657264,0,0,0
5722,194843.39930342973,2010-09-16 20:04:56,3031.5413348828424,2,17,0.5501165986061096,3.95196795463562,17.08406345159547,16.740183264760642,67.99313372355132,61.28098838032793,3.237724376958795e-05,0.0898760333657264,0,0,0
5723,194873.4145653512,2010-09-16 20:05:26,3061.55659680433,2,17,0.5499359965324402,3.9534249305725098,17.088648890651964,16.740183264760642,68.01125863136438,61.28098838032793,6.47544875391759e-05,0.0898760333657264,0,0,0
5724,194903.42983770376,2010-09-16 20:05:56,3091.5718691668817,2,17,0.5497553944587708,3.9548819065094,17.093234333973093,16.740183264760642,68.0293905707208,61.28098838032793,0.0,0.0898760333657264,0,0,0
5725,194933.4450915551,2010-09-16 20:06:26,3121.587123008201,2,17,0.5499359965324402,3.956500768661499,17.097819829249815,16.740183264760642,68.0475298017547,61.28098838032793,3.237724376958795e-05,0.0898760333657264,0,0,0
5726,194963.46035879987,2010-09-16 20:06:56,3151.602390247965,2,17,0.5501165986061096,3.958119630813599,17.102405280853283,16.740183264760642,68.06567582870596,61.28098838032793,3.237724376958795e-05,0.0898760333657264,0,0,0
5727,194993.4756190522,2010-09-16 20:07:26,3181.6176505253497,2,17,0.5501165986061096,3.959738492965698,17.106990714420615,16.740183264760642,68.0838290517432,61.28098838032793,3.237724376958795e-05,0.0898760333657264,0,0,0
5728,195023.49091836705,2010-09-16 20:07:56,3211.632949820128,2,17,0.5499359965324402,3.961357355117798,17.11157617572066,16.740183264760642,68.1019896339406,61.28098838032793,6.47544875391759e-05,0.0898760333657264,0,0,0
5729,195053.50627468916,2010-09-16 20:08:26,3241.648306267568,2,17,0.5501165986061096,3.9629762172698975,17.11616173678651,16.740183264760642,68.1201579438726,61.28098838032793,9.713172767078504e-05,0.0898760333657264,0,0,0
5730,195083.5216290564,2010-09-16 20:08:56,3271.663660514515,2,17,0.5499359965324402,3.964595079421997,17.12074726359542,16.740183264760642,68.13833357013873,61.28098838032793,3.237724376958795e-05,0.0898760333657264,0,0,0
5731,195113.5367883066,2010-09-16 20:09:26,3301.678819975246,2,17,0.5501165986061096,3.966052055358887,17.12533270201973,16.740183264760642,68.15651634203601,61.28098838032793,0.0,0.0898760333657264,0,0,0
5732,195143.55200205784,2010-09-16 20:09:56,3331.694033606194,2,17,0.5499359965324402,3.9676709175109854,17.129918200590634,16.740183264760642,68.17470696222105,61.28098838032793,3.237724376958795e-05,0.0898760333657264,0,0,0
5733,195173.56722701708,2010-09-16 20:10:26,3361.7092584701813,2,17,0.5499359965324402,3.969451665878296,17.13450365454887,16.740183264760642,68.19290508296491,61.28098838032793,3.237724376958795e-05,0.0898760333657264,0,0,0
5734,195203.58252239708,2010-09-16 20:10:56,3391.7245538451757,2,17,0.5499359965324402,3.9712324142456055,17.139089176743816,16.740183264760642,68.21111123473483,61.28098838032793,9.713172767078504e-05,0.0898760333657264,0,0,0
5735,195233.5977723487,2010-09-16 20:11:26,3421.7398038017977,2,17,0.5501165986061096,3.973013162612915,17.14367469059963,16.740183264760642,68.22932528107987,61.28098838032793,6.47544875391759e-05,0.0898760333657264,0,0,0
5736,195263.61304676137,2010-09-16 20:11:56,3451.7550782094536,2,17,0.5501165986061096,3.9747939109802246,17.14826027330446,16.740183264760642,68.2475476399584,61.28098838032793,6.47544875391759e-05,0.0898760333657264,0,0,0
5737,195293.6283163971,2010-09-16 20:12:26,3481.770347845198,2,17,0.5499359965324402,3.976412773132324,17.152845820006856,16.740183264760642,68.26577795049367,61.28098838032793,6.47544875391759e-05,0.0898760333657264,0,0,0
5738,195323.64381726,2010-09-16 20:12:56,3511.7858487231592,2,17,0.5499359965324402,3.978031635284424,17.15743144891849,16.740183264760642,68.28401654935072,61.28098838032793,3.237724376958795e-05,0.0898760333657264,0,0,0
5739,195353.6588666861,2010-09-16 20:13:26,3541.8008981392013,2,17,0.5501165986061096,3.980136156082153,17.16201678482264,16.740183264760642,68.30226250682632,61.28098838032793,6.47544875391759e-05,0.0898760333657264,0,0,0
5740,195383.67455097687,2010-09-16 20:13:56,3571.816582435001,2,17,0.5501165986061096,3.982078790664673,17.16660226401645,16.740183264760642,68.32051763451398,61.28098838032793,6.47544875391759e-05,0.0898760333657264,0,0,0
5741,195413.68941247885,2010-09-16 20:14:26,3601.8314439570318,2,17,0.5499359965324402,3.9838595390319824,17.171187667625873,16.740183264760642,68.33878097682847,61.28098838032793,9.713172767078504e-05,0.0898760333657264,0,0,0
5742,195443.70470593908,2010-09-16 20:14:56,3631.8467373871695,2,17,0.5501165986061096,3.985802173614502,17.175773082423735,16.740183264760642,68.35705304106693,61.28098838032793,6.47544875391759e-05,0.0898760333657264,0,0,0
5743,195473.71995764505,2010-09-16 20:15:26,3661.861989098172,2,17,0.5499359965324402,3.9877448081970215,17.18035856209854,16.740183264760642,68.37533415891771,61.28098838032793,6.47544875391759e-05,0.0898760333657264,0,0,0
5744,195503.73523659405,2010-09-16 20:15:56,3691.877268042151,2,17,0.5499359965324402,3.989525556564331,17.184943948777345,16.740183264760642,68.39362367265089,61.28098838032793,3.237724376958795e-05,0.0898760333657264,0,0,0
5745,195533.75054011945,2010-09-16 20:16:26,3721.8925715674895,2,17,0.5499359965324402,3.9914681911468506,17.189529404168827,16.740183264760642,68.41192245371687,61.28098838032793,3.237724376958795e-05,0.0898760333657264,0,0,0
5746,195563.76580086292,2010-09-16 20:16:56,3751.90783231605,2,17,0.5499359965324402,3.99357271194458,17.1941148567363,16.740183264760642,68.43023028902728,61.28098838032793,6.47544875391759e-05,0.0898760333657264,0,0,0
5747,195593.7810645789,2010-09-16 20:17:26,3781.9230960320174,2,17,0.5499359965324402,3.9956769943237305,17.19870024157019,16.740183264760642,68.44854702886778,61.28098838032793,6.47544875391759e-05,0.0898760333657264,0,0,0
5748,195623.79659303068,2010-09-16 20:17:56,3811.938624483808,2,17,0.5499359965324402,3.99778151512146,17.203285749258725,16.740183264760642,68.46687358344262,61.28098838032793,6.47544875391759e-05,0.0898760333657264,0,0,0
5749,195653.81162118868,2010-09-16 20:18:26,3841.9536526367738,2,17,0.5499359965324402,3.9995622634887695,17.207871182810692,16.740183264760642,68.4852090758067,61.28098838032793,3.237724376958795e-05,0.0898760333657264,0,0,0
5750,195683.8270357562,2010-09-16 20:18:56,3871.969067224341,2,17,0.5499359965324402,4.001828670501709,17.212456646342147,16.740183264760642,68.50355413846445,61.28098838032793,9.70840483205393e-05,0.0898760333657264,0,0,0
5751,195713.84230784807,2010-09-16 20:19:26,3901.984339316216,2,17,0.5501165986061096,4.003933429718018,17.217042160722176,16.740183264760642,68.5219089171946,61.28098838032793,6.47544875391759e-05,0.0898760333657264,0,0,0
5752,195743.8574732386,2010-09-16 20:19:56,3931.999504691711,2,17,0.5499359965324402,4.005876064300537,17.221627673284637,16.740183264760642,68.54027320169948,61.28098838032793,6.47544875391759e-05,0.0898760333657264,0,0,0
5753,195773.87273836808,2010-09-16 20:20:26,3962.014769816195,2,17,0.5497553944587708,4.007980346679688,17.226213119787253,16.740183264760642,68.55864691319803,61.28098838032793,6.47544875391759e-05,0.0898760333657264,0,0,0
5754,195803.88801265543,2010-09-16 20:20:56,3992.0300441085633,2,17,0.5499359965324402,4.010085105895996,17.230798583406113,16.740183264760642,68.5770302915737,61.28098838032793,6.47544875391759e-05,0.0898760333657264,0,0,0
5755,195833.90348601472,2010-09-16 20:21:26,4022.045517472845,2,17,0.5499359965324402,4.0121893882751465,17.235384007230756,16.740183264760642,68.59542318883005,61.28098838032793,3.23295607813634e-05,0.0898760333657264,0,0,0
5756,195863.9185743078,2010-09-16 20:21:56,4052.060605775956,2,17,0.5499359965324402,4.014455795288086,17.239969326423665,16.740183264760642,68.6138254447116,61.28098838032793,6.47544875391759e-05,0.0898760333657264,0,0,0
5757,195893.93385049992,2010-09-16 20:22:26,4082.075881953029,2,17,0.5499359965324402,4.0163984298706055,17.244554643492286,16.740183264760642,68.63223759430205,61.28098838032793,3.23295607813634e-05,0.0898760333657264,0,0,0
5758,195923.9491033488,2010-09-16 20:22:56,4112.091134801871,2,17,0.5501165986061096,4.018664836883545,17.249140658921966,16.740183264760642,68.6506625426855,61.28098838032793,0.0,0.0898760333657264,0,0,0
5759,195953.96451685863,2010-09-16 20:23:26,4142.10654831676,2,17,0.5501165986061096,4.020931243896484,17.25372712404194,16.740183264760642,68.66909926009428,61.28098838032793,6.47544875391759e-05,0.0898760333657264,0,0,0
5760,195983.97967037951,2010-09-16 20:23:56,4172.121701832652,2,17,0.5501165986061096,4.023197650909424,17.258313362066573,16.740183264760642,68.68754530278467,61.28098838032793,6.47544875391759e-05,0.0898760333657264,0,0,0
5761,196013.9949514037,2010-09-16 20:24:26,4202.136982952061,2,17,0.5501165986061096,4.025302410125732,17.26289982395066,16.740183264760642,68.70600252521388,61.28098838032793,3.24249267578125e-05,0.0898760333657264,0,0,0
5762,196044.01044909377,2010-09-16 20:24:56,4232.152480546826,2,17,0.5501165986061096,4.027568817138672,17.267486241678796,16.740183264760642,68.72446984814567,61.28098838032793,6.47544875391759e-05,0.0898760333657264,0,0,0
5763,196074.0255282139,2010-09-16 20:25:26,4262.167559667015,2,17,0.5501165986061096,4.029835224151611,17.272072685426153,16.740183264760642,68.7429476523227,61.28098838032793,6.47544875391759e-05,0.0898760333657264,0,0,0
5764,196104.04095357336,2010-09-16 20:25:56,4292.182985026469,2,17,0.5499359965324402,4.032101631164551,17.276658805700073,16.740183264760642,68.76143463400409,61.28098838032793,6.47544875391759e-05,0.0898760333657264,0,0,0
5765,196134.0560771395,2010-09-16 20:26:26,4322.198108592603,2,17,0.5499359965324402,4.034529685974121,17.28124443788058,16.740183264760642,68.77993027330496,61.28098838032793,6.47544875391759e-05,0.0898760333657264,0,0,0
5766,196164.07140972235,2010-09-16 20:26:56,4352.213441185498,2,17,0.5501165986061096,4.036957740783691,17.285830050168357,16.740183264760642,68.79843649859271,61.28098838032793,3.23295607813634e-05,0.0898760333657264,0,0,0
5767,196194.086646055,2010-09-16 20:27:26,4382.228677518113,2,17,0.5499359965324402,4.039224147796631,17.290415729109693,16.740183264760642,68.81695382487749,61.28098838032793,3.23295607813634e-05,0.0898760333657264,0,0,0
5768,196224.10192638243,2010-09-16 20:27:57,4412.243957840533,2,17,0.5499359965324402,4.041652679443359,17.29500138525619,16.740183264760642,68.83548191332119,61.28098838032793,6.47544875391759e-05,0.0898760333657264,0,0,0
5769,196254.1173377018,2010-09-16 20:28:27,4442.259369159941,2,17,0.5501165986061096,4.04408073425293,17.299586984318353,16.740183264760642,68.85402088019133,61.28098838032793,9.70840483205393e-05,0.0898760333657264,0,0,0
5770,196284.13254755337,2010-09-16 20:28:57,4472.274579001431,2,17,0.5501165986061096,4.046509265899658,17.304172608474573,16.740183264760642,68.87257114908549,61.28098838032793,6.47544875391759e-05,0.0898760333657264,0,0,0
5771,196314.1477914549,2010-09-16 20:29:27,4502.289822933014,2,17,0.5499359965324402,4.0489373207092285,17.30875820376649,16.740183264760642,68.89113257226035,61.28098838032793,6.47544875391759e-05,0.0898760333657264,0,0,0
5772,196344.16307409303,2010-09-16 20:29:57,4532.305105546151,2,17,0.550297200679779,4.051527500152588,17.313343936097056,16.740183264760642,68.90970588644909,61.28098838032793,6.47544875391759e-05,0.0898760333657264,0,0,0
5773,196374.1783718089,2010-09-16 20:30:27,4562.320403256976,2,17,0.5499359965324402,4.053956031799316,17.31792964296667,16.740183264760642,68.92829060053705,61.28098838032793,6.47544875391759e-05,0.0898760333657264,0,0,0
5774,196404.19365779543,2010-09-16 20:30:57,4592.335689243535,2,17,0.5501165986061096,4.056707859039307,17.322515346643648,16.740183264760642,68.94688689694975,61.28098838032793,0.0001295089750783,0.0898760333657264,0,0,0
5775,196434.2089220177,2010-09-16 20:31:27,4622.350953470778,2,17,0.5499359965324402,4.059136390686035,17.32710108923304,16.740183264760642,68.96549512307934,61.28098838032793,6.47544875391759e-05,0.0898760333657264,0,0,0
5776,196464.2241999792,2010-09-16 20:31:57,4652.366231427293,2,17,0.5499359965324402,4.0615644454956055,17.331686837190947,16.740183264760642,68.98411496645257,61.28098838032793,6.47544875391759e-05,0.0898760333657264,0,0,0
5777,196494.2394878154,2010-09-16 20:32:27,4682.381519263469,2,17,0.5499359965324402,4.064154624938965,17.336272511886385,16.740183264760642,69.00274634588807,61.28098838032793,3.23295607813634e-05,0.0898760333657264,0,0,0
5778,196524.25478290467,2010-09-16 20:32:57,4712.396814367787,2,17,0.5497553944587708,4.066744804382324,17.34085816374349,16.740183264760642,69.0213897007001,61.28098838032793,0.0,0.0898760333657264,0,0,0
5779,196554.27017968777,2010-09-16 20:33:27,4742.412211150911,2,17,0.5497553944587708,4.069497108459473,17.345443712338877,16.740183264760642,69.04004490872406,61.28098838032793,6.47544875391759e-05,0.0898760333657264,0,0,0
5780,196584.28548997,2010-09-16 20:33:57,4772.427521433116,2,17,0.5499359965324402,4.072248935699463,17.350029113813342,16.740183264760642,69.05871184969801,61.28098838032793,3.23295607813634e-05,0.0898760333657264,0,0,0
5781,196614.3006606487,2010-09-16 20:34:27,4802.442692096811,2,17,0.5499359965324402,4.075001239776611,17.354614556559373,16.740183264760642,69.07739137668429,61.28098838032793,6.47544875391759e-05,0.0898760333657264,0,0,0
5782,196644.31592325697,2010-09-16 20:34:57,4832.457954720051,2,17,0.5497553944587708,4.077591419219971,17.359199980835832,16.740183264760642,69.09608330497313,61.28098838032793,6.47544875391759e-05,0.0898760333657264,0,0,0
5783,196674.33117524863,2010-09-16 20:35:27,4862.473206696716,2,17,0.5499359965324402,4.08050537109375,17.363785464605495,16.740183264760642,69.11478805055165,61.28098838032793,6.47544875391759e-05,0.0898760333657264,0,0,0
5784,196704.34651272872,2010-09-16 20:35:57,4892.488544181822,2,17,0.5499359965324402,4.08325719833374,17.36837113923603,16.740183264760642,69.13350634743807,61.28098838032793,3.23295607813634e-05,0.0898760333657264,0,0,0
5785,196734.3619194366,2010-09-16 20:36:27,4922.503950899746,2,17,0.5501165986061096,4.086009502410889,17.37295678440586,16.740183264760642,69.15223747304677,61.28098838032793,3.24249267578125e-05,0.0898760333657264,0,0,0
5786,196764.3771180651,2010-09-16 20:36:57,4952.5191495132085,2,17,0.5499359965324402,4.089085102081299,17.377542370205486,16.740183264760642,69.17098139808704,61.28098838032793,9.70840483205393e-05,0.0898760333657264,0,0,0
5787,196794.39238904425,2010-09-16 20:37:27,4982.534420497319,2,17,0.5499359965324402,4.091837406158447,17.382128005405644,16.740183264760642,69.1897387012573,61.28098838032793,6.47544875391759e-05,0.0898760333657264,0,0,0
5788,196824.4077818725,2010-09-16 20:37:57,5012.549813330584,2,17,0.5499359965324402,4.094751358032227,17.386713593516404,16.740183264760642,69.20850899202964,61.28098838032793,3.24249267578125e-05,0.0898760333657264,0,0,0
5789,196854.42306491165,2010-09-16 20:38:27,5042.565096364772,2,17,0.5499359965324402,4.097665309906006,17.39129923207596,16.740183264760642,69.22729295335569,61.28098838032793,9.71794142969884e-05,0.0898760333657264,0,0,0
5790,196884.43823606652,2010-09-16 20:38:57,5072.580267529718,2,17,0.5501165986061096,4.100579261779785,17.395884882851814,16.740183264760642,69.24609048801362,61.28098838032793,6.47544875391759e-05,0.0898760333657264,0,0,0
5791,196914.4536509649,2010-09-16 20:39:27,5102.595682428061,2,17,0.5499359965324402,4.103654861450195,17.400470546724126,16.740183264760642,69.26490167035497,61.28098838032793,6.47544875391759e-05,0.0898760333657264,0,0,0
5792,196944.46880841564,2010-09-16 20:39:57,5132.610839868749,2,17,0.5501165986061096,4.106568813323975,17.40505617706211,16.740183264760642,69.28372653329596,61.28098838032793,9.70840483205393e-05,0.0898760333657264,0,0,0
5793,196974.48409284832,2010-09-16 20:40:27,5162.626124301429,2,17,0.5499359965324402,4.109644889831543,17.409641799784957,16.740183264760642,69.3025652062243,61.28098838032793,3.24249267578125e-05,0.0898760333657264,0,0,0
5794,197004.4996054606,2010-09-16 20:40:57,5192.6416369136805,2,17,0.5499359965324402,4.112882614135742,17.414227396782252,16.740183264760642,69.32141775999068,61.28098838032793,0.0001295089750783,0.0898760333657264,0,0,0
5795,197034.51484678063,2010-09-16 20:41:27,5222.656878238757,2,17,0.5501165986061096,4.115958213806152,17.418813016924446,16.740183264760642,69.34028451229304,61.28098838032793,9.71794142969884e-05,0.0898760333657264,0,0,0
5796,197064.53011002543,2010-09-16 20:41:57,5252.672141493575,2,17,0.5499359965324402,4.118872165679932,17.423398669963245,16.740183264760642,69.35916567916286,61.28098838032793,3.24249267578125e-05,0.0898760333657264,0,0,0
5797,197094.54527409768,2010-09-16 20:42:27,5282.687305550779,2,17,0.5499359965324402,4.122109889984131,17.427984375797895,16.740183264760642,69.37806147549932,61.28098838032793,6.47544875391759e-05,0.0898760333657264,0,0,0
5798,197124.56071052977,2010-09-16 20:42:57,5312.702742078111,2,17,0.5499359965324402,4.12534761428833,17.432570077767288,16.740183264760642,69.39697168645647,61.28098838032793,6.47544875391759e-05,0.0898760333657264,0,0,0
5799,197154.57582679263,2010-09-16 20:43:27,5342.717858245776,2,17,0.5499359965324402,4.128585338592529,17.43715572147599,16.740183264760642,69.41589627508756,61.28098838032793,0.0001295089750783,0.0898760333657264,0,0,0
5800,197184.5911190649,2010-09-16 20:43:57,5372.733150518024,2,17,0.5497553944587708,4.131499290466309,17.441741329866414,16.740183264760642,69.43483548508712,61.28098838032793,0.0,0.0898760333657264,0,0,0
5801,197214.6064380739,2010-09-16 20:44:27,5402.748469527011,2,17,0.5499359965324402,4.135060787200928,17.446327034765474,16.740183264760642,69.45379000193125,61.28098838032793,9.71794142969884e-05,0.0898760333657264,0,0,0
5802,197244.6217104264,2010-09-16 20:44:57,5432.7637418795375,2,17,0.5497553944587708,4.138298511505127,17.450912751443774,16.740183264760642,69.47275964893588,61.28098838032793,6.47544875391759e-05,0.0898760333657264,0,0,0
5803,197274.63711518943,2010-09-16 20:45:27,5462.779146652606,2,17,0.5501165986061096,4.141536235809326,17.455498491667814,16.740183264760642,69.49174452858749,61.28098838032793,6.47544875391759e-05,0.0898760333657264,0,0,0
5804,197304.65281148025,2010-09-16 20:45:57,5492.794842933322,2,17,0.5501165986061096,4.144935607910156,17.460084229772885,16.740183264760642,69.5107447158868,61.28098838032793,9.70840483205393e-05,0.0898760333657264,0,0,0
5805,197334.66757279716,2010-09-16 20:46:27,5522.809604250224,2,17,0.5499359965324402,4.1483354568481445,17.464669778880758,16.740183264760642,69.52975987695929,61.28098838032793,6.47544875391759e-05,0.0898760333657264,0,0,0
5806,197364.68287442773,2010-09-16 20:46:57,5552.824905880833,2,17,0.5499359965324402,4.151734828948975,17.46925547924563,16.740183264760642,69.5487911623061,61.28098838032793,3.23295607813634e-05,0.0898760333657264,0,0,0
5807,197394.69815169752,2010-09-16 20:47:27,5582.840183160659,2,17,0.5501165986061096,4.155458450317383,17.473841178570044,16.740183264760642,69.56783810507129,61.28098838032793,0.0001295089750783,0.0898760333657264,0,0,0
5808,197424.7134607266,2010-09-16 20:47:57,5612.855492184723,2,17,0.5499359965324402,4.158696174621582,17.478426855354968,16.740183264760642,69.58690071153295,61.28098838032793,6.47544875391759e-05,0.0898760333657264,0,0,0
5809,197454.728863635,2010-09-16 20:48:27,5642.870895098149,2,17,0.5499359965324402,4.162257671356201,17.48301248040285,16.740183264760642,69.60597894558664,61.28098838032793,9.71794142969884e-05,0.0898760333657264,0,0,0
5810,197484.7440436721,2010-09-16 20:48:57,5672.886075125217,2,17,0.5501165986061096,4.16581916809082,17.48759812921939,16.740183264760642,69.62507331697452,61.28098838032793,0.0001295089750783,0.0898760333657264,0,0,0
5811,197514.7593833928,2010-09-16 20:49:27,5702.901414845904,2,17,0.5499359965324402,4.16921854019165,17.492183745402297,16.740183264760642,69.64418369378552,61.28098838032793,9.70840483205393e-05,0.0898760333657264,0,0,0
5812,197544.77474533892,2010-09-16 20:49:57,5732.91677679207,2,17,0.5499359965324402,4.1727800369262695,17.49676944782651,16.740183264760642,69.66331071282445,61.28098838032793,9.70840483205393e-05,0.0898760333657264,0,0,0
5813,197574.78990479468,2010-09-16 20:50:27,5762.931936247787,2,17,0.5501165986061096,4.176503658294678,17.501355080541085,16.740183264760642,69.68245381967031,61.28098838032793,0.0001619339018361,0.0898760333657264,0,0,0
5814,197604.80521422977,2010-09-16 20:50:57,5792.947245682877,2,17,0.5499359965324402,4.179903030395508,17.50594072734532,16.740183264760642,69.70161350758603,61.28098838032793,6.47544875391759e-05,0.0898760333657264,0,0,0
5815,197634.82050561983,2010-09-16 20:51:27,5822.962537072924,2,17,0.5499359965324402,4.183626651763916,17.510526365541416,16.740183264760642,69.72078980857427,61.28098838032793,6.47544875391759e-05,0.0898760333657264,0,0,0
5816,197664.83578078932,2010-09-16 20:51:57,5852.977812242482,2,17,0.5501165986061096,4.187349796295166,17.51511201728337,16.740183264760642,69.73998291002816,61.28098838032793,9.70840483205393e-05,0.0898760333657264,0,0,0
5817,197694.8510817383,2010-09-16 20:52:27,5882.993113191389,2,17,0.5501165986061096,4.191073417663574,17.51969760637677,16.740183264760642,69.7591926620149,61.28098838032793,9.71794142969884e-05,0.0898760333657264,0,0,0
5818,197724.86637393537,2010-09-16 20:52:57,5913.00840538845,2,17,0.5499359965324402,4.194634914398193,17.524283284512947,16.740183264760642,69.77841985641335,61.28098838032793,6.47544875391759e-05,0.0898760333657264,0,0,0
5819,197754.88166518003,2010-09-16 20:53:27,5943.023696633134,2,17,0.5499359965324402,4.198519706726074,17.528868965009533,16.740183264760642,69.7976640970585,61.28098838032793,9.70840483205393e-05,0.0898760333657264,0,0,0
5820,197766.11593576777,2010-09-16 20:53:39,5954.25796722087,2,17,0.5501165986061096,4.200138568878174,17.53058531632934,16.740183264760642,69.80487138410703,61.28098838032793,0.0001618385285837,0.0898760333657264,0,0,0
5821,197796.1344749682,2010-09-16 20:54:09,30.015310477692395,3,17,0.0,4.119681358337402,17.53058531632934,16.740183264760642,69.80487138410703,61.28098838032793,-0.0003561973571777,0.0898760333657264,0,0,0
5822,197826.14975049865,2010-09-16 20:54:39,60.03058600815111,3,17,0.0,4.109644889831543,17.53058531632934,16.740183264760642,69.80487138410703,61.28098838032793,-0.0001618385285837,0.0898760333657264,0,0,0
5823,197856.16502781856,2010-09-16 20:55:09,90.04586332807662,3,17,0.0,4.103654861450195,17.53058531632934,16.740183264760642,69.80487138410703,61.28098838032793,-0.0001619339018361,0.0898760333657264,0,0,0
5824,197886.1334472941,2010-09-16 20:55:39,120.01428280862616,3,17,0.0,4.099769592285156,17.53058531632934,16.740183264760642,69.80487138410703,61.28098838032793,-9.71794142969884e-05,0.0898760333657264,0,0,0
5825,197886.1380348412,2010-09-16 20:55:39,2.551368609e-06,4,17,0.9989306926727296,4.199814796447754,17.530585317037296,16.740183264760642,69.80487138708031,61.28098838032793,0.0,0.0898760333657264,0,0,0
5826,197887.02885986245,2010-09-16 20:55:40,0.890827612771881,4,17,0.9478182196617126,4.199491024017334,17.530824498707624,16.740183264760642,69.8058758644279,61.28098838032793,-6.47544875391759e-05,0.0898760333657264,0,0,0
5827,197889.1379676349,2010-09-16 20:55:42,2.999935385250105,4,17,0.8976088762283325,4.199653148651123,17.531363952064662,16.740183264760642,69.8081413590321,61.28098838032793,-3.23295607813634e-05,0.0898760333657264,0,0,0
5828,197892.30995919387,2010-09-16 20:55:45,6.171926944179895,4,17,0.8472188711166382,4.199653148651123,17.532131544920308,16.740183264760642,69.81136495918533,61.28098838032793,3.24249267578125e-05,0.0898760333657264,0,0,0
5829,197896.59113789452,2010-09-16 20:55:49,10.453105639847156,4,17,0.7968288660049438,4.199653148651123,17.533108012997296,16.740183264760642,69.81546577706911,61.28098838032793,3.24249267578125e-05,0.0898760333657264,0,0,0
5830,197902.1381744211,2010-09-16 20:55:55,16.00014234685812,4,17,0.7468001246452332,4.199653148651123,17.53429562828285,16.740183264760642,69.82045331868365,61.28098838032793,0.0,0.0898760333657264,0,0,0
5831,197909.2316437468,2010-09-16 20:56:02,23.09361149716021,4,17,0.6964101195335388,4.199491024017334,17.535715340907252,16.740183264760642,69.82641560991675,61.28098838032793,-3.24249267578125e-05,0.0898760333657264,0,0,0
5832,197918.63778226063,2010-09-16 20:56:11,32.49975001098897,4,17,0.6463813781738281,4.199653148651123,17.537466542436928,16.740183264760642,69.8337700367997,61.28098838032793,0.0,0.0898760333657264,0,0,0
5833,197931.57500450272,2010-09-16 20:56:24,45.436972243022005,4,17,0.5961719751358032,4.199814796447754,17.539694127849213,16.740183264760642,69.84312512369246,61.28098838032793,6.47544875391759e-05,0.0898760333657264,0,0,0
5834,197950.69979469627,2010-09-16 20:56:43,64.56176243662064,4,17,0.5461432337760925,4.199491024017334,17.542719267707774,16.740183264760642,69.85582967181863,61.28098838032793,-3.24249267578125e-05,0.0898760333657264,0,0,0
5835,197982.23082654772,2010-09-16 20:57:15,96.0927942980748,4,17,0.496114432811737,4.199329376220703,17.54726513647743,16.740183264760642,69.87492071872951,61.28098838032793,-9.70840483205393e-05,0.0898760333657264,0,0,0
5836,198037.46446069103,2010-09-16 20:58:10,151.32642844137865,4,17,0.446085661649704,4.199653148651123,17.554461358033965,16.740183264760642,69.90514231643063,61.28098838032793,0.0,0.0898760333657264,0,0,0
5837,198123.9322386475,2010-09-16 20:59:37,237.79420638786817,4,17,0.3960568904876709,4.199491024017334,17.564549331851183,16.740183264760642,69.94750830887321,61.28098838032793,0.0,0.0898760333657264,0,0,0
5838,198236.82174236147,2010-09-16 21:01:29,350.6837101067665,4,17,0.3458475172519684,4.199491024017334,17.576168382153597,16.740183264760642,69.99630426544176,61.28098838032793,-6.47544875391759e-05,0.0898760333657264,0,0,0
5839,198372.2422184136,2010-09-16 21:03:45,486.1041861739496,4,17,0.2956381440162658,4.199653148651123,17.58822688479903,16.740183264760642,70.04694571584518,61.28098838032793,0.0,0.0898760333657264,0,0,0
5840,198536.3808681103,2010-09-16 21:06:29,650.2428358506426,4,17,0.2456093728542328,4.199653148651123,17.6005498750533,16.740183264760642,70.09869794042967,61.28098838032793,-3.23295607813634e-05,0.0898760333657264,0,0,0
5841,198738.55065987865,2010-09-16 21:09:51,852.4126276189411,4,17,0.1952193826436996,4.199491024017334,17.61289723559254,16.740183264760642,70.15055252548387,61.28098838032793,-6.47544875391759e-05,0.0898760333657264,0,0,0
5842,199007.48509694808,2010-09-16 21:14:20,1121.3470646883952,4,17,0.1451906114816665,4.199653148651123,17.625553410874232,16.740183264760642,70.20370396883176,61.28098838032793,-3.23295607813634e-05,0.0898760333657264,0,0,0
5843,199405.27765488657,2010-09-16 21:20:58,1519.1396226268648,4,17,0.095161847770214,4.199491024017334,17.638661228209944,16.740183264760642,70.2587521461977,61.28098838032793,-3.24249267578125e-05,0.0898760333657264,0,0,0
5844,200055.39578699743,2010-09-16 21:31:48,2169.257754833025,4,17,0.0498289167881011,4.199491024017334,17.651329452844614,16.740183264760642,70.31195416728039,61.28098838032793,0.0,0.0898760333657264,0,0,0
5845,200085.40773575832,2010-09-16 21:32:18,30.015146974563432,5,17,0.0,4.192044734954834,17.651329452844614,16.740183264760642,70.31195416728039,61.28098838032793,-6.47544875391759e-05,0.0898760333657264,0,0,0
5846,200115.4074119203,2010-09-16 21:32:48,60.014823136598665,5,17,0.0,4.191235065460205,17.651329452844614,16.740183264760642,70.31195416728039,61.28098838032793,0.0,0.0898760333657264,0,0,0
5847,200115.59266479817,2010-09-16 21:32:49,0.18765828895975,6,17,-1.9243103452026844e-05,4.191073417663574,17.651329452844614,16.740183265763733,70.31195416728039,61.28098838453196,0.0,0.0914954170584678,0,0,0
5848,200120.42056057372,2010-09-16 21:32:53,5.015554054543842,6,17,0.0005225847125984,4.191073417663574,17.651330052223212,16.74018326584657,70.31195667934982,61.28098838487914,-3.23295607813634e-05,0.0914954170584678,0,0,0
5849,200150.43337935585,2010-09-16 21:33:23,30.015165180007017,7,17,-1.0997490882873535,4.025302410125732,17.651330052223212,16.74935250300888,70.31195667934982,61.31808534253975,-0.0008741378551349,0.0914954170584678,0,0,0
5850,200180.44883654977,2010-09-16 21:33:53,60.03062238896322,7,17,-1.099929690361023,4.0000481605529785,17.651330052223212,16.758521841841585,70.31195667934982,61.35487110780467,-0.0005827903514727,0.0914954170584678,0,0,0
5851,200210.46402860683,2010-09-16 21:34:23,90.04581443102205,7,17,-1.0997490882873535,3.9830501079559326,17.651330052223212,16.767690896204325,70.31195667934982,61.3914659164476,-0.0003885269106831,0.0914954170584678,0,0,0
5852,200240.4793342124,2010-09-16 21:34:54,120.06112003655278,7,17,-1.0997490882873535,3.969613552093506,17.651330052223212,16.776859960999264,70.31195667934982,61.42792282803124,-0.0003237724304199,0.0914954170584678,0,0,0
5853,200270.4946351212,2010-09-16 21:35:24,150.0764209453598,7,17,-1.0997490882873535,3.9584434032440186,17.651330052223212,16.78602900724851,70.31195667934982,61.46426820701022,-0.0002590179501567,0.0914954170584678,0,0,0
5854,200300.5099505362,2010-09-16 21:35:54,180.09173636037647,7,17,-1.1001102924346924,3.948082685470581,17.651330052223212,16.795198042170153,70.31195667934982,61.500516578004245,-0.0003237724304199,0.0914954170584678,0,0,0
5855,200330.52526357528,2010-09-16 21:36:24,210.1070493994625,7,17,-1.099568486213684,3.939178943634033,17.651330052223212,16.80436713085513,70.31195667934982,61.53667694731481,-0.0001942634553415,0.0914954170584678,0,0,0
5856,200360.54055415836,2010-09-16 21:36:54,240.1223399824948,7,17,-1.1001102924346924,3.930275201797485,17.651330052223212,16.81353622334535,70.31195667934982,61.57275435108949,-0.0001942634553415,0.0914954170584678,0,0,0
5857,200390.5558506812,2010-09-16 21:37:24,270.1376365103663,7,17,-1.099929690361023,3.921695232391357,17.651330052223212,16.82270536174582,70.31195667934982,61.60875254285802,-0.0002590179501567,0.0914954170584678,0,0,0
5858,200420.5711668631,2010-09-16 21:37:54,300.1529526872848,7,17,-1.099568486213684,3.913762807846069,17.651330052223212,16.83187446231875,70.31195667934982,61.64467406670824,-0.0001942634553415,0.0914954170584678,0,0,0
5859,200450.5868261214,2010-09-16 21:38:24,330.1686119806748,7,17,-1.099568486213684,3.9056687355041504,17.651330052223212,16.841043658715385,70.31195667934982,61.68052146517788,-0.0001942634553415,0.0914954170584678,0,0,0
5860,200480.60175663567,2010-09-16 21:38:54,360.18354245983244,7,17,-1.099568486213684,3.8977363109588623,17.651330052223212,16.85021258461572,70.31195667934982,61.71629491790886,-0.0002266406954731,0.0914954170584678,0,0,0
5861,200510.6170566773,2010-09-16 21:39:24,390.1988425064874,7,17,-1.0997490882873535,3.889965772628784,17.651330052223212,16.859381662890137,70.31195667934982,61.75199786580299,-0.0001942634553415,0.0914954170584678,0,0,0
5862,200540.63238528025,2010-09-16 21:39:54,420.2141711094232,7,17,-1.099929690361023,3.882519006729126,17.651330052223212,16.86855079551686,70.31195667934982,61.78763087139605,-0.0001942634553415,0.0914954170584678,0,0,0
5863,200570.64767080065,2010-09-16 21:40:24,450.2294566248058,7,17,-1.0997490882873535,3.875072240829468,17.651330052223212,16.877719963558693,70.31195667934982,61.823195003381166,-0.0001618862152099,0.0914954170584678,0,0,0
5864,200600.66311176904,2010-09-16 21:40:54,480.2448975982356,7,17,-1.0997490882873535,3.8676254749298096,17.651330052223212,16.886889066460835,70.31195667934982,61.858690859739774,-0.0001942634553415,0.0914954170584678,0,0,0
5865,200630.67828308936,2010-09-16 21:41:24,510.2600689235823,7,17,-1.0997490882873535,3.860340595245361,17.651330052223212,16.896058185038648,70.31195667934982,61.89411989942305,-0.0001942634553415,0.0914954170584678,0,0,0
5866,200660.69364420348,2010-09-16 21:41:54,540.275430057721,7,17,-1.099568486213684,3.853055715560913,17.651330052223212,16.90522736720806,70.31195667934982,61.92948294089216,-0.0002266406954731,0.0914954170584678,0,0,0
5867,200690.7089134984,2010-09-16 21:42:24,570.2906993275523,7,17,-1.0997490882873535,3.846256494522095,17.651330052223212,16.91439651667825,70.31195667934982,61.96478057058888,-0.0001618862152099,0.0914954170584678,0,0,0
5868,200720.7242114247,2010-09-16 21:42:54,600.305997258927,7,17,-1.099929690361023,3.839133501052856,17.651330052223212,16.923565692541374,70.31195667934982,62.00001384514798,-0.0001942634553415,0.0914954170584678,0,0,0
5869,200750.7395480176,2010-09-16 21:43:24,630.3213339420322,7,17,-1.0997490882873535,3.832334518432617,17.651330052223212,16.932734840753994,70.31195667934982,62.03518365040906,-0.0001618862152099,0.0914954170584678,0,0,0
5870,200780.75480933252,2010-09-16 21:43:54,660.3365951667816,7,17,-1.0997490882873535,3.825535297393799,17.651330052223212,16.941903989684548,70.31195667934982,62.07029143272151,-0.0001942634553415,0.0914954170584678,0,0,0
5871,200810.77023345395,2010-09-16 21:44:24,690.3520192781211,7,17,-1.0997490882873535,3.8190598487854,17.651330052223212,16.951073262362,70.31195667934982,62.10533840146967,-0.0001618862152099,0.0914954170584678,0,0,0
5872,200840.7854021377,2010-09-16 21:44:54,720.367187961874,7,17,-1.0993878841400146,3.812260627746582,17.651330052223212,16.96024240059338,70.31195667934982,62.14032451987023,-0.0001942634553415,0.0914954170584678,0,0,0
5873,200870.80070145256,2010-09-16 21:45:24,750.3824872767021,7,17,-1.0997490882873535,3.805785179138184,17.651330052223212,16.96941157232396,70.31195667934982,62.17525090165842,-0.0001942634553415,0.0914954170584678,0,0,0
5874,200900.81601577983,2010-09-16 21:45:54,780.3978016140288,7,17,-1.0997490882873535,3.799633502960205,17.651330052223212,16.978580773864575,70.31195667934982,62.21011909344658,-0.0001618862152099,0.0914954170584678,0,0,0
5875,200930.83131189668,2010-09-16 21:46:24,810.4130977258618,7,17,-1.0997490882873535,3.7934818267822266,17.651330052223212,16.987749962040876,70.31195667934982,62.24493014452915,-0.0001295089750783,0.0914954170584678,0,0,0
5876,200960.84667860472,2010-09-16 21:46:54,840.4284644489513,7,17,-1.0997490882873535,3.787492036819458,17.651330052223212,16.996919182043005,70.31195667934982,62.27968507286386,-0.0001618862152099,0.0914954170584678,0,0,0
5877,200990.86210440527,2010-09-16 21:47:24,870.4438903447451,7,17,-1.099929690361023,3.7811784744262695,17.651330052223212,17.00608841564859,70.31195667934982,62.31438498119447,-0.0001942634553415,0.0914954170584678,0,0,0
5878,201020.8774708126,2010-09-16 21:47:54,900.4592566367587,7,17,-1.0997490882873535,3.775512456893921,17.651330052223212,17.015257666347107,70.31195667934982,62.3490309698584,-0.0001942634553415,0.0914954170584678,0,0,0
5879,201050.8925715116,2010-09-16 21:48:24,930.4743575413244,7,17,-1.099929690361023,3.769846439361572,17.651330052223212,17.02442681181489,70.31195667934982,62.38362356780262,-0.0001295089750783,0.0914954170584678,0,0,0
5880,201080.90783128777,2010-09-16 21:48:54,960.4896171219698,7,17,-1.099929690361023,3.764180421829224,17.651330052223212,17.03359607090483,70.31195667934982,62.41816466637503,-0.0001618862152099,0.0914954170584678,0,0,0
5881,201110.9231317204,2010-09-16 21:49:24,990.504917554588,7,17,-1.0997490882873535,3.758838176727295,17.651330052223212,17.042765289163025,70.31195667934982,62.45265471287939,-0.0001618862152099,0.0914954170584678,0,0,0
5882,201140.93846053383,2010-09-16 21:49:54,1020.5202463580245,7,17,-1.0997490882873535,3.753334045410156,17.651330052223212,17.05193449550856,70.31195667934982,62.4870947752663,-0.0001295089750783,0.0914954170584678,0,0,0
5883,201170.95376826468,2010-09-16 21:50:24,1050.5355540988853,7,17,-1.0997490882873535,3.7481539249420166,17.651330052223212,17.06110366589048,70.31195667934982,62.521485568174704,-9.713172767078504e-05,0.0914954170584678,0,0,0
5884,201200.9690569981,2010-09-16 21:50:54,1080.5508428222756,7,17,-1.0997490882873535,3.742973566055298,17.651330052223212,17.070272820548936,70.31195667934982,62.55582810619501,-6.47544875391759e-05,0.0914954170584678,0,0,0
5885,201230.9843558317,2010-09-16 21:51:24,1110.5661416559026,7,17,-1.099568486213684,3.737631320953369,17.651330052223212,17.079442016186462,70.31195667934982,62.59012319590446,-0.0001295089750783,0.0914954170584678,0,0,0
5886,201260.9996646804,2010-09-16 21:51:54,1140.581450504529,7,17,-1.0997490882873535,3.732612848281861,17.651330052223212,17.08861122248781,70.31195667934982,62.62437177383871,-0.0001618862152099,0.0914954170584678,0,0,0
5887,201291.014959504,2010-09-16 21:52:24,1170.596745328146,7,17,-1.099568486213684,3.727918148040772,17.651330052223212,17.097780415188105,70.31195667934982,62.6585747080842,-9.713172767078504e-05,0.0914954170584678,0,0,0
5888,201321.0306567471,2010-09-16 21:52:54,1200.6124425762769,7,17,-1.099568486213684,3.7230615615844727,17.651330052223212,17.10694963314157,70.31195667934982,62.69273336026415,-0.0001295089750783,0.0914954170584678,0,0,0
5889,201351.04557668493,2010-09-16 21:53:24,1230.6273625091094,7,17,-1.0997490882873535,3.718043088912964,17.651330052223212,17.11611877047537,70.31195667934982,62.72684740201078,-0.0001295089750783,0.0914954170584678,0,0,0
5890,201381.06090576405,2010-09-16 21:53:54,1260.6426915932464,7,17,-1.099568486213684,3.713510274887085,17.651330052223212,17.125288014162102,70.31195667934982,62.76091830577273,-9.713172767078504e-05,0.0914954170584678,0,0,0
5891,201411.07617533964,2010-09-16 21:54:24,1290.657961163828,7,17,-1.0997490882873535,3.708815574645996,17.651330052223212,17.134457229892636,70.31195667934982,62.794946439200025,-0.0001295089750783,0.0914954170584678,0,0,0
5892,201441.0914870454,2010-09-16 21:54:54,1320.6732728745983,7,17,-1.0997490882873535,3.7041208744049072,17.651330052223212,17.143626419747804,70.31195667934982,62.82893231475113,-0.0001618862152099,0.0914954170584678,0,0,0
5893,201471.10679185897,2010-09-16 21:55:24,1350.6885776881525,7,17,-1.0997490882873535,3.6997499465942383,17.651330052223212,17.152795574427763,70.31195667934982,62.86287637831262,-9.713172767078504e-05,0.0914954170584678,0,0,0
5894,201501.12210037172,2010-09-16 21:55:54,1380.7038861959277,7,17,-1.099929690361023,3.69521713256836,17.651330052223212,17.161964811681422,70.31195667934982,62.89677986860284,-0.0001618862152099,0.0914954170584678,0,0,0
5895,201531.1374016064,2010-09-16 21:56:24,1410.719187430548,7,17,-1.1001102924346924,3.690684318542481,17.651330052223212,17.171134061182368,70.31195667934982,62.93064319540416,-0.0001618862152099,0.0914954170584678,0,0,0
5896,201561.1528353468,2010-09-16 21:56:54,1440.734621180948,7,17,-1.0997490882873535,3.686637163162232,17.651330052223212,17.180303335227666,70.31195667934982,62.96446676982669,-0.0001618862152099,0.0914954170584678,0,0,0
5897,201591.1681555687,2010-09-16 21:57:24,1470.749941407976,7,17,-1.099929690361023,3.6822662353515625,17.651330052223212,17.189472540615665,70.31195667934982,62.998250845911,-0.0001295089750783,0.0914954170584678,0,0,0
5898,201621.1834557708,2010-09-16 21:57:54,1500.7652416050064,7,17,-1.0997490882873535,3.6782190799713135,17.651330052223212,17.198641885312576,70.31195667934982,63.0319968229647,-9.713172767078504e-05,0.0914954170584678,0,0,0
5899,201651.19874588263,2010-09-16 21:58:24,1530.7805317268874,7,17,-1.0997490882873535,3.6740100383758554,17.651330052223212,17.207811134547175,70.31195667934982,63.06570437203525,-9.713172767078504e-05,0.0914954170584678,0,0,0
5900,201681.21394525803,2010-09-16 21:58:54,1560.795731087214,7,17,-1.0997490882873535,3.6701250076293945,17.651330052223212,17.216980341628915,70.31195667934982,63.09937418453603,-6.47544875391759e-05,0.0914954170584678,0,0,0
5901,201711.22937534927,2010-09-16 21:59:24,1590.8111611784802,7,17,-1.0997490882873535,3.6660778522491455,17.651330052223212,17.22614962951226,70.31195667934982,63.13300745454664,-6.47544875391759e-05,0.0914954170584678,0,0,0
5902,201741.24457724096,2010-09-16 21:59:54,1620.8263630751376,7,17,-1.099929690361023,3.6621925830841056,17.651330052223212,17.235318854326373,70.31195667934982,63.16660430552064,-6.47544875391759e-05,0.0914954170584678,0,0,0
5903,201771.2598693077,2010-09-16 22:00:24,1650.8416551368607,7,17,-1.0997490882873535,3.6583073139190674,17.651330052223212,17.244488122286644,70.31195667934982,63.20016543963557,-9.713172767078504e-05,0.0914954170584678,0,0,0
5904,201801.27517169013,2010-09-16 22:00:54,1680.856957524359,7,17,-1.0997490882873535,3.654422044754028,17.651330052223212,17.25365746148639,70.31195667934982,63.2336917337482,-9.713172767078504e-05,0.0914954170584678,0,0,0
5905,201831.29043197256,2010-09-16 22:01:24,1710.872217796731,7,17,-1.0997490882873535,3.650860548019409,17.651330052223212,17.262826728115193,70.31195667934982,63.26718330988023,-9.713172767078504e-05,0.0914954170584678,0,0,0
5906,201861.30576188376,2010-09-16 22:01:54,1740.8875477179574,7,17,-1.0997490882873535,3.64713716506958,17.651330052223212,17.27199597289387,70.31195667934982,63.30064093952334,-6.47544875391759e-05,0.0914954170584678,0,0,0
5907,201891.32104244176,2010-09-16 22:02:24,1770.9028282759657,7,17,-1.099929690361023,3.643413782119751,17.651330052223212,17.281165177810234,70.31195667934982,63.334064649317526,-9.713172767078504e-05,0.0914954170584678,0,0,0
5908,201921.33635121016,2010-09-16 22:02:54,1800.9181370343665,7,17,-1.0997490882873535,3.640014171600342,17.651330052223212,17.290334347424785,70.31195667934982,63.36745619568963,-9.713172767078504e-05,0.0914954170584678,0,0,0
5909,201951.3516607656,2010-09-16 22:03:24,1830.9334465947693,7,17,-1.099929690361023,3.636452674865722,17.651330052223212,17.29950357135884,70.31195667934982,63.40081610552458,-0.0001295089750783,0.0914954170584678,0,0,0
5910,201981.36716476636,2010-09-16 22:03:54,1860.9489505905128,7,17,-1.0997490882873535,3.633214950561523,17.651330052223212,17.308672849191563,70.31195667934982,63.434145261295214,-9.713172767078504e-05,0.0914954170584678,0,0,0
5911,202011.382420352,2010-09-16 22:04:24,1890.9642061811985,7,17,-1.0997490882873535,3.630139112472534,17.651330052223212,17.317842055198135,70.31195667934982,63.46744405864105,-6.47544875391759e-05,0.0914954170584678,0,0,0
5912,202041.3975729406,2010-09-16 22:04:54,1920.979358774788,7,17,-1.0997490882873535,3.626739501953125,17.651330052223212,17.327011259308815,70.31195667934982,63.5007132267523,-9.713172767078504e-05,0.0914954170584678,0,0,0
5913,202071.41300654065,2010-09-16 22:05:24,1950.9947923848376,7,17,-1.099568486213684,3.623663663864136,17.651330052223212,17.33618047471783,70.31195667934982,63.53395356119307,-9.713172767078504e-05,0.0914954170584678,0,0,0
5914,202101.4283355997,2010-09-16 22:05:54,1981.010121433887,7,17,-1.0997490882873535,3.6205878257751465,17.651330052223212,17.345349697402174,70.31195667934982,63.56716568572328,-9.713172767078504e-05,0.0914954170584678,0,0,0
5915,202131.44349459925,2010-09-16 22:06:24,2011.0252804284544,7,17,-1.0997490882873535,3.617511987686157,17.651330052223212,17.354518937782817,70.31195667934982,63.60035024851696,-0.0001295089750783,0.0914954170584678,0,0,0
5916,202161.45880381385,2010-09-16 22:06:55,2041.0405896379807,7,17,-1.099929690361023,3.614598035812378,17.651330052223212,17.363688200940967,70.31195667934982,63.63350787871093,-9.713172767078504e-05,0.0914954170584678,0,0,0
5917,202191.4741079005,2010-09-16 22:07:25,2071.0558937297333,7,17,-1.0997490882873535,3.6118459701538086,17.651330052223212,17.37285737941643,70.31195667934982,63.66663893657862,-6.47544875391759e-05,0.0914954170584678,0,0,0
5918,202221.4894394609,2010-09-16 22:07:55,2101.0712252850385,7,17,-1.0997490882873535,3.6090939044952393,17.651330052223212,17.382026643624457,70.31195667934982,63.69974438672947,-6.47544875391759e-05,0.0914954170584678,0,0,0
5919,202251.50472545743,2010-09-16 22:08:25,2131.086511291647,7,17,-1.0997490882873535,3.60617995262146,17.651330052223212,17.391195851432837,70.31195667934982,63.73282395014928,-6.47544875391759e-05,0.0914954170584678,0,0,0
5920,202281.52002761432,2010-09-16 22:08:55,2161.1018134385445,7,17,-1.0997490882873535,3.6035897731781006,17.651330052223212,17.400365015494607,70.31195667934982,63.7658778027155,-6.47544875391759e-05,0.0914954170584678,0,0,0
5921,202311.5354240466,2010-09-16 22:09:25,2191.117209996105,7,17,-1.0997490882873535,3.6008377075195312,17.651330052223212,17.40953419912354,70.31195667934982,63.79890687395507,-6.47544875391759e-05,0.0914954170584678,0,0,0
5922,202341.5506537276,2010-09-16 22:09:55,2221.132439551804,7,17,-1.099568486213684,3.598247528076172,17.651330052223212,17.41870306431133,70.31195667934982,63.83190981131794,-3.237724376958795e-05,0.0914954170584678,0,0,0
5923,202371.56594303247,2010-09-16 22:10:25,2251.1477288566466,7,17,-1.099568486213684,3.5954954624176025,17.651330052223212,17.427871606205375,70.31195667934982,63.86488685684845,-6.47544875391759e-05,0.0914954170584678,0,0,0
5924,202401.58125357036,2010-09-16 22:10:55,2281.1630393944884,7,17,-1.099568486213684,3.5925815105438232,17.651330052223212,17.437040180175224,70.31195667934982,63.8978392376716,-6.47544875391759e-05,0.0914954170584678,0,0,0
5925,202431.5965758725,2010-09-16 22:11:25,2311.178361696697,7,17,-1.0997490882873535,3.589829683303833,17.651330052223212,17.44620883265385,70.31195667934982,63.93076697902265,-9.713172767078504e-05,0.0914954170584678,0,0,0
5926,202461.6118743252,2010-09-16 22:11:55,2341.1936601543853,7,17,-1.0997490882873535,3.5872395038604736,17.651330052223212,17.455377798763944,70.31195667934982,63.9636706631275,-6.47544875391759e-05,0.0914954170584678,0,0,0
5927,202491.6273037598,2010-09-16 22:12:25,2371.209089594025,7,17,-1.0997490882873535,3.5843255519866943,17.651330052223212,17.46454718773789,70.31195667934982,63.99655032905248,-6.47544875391759e-05,0.0914954170584678,0,0,0
5928,202521.6426086636,2010-09-16 22:12:55,2401.2243944978045,7,17,-1.0997490882873535,3.581573486328125,17.651330052223212,17.47371653927559,70.31195667934982,64.02940405888732,-6.47544875391759e-05,0.0914954170584678,0,0,0
5929,202551.6579211664,2010-09-16 22:13:25,2431.239707015589,7,17,-1.0997490882873535,3.578821420669556,17.651330052223212,17.48288583353977,70.31195667934982,64.06223160761836,-6.47544875391759e-05,0.0914954170584678,0,0,0
5930,202581.6734709464,2010-09-16 22:13:55,2461.255256780579,7,17,-1.0997490882873535,3.5757455825805664,17.651330052223212,17.492055197016427,70.31195667934982,64.09503308964368,-9.713172767078504e-05,0.0914954170584678,0,0,0
5931,202611.68840288417,2010-09-16 22:14:25,2491.270188718377,7,17,-1.099568486213684,3.572993516921997,17.651330052223212,17.501224362254135,70.31195667934982,64.12780689302474,-6.47544875391759e-05,0.0914954170584678,0,0,0
5932,202641.70388938123,2010-09-16 22:14:55,2521.285675210429,7,17,-1.0997490882873535,3.569755792617798,17.651330052223212,17.51039368969877,70.31195667934982,64.1605539919948,-0.0001295089750783,0.0914954170584678,0,0,0
5933,202671.71902092223,2010-09-16 22:15:25,2551.3008067514684,7,17,-1.1001102924346924,3.566518068313598,17.651330052223212,17.51956290020393,70.31195667934982,64.19327250133631,-9.713172767078504e-05,0.0914954170584678,0,0,0
5934,202701.73436234225,2010-09-16 22:15:55,2581.316148261622,7,17,-1.099568486213684,3.5634422302246094,17.651330052223212,17.52873220902736,70.31195667934982,64.22596219964299,-9.713172767078504e-05,0.0914954170584678,0,0,0
5935,202731.7496410506,2010-09-16 22:16:25,2611.331426884801,7,17,-1.0997490882873535,3.56020450592041,17.651330052223212,17.537901445333198,70.31195667934982,64.25862240348371,-9.713172767078504e-05,0.0914954170584678,0,0,0
5936,202761.7649204006,2010-09-16 22:16:55,2641.3467062347936,7,17,-1.099568486213684,3.556966781616211,17.651330052223212,17.547070715048104,70.31195667934982,64.2912519593716,-6.47544875391759e-05,0.0914954170584678,0,0,0
5937,202791.7802365775,2010-09-16 22:17:25,2671.362022401687,7,17,-1.099568486213684,3.553243398666382,17.651330052223212,17.556240056604622,70.31195667934982,64.32385002433251,-0.0001618862152099,0.0914954170584678,0,0,0
5938,202821.7955526341,2010-09-16 22:17:55,2701.3773384683304,7,17,-1.0997490882873535,3.5498437881469727,17.651330052223212,17.565409387846586,70.31195667934982,64.35641530285857,-6.47544875391759e-05,0.0914954170584678,0,0,0
5939,202851.8108649364,2010-09-16 22:18:25,2731.3926507705773,7,17,-1.099568486213684,3.5459585189819336,17.651330052223212,17.574578708239752,70.31195667934982,64.38894639891055,-9.713172767078504e-05,0.0914954170584678,0,0,0
5940,202881.8261547675,2010-09-16 22:18:55,2761.407940591708,7,17,-1.0997490882873535,3.5420732498168945,17.651330052223212,17.58374803037592,70.31195667934982,64.42144233096461,-9.713172767078504e-05,0.0914954170584678,0,0,0
5941,202911.84146061368,2010-09-16 22:19:25,2791.423246437839,7,17,-1.099568486213684,3.538026094436645,17.651330052223212,17.59291735581843,70.31195667934982,64.45390171547736,-9.713172767078504e-05,0.0914954170584678,0,0,0
5942,202941.85798653023,2010-09-16 22:19:55,2821.439772529892,7,17,-1.0997490882873535,3.533655166625977,17.651330052223212,17.60208708539063,70.31195667934982,64.48632463859683,-0.0001618862152099,0.0914954170584678,0,0,0
5943,202971.87212823555,2010-09-16 22:20:25,2851.4539141649734,7,17,-1.0997490882873535,3.529284238815308,17.651330052223212,17.611256108950784,70.31195667934982,64.5187058648008,-0.0001618862152099,0.0914954170584678,0,0,0
5944,203001.88740209685,2010-09-16 22:20:55,2881.469187931028,7,17,-1.099568486213684,3.5249133110046387,17.651330052223212,17.620425385541914,70.31195667934982,64.55104758874484,-0.0001295089750783,0.0914954170584678,0,0,0
5945,203031.90269809336,2010-09-16 22:21:25,2911.4844839225607,7,17,-1.0997490882873535,3.52021861076355,17.651330052223212,17.62959471821547,70.31195667934982,64.58334657999033,-0.0001295089750783,0.0914954170584678,0,0,0
5946,203061.9180953928,2010-09-16 22:21:55,2941.499881211948,7,17,-1.099568486213684,3.515200138092041,17.651330052223212,17.638764079291327,70.31195667934982,64.61560058372183,-0.0001295089750783,0.0914954170584678,0,0,0
5947,203091.93331392092,2010-09-16 22:22:25,2971.515099745133,7,17,-1.0997490882873535,3.5095343589782715,17.651330052223212,17.64793340704696,70.31195667934982,64.64780716890859,-0.0001942634553415,0.0914954170584678,0,0,0
5948,203121.9486218122,2010-09-16 22:22:55,3001.530407636369,7,17,-1.099929690361023,3.503868341445923,17.651330052223212,17.657102716898226,70.31195667934982,64.67996266654258,-0.0001942634553415,0.0914954170584678,0,0,0
5949,203151.963933528,2010-09-16 22:23:25,3031.545719352152,7,17,-1.0997490882873535,3.4975547790527344,17.651330052223212,17.66627205982808,70.31195667934982,64.71206284200761,-0.0001942634553415,0.0914954170584678,0,0,0
5950,203181.97925115356,2010-09-16 22:23:55,3061.561036987712,7,17,-1.099929690361023,3.490593671798706,17.651330052223212,17.67544139206974,70.31195667934982,64.74410205944389,-0.0002266406954731,0.0914954170584678,0,0,0
5951,203211.99454791693,2010-09-16 22:24:25,3091.5763337411463,7,17,-1.0997490882873535,3.482499361038208,17.651330052223212,17.68461068752529,70.31195667934982,64.77607235977781,-0.0002266406954731,0.0914954170584678,0,0,0
5952,203242.0103285282,2010-09-16 22:24:55,3121.592114367402,7,17,-1.0997490882873535,3.47327184677124,17.651330052223212,17.693780128800665,70.31195667934982,64.80796363832597,-0.0002590179501567,0.0914954170584678,0,0,0
5953,203272.02533137292,2010-09-16 22:25:25,3151.607117212195,7,17,-1.0997490882873535,3.462101697921753,17.651330052223212,17.702949381239016,70.31195667934982,64.83976108173067,-0.0003237724304199,0.0914954170584678,0,0,0
5954,203302.0404874553,2010-09-16 22:25:55,3181.622273279455,7,17,-1.0997490882873535,3.4483413696289062,17.651330052223212,17.71211865309052,70.31195667934982,64.87144566253946,-0.0004209041653666,0.0914954170584678,0,0,0
5955,203332.0557898177,2010-09-16 22:26:25,3211.6375756519155,7,17,-1.0997490882873535,3.4306960105896,17.651330052223212,17.721287984947345,70.31195667934982,64.90298732387711,-0.0005179882282391,0.0914954170584678,0,0,0
5956,203362.0714714068,2010-09-16 22:26:55,3241.6532572309343,7,17,-1.099568486213684,3.406413078308105,17.651330052223212,17.73045745108951,70.31195667934982,64.93433863692603,-0.0006799221155233,0.0914954170584678,0,0,0
5957,203392.0864113044,2010-09-16 22:27:25,3271.6681971386265,7,17,-1.099929690361023,3.371445655822754,17.651330052223212,17.739626693511486,70.31195667934982,64.96542139772875,-0.0010684489971026,0.0914954170584678,0,0,0
5958,203422.10172608285,2010-09-16 22:27:55,3301.6835119170546,7,17,-1.099568486213684,3.3204517364501958,17.651330052223212,17.748796073592064,70.31195667934982,64.99611558341928,-0.0015541076427325,0.0914954170584678,0,0,0
5959,203452.11702045036,2010-09-16 22:28:25,3331.698806274508,7,17,-1.0997490882873535,3.246631860733032,17.651330052223212,17.75796540265239,70.31195667934982,65.02624410101471,-0.0022987842094153,0.0914954170584678,0,0,0
5960,203482.1324762257,2010-09-16 22:28:55,3361.714262059911,7,17,-1.0997490882873535,3.136225700378418,17.651330052223212,17.76713473824021,70.31195667934982,65.05554495547852,-0.0035291195381432,0.0914954170584678,0,0,0
5961,203511.8195172273,2010-09-16 22:29:25,3391.401303051463,7,17,-1.099568486213684,2.935811281204224,17.651330052223212,17.776203925356366,70.31195667934982,65.08321114194047,-0.0080618858337402,0.0914954170584678,0,0,0
5962,203525.038047307,2010-09-16 22:29:38,3404.619833141187,7,17,-1.099929690361023,2.73539662361145,17.651330052223212,17.780242046292162,70.31195667934982,65.09469590510315,-0.0146992206573486,0.0914954170584678,0,0,0
5963,203527.02243691377,2010-09-16 22:29:40,3406.604222737911,7,17,-1.0997490882873535,2.699620008468628,17.651330052223212,17.780848256706385,70.31195667934982,65.0963434824945,-0.0150229930877685,0.0914954170584678,0,0,0
5964,203587.04014138476,2010-09-16 22:30:40,60.01501304564085,8,17,0.0,3.3314599990844727,17.651330052223212,17.780848256706385,70.31195667934982,65.0963434824945,0.0011979580158367,0.0914954170584678,0,0,0
5965,203587.23075502316,2010-09-16 22:30:41,0.187435402601108,9,17,-1.9243103452026844e-05,3.3317837715148926,17.651330052223212,17.780848257708286,70.31195667934982,65.09634348583262,0.0,0.0882566422224044,0,0,0
5966,203592.05881810136,2010-09-16 22:30:45,5.015498480823286,9,17,0.0001613661734154,3.339230537414551,17.65133054111567,17.78084825779204,70.31195831025889,65.09634348611166,0.0011008263099938,0.0882566422224044,0,0,0
