Data_Point,Test_Time(s),Date_Time,Step_Time(s),Step_Index,Cycle_Index,Current(A),Voltage(V),Charge_Capacity(Ah),Discharge_Capacity(Ah),Charge_Energy(Wh),Discharge_Energy(Wh),dV/dt(V/s),Internal_Resistance(Ohm),Is_FC_Data,AC_Impedance(Ohm),ACI_Phase_Angle(Deg)
3516,119861.62960570032,2010-09-15 23:15:07,30.015324482650925,1,11,0.0,3.3312981128692627,10.378305134483773,10.509313969338589,41.342458737727945,38.49324914412375,0.0006475448608398,0.088097482919693,0,0,0
3517,119891.64499951102,2010-09-15 23:15:37,60.03071849886834,1,11,0.0,3.3526668548583984,10.378305134483773,10.509313969338589,41.342458737727945,38.49324914412375,0.0004856109735555,0.088097482919693,0,0,0
3518,119921.66034665523,2010-09-15 23:16:07,90.04606543757302,1,11,0.0,3.3690173625946045,10.378305134483773,10.509313969338589,41.342458737727945,38.49324914412375,0.0004209041653666,0.088097482919693,0,0,0
3519,119951.6287747924,2010-09-15 23:16:37,120.01449369001854,1,11,0.0,3.3822920322418213,10.378305134483773,10.509313969338589,41.342458737727945,38.49324914412375,0.0003237724304199,0.088097482919693,0,0,0
3520,119981.64117506432,2010-09-15 23:17:07,30.015301911309383,2,11,0.5499359965324402,3.5341408252716064,10.382891988222203,10.509313969338589,41.35849377004537,38.49324914412375,0.0017483711708337,0.088097482919693,0,0,0
3521,120011.65648315608,2010-09-15 23:17:37,60.030610003046064,2,11,0.5501165986061096,3.5877251625061035,10.387478761463637,10.509313969338589,41.374834378048384,38.49324914412375,0.0012303352123126,0.088097482919693,0,0,0
3522,120041.67195611434,2010-09-15 23:18:07,90.04608307660276,2,11,0.5501165986061096,3.6280345916748047,10.392065656848535,10.509313969338589,41.39138730375672,38.49324914412375,0.0010036944877356,0.088097482919693,0,0,0
3523,120071.68711684324,2010-09-15 23:18:37,120.06124369021134,2,11,0.550297200679779,3.659926176071167,10.396652524094904,10.509313969338589,41.40810396166328,38.49324914412375,0.0007770538213662,0.088097482919693,0,0,0
3524,120101.70242600764,2010-09-15 23:19:07,150.0765528546256,2,11,0.5501165986061096,3.6861515045166016,10.401239265108432,10.509313969338589,41.42495309067296,38.49324914412375,0.0006475448608398,0.088097482919693,0,0,0
3525,120131.7177258538,2010-09-15 23:19:37,180.09185270579252,2,11,0.550297200679779,3.708329916000366,10.405826002220126,10.509313969338589,41.44191290536475,38.49324914412375,0.0005827903514727,0.088097482919693,0,0,0
3526,120161.7331604513,2010-09-15 23:20:07,210.10728730831963,2,11,0.5501165986061096,3.726946830749512,10.410412689669757,10.509313969338589,41.45896564535445,38.49324914412375,0.0004532813909463,0.088097482919693,0,0,0
3527,120191.74835369636,2010-09-15 23:20:37,240.1224805684189,2,11,0.5499359965324402,3.742164134979248,10.414999358257166,10.509313969338589,41.47609598675479,38.49324914412375,0.0003561496851034,0.088097482919693,0,0,0
3528,120221.76378929638,2010-09-15 23:21:07,270.1379161433733,2,11,0.5501165986061096,3.7531721591949454,10.419586006018967,10.509313969338589,41.49328755890526,38.49324914412375,0.0001618385285837,0.088097482919693,0,0,0
3529,120251.77910783922,2010-09-15 23:21:37,300.1532346861975,2,11,0.5501165986061096,3.7596476078033447,10.42417269783066,10.509313969338589,41.51051875064346,38.49324914412375,0.0001618862152099,0.088097482919693,0,0,0
3530,120281.7944304472,2010-09-15 23:22:07,330.1685572941689,2,11,0.5501165986061096,3.763532876968384,10.42875948035357,10.509313969338589,41.52777228201201,38.49324914412375,0.0001295089750783,0.088097482919693,0,0,0
3531,120311.80963648418,2010-09-15 23:22:37,360.18376333116123,2,11,0.550297200679779,3.766446828842163,10.433346260271662,10.509313969338589,41.545040907179725,38.49324914412375,9.713172767078504e-05,0.088097482919693,0,0,0
3532,120341.82492207976,2010-09-15 23:23:07,390.19904892674407,2,11,0.5501165986061096,3.7690370082855225,10.43793301594924,10.509313969338589,41.56232251925038,38.49324914412375,6.47544875391759e-05,0.088097482919693,0,0,0
3533,120371.84022880808,2010-09-15 23:23:37,420.21435566009,2,11,0.5501165986061096,3.7719509601593018,10.442519797011066,10.509313969338589,41.57961699008514,38.49324914412375,6.47544875391759e-05,0.088097482919693,0,0,0
3534,120401.855600664,2010-09-15 23:24:07,450.22972760621707,2,11,0.5501165986061096,3.774703025817871,10.447106547241868,10.509313969338589,41.5969241770834,38.49324914412375,6.47544875391759e-05,0.088097482919693,0,0,0
3535,120431.87085841004,2010-09-15 23:24:37,480.2449852570454,2,11,0.550297200679779,3.7776169776916495,10.451693273413218,10.509313969338589,41.61424410488588,38.49324914412375,6.47544875391759e-05,0.088097482919693,0,0,0
3536,120461.88657451024,2010-09-15 23:25:07,510.260701367259,2,11,0.550297200679779,3.78036904335022,10.45628007465551,10.509313969338589,41.63157717873706,38.49324914412375,6.47544875391759e-05,0.088097482919693,0,0,0
3537,120491.90146571136,2010-09-15 23:25:37,540.2755925633601,2,11,0.5501165986061096,3.783121109008789,10.4608671863451,10.509313969338589,41.64892407823089,38.49324914412375,6.47544875391759e-05,0.088097482919693,0,0,0
3538,120521.91691634392,2010-09-15 23:26:07,570.291043190888,2,11,0.550297200679779,3.7858731746673584,10.46545464157584,10.509313969338589,41.66628495120164,38.49324914412375,9.713172767078504e-05,0.088097482919693,0,0,0
3539,120551.93210544364,2010-09-15 23:26:37,600.3062322906023,2,11,0.550297200679779,3.7884633541107178,10.47004204782426,10.509313969338589,41.68365811988672,38.49324914412375,6.47544875391759e-05,0.088097482919693,0,0,0
3540,120581.94741137998,2010-09-15 23:27:07,630.3215382269589,2,11,0.550297200679779,3.791215419769287,10.474629591271343,10.509313969338589,41.701044349307175,38.49324914412375,6.47544875391759e-05,0.088097482919693,0,0,0
3541,120611.96272193786,2010-09-15 23:27:37,660.3368488149265,2,11,0.550297200679779,3.793967485427856,10.47921662800664,10.509313969338589,41.71844100183476,38.49324914412375,6.47544875391759e-05,0.088097482919693,0,0,0
3542,120641.97816154288,2010-09-15 23:28:07,690.3522883998905,2,11,0.5501165986061096,3.796557664871216,10.483803380858088,10.509313969338589,41.735849138633895,38.49324914412375,6.47544875391759e-05,0.088097482919693,0,0,0
3543,120671.99618455648,2010-09-15 23:28:37,720.3703114987024,2,11,0.5501165986061096,3.799309730529785,10.488390510801928,10.509313969338589,41.75327128026976,38.49324914412375,6.47544875391759e-05,0.088097482919693,0,0,0
3544,120702.00891904913,2010-09-15 23:29:07,750.3830458961022,2,11,0.5501165986061096,3.8020617961883545,10.492976752481894,10.509313969338589,41.77070273667436,38.49324914412375,6.47544875391759e-05,0.088097482919693,0,0,0
3545,120732.0239945954,2010-09-15 23:29:37,780.3981214423696,2,11,0.5499359965324402,3.805137634277344,10.497563428287982,10.509313969338589,41.78814891118802,38.49324914412375,6.47544875391759e-05,0.088097482919693,0,0,0
3546,120762.03941610022,2010-09-15 23:30:07,810.4135429522152,2,11,0.550297200679779,3.808213472366333,10.502150212082954,10.509313969338589,41.80560900294493,38.49324914412375,9.713172767078504e-05,0.088097482919693,0,0,0
3547,120792.0546171648,2010-09-15 23:30:37,840.4287440117832,2,11,0.5499359965324402,3.811127424240112,10.506736899610065,10.509313969338589,41.82308271483286,38.49324914412375,6.47544875391759e-05,0.088097482919693,0,0,0
3548,120822.06992161243,2010-09-15 23:31:07,870.4440484544112,2,11,0.5499359965324402,3.8145270347595215,10.511323583030329,10.509313969338589,41.840571063831646,38.49324914412375,6.47544875391759e-05,0.088097482919693,0,0,0
3549,120852.08522704254,2010-09-15 23:31:37,900.4593539145791,2,11,0.5499359965324402,3.8177647590637207,10.515910240355826,10.509313969338589,41.85807450246983,38.49324914412375,6.47544875391759e-05,0.088097482919693,0,0,0
3550,120882.1005743572,2010-09-15 23:32:07,930.474701229222,2,11,0.5501165986061096,3.82132625579834,10.520496836117378,10.509313969338589,41.87559315332865,38.49324914412375,0.0001295089750783,0.088097482919693,0,0,0
3551,120912.1158987546,2010-09-15 23:32:37,960.4900256015976,2,11,0.5501165986061096,3.824725866317749,10.52508347322008,10.509313969338589,41.89312757540485,38.49324914412375,9.713172767078504e-05,0.088097482919693,0,0,0
3552,120942.13117944796,2010-09-15 23:33:07,990.505306294944,2,11,0.5501165986061096,3.827963590621948,10.529670109700772,10.509313969338589,41.91067771783756,38.49324914412375,6.47544875391759e-05,0.088097482919693,0,0,0
3553,120972.14649267252,2010-09-15 23:33:37,1020.5206195194928,2,11,0.5501165986061096,3.831525087356568,10.534256716837165,10.509313969338589,41.92824339992121,38.49324914412375,0.0001295089750783,0.088097482919693,0,0,0
3554,121002.16180344092,2010-09-15 23:34:07,1050.5359302929237,2,11,0.550297200679779,3.8349244594573975,10.538843367797988,10.509313969338589,41.94582456031952,38.49324914412375,9.713172767078504e-05,0.088097482919693,0,0,0
3555,121032.17712677072,2010-09-15 23:34:37,1080.5512536126716,2,11,0.5499359965324402,3.8380002975463863,10.543430049557562,10.509313969338589,41.96342093542592,38.49324914412375,6.47544875391759e-05,0.088097482919693,0,0,0
3556,121062.1924303211,2010-09-15 23:35:07,1110.566557168085,2,11,0.5501165986061096,3.841238021850586,10.548016660927328,10.509313969338589,41.98103174456101,38.49324914412375,9.713172767078504e-05,0.088097482919693,0,0,0
3557,121092.20776273856,2010-09-15 23:35:37,1140.5818896055926,2,11,0.5501165986061096,3.844151973724365,10.552603303114193,10.509313969338589,41.99865714244833,38.49324914412375,3.237724376958795e-05,0.088097482919693,0,0,0
3558,121122.22320765184,2010-09-15 23:36:07,1170.5973345088316,2,11,0.5501165986061096,3.847389698028565,10.557190006588932,10.509313969338589,42.01629706079877,38.49324914412375,6.47544875391759e-05,0.088097482919693,0,0,0
3559,121152.23840286682,2010-09-15 23:36:37,1200.6125297137855,2,11,0.550297200679779,3.850627422332764,10.561776680006083,10.509313969338589,42.033950924160166,38.49324914412375,0.0001295089750783,0.088097482919693,0,0,0
3560,121182.25383173,2010-09-15 23:37:07,1230.6279585769864,2,11,0.5501165986061096,3.853379487991333,10.56636339856228,10.509313969338589,42.05161869288342,38.49324914412375,6.47544875391759e-05,0.088097482919693,0,0,0
3561,121212.26912862378,2010-09-15 23:37:37,1260.6432555710214,2,11,0.5501165986061096,3.856293439865112,10.570950082943334,10.509313969338589,42.069299570421855,38.49324914412375,9.713172767078504e-05,0.088097482919693,0,0,0
3562,121242.28432151295,2010-09-15 23:38:07,1290.6584483900197,2,11,0.550297200679779,3.859207391738892,10.575536701754718,10.509313969338589,42.08699303938724,38.49324914412375,0.0001295089750783,0.088097482919693,0,0,0
3563,121272.29966383013,2010-09-15 23:38:37,1320.6737906771132,2,11,0.5499359965324402,3.861635684967041,10.580123394913786,10.509313969338589,42.104698956057234,38.49324914412375,6.47544875391759e-05,0.088097482919693,0,0,0
3564,121302.3149965684,2010-09-15 23:39:08,1350.689123440434,2,11,0.5501165986061096,3.863902091979981,10.584710030989672,10.509313969338589,42.12241618070941,38.49324914412375,3.237724376958795e-05,0.088097482919693,0,0,0
3565,121332.33028299604,2010-09-15 23:39:38,1380.7044099332566,2,11,0.5501165986061096,3.86616849899292,10.589296668408478,10.509313969338589,42.14014415351003,38.49324914412375,3.237724376958795e-05,0.088097482919693,0,0,0
3566,121362.34557720312,2010-09-15 23:40:08,1410.7197040501096,2,11,0.5501165986061096,3.8684349060058594,10.593883320684728,10.509313969338589,42.157882319228506,38.49324914412375,6.47544875391759e-05,0.088097482919693,0,0,0
3567,121392.36090750028,2010-09-15 23:40:38,1440.7350343773496,2,11,0.5501165986061096,3.870377540588379,10.598469977722475,10.509313969338589,42.1756298925109,38.49324914412375,6.47544875391759e-05,0.088097482919693,0,0,0
3568,121422.37620715096,2010-09-15 23:41:08,1470.750334028016,2,11,0.550297200679779,3.8723201751708975,10.603056634470589,10.509313969338589,42.19338620891914,38.49324914412375,6.47544875391759e-05,0.088097482919693,0,0,0
3569,121452.39168804404,2010-09-15 23:41:38,1500.765814896029,2,11,0.550297200679779,3.873939037322998,10.60764333198949,10.509313969338589,42.2111507722817,38.49324914412375,3.237724376958795e-05,0.088097482919693,0,0,0
3570,121482.4068352191,2010-09-15 23:42:08,1530.7809620660803,2,11,0.5499359965324402,3.8752341270446777,10.612229996285132,10.509313969338589,42.228922429091455,38.49324914412375,0.0,0.088097482919693,0,0,0
3571,121512.42219862391,2010-09-15 23:42:38,1560.796325500962,2,11,0.5501165986061096,3.876691102981568,10.616816691089353,10.509313969338589,42.24670102923448,38.49324914412375,0.0,0.088097482919693,0,0,0
3572,121542.43746305164,2010-09-15 23:43:08,1590.8115899287066,2,11,0.5499359965324402,3.878148078918457,10.621403311049262,10.509313969338589,42.26448556651922,38.49324914412375,3.237724376958795e-05,0.088097482919693,0,0,0
3573,121572.45277573484,2010-09-15 23:43:38,1620.8269026018793,2,11,0.550297200679779,3.8794431686401367,10.62599002858584,10.509313969338589,42.282276365396,38.49324914412375,3.237724376958795e-05,0.088097482919693,0,0,0
3574,121602.46807651834,2010-09-15 23:44:08,1650.8422033853735,2,11,0.5501165986061096,3.8805763721466064,10.630576725814343,10.509313969338589,42.30007247305685,38.49324914412375,3.237724376958795e-05,0.088097482919693,0,0,0
3575,121632.4836247144,2010-09-15 23:44:38,1680.8577516466105,2,11,0.550297200679779,3.881709575653076,10.635163416737363,10.509313969338589,42.31787379075308,38.49324914412375,6.47544875391759e-05,0.088097482919693,0,0,0
3576,121662.49883584914,2010-09-15 23:45:08,1710.8729627061396,2,11,0.550297200679779,3.882842779159546,10.639749987450974,10.509313969338589,42.3356796978873,38.49324914412375,6.47544875391759e-05,0.088097482919693,0,0,0
3577,121692.51401346015,2010-09-15 23:45:38,1740.8881403372266,2,11,0.5501165986061096,3.8838140964508057,10.644336559369645,10.509313969338589,42.35349061979203,38.49324914412375,3.237724376958795e-05,0.088097482919693,0,0,0
3578,121722.52948318036,2010-09-15 23:46:08,1770.90361003235,2,11,0.550297200679779,3.885109186172485,10.64892327837866,10.509313969338589,42.371306999500334,38.49324914412375,6.47544875391759e-05,0.088097482919693,0,0,0
3579,121752.5446533077,2010-09-15 23:46:38,1800.9187801597063,2,11,0.5501165986061096,3.885756731033325,10.653509936158908,10.509313969338589,42.38912800562886,38.49324914412375,0.0,0.088097482919693,0,0,0
3580,121782.56009304304,2010-09-15 23:47:08,1830.9342199201085,2,11,0.550297200679779,3.887051820755005,10.658096620520697,10.509313969338589,42.40695392877453,38.49324914412375,6.47544875391759e-05,0.088097482919693,0,0,0
3581,121812.57527946608,2010-09-15 23:47:38,1860.9494063130664,2,11,0.5501165986061096,3.8881850242614746,10.662683307319378,10.509313969338589,42.42478463485247,38.49324914412375,6.47544875391759e-05,0.088097482919693,0,0,0
3582,121842.59058954778,2010-09-15 23:48:08,1890.96471639477,2,11,0.5499359965324402,3.888994455337525,10.667269991979095,10.509313969338589,42.44262014099317,38.49324914412375,3.237724376958795e-05,0.088097482919693,0,0,0
3583,121872.60592407551,2010-09-15 23:48:38,1920.9800509224951,2,11,0.550297200679779,3.890127658843994,10.671856689365567,10.509313969338589,42.46046043107864,38.49324914412375,3.237724376958795e-05,0.088097482919693,0,0,0
3584,121902.62123808704,2010-09-15 23:49:08,1950.9953649340084,2,11,0.5499359965324402,3.890937089920044,10.676443437314806,10.509313969338589,42.47830571888722,38.49324914412375,3.237724376958795e-05,0.088097482919693,0,0,0
3585,121932.63655754214,2010-09-15 23:49:38,1981.0106843840967,2,11,0.550297200679779,3.892232179641724,10.681030190311022,10.509313969338589,42.49615585247205,38.49324914412375,6.47544875391759e-05,0.088097482919693,0,0,0
3586,121962.65185349356,2010-09-15 23:50:08,2011.0259803405424,2,11,0.5499359965324402,3.893203496932984,10.685616952400158,10.509313969338589,42.51401080728892,38.49324914412375,-3.237724376958795e-05,0.088097482919693,0,0,0
3587,121992.66718208148,2010-09-15 23:50:38,2041.0413089284405,2,11,0.550297200679779,3.894336700439453,10.690203703916962,10.509313969338589,42.53187062713758,38.49324914412375,3.237724376958795e-05,0.088097482919693,0,0,0
3588,122022.68249140124,2010-09-15 23:51:08,2071.056618273305,2,11,0.5499359965324402,3.895146131515503,10.694790468988993,10.509313969338589,42.54973502318954,38.49324914412375,3.237724376958795e-05,0.088097482919693,0,0,0
3589,122052.69780131755,2010-09-15 23:51:38,2101.071928194609,2,11,0.5501165986061096,3.896441221237183,10.699377175008369,10.509313969338589,42.5676039985964,38.49324914412375,6.47544875391759e-05,0.088097482919693,0,0,0
3590,122082.71311636663,2010-09-15 23:52:08,2131.0872432387,2,11,0.5501165986061096,3.8974125385284415,10.70396391221922,10.509313969338589,42.58547818050831,38.49324914412375,3.237724376958795e-05,0.088097482919693,0,0,0
3591,122112.72844992195,2010-09-15 23:52:38,2161.1025767839724,2,11,0.550297200679779,3.898707628250122,10.70855064110291,10.509313969338589,42.60335729870451,38.49324914412375,6.47544875391759e-05,0.088097482919693,0,0,0
3592,122142.74377551235,2010-09-15 23:53:08,2191.117902379401,2,11,0.550297200679779,3.899840831756592,10.713137349063448,10.509313969338589,42.62124143886479,38.49324914412375,6.47544875391759e-05,0.088097482919693,0,0,0
3593,122172.75906702272,2010-09-15 23:53:38,2221.13319389476,2,11,0.5501165986061096,3.9009740352630615,10.717724056284371,10.509313969338589,42.63913060045248,38.49324914412375,6.47544875391759e-05,0.088097482919693,0,0,0
3594,122202.77438828233,2010-09-15 23:54:08,2251.148515129304,2,11,0.5501165986061096,3.901945352554321,10.722310720689036,10.509313969338589,42.65702481228356,38.49324914412375,3.237724376958795e-05,0.088097482919693,0,0,0
3595,122232.78972000806,2010-09-15 23:54:38,2281.1638468851093,2,11,0.5501165986061096,3.903078556060791,10.72689740110348,10.509313969338589,42.67492431859394,38.49324914412375,0.0,0.088097482919693,0,0,0
3596,122262.80503513735,2010-09-15 23:55:08,2311.1791620144127,2,11,0.5499359965324402,3.9042117595672607,10.73148407652492,10.509313969338589,42.69282912588914,38.49324914412375,0.0,0.088097482919693,0,0,0
3597,122292.8203662666,2010-09-15 23:55:38,2341.1944931336297,2,11,0.550297200679779,3.9056687355041504,10.736070790480072,10.509313969338589,42.710739401793205,38.49324914412375,9.713172767078504e-05,0.088097482919693,0,0,0
3598,122322.83564863914,2010-09-15 23:56:08,2371.20977551118,2,11,0.550297200679779,3.9064781665802,10.7406574726421,10.509313969338589,42.72865488724121,38.49324914412375,3.237724376958795e-05,0.088097482919693,0,0,0
3599,122352.85098842498,2010-09-15 23:56:38,2401.2251152719678,2,11,0.5497553944587708,3.90761137008667,10.7452441411035,10.509313969338589,42.74657588528032,38.49324914412375,0.0,0.088097482919693,0,0,0
3600,122382.86681497587,2010-09-15 23:57:08,2431.240941832883,2,11,0.5499359965324402,3.90906834602356,10.749830868414822,10.509313969338589,42.76450259886802,38.49324914412375,6.47544875391759e-05,0.088097482919693,0,0,0
3601,122412.88160321498,2010-09-15 23:57:38,2461.2557301572,2,11,0.5501165986061096,3.9103634357452393,10.754417428508328,10.509313969338589,42.78243437490548,38.49324914412375,6.47544875391759e-05,0.088097482919693,0,0,0
3602,122442.89699729635,2010-09-15 23:58:08,2491.271124173418,2,11,0.5501165986061096,3.911496639251709,10.759004067236928,10.509313969338589,42.80037205225607,38.49324914412375,3.237724376958795e-05,0.088097482919693,0,0,0
3603,122472.91222213527,2010-09-15 23:58:38,2521.2863489973047,2,11,0.5501165986061096,3.9127917289733887,10.763590666759544,10.509313969338589,42.81831539253851,38.49324914412375,6.47544875391759e-05,0.088097482919693,0,0,0
3604,122502.927532623,2010-09-15 23:59:08,2551.301659490035,2,11,0.5499359965324402,3.9139246940612793,10.768177254661062,10.509313969338589,42.836264573453406,38.49324914412375,3.237724376958795e-05,0.088097482919693,0,0,0
3605,122532.9428450606,2010-09-15 23:59:38,2581.31697192762,2,11,0.5501165986061096,3.915381669998169,10.772763859548418,10.509313969338589,42.85421976041419,38.49324914412375,3.237724376958795e-05,0.088097482919693,0,0,0
3606,122562.95830609408,2010-09-16 00:00:08,2611.3324329460847,2,11,0.5499359965324402,3.916514873504639,10.777350486049317,10.509313969338589,42.87218079049633,38.49324914412375,3.237724376958795e-05,0.088097482919693,0,0,0
3607,122592.9761540006,2010-09-16 00:00:38,2641.3502809478277,2,11,0.550297200679779,3.917971849441528,10.78193751837804,10.509313969338589,42.89014952987505,38.49324914412375,6.47544875391759e-05,0.088097482919693,0,0,0
3608,122622.98896994654,2010-09-16 00:01:08,2671.3630968286225,2,11,0.550297200679779,3.919428825378418,10.78652382303723,10.509313969338589,42.90812143518304,38.49324914412375,6.47544875391759e-05,0.088097482919693,0,0,0
3609,122653.00413724684,2010-09-16 00:01:38,2701.378264098847,2,11,0.5501165986061096,3.9204001426696777,10.79111046874278,10.509313969338589,42.92610086072907,38.49324914412375,0.0,0.088097482919693,0,0,0
3610,122683.01943269202,2010-09-16 00:02:08,2731.3935595390035,2,11,0.550297200679779,3.922019004821777,10.79569714950052,10.509313969338589,42.94408658236583,38.49324914412375,6.47544875391759e-05,0.088097482919693,0,0,0
3611,122713.0347576709,2010-09-16 00:02:38,2761.408884527918,2,11,0.550297200679779,3.923314094543457,10.800283887994263,10.509313969338589,42.96207885327835,38.49324914412375,0.0,0.088097482919693,0,0,0
3612,122743.05006776765,2010-09-16 00:03:08,2791.424194639697,2,11,0.5501165986061096,3.9247710704803462,10.804870632633127,10.509313969338589,42.98007749934891,38.49324914412375,3.237724376958795e-05,0.088097482919693,0,0,0
3613,122773.0653999796,2010-09-16 00:03:38,2821.439526851641,2,11,0.5501165986061096,3.9260661602020255,10.80945734378196,10.509313969338589,42.998082423558905,38.49324914412375,3.237724376958795e-05,0.088097482919693,0,0,0
3614,122803.08069068794,2010-09-16 00:04:08,2851.454817564999,2,11,0.5501165986061096,3.927523136138916,10.81404408469166,10.509313969338589,43.01609386279065,38.49324914412375,3.237724376958795e-05,0.088097482919693,0,0,0
3615,122833.09615930538,2010-09-16 00:04:38,2881.4702861573696,2,11,0.5501165986061096,3.9289801120758057,10.81863080105791,10.509313969338589,43.03411176864552,38.49324914412375,3.237724376958795e-05,0.088097482919693,0,0,0
3616,122863.11133982868,2010-09-16 00:05:08,2911.4854666756632,2,11,0.5499359965324402,3.9304370880126953,10.823217525019883,10.509313969338589,43.05213634765549,38.49324914412375,3.237724376958795e-05,0.088097482919693,0,0,0
3617,122893.12670130868,2010-09-16 00:05:38,2941.500828160678,2,11,0.5501165986061096,3.931894063949585,10.827804270940812,10.509313969338589,43.07016761972873,38.49324914412375,3.237724376958795e-05,0.088097482919693,0,0,0
3618,122923.14196716,2010-09-16 00:06:08,2971.516094037039,2,11,0.5501165986061096,3.9333510398864746,10.832390903614211,10.509313969338589,43.088205187868375,38.49324914412375,3.237724376958795e-05,0.088097482919693,0,0,0
3619,122953.15729243965,2010-09-16 00:06:38,3001.531419286604,2,11,0.5501165986061096,3.934808015823364,10.83697762961938,10.509313969338589,43.10624992716996,38.49324914412375,3.237724376958795e-05,0.088097482919693,0,0,0
3620,122983.17261926312,2010-09-16 00:07:08,3031.546746130148,2,11,0.5499359965324402,3.936264991760254,10.841564414014831,10.509313969338589,43.12430174959093,38.49324914412375,0.0,0.088097482919693,0,0,0
3621,123013.18792739997,2010-09-16 00:07:38,3061.562054367248,2,11,0.550297200679779,3.9378838539123535,10.84615111259934,10.509313969338589,43.14236002868843,38.49324914412375,3.237724376958795e-05,0.088097482919693,0,0,0
3622,123043.20336289972,2010-09-16 00:08:08,3091.577489776789,2,11,0.5501165986061096,3.939502716064453,10.850737813300848,10.509313969338589,43.16042538064119,38.49324914412375,6.47544875391759e-05,0.088097482919693,0,0,0
3623,123073.2185418792,2010-09-16 00:08:38,3121.592668756241,2,11,0.5501165986061096,3.940959692001343,10.85532450627696,10.509313969338589,43.1784977847336,38.49324914412375,3.237724376958795e-05,0.088097482919693,0,0,0
3624,123103.23390077274,2010-09-16 00:09:08,3151.608027619712,2,11,0.5497553944587708,3.942416667938232,10.859911209343664,10.509313969338589,43.19657729914328,38.49324914412375,0.0,0.088097482919693,0,0,0
3625,123133.24934949048,2010-09-16 00:09:38,3181.623476347498,2,11,0.5501165986061096,3.944197416305542,10.86449785387868,10.509313969338589,43.2146637772944,38.49324914412375,3.237724376958795e-05,0.088097482919693,0,0,0
3626,123163.26454104632,2010-09-16 00:10:08,3211.6386678933186,2,11,0.550297200679779,3.945654392242432,10.869084945980775,10.509313969338589,43.23275933366654,38.49324914412375,3.237724376958795e-05,0.088097482919693,0,0,0
3627,123193.27987344876,2010-09-16 00:10:38,3241.654000295738,2,11,0.5501165986061096,3.947111368179321,10.873672470595848,10.509313969338589,43.25086388484932,38.49324914412375,0.0,0.088097482919693,0,0,0
3628,123223.29519084872,2010-09-16 00:11:09,3271.669317680672,2,11,0.5501165986061096,3.948892116546631,10.878259493529091,10.509313969338589,43.26897383433064,38.49324914412375,3.237724376958795e-05,0.088097482919693,0,0,0
3629,123253.31051393288,2010-09-16 00:11:39,3301.68464077987,2,11,0.5501165986061096,3.9505109786987305,10.882846163508404,10.509313969338589,43.28708986885879,38.49324914412375,6.47544875391759e-05,0.088097482919693,0,0,0
3630,123283.32584958842,2010-09-16 00:12:09,3331.69997643541,2,11,0.5501165986061096,3.95212984085083,10.88743280874746,10.509313969338589,43.30521335506151,38.49324914412375,3.237724376958795e-05,0.088097482919693,0,0,0
3631,123313.34115198092,2010-09-16 00:12:39,3361.7152788279204,2,11,0.5501165986061096,3.9537487030029297,10.892019458023723,10.509313969338589,43.32334448476562,38.49324914412375,3.237724376958795e-05,0.088097482919693,0,0,0
3632,123343.35658489424,2010-09-16 00:13:09,3391.7307117662936,2,11,0.550297200679779,3.9555294513702393,10.896606130900896,10.509313969338589,43.34148341650343,38.49324914412375,3.237724376958795e-05,0.088097482919693,0,0,0
3633,123373.37180304648,2010-09-16 00:13:39,3421.745929893465,2,11,0.5501165986061096,3.957148313522339,10.901192865777745,10.509313969338589,43.359630402564335,38.49324914412375,0.0,0.088097482919693,0,0,0
3634,123403.3872110476,2010-09-16 00:14:09,3451.7613379146405,2,11,0.5501165986061096,3.958929061889648,10.905779599161674,10.509313969338589,43.37778521738285,38.49324914412375,3.237724376958795e-05,0.088097482919693,0,0,0
3635,123433.40256143991,2010-09-16 00:14:39,3481.7766882869164,2,11,0.5499359965324402,3.960709810256958,10.910366300136303,10.509313969338589,43.395947824937394,38.49324914412375,6.47544875391759e-05,0.088097482919693,0,0,0
3636,123463.41771679542,2010-09-16 00:15:09,3511.7918436674627,2,11,0.5501165986061096,3.9623286724090576,10.914952912586308,10.509313969338589,43.41411808221995,38.49324914412375,0.0,0.088097482919693,0,0,0
3637,123493.43307718268,2010-09-16 00:15:39,3541.8072040296743,2,11,0.5501165986061096,3.964271306991577,10.919539583730574,10.509313969338589,43.43229678280166,38.49324914412375,3.237724376958795e-05,0.088097482919693,0,0,0
3638,123523.44840375557,2010-09-16 00:16:09,3571.822530602543,2,11,0.5501165986061096,3.9662139415740967,10.924126213197194,10.509313969338589,43.45048366518442,38.49324914412375,9.713172767078504e-05,0.088097482919693,0,0,0
3639,123553.4639055508,2010-09-16 00:16:39,3601.838032397793,2,11,0.5501165986061096,3.967832803726196,10.928713005394451,10.509313969338589,43.46867958897392,38.49324914412375,3.237724376958795e-05,0.088097482919693,0,0,0
3640,123583.4791632668,2010-09-16 00:17:09,3631.853290113784,2,11,0.5497553944587708,3.969613552093506,10.933299752396817,10.509313969338589,43.486883800617285,38.49324914412375,0.0,0.088097482919693,0,0,0
3641,123613.49439674227,2010-09-16 00:17:39,3661.868523714579,2,11,0.5501165986061096,3.9717180728912354,10.937886416775887,10.509313969338589,43.505096273596266,38.49324914412375,6.47544875391759e-05,0.088097482919693,0,0,0
3642,123643.50977307938,2010-09-16 00:18:09,3691.88389993638,2,11,0.5501165986061096,3.973660707473755,10.942473162459835,10.509313969338589,43.52331774860646,38.49324914412375,6.47544875391759e-05,0.088097482919693,0,0,0
3643,123673.52502260492,2010-09-16 00:18:39,3721.899149481976,2,11,0.5501165986061096,3.975441455841065,10.947059842233031,10.509313969338589,43.54154769421439,38.49324914412375,3.237724376958795e-05,0.088097482919693,0,0,0
3644,123703.54033017535,2010-09-16 00:19:09,3751.914457022336,2,11,0.5501165986061096,3.977384090423584,10.95164661301182,10.509313969338589,43.55978703868725,38.49324914412375,0.0,0.088097482919693,0,0,0
3645,123733.5557758004,2010-09-16 00:19:39,3781.92990265239,2,11,0.5501165986061096,3.979650497436523,10.956233391312244,10.509313969338589,43.578035036760845,38.49324914412375,9.713172767078504e-05,0.088097482919693,0,0,0
3646,123763.57095835876,2010-09-16 00:20:09,3811.945085215789,2,11,0.550297200679779,3.981431245803833,10.960820000480528,10.509313969338589,43.59629192485949,38.49324914412375,3.237724376958795e-05,0.088097482919693,0,0,0
3647,123793.58630188396,2010-09-16 00:20:39,3841.9604287610223,2,11,0.5501165986061096,3.9835357666015625,10.96540670091504,10.509313969338589,43.61455842723521,38.49324914412375,3.237724376958795e-05,0.088097482919693,0,0,0
3648,123823.60163847684,2010-09-16 00:21:09,3871.97576532884,2,11,0.5501165986061096,3.985478401184082,10.969993332790535,10.509313969338589,43.63283396560246,38.49324914412375,3.237724376958795e-05,0.088097482919693,0,0,0
3649,123853.61692159624,2010-09-16 00:21:39,3901.9910484482416,2,11,0.5501165986061096,3.987582921981812,10.974579953280593,10.509313969338589,43.65111883651864,38.49324914412375,3.237724376958795e-05,0.088097482919693,0,0,0
3650,123883.63224632954,2010-09-16 00:22:09,3932.006373176506,2,11,0.550297200679779,3.989687442779541,10.979166586546857,10.509313969338589,43.669413117631386,38.49324914412375,6.47544875391759e-05,0.088097482919693,0,0,0
3651,123913.6475729074,2010-09-16 00:22:39,3962.021699754387,2,11,0.5501165986061096,3.991630077362061,10.983753218015876,10.509313969338589,43.68771694819465,38.49324914412375,3.237724376958795e-05,0.088097482919693,0,0,0
3652,123943.6628802172,2010-09-16 00:23:09,3992.037007064171,2,11,0.5501165986061096,3.993896484375,10.988339859781462,10.509313969338589,43.7060304155946,38.49324914412375,6.47544875391759e-05,0.088097482919693,0,0,0
3653,123973.67819853946,2010-09-16 00:23:39,4022.052325486696,2,11,0.5499359965324402,3.995838880538941,10.992926442087189,10.509313969338589,43.72435333326608,38.49324914412375,3.237724376958795e-05,0.088097482919693,0,0,0
3654,124003.69351666624,2010-09-16 00:24:09,4052.067643513232,2,11,0.5499359965324402,3.99794340133667,10.997513092440792,10.509313969338589,43.74268627712426,38.49324914412375,3.237724376958795e-05,0.088097482919693,0,0,0
3655,124033.70885937942,2010-09-16 00:24:39,4082.0829862564633,2,11,0.5499359965324402,4.0000481605529785,11.00209964331176,10.509313969338589,43.76102846219722,38.49324914412375,3.24249267578125e-05,0.088097482919693,0,0,0
3656,124063.72415528572,2010-09-16 00:25:09,4112.098282132708,2,11,0.5501165986061096,4.002314567565918,11.006686163042476,10.509313969338589,43.779380391871285,38.49324914412375,3.24249267578125e-05,0.088097482919693,0,0,0
3657,124093.73960174284,2010-09-16 00:25:39,4142.113728614889,2,11,0.550297200679779,4.004580974578857,11.011272802511026,10.509313969338589,43.7977426632189,38.49324914412375,6.47544875391759e-05,0.088097482919693,0,0,0
3658,124123.75479710316,2010-09-16 00:26:09,4172.128923955181,2,11,0.5501165986061096,4.006685256958008,11.015859366247126,10.509313969338589,43.816114543029045,38.49324914412375,6.47544875391759e-05,0.088097482919693,0,0,0
3659,124153.7701299066,2010-09-16 00:26:39,4202.144256753589,2,11,0.5501165986061096,4.008790016174316,11.020446034484358,10.509313969338589,43.83449692671165,38.49324914412375,3.24249267578125e-05,0.088097482919693,0,0,0
3660,124183.78557893516,2010-09-16 00:27:09,4232.1597057821255,2,11,0.550297200679779,4.011056423187256,11.025032696784486,10.509313969338589,43.85288930458594,38.49324914412375,3.24249267578125e-05,0.088097482919693,0,0,0
3661,124213.80075299232,2010-09-16 00:27:39,4262.174879839291,2,11,0.550297200679779,4.013484477996826,11.029619313531756,10.509313969338589,43.87129170666936,38.49324914412375,9.70840483205393e-05,0.088097482919693,0,0,0
3662,124243.81610322926,2010-09-16 00:28:09,4292.190230106304,2,11,0.5501165986061096,4.015589237213135,11.034205942592443,10.509313969338589,43.889704433652426,38.49324914412375,9.71794142969884e-05,0.088097482919693,0,0,0
3663,124273.83148559638,2010-09-16 00:28:39,4322.205612678957,2,11,0.5501165986061096,4.017855644226074,11.038791786841532,10.509313969338589,43.90812419478839,38.49324914412375,9.71794142969884e-05,0.088097482919693,0,0,0
3664,124303.8471084438,2010-09-16 00:29:09,4352.221235305821,2,11,0.5499359965324402,4.019959926605225,11.043377593566388,10.509313969338589,43.92655412080599,38.49324914412375,6.47544875391759e-05,0.088097482919693,0,0,0
3665,124333.8620301661,2010-09-16 00:29:39,4382.2361570381445,2,11,0.5499359965324402,4.022388458251953,11.047963231955102,10.509313969338589,43.94499398017315,38.49324914412375,6.47544875391759e-05,0.088097482919693,0,0,0
3666,124363.87734209742,2010-09-16 00:30:09,4412.251468944403,2,11,0.5499359965324402,4.024492740631104,11.052548861190562,10.509313969338589,43.96344443658538,38.49324914412375,3.23295607813634e-05,0.088097482919693,0,0,0
3667,124393.89267690084,2010-09-16 00:30:39,4442.266803747817,2,11,0.5499359965324402,4.026921272277832,11.057135320744344,10.509313969338589,43.98190916775005,38.49324914412375,0.0,0.088097482919693,0,0,0
3668,124423.90811269631,2010-09-16 00:31:09,4472.282239543321,2,11,0.5499359965324402,4.029511451721191,11.06172198876917,10.509313969338589,44.000385697693375,38.49324914412375,6.47544875391759e-05,0.088097482919693,0,0,0
3669,124453.92332125964,2010-09-16 00:31:39,4502.297448136695,2,11,0.5501165986061096,4.031939506530762,11.066308615666946,10.509313969338589,44.01887296693382,38.49324914412375,3.23295607813634e-05,0.088097482919693,0,0,0
3670,124483.93876090476,2010-09-16 00:32:09,4532.312887756746,2,11,0.5501165986061096,4.034367561340332,11.070895229814028,10.509313969338589,44.0373712943432,38.49324914412375,6.46591215627268e-05,0.088097482919693,0,0,0
3671,124513.9567197131,2010-09-16 00:32:39,4562.3308467355055,2,11,0.5501165986061096,4.036633968353272,11.075482350341913,10.509313969338589,44.05588284476583,38.49324914412375,3.23295607813634e-05,0.088097482919693,0,0,0
3672,124543.96940971469,2010-09-16 00:33:09,4592.343536561649,2,11,0.5504778623580933,4.03938627243042,11.080068639788797,10.509313969338589,44.07440235403091,38.49324914412375,0.0001295089750783,0.088097482919693,0,0,0
3673,124573.98459456376,2010-09-16 00:33:39,4622.358721430803,2,11,0.550297200679779,4.04181432723999,11.084655256302382,10.509313969338589,44.09293452003606,38.49324914412375,6.47544875391759e-05,0.088097482919693,0,0,0
3674,124603.99993380829,2010-09-16 00:34:09,4652.374060760514,2,11,0.5499359965324402,4.044242858886719,11.089241855377908,10.509313969338589,44.11147815462606,38.49324914412375,3.24249267578125e-05,0.088097482919693,0,0,0
3675,124634.01524619071,2010-09-16 00:34:39,4682.38937304271,2,11,0.550297200679779,4.046833038330078,11.093828455586353,10.509313969338589,44.13003340159178,38.49324914412375,3.24249267578125e-05,0.088097482919693,0,0,0
3676,124664.0305728087,2010-09-16 00:35:09,4712.404699685754,2,11,0.5501165986061096,4.0494232177734375,11.09841504326603,10.509313969338589,44.14860035744754,38.49324914412375,9.71794142969884e-05,0.088097482919693,0,0,0
3677,124694.04586510602,2010-09-16 00:35:39,4742.41999195299,2,11,0.5501165986061096,4.051851272583008,11.10300164394817,10.509313969338589,44.16717916539204,38.49324914412375,6.47544875391759e-05,0.088097482919693,0,0,0
3678,124724.06118546338,2010-09-16 00:36:09,4772.435312315356,2,11,0.5501165986061096,4.054603576660156,11.107588242610785,10.509313969338589,44.185769941486704,38.49324914412375,6.47544875391759e-05,0.088097482919693,0,0,0
3679,124754.0765285224,2010-09-16 00:36:39,4802.450655379389,2,11,0.5501165986061096,4.057193756103516,11.112174850301734,10.509313969338589,44.204372856510446,38.49324914412375,3.24249267578125e-05,0.088097482919693,0,0,0
3680,124784.0918262282,2010-09-16 00:37:09,4832.465953075176,2,11,0.5501165986061096,4.059945583343506,11.116761388993698,10.509313969338589,44.22298772074108,38.49324914412375,3.23295607813634e-05,0.088097482919693,0,0,0
3681,124814.10714475598,2010-09-16 00:37:39,4862.481271602963,2,11,0.5501165986061096,4.062535762786865,11.12134798226282,10.509313969338589,44.24161473073083,38.49324914412375,6.47544875391759e-05,0.088097482919693,0,0,0
3682,124844.12246464216,2010-09-16 00:38:09,4892.496591504178,2,11,0.5501165986061096,4.065288066864014,11.125934536980973,10.509313969338589,44.26025406018715,38.49324914412375,3.24249267578125e-05,0.088097482919693,0,0,0
3683,124874.13781084404,2010-09-16 00:38:39,4922.511937711055,2,11,0.5501165986061096,4.067878246307373,11.13052110139399,10.509313969338589,44.27890594075488,38.49324914412375,6.47544875391759e-05,0.088097482919693,0,0,0
3684,124904.15310673532,2010-09-16 00:39:09,4952.527233582288,2,11,0.5501165986061096,4.070953845977783,11.135107693669749,10.509313969338589,44.2975706428981,38.49324914412375,9.70840483205393e-05,0.088097482919693,0,0,0
3685,124934.16842481196,2010-09-16 00:39:39,4982.5425516589485,2,11,0.5501165986061096,4.073706150054932,11.13969426261605,10.509313969338589,44.31624794469829,38.49324914412375,9.71794142969884e-05,0.088097482919693,0,0,0
3686,124964.1837577056,2010-09-16 00:40:09,5012.557884552595,2,11,0.5501165986061096,4.076457977294922,11.144280813158684,10.509313969338589,44.33493808105234,38.49324914412375,6.47544875391759e-05,0.088097482919693,0,0,0
3687,124994.19907936624,2010-09-16 00:40:39,5042.573206218214,2,11,0.550297200679779,4.079371929168701,11.148867377875254,10.509313969338589,44.35364132656847,38.49324914412375,9.70840483205393e-05,0.088097482919693,0,0,0
3688,125024.21438724242,2010-09-16 00:41:09,5072.5885140894,2,11,0.550297200679779,4.08212423324585,11.153453991646517,10.509313969338589,44.37235784931116,38.49324914412375,6.47544875391759e-05,0.088097482919693,0,0,0
3689,125054.22971573508,2010-09-16 00:41:39,5102.603842582061,2,11,0.5499359965324402,4.085038185119629,11.158040560962633,10.509313969338589,44.391087412450126,38.49324914412375,9.71794142969884e-05,0.088097482919693,0,0,0
3690,125084.24520369078,2010-09-16 00:42:09,5132.61933054779,2,11,0.5501165986061096,4.087952136993408,11.16262719881776,10.509313969338589,44.4098306082181,38.49324914412375,9.71794142969884e-05,0.088097482919693,0,0,0
3691,125114.2603599084,2010-09-16 00:42:39,5162.634486755401,2,11,0.5501165986061096,4.090866088867188,11.16721375581264,10.509313969338589,44.42858693263117,38.49324914412375,9.71794142969884e-05,0.088097482919693,0,0,0
3692,125144.27570829575,2010-09-16 00:43:10,5192.649835263022,2,11,0.5501165986061096,4.093780040740967,11.171800386500651,10.509313969338589,44.44735709714959,38.49324914412375,6.47544875391759e-05,0.088097482919693,0,0,0
3693,125174.29099042268,2010-09-16 00:43:40,5222.665117299722,2,11,0.5501165986061096,4.096855640411377,11.17638694336464,10.509313969338589,44.466140691751725,38.49324914412375,6.47544875391759e-05,0.088097482919693,0,0,0
3694,125204.30643174695,2010-09-16 00:44:10,5252.680558593952,2,11,0.5501165986061096,4.099931716918945,11.180973570151616,10.509313969338589,44.48493833611706,38.49324914412375,9.71794142969884e-05,0.088097482919693,0,0,0
3695,125234.32165622,2010-09-16 00:44:40,5282.695783066963,2,11,0.550297200679779,4.103007316589356,11.185560188161364,10.509313969338589,44.50374990980987,38.49324914412375,9.70840483205393e-05,0.088097482919693,0,0,0
3696,125264.33697181546,2010-09-16 00:45:10,5312.711098752656,2,11,0.5499359965324402,4.105921268463135,11.190146749836217,10.509313969338589,44.522575366046496,38.49324914412375,3.23295607813634e-05,0.088097482919693,0,0,0
3697,125294.35245152556,2010-09-16 00:45:40,5342.72657838759,2,11,0.5501165986061096,4.108997344970703,11.194733393769456,10.509313969338589,44.54141537270452,38.49324914412375,6.47544875391759e-05,0.088097482919693,0,0,0
3698,125324.36758862047,2010-09-16 00:46:10,5372.741715472468,2,11,0.5501165986061096,4.112235069274902,11.199319990330284,10.509313969338589,44.56026953799629,38.49324914412375,3.24249267578125e-05,0.088097482919693,0,0,0
3699,125354.38311236052,2010-09-16 00:46:40,5402.757239217509,2,11,0.550297200679779,4.115472316741943,11.203906536769113,10.509313969338589,44.57913778222003,38.49324914412375,6.47544875391759e-05,0.088097482919693,0,0,0
3700,125384.39823428252,2010-09-16 00:47:10,5432.772361144549,2,11,0.5499359965324402,4.118548393249512,11.208493070551004,10.509313969338589,44.59802063027868,38.49324914412375,6.47544875391759e-05,0.088097482919693,0,0,0
3701,125414.41354847448,2010-09-16 00:47:40,5462.787675321476,2,11,0.550297200679779,4.121947765350342,11.2130796295376,10.509313969338589,44.61691824704388,38.49324914412375,9.70840483205393e-05,0.088097482919693,0,0,0
3702,125444.428887318,2010-09-16 00:48:10,5492.8030141950485,2,11,0.550297200679779,4.12502384185791,11.217666191956788,10.509313969338589,44.63583066318451,38.49324914412375,6.47544875391759e-05,0.088097482919693,0,0,0
3703,125474.44440905804,2010-09-16 00:48:40,5522.818535905009,2,11,0.5501165986061096,4.12842321395874,11.222252785831632,10.509313969338589,44.65475811630533,38.49324914412375,0.0001295089750783,0.088097482919693,0,0,0
3704,125504.45967949578,2010-09-16 00:49:10,5552.833806347768,2,11,0.5501165986061096,4.1318230628967285,11.226839356274086,10.509313969338589,44.673700588434606,38.49324914412375,0.0001295089750783,0.088097482919693,0,0,0
3705,125534.4748448061,2010-09-16 00:49:40,5582.848971653088,2,11,0.5501165986061096,4.134898662567139,11.231425881498977,10.509313969338589,44.69265801473178,38.49324914412375,6.47544875391759e-05,0.088097482919693,0,0,0
3706,125564.49015988527,2010-09-16 00:50:10,5612.864286737279,2,11,0.5499359965324402,4.138136386871338,11.2360124604461,10.509313969338589,44.71163096332735,38.49324914412375,6.47544875391759e-05,0.088097482919693,0,0,0
3707,125594.50549165111,2010-09-16 00:50:40,5642.879618498097,2,11,0.5499359965324402,4.141697883605957,11.240599016995578,10.509313969338589,44.73061929171987,38.49324914412375,9.70840483205393e-05,0.088097482919693,0,0,0
3708,125624.52080193834,2010-09-16 00:51:10,5672.894928785314,2,11,0.550297200679779,4.145097732543945,11.24518564950483,10.509313969338589,44.74962353645046,38.49324914412375,6.47544875391759e-05,0.088097482919693,0,0,0
3709,125654.53613638083,2010-09-16 00:51:40,5702.910263237852,2,11,0.5499359965324402,4.1486592292785645,11.249772241325962,10.509313969338589,44.76864359283615,38.49324914412375,9.71794142969884e-05,0.088097482919693,0,0,0
3710,125684.5514477558,2010-09-16 00:52:10,5732.925574612783,2,11,0.550297200679779,4.152220726013184,11.254358830357909,10.509313969338589,44.78767939502437,38.49324914412375,0.0001295089750783,0.088097482919693,0,0,0
3711,125714.5668224588,2010-09-16 00:52:40,5762.940949335843,2,11,0.5501165986061096,4.155458450317383,11.258945392668656,10.509313969338589,44.80673095559764,38.49324914412375,9.71794142969884e-05,0.088097482919693,0,0,0
3712,125744.58208890156,2010-09-16 00:53:10,5792.956215753555,2,11,0.5501165986061096,4.159019947052002,11.263531881202166,10.509313969338589,44.825798287004645,38.49324914412375,9.71794142969884e-05,0.088097482919693,0,0,0
3713,125774.5974253942,2010-09-16 00:53:40,5822.971552246184,2,11,0.5499359965324402,4.162419319152832,11.26811847651882,10.509313969338589,44.844882247812215,38.49324914412375,6.47544875391759e-05,0.088097482919693,0,0,0
3714,125804.61272783182,2010-09-16 00:54:10,5852.986854688819,2,11,0.5501165986061096,4.16614294052124,11.272705038760735,10.509313969338589,44.86398226189733,38.49324914412375,9.71794142969884e-05,0.088097482919693,0,0,0
3715,125834.62806157256,2010-09-16 00:54:40,5883.002188424568,2,11,0.5501165986061096,4.169704437255859,11.277291643634586,10.509313969338589,44.88309886724531,38.49324914412375,9.71794142969884e-05,0.088097482919693,0,0,0
3716,125864.643378351,2010-09-16 00:55:10,5913.017505197975,2,11,0.5499359965324402,4.173265933990479,11.281878229621038,10.509313969338589,44.90223189809602,38.49324914412375,6.47544875391759e-05,0.088097482919693,0,0,0
3717,125894.65873861796,2010-09-16 00:55:40,5943.0328654699615,2,11,0.550297200679779,4.1769890785217285,11.286464834876544,10.509313969338589,44.92138165628148,38.49324914412375,9.70840483205393e-05,0.088097482919693,0,0,0
3718,125924.67415470428,2010-09-16 00:56:10,5973.048281561281,2,11,0.5501165986061096,4.180550575256348,11.291051446943744,10.509313969338589,44.940548192403945,38.49324914412375,6.47544875391759e-05,0.088097482919693,0,0,0
3719,125954.68934295687,2010-09-16 00:56:40,6003.063469813881,2,11,0.5501165986061096,4.184435844421387,11.295637946319394,10.509313969338589,44.95973116685138,38.49324914412375,0.0001295089750783,0.088097482919693,0,0,0
3720,125984.70465951474,2010-09-16 00:57:10,6033.078786371751,2,11,0.5501165986061096,4.188159465789795,11.30022454651112,10.509313969338589,44.9789315267311,38.49324914412375,9.71794142969884e-05,0.088097482919693,0,0,0
3721,126014.72016865332,2010-09-16 00:57:40,6063.094295635644,2,11,0.5499359965324402,4.191720962524414,11.30481113910792,10.509313969338589,44.99814905721696,38.49324914412375,9.71794142969884e-05,0.088097482919693,0,0,0
3722,126044.73529922696,2010-09-16 00:58:10,6093.109426073931,2,11,0.5501165986061096,4.195605754852295,11.309397732024363,10.509313969338589,45.01738383391952,38.49324914412375,9.70840483205393e-05,0.088097482919693,0,0,0
3723,126074.75077237569,2010-09-16 00:58:40,6123.124899227687,2,11,0.5501165986061096,4.199491024017334,11.313984350390829,10.509313969338589,45.03663610156576,38.49324914412375,9.70840483205393e-05,0.088097482919693,0,0,0
3724,126078.89122167917,2010-09-16 00:58:44,6127.265348556204,2,11,0.550297200679779,4.200138568878174,11.314617059650672,10.509313969338589,45.039293274407314,38.49324914412375,0.0001295089750783,0.088097482919693,0,0,0
3725,126108.9040466098,2010-09-16 00:59:14,30.015337434981937,3,11,0.0,4.122595310211182,11.314617059650672,10.509313969338589,45.039293274407314,38.49324914412375,-0.0003561973571777,0.088097482919693,0,0,0
3726,126138.919500315,2010-09-16 00:59:44,60.03079124044248,3,11,0.0,4.113206386566162,11.314617059650672,10.509313969338589,45.039293274407314,38.49324914412375,-0.0001618385285837,0.088097482919693,0,0,0
3727,126168.93469036208,2010-09-16 01:00:14,90.04598119228382,3,11,0.0,4.107378482818604,11.314617059650672,10.509313969338589,45.039293274407314,38.49324914412375,-0.0001618385285837,0.088097482919693,0,0,0
3728,126198.90314848408,2010-09-16 01:00:44,120.01443931428835,3,11,0.0,4.103978633880615,11.314617059650672,10.509313969338589,45.039293274407314,38.49324914412375,-6.47544875391759e-05,0.088097482919693,0,0,0
3729,126198.91756569466,2010-09-16 01:00:44,0.015728069681628,4,11,0.9917063117027284,4.199491024017334,11.314621392324728,10.509313969338589,45.03931146943312,38.49324914412375,0.0,0.088097482919693,0,0,0
3730,126199.8550598894,2010-09-16 01:00:45,0.953222274446599,4,11,0.941316306591034,4.199653148651123,11.314871407559682,10.509313969338589,45.040361436828896,38.49324914412375,3.24249267578125e-05,0.088097482919693,0,0,0
3731,126202.01130920443,2010-09-16 01:00:48,3.109471579442531,4,11,0.8909263014793396,4.199653148651123,11.315418933902668,10.509313969338589,45.04266086148146,38.49324914412375,3.24249267578125e-05,0.088097482919693,0,0,0
3732,126205.19886832238,2010-09-16 01:00:51,6.29703079764489,4,11,0.84053635597229,4.199491024017334,11.316184554197132,10.509313969338589,45.045876203765694,38.49324914412375,-3.24249267578125e-05,0.088097482919693,0,0,0
3733,126209.55797393562,2010-09-16 01:00:55,10.656136340712008,4,11,0.7905075550079346,4.199653148651123,11.3171709630416,10.509313969338589,45.05001880509082,38.49324914412375,-3.23295607813634e-05,0.088097482919693,0,0,0
3734,126215.12040867348,2010-09-16 01:01:01,16.218571058526862,4,11,0.7401175498962402,4.199653148651123,11.318351971408251,10.509313969338589,45.054978659912805,38.49324914412375,-3.23295607813634e-05,0.088097482919693,0,0,0
3735,126222.35473193732,2010-09-16 01:01:08,23.45289433239124,4,11,0.6899082064628601,4.199653148651123,11.31978685065976,10.509313969338589,45.06100471496779,38.49324914412375,0.0,0.088097482919693,0,0,0
3736,126231.8546116837,2010-09-16 01:01:17,32.952774073745616,4,11,0.6395182013511658,4.199491024017334,11.321538167286612,10.509313969338589,45.06835969543376,38.49324914412375,-6.47544875391759e-05,0.088097482919693,0,0,0
3737,126245.01072653037,2010-09-16 01:01:31,46.10888890538305,4,11,0.5891281962394714,4.199491024017334,11.323779649553092,10.509313969338589,45.077773203741415,38.49324914412375,-3.24249267578125e-05,0.088097482919693,0,0,0
3738,126264.68525893008,2010-09-16 01:01:50,65.78342140034162,4,11,0.5390994548797607,4.199653148651123,11.326855154072838,10.509313969338589,45.09068936635938,38.49324914412375,0.0,0.088097482919693,0,0,0
3739,126296.7914524385,2010-09-16 01:02:22,97.8896148185278,4,11,0.4890706837177276,4.199653148651123,11.331422655702584,10.509313969338589,45.10987142316785,38.49324914412375,0.0,0.088097482919693,0,0,0
3740,126351.790898367,2010-09-16 01:03:17,152.88906074701853,4,11,0.4390419125556946,4.199814796447754,11.33848550509734,10.509313969338589,45.13953314842116,38.49324914412375,3.23295607813634e-05,0.088097482919693,0,0,0
3741,126437.39940438354,2010-09-16 01:04:43,238.49756676858777,4,11,0.3890131413936615,4.199329376220703,11.348308402131744,10.509313969338589,45.18078614093302,38.49324914412375,-6.47544875391759e-05,0.088097482919693,0,0,0
3742,126546.96078880968,2010-09-16 01:06:32,348.058951214763,4,11,0.3389843702316284,4.199491024017334,11.359371862774506,10.509313969338589,45.22724897267794,38.49324914412375,-3.24249267578125e-05,0.088097482919693,0,0,0
3743,126678.74073912448,2010-09-16 01:08:44,479.83890149951225,4,11,0.2889555990695953,4.199491024017334,11.370855209617988,10.509313969338589,45.27547515708504,38.49324914412375,-3.24249267578125e-05,0.088097482919693,0,0,0
3744,126839.52035477548,2010-09-16 01:11:25,640.6185171705526,4,11,0.2389268279075622,4.199653148651123,11.38262286464963,10.509313969338589,45.3248955734755,38.49324914412375,0.0,0.088097482919693,0,0,0
3745,127037.53396136616,2010-09-16 01:14:43,838.6321237512097,4,11,0.1888980567455291,4.199491024017334,11.394365550148224,10.509313969338589,45.37421114747749,38.49324914412375,-3.24249267578125e-05,0.088097482919693,0,0,0
3746,127305.82827488876,2010-09-16 01:19:11,1106.9264373640356,4,11,0.1388692855834961,4.199814796447754,11.4065184564378,10.509313969338589,45.42524952000995,38.49324914412375,0.0,0.088097482919693,0,0,0
3747,127714.05839472252,2010-09-16 01:26:00,1515.156557117574,4,11,0.0888405218720436,4.199653148651123,11.419224041712802,10.509313969338589,45.47860896175101,38.49324914412375,3.24249267578125e-05,0.088097482919693,0,0,0
3748,128272.33406253291,2010-09-16 01:35:18,2073.4322249079432,4,11,0.0498289167881011,4.199653148651123,11.42968622119052,10.509313969338589,45.52254682895718,38.49324914412375,0.0,0.088097482919693,0,0,0
3749,128302.3533480486,2010-09-16 01:35:48,30.015312352371883,5,11,0.0,4.192530155181885,11.42968622119052,10.509313969338589,45.52254682895718,38.49324914412375,-3.24249267578125e-05,0.088097482919693,0,0,0
3750,128332.3530505564,2010-09-16 01:36:18,60.0150148601702,5,11,0.0,4.191720962524414,11.42968622119052,10.509313969338589,45.52254682895718,38.49324914412375,3.24249267578125e-05,0.088097482919693,0,0,0
3751,128332.53744254862,2010-09-16 01:36:18,0.187619707654877,6,11,-1.9243103452026844e-05,4.191397190093994,11.42968622119052,10.509313970341472,45.52254682895718,38.49324914832724,0.0,0.0890663415193557,0,0,0
3752,128337.3498831006,2010-09-16 01:36:23,5.000060274685658,6,11,0.0005225847125984,4.191397190093994,11.429687037475516,10.50931397050778,45.52255025042817,38.4932491490243,-3.23295607813634e-05,0.0890663415193557,0,0,0
3753,128367.3618624714,2010-09-16 01:36:53,30.015285705858084,7,11,-1.0997490882873535,4.031454086303711,11.429687037475516,10.518482833789706,45.52255025042817,38.53039150157058,-0.0008741378551349,0.0890663415193557,0,0,0
3754,128397.37795684584,2010-09-16 01:37:23,60.03138027075276,7,11,-1.099568486213684,4.007656574249268,11.429687037475516,10.527652010878812,45.52255025042817,38.5672379644282,-0.0005180359003134,0.0890663415193557,0,0,0
3755,128427.37973068396,2010-09-16 01:37:53,90.03315411392283,7,11,-1.0997490882873535,3.9913063049316406,11.429687037475516,10.536816673334387,45.52255025042817,38.603887152845545,-0.0003561496851034,0.0890663415193557,0,0,0
3756,128457.39239576334,2010-09-16 01:38:23,120.04581907299377,7,11,-1.099568486213684,3.9785172939300537,11.429687037475516,10.545984674820012,45.52255025042817,38.64041884730336,-0.0003237724304199,0.0890663415193557,0,0,0
3757,128487.4075370838,2010-09-16 01:38:53,150.0609602982059,7,11,-1.0997490882873535,3.967832803726196,11.429687037475516,10.555153324906213,45.52255025042817,38.67684567960934,-0.0002590179501567,0.0890663415193557,0,0,0
3758,128517.42286355642,2010-09-16 01:39:23,180.07628677082408,7,11,-1.099568486213684,3.9579577445983887,11.429687037475516,10.564322142601332,45.52255025042817,38.713179106722265,-0.0002590179501567,0.0890663415193557,0,0,0
3759,128547.4381946606,2010-09-16 01:39:53,210.0916179050785,7,11,-1.099568486213684,3.948892116546631,11.429687037475516,10.573490850149035,45.52255025042817,38.74942569496251,-0.0002266406954731,0.0890663415193557,0,0,0
3760,128577.4536519698,2010-09-16 01:40:23,240.10707518420983,7,11,-1.099568486213684,3.940150260925293,11.429687037475516,10.582659620660031,45.52255025042817,38.7855910601734,-0.0001942634553415,0.0890663415193557,0,0,0
3761,128607.4688282826,2010-09-16 01:40:53,270.122251507031,7,11,-1.099568486213684,3.931732177734375,11.429687037475516,10.591828290627053,45.52255025042817,38.821677787752925,-0.0001942634553415,0.0890663415193557,0,0,0
3762,128637.48418762223,2010-09-16 01:41:23,300.1376108617279,7,11,-1.0997490882873535,3.923637866973877,11.429687037475516,10.60099710483006,45.52255025042817,38.85768922054258,-0.0001942634553415,0.0890663415193557,0,0,0
3763,128667.49965503668,2010-09-16 01:41:53,330.15307834633376,7,11,-1.0992072820663452,3.915705442428589,11.429687037475516,10.610165901583905,45.52255025042817,38.89362659667088,-0.0001942634553415,0.0890663415193557,0,0,0
3764,128697.51482071292,2010-09-16 01:42:23,360.16824392734173,7,11,-1.0997490882873535,3.90761137008667,11.429687037475516,10.619334655096573,45.52255025042817,38.92949138465011,-0.0002266406954731,0.0890663415193557,0,0,0
3765,128727.53027758104,2010-09-16 01:42:53,390.1837007954471,7,11,-1.0997490882873535,3.9000027179718018,11.429687037475516,10.628503470890935,45.52255025042817,38.96528516805934,-0.0001618862152099,0.0890663415193557,0,0,0
3766,128757.5454584402,2010-09-16 01:43:23,420.1988816545917,7,11,-1.0997490882873535,3.892555952072144,11.429687037475516,10.637672167151948,45.52255025042817,39.00100849531663,-0.0001618862152099,0.0890663415193557,0,0,0
3767,128787.56079600548,2010-09-16 01:43:53,450.21421931513663,7,11,-1.099929690361023,3.8847854137420654,11.429687037475516,10.64684097783366,45.52255025042817,39.03666353097064,-0.0002266406954731,0.0890663415193557,0,0,0
3768,128817.57612240792,2010-09-16 01:44:23,480.2295457175797,7,11,-1.0997490882873535,3.877500534057617,11.429687037475516,10.656009755639351,45.52255025042817,39.07225010241755,-0.0002266406954731,0.0890663415193557,0,0,0
3769,128847.5915017074,2010-09-16 01:44:53,510.244925919314,7,11,-1.099568486213684,3.870215654373169,11.429687037475516,10.665178541454129,45.52255025042817,39.107769092350914,-0.0001942634553415,0.0890663415193557,0,0,0
3770,128877.60677260632,2010-09-16 01:45:23,540.2601959159595,7,11,-1.0997490882873535,3.86309266090393,11.429687037475516,10.674347271560968,45.52255025042817,39.14322122604315,-0.0001618862152099,0.0890663415193557,0,0,0
3771,128907.62209577567,2010-09-16 01:45:53,570.2755189750569,7,11,-1.0997490882873535,3.8558077812194815,11.429687037475516,10.683516157075786,45.52255025042817,39.17860825399486,-0.0001942634553415,0.0890663415193557,0,0,0
3772,128937.63741576712,2010-09-16 01:46:23,600.2908389815346,7,11,-1.099929690361023,3.848846673965454,11.429687037475516,10.692684948872506,45.52255025042817,39.21393004003246,-0.0001942634553415,0.0890663415193557,0,0,0
3773,128967.65274741263,2010-09-16 01:46:53,630.3061706270653,7,11,-1.099568486213684,3.842047452926636,11.429687037475516,10.701853723591729,45.52255025042817,39.2491875953721,-0.0001618862152099,0.0890663415193557,0,0,0
3774,128997.66806702816,2010-09-16 01:47:23,660.3214902525921,7,11,-1.0997490882873535,3.8349244594573975,11.429687037475516,10.711022494096612,45.52255025042817,39.28438190192675,-0.0002266406954731,0.0890663415193557,0,0,0
3775,129027.6834023228,2010-09-16 01:47:53,690.3368255372063,7,11,-1.0997490882873535,3.828449249267578,11.429687037475516,10.72019123432224,45.52255025042817,39.31951377173279,-0.0001618862152099,0.0890663415193557,0,0,0
3776,129057.69872896082,2010-09-16 01:48:24,720.3521522003,7,11,-1.099568486213684,3.8218119144439697,11.429687037475516,10.729360008016313,45.52255025042817,39.354584521712205,-0.0001618862152099,0.0890663415193557,0,0,0
3777,129087.7140202456,2010-09-16 01:48:54,750.3674434600215,7,11,-1.0997490882873535,3.815174579620361,11.429687037475516,10.738528794884656,45.52255025042817,39.38959516772941,-0.0001942634553415,0.0890663415193557,0,0,0
3778,129117.72947646207,2010-09-16 01:49:24,780.3828996714877,7,11,-1.0997490882873535,3.808699131011963,11.429687037475516,10.747697568417768,45.52255025042817,39.42454612174348,-0.0001295089750783,0.0890663415193557,0,0,0
3779,129147.7448152304,2010-09-16 01:49:54,810.3982384748855,7,11,-1.0997490882873535,3.8023855686187744,11.429687037475516,10.756866264364968,45.52255025042817,39.45943834999877,-0.0001942634553415,0.0890663415193557,0,0,0
3780,129177.76000844038,2010-09-16 01:50:24,840.413431679847,7,11,-1.0997490882873535,3.796233892440796,11.429687037475516,10.766035036152278,45.52255025042817,39.49427396730798,-0.0001618862152099,0.0890663415193557,0,0,0
3781,129207.77560113752,2010-09-16 01:50:54,870.4290243619652,7,11,-1.0993878841400146,3.7902441024780273,11.429687037475516,10.775203885757067,45.52255025042817,39.52905411441108,-0.0001295089750783,0.0890663415193557,0,0,0
3782,129237.7906429596,2010-09-16 01:51:24,900.4440662041018,7,11,-1.0997490882873535,3.784254312515259,11.429687037475516,10.78437255126545,45.52255025042817,39.56377883371928,-0.0001942634553415,0.0890663415193557,0,0,0
3783,129267.80599789828,2010-09-16 01:51:54,930.4594211127006,7,11,-1.0997490882873535,3.7784264087677,11.429687037475516,10.79354130368576,45.52255025042817,39.598449981928304,-0.0001942634553415,0.0890663415193557,0,0,0
3784,129297.8212968522,2010-09-16 01:52:24,960.4747200666278,7,11,-1.0997490882873535,3.772760391235352,11.429687037475516,10.80271006665046,45.52255025042817,39.633068486736825,-0.0001295089750783,0.0890663415193557,0,0,0
3785,129327.83662399148,2010-09-16 01:52:54,990.49004720591,7,11,-1.099568486213684,3.767094373703003,11.429687037475516,10.811878787156166,45.52255025042817,39.66763473033141,-0.0001942634553415,0.0890663415193557,0,0,0
3786,129357.85208361648,2010-09-16 01:53:24,1020.5055068409222,7,11,-1.0997490882873535,3.761590242385864,11.429687037475516,10.821047611119946,45.52255025042817,39.70215048854391,-0.0001942634553415,0.0890663415193557,0,0,0
3787,129387.86727765852,2010-09-16 01:53:54,1050.520700872948,7,11,-1.099568486213684,3.756571769714356,11.429687037475516,10.83021628339387,45.52255025042817,39.73661570703454,-9.713172767078504e-05,0.0890663415193557,0,0,0
3788,129417.88273294768,2010-09-16 01:54:24,1080.5361561821624,7,11,-1.0997490882873535,3.750905990600586,11.429687037475516,10.839385061680543,45.52255025042817,39.77103230700948,-0.0001618862152099,0.0890663415193557,0,0,0
3789,129447.89791910004,2010-09-16 01:54:54,1110.5513423144696,7,11,-1.099929690361023,3.745725631713867,11.429687037475516,10.84855382307028,45.52255025042817,39.80540094184752,-0.0001618862152099,0.0890663415193557,0,0,0
3790,129477.913265332,2010-09-16 01:55:24,1140.5666885714727,7,11,-1.099568486213684,3.740869045257568,11.429687037475516,10.857722602040155,45.52255025042817,39.83972272446752,-0.0001295089750783,0.0890663415193557,0,0,0
3791,129507.9285792984,2010-09-16 01:55:54,1170.582002542886,7,11,-1.099568486213684,3.7360124588012695,11.429687037475516,10.866891394248212,45.52255025042817,39.873998258056105,-9.713172767078504e-05,0.0890663415193557,0,0,0
3792,129537.94389434753,2010-09-16 01:56:24,1200.5973175619142,7,11,-1.0997490882873535,3.730832099914551,11.429687037475516,10.87606020469076,45.52255025042817,39.908227935753295,-9.713172767078504e-05,0.0890663415193557,0,0,0
3793,129567.95922014843,2010-09-16 01:56:54,1230.6126433628558,7,11,-1.099568486213684,3.725975513458252,11.429687037475516,10.885228976092174,45.52255025042817,39.94241291208015,-0.0001295089750783,0.0890663415193557,0,0,0
3794,129597.97455163355,2010-09-16 01:57:24,1260.6279748479858,7,11,-1.0997490882873535,3.721280813217163,11.429687037475516,10.894397680395649,45.52255025042817,39.97655397956101,-0.0001295089750783,0.0890663415193557,0,0,0
3795,129627.98989879784,2010-09-16 01:57:54,1290.6433220172662,7,11,-1.0997490882873535,3.716747999191284,11.429687037475516,10.903566451328468,45.52255025042817,40.01065196688318,-6.47544875391759e-05,0.0890663415193557,0,0,0
3796,129658.0051957618,2010-09-16 01:58:24,1320.6586189762138,7,11,-1.0997490882873535,3.711891412734986,11.429687037475516,10.912735254241404,45.52255025042817,40.044707416719454,-0.0001295089750783,0.0890663415193557,0,0,0
3797,129688.02054652503,2010-09-16 01:58:54,1350.6739697645276,7,11,-1.099568486213684,3.707520484924317,11.429687037475516,10.92190404068318,45.52255025042817,40.07872085266839,-0.0001295089750783,0.0890663415193557,0,0,0
3798,129718.03600081171,2010-09-16 01:59:24,1380.6894240261267,7,11,-1.0997490882873535,3.703149557113648,11.429687037475516,10.931072865854212,45.52255025042817,40.11269311758605,-6.47544875391759e-05,0.0890663415193557,0,0,0
3799,129748.05117521474,2010-09-16 01:59:54,1410.704598459231,7,11,-1.099568486213684,3.698616743087769,11.429687037475516,10.940241607538162,45.52255025042817,40.14662415670942,-9.713172767078504e-05,0.0890663415193557,0,0,0
3800,129778.06662177212,2010-09-16 02:00:24,1440.7200450015616,7,11,-1.0997490882873535,3.6942458152771,11.429687037475516,10.949410450750648,45.52255025042817,40.18051531061607,-9.713172767078504e-05,0.0890663415193557,0,0,0
3801,129808.08182482164,2010-09-16 02:00:54,1470.7352480360594,7,11,-1.0997490882873535,3.6897130012512207,11.429687037475516,10.958579198656397,45.52255025042817,40.2143664447506,-0.0001295089750783,0.0890663415193557,0,0,0
3802,129838.09726363968,2010-09-16 02:01:24,1500.7506868541088,7,11,-1.0997490882873535,3.685665845870972,11.429687037475516,10.96774798581746,45.52255025042817,40.24817866865191,-9.713172767078504e-05,0.0890663415193557,0,0,0
3803,129868.11247399249,2010-09-16 02:01:54,1530.765897216899,7,11,-1.0997490882873535,3.6814568042755127,11.429687037475516,10.976916684334162,45.52255025042817,40.28195204502461,-0.0001295089750783,0.0890663415193557,0,0,0
3804,129898.12780662546,2010-09-16 02:02:24,1560.7812298699446,7,11,-1.099568486213684,3.677409648895264,11.429687037475516,10.986085482966995,45.52255025042817,40.31568779935159,-9.713172767078504e-05,0.0890663415193557,0,0,0
3805,129928.14311179992,2010-09-16 02:02:54,1590.796535119587,7,11,-1.0997490882873535,3.6732006072998047,11.429687037475516,10.995254328170327,45.52255025042817,40.34938651720029,-0.0001295089750783,0.0890663415193557,0,0,0
3806,129958.1585201018,2010-09-16 02:03:24,1620.811943386376,7,11,-1.099568486213684,3.6694774627685542,11.429687037475516,11.004423173930626,45.52255025042817,40.38304833213962,-6.47544875391759e-05,0.0890663415193557,0,0,0
3807,129988.17377207846,2010-09-16 02:03:54,1650.8271952928656,7,11,-1.0997490882873535,3.6654303073883057,11.429687037475516,11.013591998442212,45.52255025042817,40.41667393715088,-0.0001295089750783,0.0890663415193557,0,0,0
3808,130018.18921960324,2010-09-16 02:04:24,1680.8426428176483,7,11,-1.099568486213684,3.6615450382232666,11.429687037475516,11.022760892413848,45.52255025042817,40.45026415098412,-9.713172767078504e-05,0.0890663415193557,0,0,0
3809,130048.20440764532,2010-09-16 02:04:54,1710.857830859723,7,11,-1.0997490882873535,3.657659769058228,11.429687037475516,11.03192975200694,45.52255025042817,40.48381884104992,-9.713172767078504e-05,0.0890663415193557,0,0,0
3810,130078.21998637762,2010-09-16 02:05:24,1740.8734096822452,7,11,-1.099568486213684,3.654098272323608,11.429687037475516,11.041098629832575,45.52255025042817,40.517339083304925,-9.713172767078504e-05,0.0890663415193557,0,0,0
3811,130108.23507726716,2010-09-16 02:05:54,1770.8885005016368,7,11,-1.099568486213684,3.650536775588989,11.429687037475516,11.050267386785393,45.52255025042817,40.55082528399394,-6.47544875391759e-05,0.0890663415193557,0,0,0
3812,130138.2509038682,2010-09-16 02:06:24,1800.9043270926272,7,11,-1.099568486213684,3.64681339263916,11.429687037475516,11.059436368741578,45.52255025042817,40.58427922698888,-9.713172767078504e-05,0.0890663415193557,0,0,0
3813,130168.26571836784,2010-09-16 02:06:54,1830.9191415822577,7,11,-1.099568486213684,3.643413782119751,11.429687037475516,11.068604937369187,45.52255025042817,40.61769890783306,-9.713172767078504e-05,0.0890663415193557,0,0,0
3814,130198.28118753666,2010-09-16 02:07:24,1860.9346108513173,7,11,-1.0997490882873535,3.640014171600342,11.429687037475516,11.077773703624528,45.52255025042817,40.651087838708285,-6.47544875391759e-05,0.0890663415193557,0,0,0
3815,130228.29636803993,2010-09-16 02:07:54,1890.9497912543231,7,11,-1.0997490882873535,3.636452674865722,11.429687037475516,11.086942446018288,45.52255025042817,40.6844459439654,-9.713172767078504e-05,0.0890663415193557,0,0,0
3816,130258.31168612158,2010-09-16 02:08:24,1920.9651093359964,7,11,-1.099929690361023,3.633214950561523,11.429687037475516,11.096111170512566,45.52255025042817,40.717773891023846,-9.713172767078504e-05,0.0890663415193557,0,0,0
3817,130288.32701205784,2010-09-16 02:08:54,1950.980435272276,7,11,-1.0997490882873535,3.630300998687744,11.429687037475516,11.105280028933274,45.52255025042817,40.75107303198753,-6.47544875391759e-05,0.0890663415193557,0,0,0
3818,130318.34235285624,2010-09-16 02:09:24,1980.9957760706527,7,11,-1.099568486213684,3.627225160598755,11.429687037475516,11.114448792182428,45.52255025042817,40.78434324231469,-3.237724376958795e-05,0.0890663415193557,0,0,0
3819,130348.36046731308,2010-09-16 02:09:54,2011.0138906478087,7,11,-1.099929690361023,3.6241493225097656,11.429687037475516,11.12361846753718,45.52255025042817,40.81758874862557,-6.47544875391759e-05,0.0890663415193557,0,0,0
3820,130378.37312685364,2010-09-16 02:10:24,2041.0265501532672,7,11,-1.0997490882873535,3.6209115982055664,11.429687037475516,11.132786499937176,45.52255025042817,40.85080089773458,-0.0001295089750783,0.0890663415193557,0,0,0
3821,130408.38828462517,2010-09-16 02:10:54,2071.041707839569,7,11,-1.099568486213684,3.618321418762207,11.429687037475516,11.141954762691231,45.52255025042817,40.88398721723005,-6.47544875391759e-05,0.0890663415193557,0,0,0
3822,130438.40359137351,2010-09-16 02:11:24,2101.057014618028,7,11,-1.099568486213684,3.6155693531036377,11.429687037475516,11.15112286721042,45.52255025042817,40.91714689997725,-6.47544875391759e-05,0.0890663415193557,0,0,0
3823,130468.41895450768,2010-09-16 02:11:54,2131.0723777220837,7,11,-1.099568486213684,3.6126554012298575,11.429687037475516,11.160291068401056,45.52255025042817,40.95028125342424,-9.713172767078504e-05,0.0890663415193557,0,0,0
3824,130498.43428065447,2010-09-16 02:12:24,2161.087703964126,7,11,-1.099568486213684,3.609903335571289,11.429687037475516,11.169459110555945,45.52255025042817,40.98338974680173,-9.713172767078504e-05,0.0890663415193557,0,0,0
3825,130528.44960379878,2010-09-16 02:12:54,2191.1030270131987,7,11,-1.0993878841400146,3.6073131561279297,11.429687037475516,11.178627163298207,45.52255025042817,41.01647345439108,-6.47544875391759e-05,0.0890663415193557,0,0,0
3826,130558.46503410558,2010-09-16 02:13:24,2221.118457320003,7,11,-1.099568486213684,3.6043992042541504,11.429687037475516,11.187795146532212,45.52255025042817,41.0495321986936,-6.47544875391759e-05,0.0890663415193557,0,0,0
3827,130588.48028441812,2010-09-16 02:13:54,2251.133707637526,7,11,-1.0997490882873535,3.601970911026001,11.429687037475516,11.196963517221986,45.52255025042817,41.08256794361809,-3.237724376958795e-05,0.0890663415193557,0,0,0
3828,130618.49556935704,2010-09-16 02:14:24,2281.1489925814826,7,11,-1.099929690361023,3.599218845367432,11.429687037475516,11.206132227427185,45.52255025042817,41.11558061588959,-6.47544875391759e-05,0.0890663415193557,0,0,0
3829,130648.5108911179,2010-09-16 02:14:54,2311.1643143323145,7,11,-1.099568486213684,3.5966286659240723,11.429687037475516,11.215300945470403,45.52255025042817,41.14856892610302,-6.47544875391759e-05,0.0890663415193557,0,0,0
3830,130678.52621174594,2010-09-16 02:15:24,2341.1796349603437,7,11,-1.0997490882873535,3.594038486480713,11.429687037475516,11.224469587474848,45.52255025042817,41.18153268657736,-6.47544875391759e-05,0.0890663415193557,0,0,0
3831,130708.54155163204,2010-09-16 02:15:54,2371.194974856469,7,11,-1.0997490882873535,3.5912866592407227,11.429687037475516,11.233638378730667,45.52255025042817,41.21447261646439,-6.47544875391759e-05,0.0890663415193557,0,0,0
3832,130738.55688777378,2010-09-16 02:16:24,2401.21031101326,7,11,-1.099568486213684,3.5885345935821533,11.429687037475516,11.242807148060535,45.52255025042817,41.24738766753247,-9.713172767078504e-05,0.0890663415193557,0,0,0
3833,130768.5721846876,2010-09-16 02:16:54,2431.225607902032,7,11,-1.099568486213684,3.585782527923584,11.429687037475516,11.25197585782504,45.52255025042817,41.28027745258158,-6.47544875391759e-05,0.0890663415193557,0,0,0
3834,130798.58751732562,2010-09-16 02:17:24,2461.2409405400404,7,11,-1.0997490882873535,3.5828685760498047,11.429687037475516,11.261144623748043,45.52255025042817,41.313141848608026,-0.0001295089750783,0.0890663415193557,0,0,0
3835,130828.60284543232,2010-09-16 02:17:54,2491.2562686467377,7,11,-1.099929690361023,3.580116510391236,11.429687037475516,11.270313351618857,45.52255025042817,41.34598036712747,-6.47544875391759e-05,0.0890663415193557,0,0,0
3836,130858.61817206032,2010-09-16 02:18:24,2521.2715952947938,7,11,-1.099568486213684,3.577202558517456,11.429687037475516,11.279482111507216,45.52255025042817,41.378792568116445,-9.713172767078504e-05,0.0890663415193557,0,0,0
3837,130888.63348155055,2010-09-16 02:18:54,2551.286904764971,7,11,-1.099568486213684,3.5742886066436768,11.429687037475516,11.28865085547858,45.52255025042817,41.411577732128514,-0.0001295089750783,0.0890663415193557,0,0,0
3838,130918.64880904072,2010-09-16 02:19:24,2581.302232255129,7,11,-1.0997490882873535,3.571050882339477,11.429687037475516,11.297819531377852,45.52255025042817,41.44433482223873,-9.713172767078504e-05,0.0890663415193557,0,0,0
3839,130948.6642681845,2010-09-16 02:19:54,2611.3176916094403,7,11,-1.0997490882873535,3.5679750442504883,11.429687037475516,11.306988211870324,45.52255025042817,41.47706294011128,-9.713172767078504e-05,0.0890663415193557,0,0,0
3840,130978.67948374026,2010-09-16 02:20:25,2641.332906954668,7,11,-1.099568486213684,3.564899206161499,11.429687037475516,11.31615688155714,45.52255025042817,41.5097616067397,-6.47544875391759e-05,0.0890663415193557,0,0,0
3841,131008.69480743594,2010-09-16 02:20:55,2671.3482306503543,7,11,-1.099568486213684,3.56133770942688,11.429687037475516,11.325325541930011,45.52255025042817,41.542429624790216,-6.47544875391759e-05,0.0890663415193557,0,0,0
3842,131038.71012598378,2010-09-16 02:21:25,2701.363549198191,7,11,-1.099929690361023,3.5577762126922607,11.429687037475516,11.334494280544249,45.52255025042817,41.57506636111486,-9.713172767078504e-05,0.0890663415193557,0,0,0
3843,131068.7254618398,2010-09-16 02:21:55,2731.378885059244,7,11,-1.0993878841400146,3.554052829742432,11.429687037475516,11.343662982838453,45.52255025042817,41.60766937060696,-9.713172767078504e-05,0.0890663415193557,0,0,0
3844,131098.7407790042,2010-09-16 02:22:25,2761.394202218615,7,11,-1.0997490882873535,3.5501675605773926,11.429687037475516,11.352831658232374,45.52255025042817,41.64023766225993,-0.0001295089750783,0.0890663415193557,0,0,0
3845,131128.75611530637,2010-09-16 02:22:55,2791.4095385508444,7,11,-1.0997490882873535,3.5459585189819336,11.429687037475516,11.362000432950332,45.52255025042817,41.67277013099615,-0.0001618862152099,0.0890663415193557,0,0,0
3846,131158.77145274635,2010-09-16 02:23:25,2821.4248759808133,7,11,-1.0997490882873535,3.5420732498168945,11.429687037475516,11.371169054766863,45.52255025042817,41.70526440766715,-9.713172767078504e-05,0.0890663415193557,0,0,0
3847,131188.7867801513,2010-09-16 02:23:55,2851.440203370721,7,11,-1.0997490882873535,3.5377023220062256,11.429687037475516,11.380337764036508,45.52255025042817,41.73772054077641,-0.0001295089750783,0.0890663415193557,0,0,0
3848,131218.80219904962,2010-09-16 02:24:25,2881.455622264036,7,11,-1.0997490882873535,3.5333313941955566,11.429687037475516,11.389506514297008,45.52255025042817,41.77013716019479,-9.713172767078504e-05,0.0890663415193557,0,0,0
3849,131248.81740557283,2010-09-16 02:24:55,2911.470828787242,7,11,-1.099568486213684,3.528960466384888,11.429687037475516,11.398675231767957,45.52255025042817,41.80251315449884,-0.0001295089750783,0.0890663415193557,0,0,0
3850,131278.8327296595,2010-09-16 02:25:25,2941.4861528739043,7,11,-1.099929690361023,3.524265766143799,11.429687037475516,11.407843985195385,45.52255025042817,41.83484781867994,-6.47544875391759e-05,0.0890663415193557,0,0,0
3851,131308.84827379542,2010-09-16 02:25:55,2971.5016970148563,7,11,-1.0993878841400146,3.5194091796875,11.429687037475516,11.417012765492704,45.52255025042817,41.867139353839534,-0.0001295089750783,0.0890663415193557,0,0,0
3852,131338.86367881912,2010-09-16 02:26:25,3001.5171020335374,7,11,-1.099568486213684,3.514390707015991,11.429687037475516,11.426181522055517,45.52255025042817,41.89938558320418,-0.0001295089750783,0.0890663415193557,0,0,0
3853,131368.87872234045,2010-09-16 02:26:55,3031.5321455548656,7,11,-1.099568486213684,3.508886814117432,11.429687037475516,11.435350238811264,45.52255025042817,41.93158345295876,-0.0001618862152099,0.0890663415193557,0,0,0
3854,131398.89402852242,2010-09-16 02:27:25,3061.5474517368352,7,11,-1.0997490882873535,3.503058910369873,11.429687037475516,11.4445190383962,45.52255025042817,41.963729340374165,-0.0001295089750783,0.0890663415193557,0,0,0
3855,131428.90935853389,2010-09-16 02:27:55,3091.5627817532995,7,11,-1.099568486213684,3.4964215755462646,11.429687037475516,11.453687713896276,45.52255025042817,41.99581726608623,-0.0001618862152099,0.0890663415193557,0,0,0
3856,131458.9246804401,2010-09-16 02:28:25,3121.578103654507,7,11,-1.099568486213684,3.4889748096466064,11.429687037475516,11.462856479110073,45.52255025042817,42.02784149324356,-0.0002266406954731,0.0890663415193557,0,0,0
3857,131488.9399954942,2010-09-16 02:28:55,3151.5934187136354,7,11,-1.0997490882873535,3.480232954025269,11.429687037475516,11.472025253101044,45.52255025042817,42.05979260069388,-0.0002266406954731,0.0890663415193557,0,0,0
3858,131518.95544821696,2010-09-16 02:29:25,3181.6088714313805,7,11,-1.0997490882873535,3.470034122467041,11.429687037475516,11.48119391971775,45.52255025042817,42.09165681564356,-0.0002913951757363,0.0890663415193557,0,0,0
3859,131548.97081621323,2010-09-16 02:29:55,3211.624239437673,7,11,-1.099929690361023,3.457568883895874,11.429687037475516,11.490362631396444,45.52255025042817,42.12341789654128,-0.0003561496851034,0.0890663415193557,0,0,0
3860,131578.9860007666,2010-09-16 02:30:25,3241.6394240060768,7,11,-1.0997490882873535,3.441380262374878,11.429687037475516,11.499531383818294,45.52255025042817,42.155049105228336,-0.0004856586456298,0.0890663415193557,0,0,0
3861,131609.00144806583,2010-09-16 02:30:55,3271.654871290259,7,11,-1.099568486213684,3.4193639755249023,11.429687037475516,11.508700165797976,45.52255025042817,42.18650733901767,-0.0006799221155233,0.0890663415193557,0,0,0
3862,131639.01678527525,2010-09-16 02:31:25,3301.6702085899037,7,11,-1.0997490882873535,3.38763427734375,11.429687037475516,11.517868968643429,45.52255025042817,42.21772217897948,-0.0010036944877356,0.0890663415193557,0,0,0
3863,131669.03193995904,2010-09-16 02:31:55,3331.6853631834847,7,11,-1.099929690361023,3.3410112857818604,11.429687037475516,11.527037658123575,45.52255025042817,42.24858238068548,-0.0014569759368896,0.0890663415193557,0,0,0
3864,131699.04730162953,2010-09-16 02:32:25,3361.700724843937,7,11,-1.099568486213684,3.2743141651153564,11.429687037475516,11.536206503343347,45.52255025042817,42.27892878805796,-0.0020721436012536,0.0890663415193557,0,0,0
3865,131729.06262543547,2010-09-16 02:32:55,3391.716048649899,7,11,-1.099568486213684,3.177021026611328,11.429687037475516,11.545375204822768,45.52255025042817,42.30853316430924,-0.0030434131622314,0.0890663415193557,0,0,0
3866,131759.07794943693,2010-09-16 02:33:25,3421.731372661374,7,11,-1.099568486213684,3.0188586711883545,11.429687037475516,11.554543972727458,45.52255025042817,42.33700946959146,-0.0055040838196873,0.0890663415193557,0,0,0
3867,131776.62466363006,2010-09-16 02:33:42,3439.2780868745444,7,11,-1.0997490882873535,2.818605899810791,11.429687037475516,11.559903984005713,45.52255025042817,42.35273128860595,-0.0124651910737156,0.0890663415193557,0,0,0
3868,131783.10895914925,2010-09-16 02:33:49,3445.7623823736944,7,11,-1.099568486213684,2.699943780899048,11.429687037475516,11.561884726554243,45.52255025042817,42.35819884926429,-0.0149258617311716,0.0890663415193557,0,0,0
3869,131843.13183620913,2010-09-16 02:34:49,60.01503990268015,8,11,0.0,3.294873714447021,11.429687037475516,11.561884726554243,45.52255025042817,42.35819884926429,0.0011008263099938,0.0890663415193557,0,0,0
3870,131843.32772586282,2010-09-16 02:34:49,0.203090309657568,9,11,-1.9243103452026844e-05,3.2950356006622314,11.429687037475516,11.561884727639825,45.52255025042817,42.358198852841305,0.0,0.0875260159373283,0,0,0
3871,131848.14004879622,2010-09-16 02:34:54,5.015413243056707,9,11,0.0005225847125984,3.3021585941314697,11.429687876010222,11.561884727722765,45.52255301688458,42.358198853114594,0.0010036944877356,0.0875260159373283,0,0,0
