Data_Point,Test_Time(s),Date_Time,Step_Time(s),Step_Index,Cycle_Index,Current(A),Voltage(V),Charge_Capacity(Ah),Discharge_Capacity(Ah),Charge_Energy(Wh),Discharge_Energy(Wh),dV/dt(V/s),Internal_Resistance(Ohm),Is_FC_Data,AC_Impedance(Ohm),ACI_Phase_Angle(Deg)
9755,331408.62627459265,2010-09-18 10:01:15,30.015759473454896,1,29,0.0,3.396538019180298,28.842610055602112,28.97534085076981,114.87299504841972,106.04290964511644,0.0007446765666827,0.0874469503760337,0,0,0
9756,331438.64116718725,2010-09-18 10:01:45,60.03065205802176,1,29,0.0,3.4195258617401123,28.842610055602112,28.97534085076981,114.87299504841972,106.04290964511644,0.0005180359003134,0.0874469503760337,0,0,0
9757,331468.65651746927,2010-09-18 10:02:15,90.046002360122,1,29,0.0,3.436361789703369,28.842610055602112,28.97534085076981,114.87299504841972,106.04290964511644,0.0003885269106831,0.0874469503760337,0,0,0
9758,331498.6254043415,2010-09-18 10:02:45,120.01488921731551,1,29,0.0,3.449312686920166,28.842610055602112,28.97534085076981,114.87299504841972,106.04290964511644,0.0002913951757363,0.0874469503760337,0,0,0
9759,331528.6281196197,2010-09-18 10:03:15,30.012686457734887,2,29,0.5501165986061096,3.5877251625061035,28.84719657462616,28.97534085076981,114.88930122813332,106.04290964511644,0.0014893531333655,0.0874469503760337,0,0,0
9760,331558.64346102456,2010-09-18 10:03:45,60.02802785761381,2,29,0.5501165986061096,3.6320817470550537,28.85178343024315,28.97534085076981,114.90586539982124,106.04290964511644,0.0009713172912597,0.0874469503760337,0,0,0
9761,331588.6587643043,2010-09-18 10:04:15,90.04333113733897,2,29,0.5499359965324402,3.665268421173096,28.85637028030528,28.97534085076981,114.92260507699866,106.04290964511644,0.0008094310760498,0.0874469503760337,0,0,0
9762,331618.67410968913,2010-09-18 10:04:45,120.05867652216494,2,29,0.5501165986061096,3.69181752204895,28.86095709628472,28.97534085076981,114.93948011842484,106.04290964511644,0.0006799221155233,0.0874469503760337,0,0,0
9763,331648.6894417056,2010-09-18 10:05:15,150.0740085386214,2,29,0.550297200679779,3.713672161102295,28.865543920551303,28.97534085076981,114.9564653762687,106.04290964511644,0.0005504131549969,0.0874469503760337,0,0,0
9764,331678.7047637873,2010-09-18 10:05:45,180.08933062027907,2,29,0.5501165986061096,3.7316415309906006,28.87013083081899,28.97534085076981,114.97354212319962,106.04290964511644,0.0004856586456298,0.0874469503760337,0,0,0
9765,331708.7200815932,2010-09-18 10:06:15,210.104648426264,2,29,0.5501165986061096,3.745887517929077,28.87471760955605,28.97534085076981,114.9906925507303,106.04290964511644,0.0002913951757363,0.0874469503760337,0,0,0
9766,331738.7356375887,2010-09-18 10:06:45,240.12020442180676,2,29,0.5501165986061096,3.755114793777466,28.879304431099293,28.97534085076981,115.0078977456298,106.04290964511644,0.0001295089750783,0.0874469503760337,0,0,0
9767,331768.7507782175,2010-09-18 10:07:15,270.13534505053,2,29,0.5499359965324402,3.760618925094605,28.883891258452504,28.97534085076981,115.0251357667342,106.04290964511644,0.0001295089750783,0.0874469503760337,0,0,0
9768,331798.7660727704,2010-09-18 10:07:46,300.15063960347175,2,29,0.5501165986061096,3.764180421829224,28.888478079099205,28.97534085076981,115.04239341564532,106.04290964511644,9.713172767078504e-05,0.0874469503760337,0,0,0
9769,331828.781507403,2010-09-18 10:08:16,330.1660742360739,2,29,0.5501165986061096,3.767418146133423,28.893064950344687,28.97534085076981,115.05966646862188,106.04290964511644,9.713172767078504e-05,0.0874469503760337,0,0,0
9770,331858.7968804218,2010-09-18 10:08:46,360.181447259891,2,29,0.5499359965324402,3.770332098007202,28.8976517323526,28.97534085076981,115.07695331542662,106.04290964511644,9.713172767078504e-05,0.0874469503760337,0,0,0
9771,331888.81210513547,2010-09-18 10:09:16,390.1966719735031,2,29,0.5501165986061096,3.773407936096192,28.902238558256595,28.97534085076981,115.0942542116932,106.04290964511644,6.47544875391759e-05,0.0874469503760337,0,0,0
9772,331918.8275161491,2010-09-18 10:09:46,420.2120829921613,2,29,0.5499359965324402,3.7763218879699703,28.906825444760475,28.97534085076981,115.11156914287784,106.04290964511644,6.47544875391759e-05,0.0874469503760337,0,0,0
9773,331948.8427160558,2010-09-18 10:10:16,450.2272828888263,2,29,0.550297200679779,3.77939772605896,28.911412268318323,28.97534085076981,115.12889760193876,106.04290964511644,6.47544875391759e-05,0.0874469503760337,0,0,0
9774,331978.85811050306,2010-09-18 10:10:46,480.24267735616985,2,29,0.5501165986061096,3.7823116779327393,28.91599913520552,28.97534085076981,115.14623974966248,106.04290964511644,9.713172767078504e-05,0.0874469503760337,0,0,0
9775,332008.87330810906,2010-09-18 10:11:16,510.2578749420669,2,29,0.5501165986061096,3.785387516021729,28.920585923039457,28.97534085076981,115.16359501627716,106.04290964511644,9.713172767078504e-05,0.0874469503760337,0,0,0
9776,332038.8886806416,2010-09-18 10:11:46,540.2732474696453,2,29,0.5501165986061096,3.787977695465088,28.92517272003231,28.97534085076981,115.18096367614876,106.04290964511644,3.237724376958795e-05,0.0874469503760337,0,0,0
9777,332068.9040134801,2010-09-18 10:12:16,570.2885803131663,2,29,0.550297200679779,3.791053533554077,28.929759581475462,28.97534085076981,115.1983457963734,106.04290964511644,6.47544875391759e-05,0.0874469503760337,0,0,0
9778,332098.9195222678,2010-09-18 10:12:46,600.304089100871,2,29,0.550297200679779,3.7938055992126474,28.934346385458603,28.97534085076981,115.21574060204652,106.04290964511644,6.47544875391759e-05,0.0874469503760337,0,0,0
9779,332128.93483699113,2010-09-18 10:13:16,630.319403824161,2,29,0.5501165986061096,3.796557664871216,28.93893322794635,28.97534085076981,115.23314856848091,106.04290964511644,3.237724376958795e-05,0.0874469503760337,0,0,0
9780,332158.9501676742,2010-09-18 10:13:46,660.3347345373644,2,29,0.5501165986061096,3.799471616744995,28.94352003855971,28.97534085076981,115.25056950009808,106.04290964511644,6.47544875391759e-05,0.0874469503760337,0,0,0
9781,332188.9655189688,2010-09-18 10:14:16,690.3500859071297,2,29,0.5501165986061096,3.8023855686187744,28.94810688942521,28.97534085076981,115.2680038515967,106.04290964511644,6.47544875391759e-05,0.0874469503760337,0,0,0
9782,332218.9808376169,2010-09-18 10:14:46,720.3654044599789,2,29,0.5501165986061096,3.8052995204925537,28.95269372417784,28.97534085076981,115.28545155910554,106.04290964511644,6.47544875391759e-05,0.0874469503760337,0,0,0
9783,332248.9960283757,2010-09-18 10:15:16,750.3805952088097,2,29,0.5501165986061096,3.808537244796753,28.957280593786443,28.97534085076981,115.30291317007662,106.04290964511644,0.0001295089750783,0.0874469503760337,0,0,0
9784,332279.0114951737,2010-09-18 10:15:46,780.3960620067014,2,29,0.550297200679779,3.811613082885742,28.96186748477457,28.97534085076981,115.3203891608382,106.04290964511644,0.0001295089750783,0.0874469503760337,0,0,0
9785,332309.02669094,2010-09-18 10:16:16,810.4112577730566,2,29,0.5501165986061096,3.814850807189941,28.966454350563595,28.97534085076981,115.33787998621402,106.04290964511644,6.47544875391759e-05,0.0874469503760337,0,0,0
9786,332339.0421611164,2010-09-18 10:16:46,840.4267279493813,2,29,0.5501165986061096,3.818412303924561,28.971041197709308,28.97534085076981,115.35538614885051,106.04290964511644,9.713172767078504e-05,0.0874469503760337,0,0,0
9787,332369.0573422863,2010-09-18 10:17:16,870.4419091243143,2,29,0.5501165986061096,3.8218119144439697,28.97562803408137,28.97534085076981,115.37290793827172,106.04290964511644,9.713172767078504e-05,0.0874469503760337,0,0,0
9788,332399.0728406279,2010-09-18 10:17:46,900.457407576219,2,29,0.5501165986061096,3.825211524963379,28.98021486932372,28.97534085076981,115.39044551403174,106.04290964511644,6.47544875391759e-05,0.0874469503760337,0,0,0
9789,332429.08802044945,2010-09-18 10:18:16,930.4725872874984,2,29,0.550297200679779,3.828773021697998,28.98480170325275,28.97534085076981,115.40799896978297,106.04290964511644,0.0001295089750783,0.0874469503760337,0,0,0
9790,332459.103376566,2010-09-18 10:18:46,960.4879433991,2,29,0.5501165986061096,3.832010746002197,28.989388596737776,28.97534085076981,115.4255683957976,106.04290964511644,9.713172767078504e-05,0.0874469503760337,0,0,0
9791,332489.11866146995,2010-09-18 10:19:16,990.503228302956,2,29,0.5501165986061096,3.8352482318878174,28.99397549169277,28.97534085076981,115.44315317967012,106.04290964511644,6.47544875391759e-05,0.0874469503760337,0,0,0
9792,332519.1339943535,2010-09-18 10:19:46,1020.5185611865774,2,29,0.550297200679779,3.8386478424072266,28.9985623290852,28.97534085076981,115.46075292124222,106.04290964511644,6.47544875391759e-05,0.0874469503760337,0,0,0
9793,332549.1493209515,2010-09-18 10:20:16,1050.5338877845084,2,29,0.550297200679779,3.841885566711426,29.00314919302266,28.97534085076981,115.4783676269468,106.04290964511644,0.0001295089750783,0.0874469503760337,0,0,0
9794,332579.16466358944,2010-09-18 10:20:46,1080.5492304224776,2,29,0.550297200679779,3.844799518585205,29.007736068818865,28.97534085076981,115.49599690869496,106.04290964511644,6.47544875391759e-05,0.0874469503760337,0,0,0
9795,332609.18012929964,2010-09-18 10:21:16,1110.5646961376667,2,29,0.5501165986061096,3.848037242889404,29.012322928371336,28.97534085076981,115.5136404363378,106.04290964511644,6.47544875391759e-05,0.0874469503760337,0,0,0
9796,332639.19531107106,2010-09-18 10:21:46,1140.5798779040758,2,29,0.550297200679779,3.8511130809783936,29.01690978141655,28.97534085076981,115.53129792801026,106.04290964511644,9.713172767078504e-05,0.0874469503760337,0,0,0
9797,332669.21065860626,2010-09-18 10:22:16,1170.5952254392696,2,29,0.5501165986061096,3.854188919067383,29.02149663202268,28.97534085076981,115.5489689875698,106.04290964511644,0.0001295089750783,0.0874469503760337,0,0,0
9798,332699.22603052726,2010-09-18 10:22:46,1200.610597455572,2,29,0.5501165986061096,3.856779098510742,29.0260835431487,28.97534085076981,115.56665343887217,106.04290964511644,6.47544875391759e-05,0.0874469503760337,0,0,0
9799,332729.24143774144,2010-09-18 10:23:16,1230.626004579508,2,29,0.550297200679779,3.859531164169312,29.03067039347531,28.97534085076981,115.58435014849316,106.04290964511644,6.47544875391759e-05,0.0874469503760337,0,0,0
9800,332759.25665468565,2010-09-18 10:23:46,1260.6412216289891,2,29,0.5499359965324402,3.861959457397461,29.035257262097865,28.97534085076981,115.60205885896598,106.04290964511644,3.237724376958795e-05,0.0874469503760337,0,0,0
9801,332789.27198561444,2010-09-18 10:24:16,1290.6565524474554,2,29,0.5501165986061096,3.8643877506256095,29.03984418059088,28.97534085076981,115.61977901321364,106.04290964511644,6.47544875391759e-05,0.0874469503760337,0,0,0
9802,332819.2873357511,2010-09-18 10:24:46,1320.6719025841428,2,29,0.550297200679779,3.86681604385376,29.04443104504909,28.97534085076981,115.63750949806678,106.04290964511644,9.713172767078504e-05,0.0874469503760337,0,0,0
9803,332849.3026221387,2010-09-18 10:25:16,1350.6871889717024,2,29,0.550297200679779,3.8687586784362793,29.049018109241057,28.97534085076981,115.65525065996616,106.04290964511644,6.47544875391759e-05,0.0874469503760337,0,0,0
9804,332879.31850313046,2010-09-18 10:25:46,1380.703070895813,2,29,0.5501165986061096,3.870701313018799,29.05360575357001,28.97534085076981,115.67300318438052,106.04290964511644,6.47544875391759e-05,0.0874469503760337,0,0,0
9805,332909.3334735743,2010-09-18 10:26:16,1410.7180404074015,2,29,0.5501165986061096,3.8723201751708975,29.05819328091211,28.97534085076981,115.69076384299224,106.04290964511644,0.0,0.0874469503760337,0,0,0
9806,332939.34876539547,2010-09-18 10:26:46,1440.7333322285244,2,29,0.550297200679779,3.873777151107788,29.062780851492303,28.97534085076981,115.70853254099922,106.04290964511644,0.0,0.0874469503760337,0,0,0
9807,332969.36394997395,2010-09-18 10:27:16,1470.7485168320152,2,29,0.550297200679779,3.875719785690308,29.067368229569706,28.97534085076981,115.72630762703484,106.04290964511644,9.713172767078504e-05,0.0874469503760337,0,0,0
9808,332999.37940548867,2010-09-18 10:27:46,1500.76397234173,2,29,0.5501165986061096,3.876852989196777,29.07195508868397,28.97534085076981,115.74408751902884,106.04290964511644,3.237724376958795e-05,0.0874469503760337,0,0,0
9809,333029.39466503926,2010-09-18 10:28:16,1530.7792319674882,2,29,0.5499359965324402,3.878309965133667,29.07654187012024,28.97534085076981,115.76187343198444,106.04290964511644,6.47544875391759e-05,0.0874469503760337,0,0,0
9810,333059.409959131,2010-09-18 10:28:46,1560.794525994116,2,29,0.5499359965324402,3.8794431686401367,29.081128790947837,28.97534085076981,115.77966588890708,106.04290964511644,0.0,0.0874469503760337,0,0,0
9811,333089.4253559342,2010-09-18 10:29:16,1590.8099228875153,2,29,0.5501165986061096,3.880738258361816,29.08571561127997,28.97534085076981,115.79746354356546,106.04290964511644,3.237724376958795e-05,0.0874469503760337,0,0,0
9812,333119.44072781515,2010-09-18 10:29:46,1620.8252946682296,2,29,0.5501165986061096,3.882033348083496,29.09030252733654,28.97534085076981,115.81526713310944,106.04290964511644,3.237724376958795e-05,0.0874469503760337,0,0,0
9813,333149.45606177644,2010-09-18 10:30:16,1650.8406286094903,2,29,0.5501165986061096,3.883166551589966,29.094889390502487,28.97534085076981,115.83307581903136,106.04290964511644,3.237724376958795e-05,0.0874469503760337,0,0,0
9814,333179.47227175446,2010-09-18 10:30:46,1680.856838682712,2,29,0.5501165986061096,3.884299755096436,29.0994763885246,28.97534085076981,115.85089030332414,106.04290964511644,6.47544875391759e-05,0.0874469503760337,0,0,0
9815,333209.4865935993,2010-09-18 10:31:16,1710.871160462462,2,29,0.5501165986061096,3.8852710723876953,29.104063143625552,28.97534085076981,115.86870887380309,106.04290964511644,0.0,0.0874469503760337,0,0,0
9816,333239.5019382975,2010-09-18 10:31:46,1740.8865051555615,2,29,0.550297200679779,3.886566162109375,29.108650012348733,28.97534085076981,115.8865330630108,106.04290964511644,6.47544875391759e-05,0.0874469503760337,0,0,0
9817,333269.5172553365,2010-09-18 10:32:16,1770.901822194632,2,29,0.550297200679779,3.8875374794006343,29.113236843462943,28.97534085076981,115.90436215710923,106.04290964511644,3.237724376958795e-05,0.0874469503760337,0,0,0
9818,333299.5327152272,2010-09-18 10:32:46,1800.9172820602191,2,29,0.5501165986061096,3.888670682907105,29.1178236908216,28.97534085076981,115.92219642058738,106.04290964511644,0.0,0.0874469503760337,0,0,0
9819,333329.54794752976,2010-09-18 10:33:16,1830.9325143878373,2,29,0.5501165986061096,3.889803886413574,29.122410547171928,28.97534085076981,115.9400358311386,106.04290964511644,3.237724376958795e-05,0.0874469503760337,0,0,0
9820,333359.5632449248,2010-09-18 10:33:46,1860.9478117628232,2,29,0.5499359965324402,3.890775203704834,29.12699740387519,28.97534085076981,115.95788026783168,106.04290964511644,0.0,0.0874469503760337,0,0,0
9821,333389.5785727006,2010-09-18 10:34:16,1890.9631395587448,2,29,0.550297200679779,3.891908407211304,29.131584220342983,28.97534085076981,115.97572968183002,106.04290964511644,3.237724376958795e-05,0.0874469503760337,0,0,0
9822,333419.5965629374,2010-09-18 10:34:46,1920.9811298657032,2,29,0.5501165986061096,3.893041610717773,29.136171507081823,28.97534085076981,115.99358602946346,106.04290964511644,0.0,0.0874469503760337,0,0,0
9823,333449.60929334484,2010-09-18 10:35:16,1950.993860197956,2,29,0.5501165986061096,3.894336700439453,29.140757940520857,28.97534085076981,116.01144429043508,106.04290964511644,0.0,0.0874469503760337,0,0,0
9824,333479.6245938276,2010-09-18 10:35:46,1981.0091606606493,2,29,0.5501165986061096,3.894984245300293,29.14534485301185,28.97534085076981,116.02930922381616,106.04290964511644,0.0,0.0874469503760337,0,0,0
9825,333509.6402003543,2010-09-18 10:36:16,2011.0247672073751,2,29,0.5501165986061096,3.896441221237183,29.14993171187453,28.97534085076981,116.04717908330922,106.04290964511644,3.237724376958795e-05,0.0874469503760337,0,0,0
9826,333539.65523603605,2010-09-18 10:36:46,2041.0398028690847,2,29,0.5501165986061096,3.897574424743652,29.154518487964467,28.97534085076981,116.06505395839363,106.04290964511644,3.237724376958795e-05,0.0874469503760337,0,0,0
9827,333569.6706889343,2010-09-18 10:37:16,2071.055255792344,2,29,0.5501165986061096,3.898869514465332,29.159105367567665,28.97534085076981,116.08293457369736,106.04290964511644,3.237724376958795e-05,0.0874469503760337,0,0,0
9828,333599.6859021391,2010-09-18 10:37:46,2101.070468967153,2,29,0.5501165986061096,3.9000027179718018,29.16369216944953,28.97534085076981,116.10082030005968,106.04290964511644,3.237724376958795e-05,0.0874469503760337,0,0,0
9829,333629.7012226318,2010-09-18 10:38:16,2131.085789494932,2,29,0.5501165986061096,3.901135921478272,29.16827899172704,28.97534085076981,116.1187114165369,106.04290964511644,3.237724376958795e-05,0.0874469503760337,0,0,0
9830,333659.7167892789,2010-09-18 10:38:46,2161.10135613705,2,29,0.5501165986061096,3.902269124984741,29.17286583571836,28.97534085076981,116.13660817256604,106.04290964511644,0.0,0.0874469503760337,0,0,0
9831,333689.7318816121,2010-09-18 10:39:16,2191.11644847022,2,29,0.550297200679779,3.903887987136841,29.17745263848495,28.97534085076981,116.15451028258124,106.04290964511644,9.713172767078504e-05,0.0874469503760337,0,0,0
9832,333719.74720722256,2010-09-18 10:39:47,2221.1317740856985,2,29,0.5501165986061096,3.9048593044281006,29.18203948390142,28.97534085076981,116.17241822097894,106.04290964511644,6.47544875391759e-05,0.0874469503760337,0,0,0
9833,333749.7625366125,2010-09-18 10:40:17,2251.1471034455235,2,29,0.5501165986061096,3.9059925079345694,29.186626249619827,28.97534085076981,116.19033124706252,106.04290964511644,0.0,0.0874469503760337,0,0,0
9834,333779.7778780324,2010-09-18 10:40:47,2281.1624448654525,2,29,0.5501165986061096,3.90728759765625,29.191213003346043,28.97534085076981,116.20824992472905,106.04290964511644,0.0,0.0874469503760337,0,0,0
9835,333809.7931966354,2010-09-18 10:41:17,2311.177763468427,2,29,0.5501165986061096,3.9085826873779297,29.19579969165748,28.97534085076981,116.226174052058,106.04290964511644,6.47544875391759e-05,0.0874469503760337,0,0,0
9836,333839.80852851155,2010-09-18 10:41:47,2341.1930953495457,2,29,0.5499359965324402,3.9097158908844,29.2003864404528,28.97534085076981,116.24410429619272,106.04290964511644,0.0,0.0874469503760337,0,0,0
9837,333869.8238989288,2010-09-18 10:42:17,2371.208465872119,2,29,0.5501165986061096,3.911172866821289,29.20497321908272,28.97534085076981,116.26204058502842,106.04290964511644,6.47544875391759e-05,0.0874469503760337,0,0,0
9838,333899.83920261456,2010-09-18 10:42:47,2401.223769567883,2,29,0.550297200679779,3.9124679565429688,29.209560008042217,28.97534085076981,116.27998296430066,106.04290964511644,6.47544875391759e-05,0.0874469503760337,0,0,0
9839,333929.8545282551,2010-09-18 10:43:17,2431.239095088124,2,29,0.5501165986061096,3.913762807846069,29.21414677185181,28.97534085076981,116.29793130278551,106.04290964511644,6.470680091297254e-05,0.0874469503760337,0,0,0
9840,333959.8698587327,2010-09-18 10:43:47,2461.254425565739,2,29,0.550297200679779,3.915219783782959,29.21873361934967,28.97534085076981,116.31588609579572,106.04290964511644,3.237724376958795e-05,0.0874469503760337,0,0,0
9841,333989.8851891903,2010-09-18 10:44:17,2491.2697560233046,2,29,0.550297200679779,3.916514873504639,29.22332039135124,28.97534085076981,116.3338465724676,106.04290964511644,6.47544875391759e-05,0.0874469503760337,0,0,0
9842,334019.9005287255,2010-09-18 10:44:47,2521.2850955635413,2,29,0.5501165986061096,3.917648077011109,29.2279070960938,28.97534085076981,116.35181305227144,106.04290964511644,3.237724376958795e-05,0.0874469503760337,0,0,0
9843,334049.9158718346,2010-09-18 10:45:17,2551.3004387579,2,29,0.5501165986061096,3.918943166732788,29.232493879616,28.97534085076981,116.36978610221873,106.04290964511644,-3.237724376958795e-05,0.0874469503760337,0,0,0
9844,334079.9313345524,2010-09-18 10:45:47,2581.315901400419,2,29,0.5501165986061096,3.920562028884888,29.237080772782523,28.97534085076981,116.38776593130576,106.04290964511644,6.47544875391759e-05,0.0874469503760337,0,0,0
9845,334109.94651056937,2010-09-18 10:46:17,2611.331077427502,2,29,0.5501165986061096,3.921857118606568,29.24166759955767,28.97534085076981,116.4057518011014,106.04290964511644,0.0,0.0874469503760337,0,0,0
9846,334139.96185068606,2010-09-18 10:46:47,2641.3464175191148,2,29,0.5499359965324402,3.923152208328247,29.246254418914347,28.97534085076981,116.42374412259872,106.04290964511644,3.237724376958795e-05,0.0874469503760337,0,0,0
9847,334169.9771675497,2010-09-18 10:47:17,2671.361734412823,2,29,0.5501165986061096,3.9247710704803462,29.250841218611857,28.97534085076981,116.44174284057128,106.04290964511644,3.237724376958795e-05,0.0874469503760337,0,0,0
9848,334199.99249983684,2010-09-18 10:47:47,2701.37706666988,2,29,0.5501165986061096,3.9260661602020255,29.255428058249827,28.97534085076981,116.45974825625323,106.04290964511644,3.237724376958795e-05,0.0874469503760337,0,0,0
9849,334230.0078309059,2010-09-18 10:48:17,2731.392397738972,2,29,0.5501165986061096,3.927523136138916,29.260014872530096,28.97534085076981,116.47776014524077,106.04290964511644,0.0,0.0874469503760337,0,0,0
9850,334260.0233058441,2010-09-18 10:48:47,2761.4078726821954,2,29,0.5501165986061096,3.929141998291016,29.264601722085192,28.97534085076981,116.49577886149493,106.04290964511644,3.237724376958795e-05,0.0874469503760337,0,0,0
9851,334290.03850563057,2010-09-18 10:49:17,2791.4230724836225,2,29,0.550297200679779,3.930598974227905,29.269188509401246,28.97534085076981,116.51380411807013,106.04290964511644,6.47544875391759e-05,0.0874469503760337,0,0,0
9852,334320.0539475864,2010-09-18 10:49:47,2821.4385144395046,2,29,0.550297200679779,3.932217836380005,29.273775381209287,28.97534085076981,116.53183645393943,106.04290964511644,9.713172767078504e-05,0.0874469503760337,0,0,0
9853,334350.0691566309,2010-09-18 10:50:17,2851.4537234639542,2,29,0.5501165986061096,3.933512926101685,29.27836221568663,28.97534085076981,116.54987552274434,106.04290964511644,0.0,0.0874469503760337,0,0,0
9854,334380.08450018114,2010-09-18 10:50:47,2881.469067009188,2,29,0.5501165986061096,3.934969902038574,29.282949098139188,28.97534085076981,116.5679217040983,106.04290964511644,3.237724376958795e-05,0.0874469503760337,0,0,0
9855,334410.09981130547,2010-09-18 10:51:17,2911.484378138507,2,29,0.5501165986061096,3.936426877975464,29.287535931519333,28.97534085076981,116.5859745854505,106.04290964511644,3.237724376958795e-05,0.0874469503760337,0,0,0
9856,334440.1151443596,2010-09-18 10:51:47,2941.499711192554,2,29,0.5499359965324402,3.938045740127564,29.29212269261981,28.97534085076981,116.6040341118954,106.04290964511644,3.237724376958795e-05,0.0874469503760337,0,0,0
9857,334470.1304517545,2010-09-18 10:52:17,2971.515018587551,2,29,0.5501165986061096,3.939664602279663,29.296709456724315,28.97534085076981,116.62210080297062,106.04290964511644,3.237724376958795e-05,0.0874469503760337,0,0,0
9858,334500.14580142504,2010-09-18 10:52:47,3001.5303682831377,2,29,0.5499359965324402,3.9411215782165527,29.30129631042685,28.97534085076981,116.6401750233093,106.04290964511644,3.237724376958795e-05,0.0874469503760337,0,0,0
9859,334530.1611180731,2010-09-18 10:53:17,3031.5456849061698,2,29,0.5501165986061096,3.942740440368652,29.305883137451683,28.97534085076981,116.65825629303312,106.04290964511644,3.237724376958795e-05,0.0874469503760337,0,0,0
9860,334560.1764477087,2010-09-18 10:53:47,3061.5610145416827,2,29,0.550297200679779,3.944359302520752,29.31046995242855,28.97534085076981,116.67634493453497,106.04290964511644,6.47544875391759e-05,0.0874469503760337,0,0,0
9861,334590.1917868729,2010-09-18 10:54:17,3091.576353731044,2,29,0.5501165986061096,3.9461400508880615,29.31505682982576,28.97534085076981,116.69444126205082,106.04290964511644,6.47544875391759e-05,0.0874469503760337,0,0,0
9862,334620.2073403973,2010-09-18 10:54:47,3121.591907225343,2,29,0.5501165986061096,3.947597026824951,29.31964377774345,28.97534085076981,116.71254521208763,106.04290964511644,3.237724376958795e-05,0.0874469503760337,0,0,0
9863,334650.2224559535,2010-09-18 10:55:17,3151.6070227714563,2,29,0.5499359965324402,3.949215888977051,29.324230573758,28.97534085076981,116.73065610229403,106.04290964511644,0.0,0.0874469503760337,0,0,0
9864,334680.2377759499,2010-09-18 10:55:47,3181.622342782947,2,29,0.5499359965324402,3.9508347511291504,29.328817413041747,28.97534085076981,116.7487747147812,106.04290964511644,3.237724376958795e-05,0.0874469503760337,0,0,0
9865,334710.2531253698,2010-09-18 10:56:17,3211.6376922128698,2,29,0.5501165986061096,3.95261549949646,29.33340424807113,28.97534085076981,116.76690099715393,106.04290964511644,3.237724376958795e-05,0.0874469503760337,0,0,0
9866,334740.26845172216,2010-09-18 10:56:47,3241.6530186754626,2,29,0.5501165986061096,3.95423436164856,29.33799111787124,28.97534085076981,116.78503519532524,106.04290964511644,3.237724376958795e-05,0.0874469503760337,0,0,0
9867,334770.2837702199,2010-09-18 10:57:17,3271.6683370528744,2,29,0.5501165986061096,3.956015110015869,29.342578026561245,28.97534085076981,116.80317734030731,106.04290964511644,6.47544875391759e-05,0.0874469503760337,0,0,0
9868,334800.29949585884,2010-09-18 10:57:47,3301.6840627069105,2,29,0.5501165986061096,3.9577958583831783,29.34716498514284,28.97534085076981,116.82132753599896,106.04290964511644,3.237724376958795e-05,0.0874469503760337,0,0,0
9869,334830.31443750084,2010-09-18 10:58:17,3331.699004333895,2,29,0.550297200679779,3.959576606750488,29.351751768630137,28.97534085076981,116.83948503512488,106.04290964511644,6.47544875391759e-05,0.0874469503760337,0,0,0
9870,334860.3298539982,2010-09-18 10:58:47,3361.7144208312284,2,29,0.5499359965324402,3.961357355117798,29.35633868078065,28.97534085076981,116.857651158253,106.04290964511644,6.47544875391759e-05,0.0874469503760337,0,0,0
9871,334890.3450924711,2010-09-18 10:59:17,3391.729659334261,2,29,0.5501165986061096,3.9631381034851074,29.36092559197516,28.97534085076981,116.87582543544384,106.04290964511644,3.237724376958795e-05,0.0874469503760337,0,0,0
9872,334920.36046072806,2010-09-18 10:59:47,3421.7450276513296,2,29,0.550297200679779,3.964918851852417,29.3655124126784,28.97534085076981,116.89400760683192,106.04290964511644,6.47544875391759e-05,0.0874469503760337,0,0,0
9873,334950.3759064784,2010-09-18 11:00:17,3451.760473316471,2,29,0.5497553944587708,3.9665377140045166,29.3700993535751,28.97534085076981,116.91219870425331,106.04290964511644,0.0,0.0874469503760337,0,0,0
9874,334980.39111350785,2010-09-18 11:00:47,3481.7756804562155,2,29,0.5501165986061096,3.968480348587036,29.37468619451356,28.97534085076981,116.93039778393812,106.04290964511644,3.237724376958795e-05,0.0874469503760337,0,0,0
9875,335010.4064226272,2010-09-18 11:01:17,3511.790989555468,2,29,0.550297200679779,3.970422983169556,29.379273050430985,28.97534085076981,116.94860554417528,106.04290964511644,3.237724376958795e-05,0.0874469503760337,0,0,0
9876,335040.4219209187,2010-09-18 11:01:47,3541.8064878519845,2,29,0.5501165986061096,3.972365617752075,29.38385993724174,28.97534085076981,116.96682212850114,106.04290964511644,3.237724376958795e-05,0.0874469503760337,0,0,0
9877,335070.4371048756,2010-09-18 11:02:17,3571.821671708611,2,29,0.550297200679779,3.9743082523345943,29.38844682414805,28.97534085076981,116.9850474732846,106.04290964511644,6.47544875391759e-05,0.0874469503760337,0,0,0
9878,335100.4524354334,2010-09-18 11:02:47,3601.8370022664267,2,29,0.550297200679779,3.976412773132324,29.393033756467208,28.97534085076981,117.00328193435848,106.04290964511644,6.47544875391759e-05,0.0874469503760337,0,0,0
9879,335130.4677659762,2010-09-18 11:03:17,3631.8523328292554,2,29,0.550297200679779,3.977869749069214,29.397620702169867,28.97534085076981,117.02152526290752,106.04290964511644,0.0,0.0874469503760337,0,0,0
9880,335160.48307383736,2010-09-18 11:03:47,3661.8676406703657,2,29,0.5501165986061096,3.9802980422973633,29.402207451455716,28.97534085076981,117.03977698576324,106.04290964511644,6.47544875391759e-05,0.0874469503760337,0,0,0
9881,335190.4984061646,2010-09-18 11:04:17,3691.882972997598,2,29,0.5501165986061096,3.982240676879883,29.406794276360568,28.97534085076981,117.05803842379323,106.04290964511644,3.237724376958795e-05,0.0874469503760337,0,0,0
9882,335220.51372380013,2010-09-18 11:04:47,3721.8982906331576,2,29,0.5501165986061096,3.984345197677612,29.411381092695795,28.97534085076981,117.0763091092532,106.04290964511644,6.47544875391759e-05,0.0874469503760337,0,0,0
9883,335250.5290613153,2010-09-18 11:05:17,3751.91362814834,2,29,0.5501165986061096,3.986449718475342,29.415967895886748,28.97534085076981,117.09458915511996,106.04290964511644,6.47544875391759e-05,0.0874469503760337,0,0,0
9884,335280.544395422,2010-09-18 11:05:47,3781.9289622550136,2,29,0.5501165986061096,3.988392353057861,29.42055467212062,28.97534085076981,117.1128785409533,106.04290964511644,6.47544875391759e-05,0.0874469503760337,0,0,0
9885,335310.559756927,2010-09-18 11:06:17,3811.944323765091,2,29,0.550297200679779,3.990496873855591,29.425141476634497,28.97534085076981,117.13117757243464,106.04290964511644,3.237724376958795e-05,0.0874469503760337,0,0,0
9886,335340.576064238,2010-09-18 11:06:47,3841.9606311010944,2,29,0.5501165986061096,3.9927632808685294,29.4297283936829,28.97534085076981,117.14948668240828,106.04290964511644,6.47544875391759e-05,0.0874469503760337,0,0,0
9887,335370.57741026324,2010-09-18 11:07:17,3871.961977191528,2,29,0.5501165986061096,3.994705677032471,29.43431308578011,28.97534085076981,117.16779657435758,106.04290964511644,3.237724376958795e-05,0.0874469503760337,0,0,0
9888,335400.5901578987,2010-09-18 11:07:47,3901.9747249322354,2,29,0.5499359965324402,3.9968101978302,29.438899490696272,28.97534085076981,117.18612309071318,106.04290964511644,3.237724376958795e-05,0.0874469503760337,0,0,0
9889,335430.6054348176,2010-09-18 11:08:17,3931.9900016807337,2,29,0.550297200679779,3.99907660484314,29.443486272334628,28.97534085076981,117.204460874493,106.04290964511644,6.47544875391759e-05,0.0874469503760337,0,0,0
9890,335460.6208819164,2010-09-18 11:08:47,3962.0054487543903,2,29,0.5501165986061096,4.001181125640869,29.448073046162065,28.97534085076981,117.22280860322776,106.04290964511644,3.23295607813634e-05,0.0874469503760337,0,0,0
9891,335490.6361156575,2010-09-18 11:09:17,3992.020682490525,2,29,0.550297200679779,4.003447532653809,29.45266028184147,28.97534085076981,117.24116818419913,106.04290964511644,3.23295607813634e-05,0.0874469503760337,0,0,0
9892,335520.65142290713,2010-09-18 11:09:47,4022.035989740159,2,29,0.5501165986061096,4.005552291870117,29.45724782136061,28.97534085076981,117.2595390100692,106.04290964511644,3.24249267578125e-05,0.0874469503760337,0,0,0
9893,335550.6667646328,2010-09-18 11:10:17,4052.051331490914,2,29,0.5501165986061096,4.007818698883057,29.461834706413853,28.97534085076981,117.27791730815498,106.04290964511644,3.24249267578125e-05,0.0874469503760337,0,0,0
9894,335580.6821071054,2010-09-18 11:10:47,4082.0666739634703,2,29,0.550297200679779,4.010085105895996,29.46642142103396,28.97534085076981,117.29630495534812,106.04290964511644,9.71794142969884e-05,0.0874469503760337,0,0,0
9895,335610.6976997524,2010-09-18 11:11:17,4112.082266670651,2,29,0.5501165986061096,4.012351512908936,29.471008119999706,28.97534085076981,117.31470278367264,106.04290964511644,0.0001295089750783,0.0874469503760337,0,0,0
9896,335640.7127675092,2010-09-18 11:11:47,4142.097334372337,2,29,0.550297200679779,4.014617919921875,29.475594746307323,28.97534085076981,117.33311067533656,106.04290964511644,0.0001295089750783,0.0874469503760337,0,0,0
9897,335670.72810402693,2010-09-18 11:12:18,4172.112670859954,2,29,0.550297200679779,4.016884326934815,29.48018141676896,28.97534085076981,117.35152916088984,106.04290964511644,6.47544875391759e-05,0.0874469503760337,0,0,0
9898,335700.743452324,2010-09-18 11:12:48,4202.128019182112,2,29,0.5499359965324402,4.018988609313965,29.484768185948248,28.97534085076981,117.369958622884,106.04290964511644,3.23295607813634e-05,0.0874469503760337,0,0,0
9899,335730.75877587433,2010-09-18 11:13:18,4232.143342707373,2,29,0.5499359965324402,4.021417140960693,29.489354934882304,28.97534085076981,117.38839846541156,106.04290964511644,3.24249267578125e-05,0.0874469503760337,0,0,0
9900,335760.7740870889,2010-09-18 11:13:48,4262.158653921905,2,29,0.5501165986061096,4.023683547973633,29.4939416890239,28.97534085076981,117.4068491411012,106.04290964511644,3.24249267578125e-05,0.0874469503760337,0,0,0
9901,335790.7894210752,2010-09-18 11:14:18,4292.173987933342,2,29,0.5499359965324402,4.026111602783203,29.498528445790164,28.97534085076981,117.42531061512558,106.04290964511644,6.47544875391759e-05,0.0874469503760337,0,0,0
9902,335820.8047601794,2010-09-18 11:14:48,4322.189327042503,2,29,0.5501165986061096,4.028540134429932,29.50311518249453,28.97534085076981,117.44378292815722,106.04290964511644,9.71794142969884e-05,0.0874469503760337,0,0,0
9903,335850.82009128353,2010-09-18 11:15:18,4352.204658236907,2,29,0.5501165986061096,4.030806541442871,29.507701925864424,28.97534085076981,117.46226616172186,106.04290964511644,6.47544875391759e-05,0.0874469503760337,0,0,0
9904,335880.83541024243,2010-09-18 11:15:48,4382.219977100532,2,29,0.5501165986061096,4.033234596252441,29.512288664431978,28.97534085076981,117.4807604636338,106.04290964511644,6.47544875391759e-05,0.0874469503760337,0,0,0
9905,335910.8508916418,2010-09-18 11:16:18,4412.235458499871,2,29,0.5499359965324402,4.035662651062012,29.51687547492321,28.97534085076981,117.49926626746966,106.04290964511644,3.23295607813634e-05,0.0874469503760337,0,0,0
9906,335940.8660703305,2010-09-18 11:16:48,4442.250637163535,2,29,0.5501165986061096,4.038252830505371,29.5214622328193,28.97534085076981,117.51778314622142,106.04290964511644,6.47544875391759e-05,0.0874469503760337,0,0,0
9907,335970.8815509278,2010-09-18 11:17:18,4472.2661177608725,2,29,0.5501165986061096,4.0408430099487305,29.52604893337765,28.97534085076981,117.53631117976674,106.04290964511644,9.70840483205393e-05,0.0874469503760337,0,0,0
9908,336000.8967564435,2010-09-18 11:17:48,4502.281323371802,2,29,0.5499359965324402,4.04343318939209,29.53063569408423,28.97534085076981,117.5548509807998,106.04290964511644,9.70840483205393e-05,0.0874469503760337,0,0,0
9909,336030.91219564754,2010-09-18 11:18:18,4532.296762485589,2,29,0.5501165986061096,4.045699596405029,29.535222418131383,28.97534085076981,117.57340230998405,106.04290964511644,3.23295607813634e-05,0.0874469503760337,0,0,0
9910,336060.92742513807,2010-09-18 11:18:48,4562.311992056325,2,29,0.550297200679779,4.048451900482178,29.53980914696693,28.97534085076981,117.59196539476268,106.04290964511644,6.47544875391759e-05,0.0874469503760337,0,0,0
9911,336090.94286015665,2010-09-18 11:19:18,4592.3274270197535,2,29,0.550297200679779,4.051042079925537,29.54439594275513,28.97534085076981,117.61054061668057,106.04290964511644,6.47544875391759e-05,0.0874469503760337,0,0,0
9912,336120.95808465977,2010-09-18 11:19:48,4622.342651517827,2,29,0.5499359965324402,4.053470134735107,29.548982668797912,28.97534085076981,117.62912749128672,106.04290964511644,3.23295607813634e-05,0.0874469503760337,0,0,0
9913,336150.97339315247,2010-09-18 11:20:18,4652.357960010565,2,29,0.5501165986061096,4.056222438812256,29.55356940542547,28.97534085076981,117.64772648212762,106.04290964511644,3.24249267578125e-05,0.0874469503760337,0,0,0
9914,336180.98872843705,2010-09-18 11:20:48,4682.373295270117,2,29,0.550297200679779,4.058974266052246,29.558156221540703,28.97534085076981,117.66633802540854,106.04290964511644,6.47544875391759e-05,0.0874469503760337,0,0,0
9915,336211.00430417195,2010-09-18 11:21:18,4712.38887110017,2,29,0.5501165986061096,4.0615644454956055,29.562743070108727,28.97534085076981,117.68496179562446,106.04290964511644,9.70840483205393e-05,0.0874469503760337,0,0,0
9916,336241.01939145743,2010-09-18 11:21:48,4742.403958290503,2,29,0.550297200679779,4.064478397369385,29.567329682544152,28.97534085076981,117.70359692246248,106.04290964511644,9.70840483205393e-05,0.0874469503760337,0,0,0
9917,336271.03471927345,2010-09-18 11:22:18,4772.419286131536,2,29,0.5501165986061096,4.067068576812744,29.57191639443732,28.97534085076981,117.72224506389388,106.04290964511644,6.47544875391759e-05,0.0874469503760337,0,0,0
9918,336301.05018436204,2010-09-18 11:22:48,4802.434751225173,2,29,0.5501165986061096,4.069820880889893,29.57650321142052,28.97534085076981,117.74090632587271,106.04290964511644,9.71794142969884e-05,0.0874469503760337,0,0,0
9919,336331.0654099479,2010-09-18 11:23:18,4832.44997680595,2,29,0.5501165986061096,4.072572708129883,29.581090024891992,28.97534085076981,117.75958034809312,106.04290964511644,9.70840483205393e-05,0.0874469503760337,0,0,0
9920,336361.0808419589,2010-09-18 11:23:48,4862.465408791946,2,29,0.5501165986061096,4.075325012207031,29.585676742286203,28.97534085076981,117.77826688837038,106.04290964511644,3.24249267578125e-05,0.0874469503760337,0,0,0
9921,336391.09623977967,2010-09-18 11:24:18,4892.480806627697,2,29,0.5501165986061096,4.0782389640808105,29.59026349020682,28.97534085076981,117.7969665262056,106.04290964511644,3.24249267578125e-05,0.0874469503760337,0,0,0
9922,336421.1113785537,2010-09-18 11:24:48,4922.495945386753,2,29,0.5501165986061096,4.08115291595459,29.59485021932723,28.97534085076981,117.8156792328994,106.04290964511644,6.47544875391759e-05,0.0874469503760337,0,0,0
9923,336451.12671737216,2010-09-18 11:25:18,4952.5112842051885,2,29,0.5501165986061096,4.084066867828369,29.59943698382336,28.97534085076981,117.83440525273872,106.04290964511644,6.47544875391759e-05,0.0874469503760337,0,0,0
9924,336481.1420423961,2010-09-18 11:25:48,4982.526609229191,2,29,0.5501165986061096,4.087142467498779,29.6040237719835,28.97534085076981,117.8531447970154,106.04290964511644,0.0001295089750783,0.0874469503760337,0,0,0
9925,336511.15736562066,2010-09-18 11:26:18,5012.541932453702,2,29,0.550297200679779,4.090056419372559,29.608610522400244,28.97534085076981,117.87189772241769,106.04290964511644,9.70840483205393e-05,0.0874469503760337,0,0,0
9926,336541.1728512355,2010-09-18 11:26:48,5042.557418068564,2,29,0.5501165986061096,4.092970371246338,29.61319731017154,28.97534085076981,117.89066439322326,106.04290964511644,9.70840483205393e-05,0.0874469503760337,0,0,0
9927,336571.18825276545,2010-09-18 11:27:18,5072.572819598536,2,29,0.5501165986061096,4.095884323120117,29.61778403499421,28.97534085076981,117.90944454516836,106.04290964511644,6.47544875391759e-05,0.0874469503760337,0,0,0
9928,336601.20350445143,2010-09-18 11:27:48,5102.588071294501,2,29,0.550297200679779,4.0989603996276855,29.62237084675727,28.97534085076981,117.92823892357328,106.04290964511644,6.47544875391759e-05,0.0874469503760337,0,0,0
9929,336631.21882905444,2010-09-18 11:28:18,5132.603395897452,2,29,0.5501165986061096,4.102035999298096,29.626957628311583,28.97534085076981,117.94704716110236,106.04290964511644,9.70840483205393e-05,0.0874469503760337,0,0,0
9930,336661.234026535,2010-09-18 11:28:48,5162.618593393124,2,29,0.5499359965324402,4.105112075805664,29.63154436073735,28.97534085076981,117.9658692602434,106.04290964511644,9.71794142969884e-05,0.0874469503760337,0,0,0
9931,336691.2493730828,2010-09-18 11:29:18,5192.633940011027,2,29,0.5501165986061096,4.108187675476074,29.636131152621427,28.97534085076981,117.98470588364964,106.04290964511644,6.47544875391759e-05,0.0874469503760337,0,0,0
9932,336721.26469138,2010-09-18 11:29:48,5222.649258243076,2,29,0.5501165986061096,4.111587524414063,29.64071789477071,28.97534085076981,118.00355666494993,106.04290964511644,9.71794142969884e-05,0.0874469503760337,0,0,0
9933,336751.2803780266,2010-09-18 11:30:18,5252.664944869694,2,29,0.5501165986061096,4.114663124084473,29.645304710562872,28.97534085076981,118.02242222916604,106.04290964511644,9.70840483205393e-05,0.0874469503760337,0,0,0
9934,336781.29535621987,2010-09-18 11:30:48,5282.679923052929,2,29,0.5499359965324402,4.117738723754883,29.64989143833596,28.97534085076981,118.04130202570344,106.04290964511644,6.47544875391759e-05,0.0874469503760337,0,0,0
9935,336811.31089546863,2010-09-18 11:31:18,5312.695462316706,2,29,0.5501165986061096,4.120814800262451,29.65447823693327,28.97534085076981,118.06019683547667,106.04290964511644,6.47544875391759e-05,0.0874469503760337,0,0,0
9936,336841.3260148142,2010-09-18 11:31:48,5342.710581647266,2,29,0.5501165986061096,4.12405252456665,29.65906500866281,28.97534085076981,118.07910632873268,106.04290964511644,6.47544875391759e-05,0.0874469503760337,0,0,0
9937,336871.3413657078,2010-09-18 11:32:18,5372.72593255588,2,29,0.5501165986061096,4.1276140213012695,29.66365182901404,28.97534085076981,118.09803097122204,106.04290964511644,0.0001295089750783,0.0874469503760337,0,0,0
9938,336901.35671065154,2010-09-18 11:32:48,5402.741277479555,2,29,0.5501165986061096,4.13068962097168,29.66823862377524,28.97534085076981,118.11697054659572,106.04290964511644,6.47544875391759e-05,0.0874469503760337,0,0,0
9939,336931.3720610689,2010-09-18 11:33:18,5432.7566279220055,2,29,0.5501165986061096,4.134251117706299,29.672825453928244,28.97534085076981,118.13592549414956,106.04290964511644,9.70840483205393e-05,0.0874469503760337,0,0,0
9940,336961.3873632008,2010-09-18 11:33:48,5462.771930033815,2,29,0.5501165986061096,4.137327194213867,29.6774122041724,28.97534085076981,118.15489532144892,106.04290964511644,6.47544875391759e-05,0.0874469503760337,0,0,0
9941,336991.402816515,2010-09-18 11:34:18,5492.7873833681,2,29,0.5497553944587708,4.140726566314697,29.681998948171508,28.97534085076981,118.17388054747278,106.04290964511644,6.47544875391759e-05,0.0874469503760337,0,0,0
9942,337021.418057374,2010-09-18 11:34:48,5522.802624216988,2,29,0.5501165986061096,4.144288063049316,29.68658574618011,28.97534085076981,118.19288163156644,106.04290964511644,9.70840483205393e-05,0.0874469503760337,0,0,0
9943,337051.4333309846,2010-09-18 11:35:18,5552.817897942942,2,29,0.5499359965324402,4.147525787353516,29.6911724456011,28.97534085076981,118.21189847113354,106.04290964511644,3.23295607813634e-05,0.0874469503760337,0,0,0
9944,337081.44871335174,2010-09-18 11:35:48,5582.833280184769,2,29,0.5501165986061096,4.151249408721924,29.69575823946331,28.97534085076981,118.23092718403704,106.04290964511644,9.71794142969884e-05,0.0874469503760337,0,0,0
9945,337111.46416235017,2010-09-18 11:36:18,5612.848729208294,2,29,0.5499359965324402,4.154648780822754,29.70034403928528,28.97534085076981,118.24997178100897,106.04290964511644,0.0001295089750783,0.0874469503760337,0,0,0
9946,337141.479360718,2010-09-18 11:36:48,5642.86392755108,2,29,0.5501165986061096,4.158210277557373,29.70492974781305,28.97534085076981,118.2690320552232,106.04290964511644,9.70840483205393e-05,0.0874469503760337,0,0,0
9947,337171.49479753105,2010-09-18 11:37:18,5672.879364374149,2,29,0.5501165986061096,4.161771774291992,29.709515553223863,28.97534085076981,118.28810889169266,106.04290964511644,9.70840483205393e-05,0.0874469503760337,0,0,0
9948,337201.5100569212,2010-09-18 11:37:48,5702.894623759307,2,29,0.5501165986061096,4.165333271026611,29.71410226655893,28.97534085076981,118.30720595724472,106.04290964511644,9.70840483205393e-05,0.0874469503760337,0,0,0
9949,337231.5253572787,2010-09-18 11:38:18,5732.909924116737,2,29,0.5499359965324402,4.168894767761231,29.718688954726467,28.97534085076981,118.32631939445096,106.04290964511644,9.70840483205393e-05,0.0874469503760337,0,0,0
9950,337261.54082261794,2010-09-18 11:38:48,5762.925389455988,2,29,0.550297200679779,4.172618389129639,29.72327568882032,28.97534085076981,118.34544958748047,106.04290964511644,0.0001295089750783,0.0874469503760337,0,0,0
9951,337291.5575027244,2010-09-18 11:39:18,5792.94206955246,2,29,0.5501165986061096,4.176179885864258,29.72786265539959,28.97534085076981,118.3645974956044,106.04290964511644,9.71794142969884e-05,0.0874469503760337,0,0,0
9952,337321.5715157084,2010-09-18 11:39:48,5822.956082726883,2,29,0.5501165986061096,4.179903030395508,29.732449181967965,28.97534085076981,118.38376038738164,106.04290964511644,0.0001295089750783,0.0874469503760337,0,0,0
9953,337351.5867052993,2010-09-18 11:40:18,5852.971272127349,2,29,0.5499359965324402,4.183626651763916,29.73703586687455,28.97534085076981,118.40294088194749,106.04290964511644,6.47544875391759e-05,0.0874469503760337,0,0,0
9954,337381.6020557618,2010-09-18 11:40:48,5882.986622609899,2,29,0.5501165986061096,4.187349796295166,29.74162266136149,28.97534085076981,118.42213892079208,106.04290964511644,6.47544875391759e-05,0.0874469503760337,0,0,0
9955,337411.6173718536,2010-09-18 11:41:18,5913.001938877043,2,29,0.5501165986061096,4.191235065460205,29.74620939459411,28.97534085076981,118.44135395103582,106.04290964511644,9.70840483205393e-05,0.0874469503760337,0,0,0
9956,337441.6326873989,2010-09-18 11:41:48,5943.0172542268965,2,29,0.5499359965324402,4.194796562194824,29.750796097344058,28.97534085076981,118.4605861840388,106.04290964511644,6.47544875391759e-05,0.0874469503760337,0,0,0
9957,337471.6480313652,2010-09-18 11:42:18,5973.032598203207,2,29,0.5501165986061096,4.198681831359863,29.755382788741738,28.97534085076981,118.4798357606785,106.04290964511644,9.71794142969884e-05,0.0874469503760337,0,0,0
9958,337480.9450016784,2010-09-18 11:42:28,5982.329568601625,2,29,0.5501165986061096,4.200138568878174,29.75680346953624,28.97534085076981,118.48580169302332,106.04290964511644,0.0001295089750783,0.0874469503760337,0,0,0
9959,337510.9623277974,2010-09-18 11:42:58,30.015319480163942,3,29,0.0,4.121947765350342,29.75680346953624,28.97534085076981,118.48580169302332,106.04290964511644,-0.0003561973571777,0.0874469503760337,0,0,0
9960,337540.9776583903,2010-09-18 11:43:28,60.030650073067,3,29,0.0,4.112235069274902,29.75680346953624,28.97534085076981,118.48580169302332,106.04290964511644,-0.0002265930233988,0.0874469503760337,0,0,0
9961,337570.99298611603,2010-09-18 11:43:58,90.0459777988132,3,29,0.0,4.106730937957764,29.75680346953624,28.97534085076981,118.48580169302332,106.04290964511644,-9.70840483205393e-05,0.0874469503760337,0,0,0
9962,337600.9614511302,2010-09-18 11:44:28,120.01444281302174,3,29,0.0,4.103007316589356,29.75680346953624,28.97534085076981,118.48580169302332,106.04290964511644,-9.71794142969884e-05,0.0874469503760337,0,0,0
9963,337600.96482635575,2010-09-18 11:44:28,2.616531265e-06,4,29,0.9996531009674072,4.199653148651123,29.756803470262803,28.97534085076981,118.48580169607465,106.04290964511644,0.0,0.0874469503760337,0,0,0
9964,337601.7773058646,2010-09-18 11:44:29,0.812482150444764,4,29,0.9485406875610352,4.199491024017334,29.757021643443,28.97534085076981,118.48671793112592,106.04290964511644,-3.24249267578125e-05,0.0874469503760337,0,0,0
9965,337603.7929209249,2010-09-18 11:44:31,2.82809723579242,4,29,0.8981506824493408,4.199653148651123,29.75753752408764,28.97534085076981,118.48888443104228,106.04290964511644,0.0,0.0874469503760337,0,0,0
9966,337606.839755217,2010-09-18 11:44:34,5.874931527929332,4,29,0.8479413390159607,4.199491024017334,29.75827528004068,28.97534085076981,118.49198272101796,106.04290964511644,-3.24249267578125e-05,0.0874469503760337,0,0,0
9967,337610.9963459971,2010-09-18 11:44:38,10.031522388192064,4,29,0.7975513339042664,4.199653148651123,29.75922411550836,28.97534085076981,118.49596746462711,106.04290964511644,3.24249267578125e-05,0.0874469503760337,0,0,0
9968,337616.3709242764,2010-09-18 11:44:43,15.4061005621725,4,29,0.7473419308662415,4.199491024017334,29.760376030234564,28.97534085076981,118.50080508065152,106.04290964511644,0.0,0.0874469503760337,0,0,0
9969,337623.2458318132,2010-09-18 11:44:50,22.28100812913773,4,29,0.6973131895065308,4.199653148651123,29.76175381148348,28.97534085076981,118.50659128088968,106.04290964511644,0.0,0.0874469503760337,0,0,0
9970,337632.33954223344,2010-09-18 11:44:59,31.374718539354003,4,29,0.6472843885421753,4.199653148651123,29.763449595381157,28.97534085076981,118.51371299805665,106.04290964511644,3.24249267578125e-05,0.0874469503760337,0,0,0
9971,337644.7300032153,2010-09-18 11:45:12,43.765179501139386,4,29,0.5970750451087952,4.199491024017334,29.765587537609093,28.97534085076981,118.52269161876345,106.04290964511644,-3.24249267578125e-05,0.0874469503760337,0,0,0
9972,337663.18295757327,2010-09-18 11:45:30,62.21813388419555,4,29,0.5470462441444397,4.199491024017334,29.76851253084619,28.97534085076981,118.53497556739909,106.04290964511644,-6.47544875391759e-05,0.0874469503760337,0,0,0
9973,337692.6671536477,2010-09-18 11:46:00,91.70232994358996,4,29,0.4970174729824066,4.199653148651123,29.77277168869255,28.97534085076981,118.55286255339918,106.04290964511644,0.0,0.0874469503760337,0,0,0
9974,337743.7447793145,2010-09-18 11:46:51,142.779955625388,4,29,0.4469887316226959,4.199653148651123,29.77943930671364,28.97534085076981,118.5808642656626,106.04290964511644,0.0,0.0874469503760337,0,0,0
9975,337824.05637351424,2010-09-18 11:48:11,223.0915498050904,4,29,0.3969599604606628,4.199491024017334,29.78882494746223,28.97534085076981,118.6202806994521,106.04290964511644,-3.24249267578125e-05,0.0874469503760337,0,0,0
9976,337929.75846705656,2010-09-18 11:49:57,328.7936433424201,4,29,0.3469311892986297,4.199653148651123,29.79973242358035,28.97534085076981,118.66608838693,106.04290964511644,-3.23295607813634e-05,0.0874469503760337,0,0,0
9977,338058.71109839826,2010-09-18 11:52:06,457.7462747242154,4,29,0.2969024181365967,4.199653148651123,29.811248419346843,28.97534085076981,118.71445161938416,106.04290964511644,0.0,0.0874469503760337,0,0,0
9978,338213.30259332294,2010-09-18 11:54:40,612.3377697290545,4,29,0.2468736320734024,4.199653148651123,29.822900396973846,28.97534085076981,118.76338593064808,106.04290964511644,-3.23295607813634e-05,0.0874469503760337,0,0,0
9979,338406.55070576206,2010-09-18 11:57:54,805.5858820528936,4,29,0.1968448758125305,4.199491024017334,29.83477164404805,28.97534085076981,118.81324102818422,106.04290964511644,0.0,0.0874469503760337,0,0,0
9980,338662.6889266172,2010-09-18 12:02:10,1061.7241029280783,4,29,0.1468161046504974,4.199653148651123,29.84691677782648,28.97534085076981,118.864246319678,106.04290964511644,3.24249267578125e-05,0.0874469503760337,0,0,0
9981,339037.8886347467,2010-09-18 12:08:25,1436.923811037551,4,29,0.0967873260378837,4.199653148651123,29.85943915831701,28.97534085076981,118.91683587300584,106.04290964511644,0.0,0.0874469503760337,0,0,0
9982,339681.16342973034,2010-09-18 12:19:08,2080.1986060211834,4,29,0.0498289167881011,4.199491024017334,29.87209629857537,28.97534085076981,118.96999134486992,106.04290964511644,-3.24249267578125e-05,0.0874469503760337,0,0,0
9983,339711.18655270647,2010-09-18 12:19:38,30.015250653361665,5,29,0.0,4.192206382751465,29.87209629857537,28.97534085076981,118.96999134486992,106.04290964511644,-9.71794142969884e-05,0.0874469503760337,0,0,0
9984,339741.18629991583,2010-09-18 12:20:08,60.01499788780456,5,29,0.0,4.191073417663574,29.87209629857537,28.97534085076981,118.96999134486992,106.04290964511644,-3.23295607813634e-05,0.0874469503760337,0,0,0
9985,339741.3824721676,2010-09-18 12:20:09,0.18764250957197,6,29,-1.9243103452026844e-05,4.191235065460205,29.87209629857537,28.975340851772827,118.96999134486992,106.04290964932028,0.0,0.0904406234622001,0,0,0
9986,339746.21041121625,2010-09-18 12:20:14,5.015581558197192,6,29,0.0003419754502829,4.191235065460205,29.87209711171491,28.97534085193965,118.96999475300672,106.04290965001952,0.0,0.0904406234622001,0,0,0
9987,339776.2343667318,2010-09-18 12:20:44,30.01533298888379,7,29,-1.099568486213684,4.029349327087402,29.87209711171491,28.9845099685102,118.96999475300672,106.08003853836368,-0.0008418083307333,0.0904406234622001,0,0,0
9988,339806.2497023021,2010-09-18 12:21:14,60.030668559211264,7,29,-1.099568486213684,4.004742622375488,29.87209711171491,28.993679063675163,118.96999475300672,106.11686190233532,-0.0005504608270712,0.0904406234622001,0,0,0
9989,339836.2650474814,2010-09-18 12:21:44,90.04601374353675,7,29,-1.099568486213684,3.9877448081970215,29.87209711171491,29.00284809265184,118.96999475300672,106.15349971474298,-0.0004209041653666,0.0904406234622001,0,0,0
9990,339866.2804888007,2010-09-18 12:22:14,120.06145506784245,7,29,-1.0997490882873535,3.9747939109802246,29.87209711171491,29.01201710331713,118.96999475300672,106.19000203232147,-0.0003237724304199,0.0904406234622001,0,0,0
9991,339896.2958444361,2010-09-18 12:22:44,150.07681070325543,7,29,-1.099568486213684,3.9634618759155273,29.87209711171491,29.021186035295443,118.96999475300672,106.22639366229168,-0.0002913951757363,0.0904406234622001,0,0,0
9992,339926.31103421754,2010-09-18 12:23:14,180.09200047464634,7,29,-1.099568486213684,3.9537487030029297,29.87209711171491,29.03035499834355,118.96999475300672,106.26268872392832,-0.0001942634553415,0.0904406234622001,0,0,0
9993,339956.32638817874,2010-09-18 12:23:44,210.10735443588032,7,29,-1.0997490882873535,3.944035530090332,29.87209711171491,29.039524048433268,118.96999475300672,106.29889555997522,-0.0002913951757363,0.0904406234622001,0,0,0
9994,339986.34170385945,2010-09-18 12:24:14,240.1226701165602,7,29,-1.0997490882873535,3.935293674468994,29.87209711171491,29.04869307944143,118.96999475300672,106.3350190496038,-0.0002266406954731,0.0904406234622001,0,0,0
9995,340016.3570434899,2010-09-18 12:24:44,270.1380097570474,7,29,-1.099568486213684,3.926713705062866,29.87209711171491,29.05786211331676,118.96999475300672,106.37106284053591,-0.0002590179501567,0.0904406234622001,0,0,0
9996,340046.3723759926,2010-09-18 12:25:14,300.15334224969246,7,29,-1.099929690361023,3.918295621871948,29.87209711171491,29.06703113932823,118.96999475300672,106.40702941134658,-0.0002266406954731,0.0904406234622001,0,0,0
9997,340076.38775886595,2010-09-18 12:25:44,330.168725223346,7,29,-1.0997490882873535,3.9103634357452393,29.87209711171491,29.076200241430413,118.96999475300672,106.4429212330588,-0.0002266406954731,0.0904406234622001,0,0,0
9998,340106.4030612585,2010-09-18 12:26:14,360.18402754066886,7,29,-1.0997490882873535,3.902431011199951,29.87209711171491,29.085369197163885,118.96999475300672,106.47873894526016,-0.0002266406954731,0.0904406234622001,0,0,0
9999,340136.41838069854,2010-09-18 12:26:44,390.1993469556701,7,29,-1.0997490882873535,3.894660472869873,29.87209711171491,29.09453822545441,118.96999475300672,106.51448469447706,-0.0001942634553415,0.0904406234622001,0,0,0
10000,340166.4337041436,2010-09-18 12:27:14,420.2146704007311,7,29,-1.0997490882873535,3.887051820755005,29.87209711171491,29.103707238941848,118.96999475300672,106.55015984435134,-0.0001942634553415,0.0904406234622001,0,0,0
10001,340196.4490520548,2010-09-18 12:27:44,450.2300184071008,7,29,-1.0997490882873535,3.8794431686401367,29.87209711171491,29.11287620972337,118.96999475300672,106.58576474803138,-0.0001942634553415,0.0904406234622001,0,0,0
10002,340226.46439051727,2010-09-18 12:28:14,480.24535677441,7,29,-1.0997490882873535,3.871834516525269,29.87209711171491,29.122045255473164,118.96999475300672,106.62130069590482,-0.0002266406954731,0.0904406234622001,0,0,0
10003,340256.4798277163,2010-09-18 12:28:44,510.26079397341823,7,29,-1.0997490882873535,3.86454963684082,29.87209711171491,29.131214401239216,118.96999475300672,106.65676849280814,-0.0001942634553415,0.0904406234622001,0,0,0
10004,340286.4950469312,2010-09-18 12:29:14,540.2760132083547,7,29,-1.0997490882873535,3.857102870941162,29.87209711171491,29.14038346708561,118.96999475300672,106.6921685373771,-0.0002590179501567,0.0904406234622001,0,0,0
10005,340316.5105342002,2010-09-18 12:29:44,570.2915004873704,7,29,-1.0997490882873535,3.849817991256714,29.87209711171491,29.149552623857545,118.96999475300672,106.72750260199622,-0.0001942634553415,0.0904406234622001,0,0,0
10006,340346.5257387635,2010-09-18 12:30:14,600.3067050456717,7,29,-1.0997490882873535,3.843018770217896,29.87209711171491,29.15872167914932,118.96999475300672,106.7627707082122,-0.0001618862152099,0.0904406234622001,0,0,0
10007,340376.54101978266,2010-09-18 12:30:44,630.3219861350062,7,29,-1.099929690361023,3.835895776748657,29.87209711171491,29.16789076751096,118.96999475300672,106.79797454498424,-0.0001942634553415,0.0904406234622001,0,0,0
10008,340406.55643677124,2010-09-18 12:31:14,660.3374032137913,7,29,-1.0997490882873535,3.829096794128418,29.87209711171491,29.177059888255865,118.96999475300672,106.83311467641116,-0.0001942634553415,0.0904406234622001,0,0,0
10009,340436.5719241956,2010-09-18 12:31:44,690.352890472757,7,29,-1.0997490882873535,3.8222975730896,29.87209711171491,29.186229085635567,118.96999475300672,106.86819241100844,-0.0001295089750783,0.0904406234622001,0,0,0
10010,340466.58701816783,2010-09-18 12:32:14,720.3679844249684,7,29,-1.0997490882873535,3.815660238265991,29.87209711171491,29.195398146416856,118.96999475300672,106.9032085729896,-0.0001942634553415,0.0904406234622001,0,0,0
10011,340496.60235915164,2010-09-18 12:32:44,750.383325448909,7,29,-1.0997490882873535,3.8091847896575928,29.87209711171491,29.204567298415636,118.96999475300672,106.9381645240612,-0.0001295089750783,0.0904406234622001,0,0,0
10012,340526.61783835053,2010-09-18 12:33:14,780.3988046076554,7,29,-1.099568486213684,3.8027093410491934,29.87209711171491,29.213736336721936,118.96999475300672,106.97306075788154,-0.0001618862152099,0.0904406234622001,0,0,0
10013,340556.6330332748,2010-09-18 12:33:44,810.4139995619835,7,29,-1.0997490882873535,3.796395778656006,29.87209711171491,29.22290533039402,118.96999475300672,107.00789903134184,-0.0001942634553415,0.0904406234622001,0,0,0
10014,340586.6483632461,2010-09-18 12:34:14,840.4293295032602,7,29,-1.099568486213684,3.790405988693237,29.87209711171491,29.23207439443637,118.96999475300672,107.0426806006458,-0.0001295089750783,0.0904406234622001,0,0,0
10015,340616.66411023843,2010-09-18 12:34:44,870.4450765055851,7,29,-1.0997490882873535,3.784254312515259,29.87209711171491,29.241243547460392,118.96999475300672,107.07740645399312,-0.0001295089750783,0.0904406234622001,0,0,0
10016,340646.6790298805,2010-09-18 12:35:14,900.4599961376667,7,29,-1.099568486213684,3.77826452255249,29.87209711171491,29.25041250828289,118.96999475300672,107.11207646239195,-0.0001618862152099,0.0904406234622001,0,0,0
10017,340676.6943987089,2010-09-18 12:35:44,930.4753649660112,7,29,-1.099568486213684,3.772436618804932,29.87209711171491,29.25958161733755,118.96999475300672,107.14669295964386,-0.0001618862152099,0.0904406234622001,0,0,0
10018,340706.70967997366,2010-09-18 12:36:14,960.4906462307838,7,29,-1.0997490882873535,3.766770601272583,29.87209711171491,29.268750640601883,118.96999475300672,107.18125626082583,-0.0001295089750783,0.0904406234622001,0,0,0
10019,340736.7251718642,2010-09-18 12:36:44,990.5061381263232,7,29,-1.099929690361023,3.760942697525024,29.87209711171491,29.27791980303958,118.96999475300672,107.21576810101156,-0.0001618862152099,0.0904406234622001,0,0,0
10020,340766.7403605328,2010-09-18 12:37:14,1020.5213268200238,7,29,-1.099929690361023,3.7554385662078857,29.87209711171491,29.287088832146217,118.96999475300672,107.25022838362965,-0.0001942634553415,0.0904406234622001,0,0,0
10021,340796.75582361146,2010-09-18 12:37:44,1050.5367898685563,7,29,-1.099568486213684,3.750258445739746,29.87209711171491,29.29625800660803,118.96999475300672,107.28463942493347,-0.0001295089750783,0.0904406234622001,0,0,0
10022,340826.7710250569,2010-09-18 12:38:14,1080.5519913140877,7,29,-1.099568486213684,3.744754314422608,29.87209711171491,29.30542709740069,118.96999475300672,107.31900133972331,-0.0001942634553415,0.0904406234622001,0,0,0
10023,340856.7864821356,2010-09-18 12:38:44,1110.5674484027438,7,29,-1.0997490882873535,3.739735841751098,29.87209711171491,29.31459620055854,118.96999475300672,107.35331528632013,-0.0001618862152099,0.0904406234622001,0,0,0
10024,340886.80168999213,2010-09-18 12:39:14,1140.5826562492528,7,29,-1.0997490882873535,3.73471736907959,29.87209711171491,29.32376524613609,118.96999475300672,107.38758193794692,-0.0001295089750783,0.0904406234622001,0,0,0
10025,340916.81703066523,2010-09-18 12:39:44,1170.5979969223176,7,29,-1.0997490882873535,3.729698896408081,29.87209711171491,29.33293432534292,118.96999475300672,107.42180233286764,-0.0001295089750783,0.0904406234622001,0,0,0
10026,340946.83236897737,2010-09-18 12:40:14,1200.6133352595516,7,29,-1.099568486213684,3.724680423736572,29.87209711171491,29.342103367374243,118.96999475300672,107.45597725877415,-0.0001618862152099,0.0904406234622001,0,0,0
10027,340976.8476863122,2010-09-18 12:40:44,1230.628652569298,7,29,-1.0997490882873535,3.7199857234954834,29.87209711171491,29.35127241067608,118.96999475300672,107.49010725499843,-9.713172767078504e-05,0.0904406234622001,0,0,0
10028,341006.86314973666,2010-09-18 12:41:14,1260.6441159937692,7,29,-1.099929690361023,3.714967250823975,29.87209711171491,29.360441601693736,118.96999475300672,107.52419337209884,-0.0001618862152099,0.0904406234622001,0,0,0
10029,341036.8784151268,2010-09-18 12:41:44,1290.6593814089786,7,29,-1.0997490882873535,3.7105963230133057,29.87209711171491,29.369610726824725,118.96999475300672,107.55823577679593,-6.47544875391759e-05,0.0904406234622001,0,0,0
10030,341066.8937443513,2010-09-18 12:42:14,1320.6747106084033,7,29,-1.0997490882873535,3.705739736557007,29.87209711171491,29.37877984647288,118.96999475300672,107.5922353525262,-0.0001295089750783,0.0904406234622001,0,0,0
10031,341096.9090210497,2010-09-18 12:42:44,1350.6899873368525,7,29,-1.0997490882873535,3.701368808746338,29.87209711171491,29.387948941611004,118.96999475300672,107.6261929705206,-6.47544875391759e-05,0.0904406234622001,0,0,0
10032,341126.9244862887,2010-09-18 12:43:14,1380.7054525507904,7,29,-1.099929690361023,3.696674108505249,29.87209711171491,29.39711813240905,118.96999475300672,107.66010951394502,-0.0001295089750783,0.0904406234622001,0,0,0
10033,341156.9423558843,2010-09-18 12:43:44,1410.723322371998,7,29,-1.0997490882873535,3.69230318069458,29.87209711171491,29.40628801424612,118.96999475300672,107.69398783467597,-9.713172767078504e-05,0.0904406234622001,0,0,0
10034,341186.95506074297,2010-09-18 12:44:14,1440.736027025151,7,29,-1.0997490882873535,3.687770366668701,29.87209711171491,29.41545634269704,118.96999475300672,107.72782008599586,-0.0001618862152099,0.0904406234622001,0,0,0
10035,341216.9703739776,2010-09-18 12:44:44,1470.7513402346626,7,29,-1.099929690361023,3.683723211288452,29.87209711171491,29.42462540743606,118.96999475300672,107.76161563586284,-0.0001295089750783,0.0904406234622001,0,0,0
10036,341246.9856932873,2010-09-18 12:45:14,1500.7666595644514,7,29,-1.0997490882873535,3.679514169692993,29.87209711171491,29.43379447049855,118.96999475300672,107.79537222328968,-9.713172767078504e-05,0.0904406234622001,0,0,0
10037,341277.00104158936,2010-09-18 12:45:44,1530.7820078665593,7,29,-1.0997490882873535,3.675305128097534,29.87209711171491,29.442963569013983,118.96999475300672,107.8290905495856,-0.0001295089750783,0.0904406234622001,0,0,0
10038,341307.01636276377,2010-09-18 12:46:14,1560.7973290209022,7,29,-1.0997490882873535,3.6710963249206543,29.87209711171491,29.452132747484537,118.96999475300672,107.86277129248948,-0.0001618862152099,0.0904406234622001,0,0,0
10039,341337.03171409346,2010-09-18 12:46:44,1590.8126803505677,7,29,-1.0997490882873535,3.667049169540405,29.87209711171491,29.46130189220145,118.96999475300672,107.89641479285358,-0.0001618862152099,0.0904406234622001,0,0,0
10040,341367.0470617539,2010-09-18 12:47:14,1620.8280280361364,7,29,-1.0997490882873535,3.663325786590576,29.87209711171491,29.47047097945156,118.96999475300672,107.93002163705896,-6.47544875391759e-05,0.0904406234622001,0,0,0
10041,341397.0625806118,2010-09-18 12:47:44,1650.843546964153,7,29,-1.0997490882873535,3.659278631210327,29.87209711171491,29.479640118024523,118.96999475300672,107.96359269853164,-0.0001618862152099,0.0904406234622001,0,0,0
10042,341427.0777066391,2010-09-18 12:48:14,1680.858672896191,7,29,-1.099929690361023,3.655555248260498,29.87209711171491,29.48880911900725,118.96999475300672,107.99712806238136,-0.0001295089750783,0.0904406234622001,0,0,0
10043,341457.09303302644,2010-09-18 12:48:45,1710.8739992835965,7,29,-1.0997490882873535,3.651831865310669,29.87209711171491,29.49797821636198,118.96999475300672,108.0306294411154,-9.713172767078504e-05,0.0904406234622001,0,0,0
10044,341487.1083689577,2010-09-18 12:49:15,1740.8893352148243,7,29,-1.0997490882873535,3.64810848236084,29.87209711171491,29.50714729981187,118.96999475300672,108.06409670018743,-9.713172767078504e-05,0.0904406234622001,0,0,0
10045,341517.1237151095,2010-09-18 12:49:45,1770.904681366565,7,29,-1.0997490882873535,3.6445469856262207,29.87209711171491,29.51631636871176,118.96999475300672,108.09753040168049,-9.713172767078504e-05,0.0904406234622001,0,0,0
10046,341547.1390351961,2010-09-18 12:50:15,1800.920001453243,7,29,-1.0997490882873535,3.641147375106812,29.87209711171491,29.525485396321304,118.96999475300672,108.13093136381238,-6.47544875391759e-05,0.0904406234622001,0,0,0
10047,341577.1543990871,2010-09-18 12:50:45,1830.9353653693256,7,29,-1.0997490882873535,3.637585878372192,29.87209711171491,29.53465451634981,118.96999475300672,108.16430081807106,-9.713172767078504e-05,0.0904406234622001,0,0,0
10048,341607.16974345443,2010-09-18 12:51:15,1860.9507097115493,7,29,-1.099568486213684,3.634510040283203,29.87209711171491,29.543823605268297,118.96999475300672,108.19763916559528,-3.237724376958795e-05,0.0904406234622001,0,0,0
10049,341637.18504792714,2010-09-18 12:51:45,1890.96601427949,7,29,-1.099568486213684,3.630948543548584,29.87209711171491,29.552992660043383,118.96999475300672,108.2309471650144,-9.713172767078504e-05,0.0904406234622001,0,0,0
10050,341667.2003700138,2010-09-18 12:52:15,1920.9813362709224,7,29,-1.099929690361023,3.6277108192443848,29.87209711171491,29.56216175497667,118.96999475300672,108.26422577165688,-9.713172767078504e-05,0.0904406234622001,0,0,0
10051,341697.2157085465,2010-09-18 12:52:45,1950.9966748036445,7,29,-1.099568486213684,3.6247968673706055,29.87209711171491,29.571330869200995,118.96999475300672,108.29747545281732,-6.47544875391759e-05,0.0904406234622001,0,0,0
10052,341727.23104192136,2010-09-18 12:53:15,1981.012008178492,7,29,-1.0997490882873535,3.6215591430664062,29.87209711171491,29.58049995429868,118.96999475300672,108.3306969636179,-6.47544875391759e-05,0.0904406234622001,0,0,0
10053,341757.2463835017,2010-09-18 12:53:45,2011.0273497588207,7,29,-1.0997490882873535,3.618645191192627,29.87209711171491,29.58966909295184,118.96999475300672,108.36389089335576,-9.713172767078504e-05,0.0904406234622001,0,0,0
10054,341787.2617291472,2010-09-18 12:54:15,2041.042695424348,7,29,-1.099568486213684,3.6158931255340576,29.87209711171491,29.59883824084632,118.96999475300672,108.39705773460796,-3.237724376958795e-05,0.0904406234622001,0,0,0
10055,341817.2771802208,2010-09-18 12:54:45,2071.0581464779398,7,29,-1.099568486213684,3.6129791736602783,29.87209711171491,29.60800738082638,118.96999475300672,108.43019790986912,0.0,0.0904406234622001,0,0,0
10056,341847.29237913503,2010-09-18 12:55:15,2101.073345392152,7,29,-1.099568486213684,3.610227108001709,29.87209711171491,29.617176447479928,118.96999475300672,108.46331175422766,-6.47544875391759e-05,0.0904406234622001,0,0,0
10057,341877.3077501789,2010-09-18 12:55:45,2131.088716436027,7,29,-1.0997490882873535,3.6073131561279297,29.87209711171491,29.626345580322,118.96999475300672,108.49640004153592,-6.47544875391759e-05,0.0904406234622001,0,0,0
10058,341907.323050787,2010-09-18 12:56:15,2161.104017054108,7,29,-1.0997490882873535,3.60456109046936,29.87209711171491,29.63551468513159,118.96999475300672,108.52946250615292,-6.47544875391759e-05,0.0904406234622001,0,0,0
10059,341937.33838147006,2010-09-18 12:56:45,2191.119347727212,7,29,-1.0997490882873535,3.601809024810791,29.87209711171491,29.644683771848,118.96999475300672,108.56249966499746,-6.47544875391759e-05,0.0904406234622001,0,0,0
10060,341967.3537160529,2010-09-18 12:57:15,2221.1346823150866,7,29,-1.0997490882873535,3.598895072937012,29.87209711171491,29.653852829441195,118.96999475300672,108.59551123752512,-6.47544875391759e-05,0.0904406234622001,0,0,0
10061,341997.3691846954,2010-09-18 12:57:45,2251.1501509776326,7,29,-1.0997490882873535,3.5963048934936523,29.87209711171491,29.66302194354104,118.96999475300672,108.6284976755534,-3.237724376958795e-05,0.0904406234622001,0,0,0
10062,342027.3845091881,2010-09-18 12:58:15,2281.1654754452456,7,29,-1.099929690361023,3.593390941619873,29.87209711171491,29.672191013004177,118.96999475300672,108.66145867995736,-9.713172767078504e-05,0.0904406234622001,0,0,0
10063,342057.399797701,2010-09-18 12:58:45,2311.180763958111,7,29,-1.099929690361023,3.590639114379883,29.87209711171491,29.681360193623824,118.96999475300672,108.69439442132396,-9.713172767078504e-05,0.0904406234622001,0,0,0
10064,342087.4151831308,2010-09-18 12:59:15,2341.1961493878957,7,29,-1.099568486213684,3.5877251625061035,29.87209711171491,29.690529337852272,118.96999475300672,108.7273043121959,-9.713172767078504e-05,0.0904406234622001,0,0,0
10065,342117.4304126815,2010-09-18 12:59:45,2371.211378938581,7,29,-1.0997490882873535,3.584973096847534,29.87209711171491,29.699698460117737,118.96999475300672,108.7601882513009,-6.47544875391759e-05,0.0904406234622001,0,0,0
10066,342147.4457458758,2010-09-18 13:00:15,2401.2267122282155,7,29,-1.0997490882873535,3.582221031188965,29.87209711171491,29.708867589486086,118.96999475300672,108.7930460723814,-6.47544875391759e-05,0.0904406234622001,0,0,0
10067,342177.4611139473,2010-09-18 13:00:45,2431.242080299671,7,29,-1.0997490882873535,3.5789833068847656,29.87209711171491,29.71803675884697,118.96999475300672,108.8258774057409,-6.47544875391759e-05,0.0904406234622001,0,0,0
10068,342207.4764278886,2010-09-18 13:01:15,2461.2573941708342,7,29,-1.0997490882873535,3.5760693550109863,29.87209711171491,29.72720589503,118.96999475300672,108.8586811856244,-9.713172767078504e-05,0.0904406234622001,0,0,0
10069,342237.49190800474,2010-09-18 13:01:45,2491.272874357145,7,29,-1.099568486213684,3.572993516921997,29.87209711171491,29.73637512595173,118.96999475300672,108.891457331647,-0.0001295089750783,0.0904406234622001,0,0,0
10070,342267.5070677713,2010-09-18 13:02:15,2521.2880340284014,7,29,-1.0997490882873535,3.569755792617798,29.87209711171491,29.74554427747016,118.96999475300672,108.92420496313984,-0.0001618862152099,0.0904406234622001,0,0,0
10071,342297.5223719081,2010-09-18 13:02:45,2551.3033381853165,7,29,-1.0997490882873535,3.5666799545288086,29.87209711171491,29.75471350011522,118.96999475300672,108.95692350395588,-9.713172767078504e-05,0.0904406234622001,0,0,0
10072,342327.53771537315,2010-09-18 13:03:15,2581.3186816553625,7,29,-1.099568486213684,3.5632803440093994,29.87209711171491,29.763882689265067,118.96999475300672,108.98961152249169,-6.47544875391759e-05,0.0904406234622001,0,0,0
10073,342357.55306717905,2010-09-18 13:03:45,2611.3340334612167,7,29,-1.099929690361023,3.5598807334899902,29.87209711171491,29.773051769097744,118.96999475300672,109.02226908751236,-0.0001618862152099,0.0904406234622001,0,0,0
10074,342387.56838292984,2010-09-18 13:04:15,2641.349349207059,7,29,-1.099929690361023,3.556319236755371,29.87209711171491,29.782220963695107,118.96999475300672,109.05489505823095,-0.0001295089750783,0.0904406234622001,0,0,0
10075,342417.583740059,2010-09-18 13:04:45,2671.364706341213,7,29,-1.0997490882873535,3.552919626235962,29.87209711171491,29.791390188510583,118.96999475300672,109.08748787472106,-9.713172767078504e-05,0.0904406234622001,0,0,0
10076,342447.5990552936,2010-09-18 13:05:15,2701.3800215507167,7,29,-1.0997490882873535,3.548872470855713,29.87209711171491,29.8005592811545,118.96999475300672,109.12004617417163,-0.0001295089750783,0.0904406234622001,0,0,0
10077,342477.6144106584,2010-09-18 13:05:45,2731.3953769154546,7,29,-1.0997490882873535,3.544987201690674,29.87209711171491,29.80972837299433,118.96999475300672,109.15256896157253,-0.0001295089750783,0.0904406234622001,0,0,0
10078,342507.62972820865,2010-09-18 13:06:15,2761.410694465801,7,29,-1.099568486213684,3.540940046310425,29.87209711171491,29.81889745854317,118.96999475300672,109.18505533057883,-0.0001295089750783,0.0904406234622001,0,0,0
10079,342537.645461582,2010-09-18 13:06:45,2791.426427849131,7,29,-1.0997490882873535,3.536731004714966,29.87209711171491,29.828066714178416,118.96999475300672,109.21750380899304,-0.0001295089750783,0.0904406234622001,0,0,0
10080,342567.6605094391,2010-09-18 13:07:15,2821.4414756962574,7,29,-1.0997490882873535,3.532360076904297,29.87209711171491,29.83723579389571,118.96999475300672,109.24991208898952,-9.713172767078504e-05,0.0904406234622001,0,0,0
10081,342597.6758014407,2010-09-18 13:07:45,2851.4567676978304,7,29,-1.099568486213684,3.527665376663208,29.87209711171491,29.846404866202555,118.96999475300672,109.28227897153955,-9.713172767078504e-05,0.0904406234622001,0,0,0
10082,342627.69109526684,2010-09-18 13:08:15,2881.4720615440083,7,29,-1.0997490882873535,3.522646903991699,29.87209711171491,29.855574053205157,118.96999475300672,109.31460240349205,-0.0001618862152099,0.0904406234622001,0,0,0
10083,342657.7064088272,2010-09-18 13:08:45,2911.4873750843453,7,29,-1.099568486213684,3.5176284313201904,29.87209711171491,29.86474318278057,118.96999475300672,109.346879203686,-0.0001295089750783,0.0904406234622001,0,0,0
10084,342687.721708142,2010-09-18 13:09:15,2941.502674399173,7,29,-1.0997490882873535,3.511800527572632,29.87209711171491,29.873911657714675,118.96999475300672,109.37910406958314,-0.0001618862152099,0.0904406234622001,0,0,0
10085,342717.737056364,2010-09-18 13:09:45,2971.5180226210814,7,29,-1.099568486213684,3.5058109760284424,29.87209711171491,29.883080086401133,118.96999475300672,109.4112752220405,-9.713172767078504e-05,0.0904406234622001,0,0,0
10086,342747.7524105257,2010-09-18 13:10:15,3001.533376782816,7,29,-1.0997490882873535,3.499173641204834,29.87209711171491,29.89224864665429,118.96999475300672,109.44338896220168,-0.0002266406954731,0.0904406234622001,0,0,0
10087,342777.7678745216,2010-09-18 13:10:45,3031.548840778713,7,29,-1.0997490882873535,3.491726875305176,29.87209711171491,29.90141709287129,118.96999475300672,109.47543825205454,-0.0002266406954731,0.0904406234622001,0,0,0
10088,342807.7830813556,2010-09-18 13:11:15,3061.5640476126946,7,29,-1.0997490882873535,3.483308792114258,29.87209711171491,29.91058542623239,118.96999475300672,109.5074156741903,-0.0003237724304199,0.0904406234622001,0,0,0
10089,342837.7984500686,2010-09-18 13:11:45,3091.5794163257515,7,29,-1.099568486213684,3.47359561920166,29.87209711171491,29.91975374584577,118.96999475300672,109.53930985900352,-0.0002913951757363,0.0904406234622001,0,0,0
10090,342867.8138756637,2010-09-18 13:12:15,3121.5948419207944,7,29,-1.099568486213684,3.462263584136963,29.87209711171491,29.928922504055706,118.96999475300672,109.57110845755486,-0.0003561496851034,0.0904406234622001,0,0,0
10091,342897.82908448763,2010-09-18 13:12:45,3151.610050729706,7,29,-1.099929690361023,3.4478557109832764,29.87209711171491,29.9380914688376,118.96999475300672,109.60279036412592,-0.0004856586456298,0.0904406234622001,0,0,0
10092,342927.84455773665,2010-09-18 13:13:15,3181.625523998751,7,29,-1.0997490882873535,3.42923903465271,29.87209711171491,29.94726054887088,118.96999475300672,109.63432334640096,-0.0005179882282391,0.0904406234622001,0,0,0
10093,342957.8597711721,2010-09-18 13:13:45,3211.6407374291985,7,29,-1.0997490882873535,3.403822898864746,29.87209711171491,29.95642956477684,118.96999475300672,109.66565701472528,-0.0008094310760498,0.0904406234622001,0,0,0
10094,342987.87523112283,2010-09-18 13:14:15,3241.656197385011,7,29,-1.099568486213684,3.367398500442505,29.87209711171491,29.965598671203978,118.96999475300672,109.69671101175052,-0.0011332035064697,0.0904406234622001,0,0,0
10095,343017.8904341324,2010-09-18 13:14:45,3271.671400389434,7,29,-1.0997490882873535,3.3146238327026367,29.87209711171491,29.974767670133925,118.96999475300672,109.72736053297078,-0.0016836166614666,0.0904406234622001,0,0,0
10096,343047.9059423636,2010-09-18 13:15:15,3301.6869086408,7,29,-1.0997490882873535,3.238537549972534,29.87209711171491,29.98393671187508,118.96999475300672,109.75742616815512,-0.0023635388351976,0.0904406234622001,0,0,0
10097,343077.9237366062,2010-09-18 13:15:45,3331.7047029585387,7,29,-1.099568486213684,3.123112916946411,29.87209711171491,29.993106396403206,118.96999475300672,109.78663462741274,-0.0037233829498291,0.0904406234622001,0,0,0
10098,343105.34272753587,2010-09-18 13:16:13,3359.123693792968,7,29,-1.099929690361023,2.9228603839874268,29.87209711171491,30.001482286782547,118.96999475300672,109.81208485112272,-0.00887131690979,0.0904406234622001,0,0,0
10099,343117.9363843758,2010-09-18 13:16:25,3371.717350632926,7,29,-1.0997490882873535,2.7226076126098637,29.87209711171491,30.00532935176549,118.96999475300672,109.82296998873927,-0.0142783168703317,0.0904406234622001,0,0,0
10100,343119.2333654601,2010-09-18 13:16:27,3373.0143317172483,7,29,-1.0997490882873535,2.699781894683838,29.87209711171491,30.005725553967192,118.96999475300672,109.82404419744516,-0.0143106933683156,0.0904406234622001,0,0,0
10101,343179.2583385084,2010-09-18 13:17:27,60.01504757182351,8,29,0.0,3.3526668548583984,29.87209711171491,30.005725553967192,118.96999475300672,109.82404419744516,0.0013921738136559,0.0904406234622001,0,0,0
10102,343179.4563681354,2010-09-18 13:17:27,0.187402786185517,9,29,-1.9243103452026844e-05,3.3529906272888184,29.87209711171491,30.00572555496892,118.96999475300672,109.82404420080393,0.0,0.0874469503760337,0,0,0
10103,343184.2845561455,2010-09-18 13:17:32,5.015590906532074,9,29,0.0008838032954372,3.3610849380493164,29.872097965207864,30.005725555136,118.96999761868896,109.82404420136412,0.0011655807029455,0.0874469503760337,0,0,0
