Data_Point,Test_Time(s),Date_Time,Step_Time(s),Step_Index,Cycle_Index,Current(A),Voltage(V),Charge_Capacity(Ah),Discharge_Capacity(Ah),Charge_Energy(Wh),Discharge_Energy(Wh),dV/dt(V/s),Internal_Resistance(Ohm),Is_FC_Data,AC_Impedance(Ohm),ACI_Phase_Angle(Deg)
5271,179793.00158857252,2010-09-16 15:54:04,30.015244523059483,1,16,0.0,3.420659065246582,15.588945554629186,15.710215986345924,62.08862736690056,57.52079943437009,0.0006475448608398,0.0890663415193557,0,0,0
5272,179823.016860915,2010-09-16 15:54:34,60.03051686556057,1,16,0.0,3.440247058868408,15.588945554629186,15.710215986345924,62.08862736690056,57.52079943437009,0.0004209041653666,0.0890663415193557,0,0,0
5273,179853.0321517637,2010-09-16 15:55:04,90.0458078094937,1,16,0.0,3.4546549320220947,15.588945554629186,15.710215986345924,62.08862736690056,57.52079943437009,0.0002913951757363,0.0890663415193557,0,0,0
5274,179883.00050745503,2010-09-16 15:55:34,120.01416340557776,1,16,0.0,3.466310739517212,15.588945554629186,15.710215986345924,62.08862736690056,57.52079943437009,0.0002913951757363,0.0890663415193557,0,0,0
5275,179913.00837751114,2010-09-16 15:56:04,30.015249560634047,2,16,0.5501165986061096,3.60747504234314,15.593532050262352,15.710215986345924,62.105029330553705,57.52079943437009,0.0013922214275225,0.0890663415193557,0,0,0
5276,179943.02363547776,2010-09-16 15:56:34,60.03050752725072,2,16,0.5501165986061096,3.651184320449829,15.59811853950576,15.710215986345924,62.12168094157662,57.52079943437009,0.0010360718006268,0.0890663415193557,0,0,0
5277,179973.03901153416,2010-09-16 15:57:04,90.04588358363762,2,16,0.5499359965324402,3.6829137802124015,15.602704939437922,15.710215986345924,62.13850253505304,57.52079943437009,0.0007122993702068,0.0890663415193557,0,0,0
5278,180003.0542753604,2010-09-16 15:57:34,120.06114740988085,2,16,0.5501165986061096,3.708329916000366,15.607291409149424,15.710215986345924,62.15545493812541,57.52079943437009,0.0005827903514727,0.0890663415193557,0,0,0
5279,180033.06957825416,2010-09-16 15:58:04,150.07645029863005,2,16,0.5501165986061096,3.729051351547241,15.611877862578458,15.710215986345924,62.17251257545832,57.52079943437009,0.0004532813909463,0.0890663415193557,0,0,0
5280,180063.084679274,2010-09-16 15:58:34,180.09155132349596,2,16,0.5501165986061096,3.746049404144287,15.616464318901077,15.710215986345924,62.189656361988725,57.52079943437009,0.0003885269106831,0.0890663415193557,0,0,0
5281,180093.1001009192,2010-09-16 15:59:04,210.106972963667,2,16,0.5501165986061096,3.758676290512085,15.62105083342821,15.710215986345924,62.20686843059775,57.52079943437009,0.0002913951757363,0.0890663415193557,0,0,0
5282,180123.1152114979,2010-09-16 15:59:34,240.12208355240583,2,16,0.5501165986061096,3.765961170196533,15.625637296736056,15.710215986345924,62.22412601320431,57.52079943437009,0.0001295089750783,0.0890663415193557,0,0,0
5283,180153.13049363485,2010-09-16 16:00:04,270.13736568434285,2,16,0.550297200679779,3.770655870437622,15.630223772433627,15.710215986345924,62.241409945133086,57.52079943437009,0.0001295089750783,0.0890663415193557,0,0,0
5284,180183.14574873933,2010-09-16 16:00:34,300.1526208088652,2,16,0.5497553944587708,3.7737317085266113,15.634810197954348,15.710215986345924,62.258710939225104,57.52079943437009,3.237724376958795e-05,0.0890663415193557,0,0,0
5285,180213.16099497667,2010-09-16 16:01:04,330.16786704119124,2,16,0.5499359965324402,3.7768075466156006,15.639396620692366,15.710215986345924,62.27602657754107,57.52079943437009,3.237724376958795e-05,0.0890663415193557,0,0,0
5286,180243.17629955965,2010-09-16 16:01:34,360.18317160913205,2,16,0.5501165986061096,3.7802071571350098,15.643983022481963,15.710215986345924,62.29335635514152,57.52079943437009,9.713172767078504e-05,0.0890663415193557,0,0,0
5287,180273.19162802224,2010-09-16 16:02:04,390.19850008174245,2,16,0.5499359965324402,3.782959222793579,15.648569553815957,15.710215986345924,62.310700556684026,57.52079943437009,6.47544875391759e-05,0.0890663415193557,0,0,0
5288,180303.2068493073,2010-09-16 16:02:34,420.2137213567714,2,16,0.550297200679779,3.786035060882568,15.653156072626327,15.710215986345924,62.328058530145576,57.52079943437009,9.713172767078504e-05,0.0890663415193557,0,0,0
5289,180333.2221030935,2010-09-16 16:03:04,450.228975142953,2,16,0.5501165986061096,3.7891108989715576,15.65774258325912,15.710215986345924,62.3454303329835,57.52079943437009,9.713172767078504e-05,0.0890663415193557,0,0,0
5290,180363.23736103,2010-09-16 16:03:34,480.24423307949456,2,16,0.5499359965324402,3.792024850845337,15.66232909231984,15.710215986345924,62.362815762021,57.52079943437009,6.47544875391759e-05,0.0890663415193557,0,0,0
5291,180393.25283465497,2010-09-16 16:04:04,510.2597067044276,2,16,0.5501165986061096,3.794938802719116,15.666915626705066,15.710215986345924,62.380214918735255,57.52079943437009,6.47544875391759e-05,0.0890663415193557,0,0,0
5292,180423.26790854207,2010-09-16 16:04:34,540.2747805915535,2,16,0.5501165986061096,3.7980146408081055,15.671502063655469,15.710215986345924,62.39762732031778,57.52079943437009,9.713172767078504e-05,0.0890663415193557,0,0,0
5293,180453.283209496,2010-09-16 16:05:04,570.2900816407108,2,16,0.5501165986061096,3.8009285926818848,15.676088518214378,15.710215986345924,62.41505335356176,57.52079943437009,9.713172767078504e-05,0.0890663415193557,0,0,0
5294,180483.2985627755,2010-09-16 16:05:34,600.3054348250055,2,16,0.5499359965324402,3.803680658340454,15.680675016550992,15.710215986345924,62.43249303040099,57.52079943437009,0.0,0.0890663415193557,0,0,0
5295,180513.313744171,2010-09-16 16:06:04,630.3206163157265,2,16,0.5501165986061096,3.8067564964294434,15.685261533406978,15.710215986345924,62.44994630440168,57.52079943437009,6.47544875391759e-05,0.0890663415193557,0,0,0
5296,180543.3289661478,2010-09-16 16:06:34,660.3358382022818,2,16,0.5501165986061096,3.8098323345184326,15.689848030441558,15.710215986345924,62.46741303207615,57.52079943437009,6.47544875391759e-05,0.0890663415193557,0,0,0
5297,180573.34422859052,2010-09-16 16:07:05,690.3511006400593,2,16,0.5501165986061096,3.812908172607422,15.694434590038169,15.710215986345924,62.48489360827466,57.52079943437009,0.0001618862152099,0.0890663415193557,0,0,0
5298,180603.35949183532,2010-09-16 16:07:35,720.366363884851,2,16,0.5501165986061096,3.815984010696411,15.699021113089923,15.710215986345924,62.50238815543318,57.52079943437009,9.713172767078504e-05,0.0890663415193557,0,0,0
5299,180633.3747708746,2010-09-16 16:08:05,750.3816429240682,2,16,0.5501165986061096,3.8188979625701904,15.703607591128751,15.710215986345924,62.51989666700507,57.52079943437009,6.47544875391759e-05,0.0890663415193557,0,0,0
5300,180663.39023396323,2010-09-16 16:08:35,780.397106012701,2,16,0.5501165986061096,3.8221356868743896,15.70819406548262,15.710215986345924,62.537419648919325,57.52079943437009,9.713172767078504e-05,0.0890663415193557,0,0,0
5301,180693.40528857225,2010-09-16 16:09:05,810.4121606217057,2,16,0.5499359965324402,3.825211524963379,15.712780481786629,15.710215986345924,62.55495717033211,57.52079943437009,3.237724376958795e-05,0.0890663415193557,0,0,0
5302,180723.4205723232,2010-09-16 16:09:35,840.4274443776966,2,16,0.5499359965324402,3.828934907913208,15.717366959662982,15.710215986345924,62.57251020463734,57.52079943437009,9.713172767078504e-05,0.0890663415193557,0,0,0
5303,180753.43583936748,2010-09-16 16:10:05,870.4427114219725,2,16,0.5501165986061096,3.8321726322174072,15.721953469738892,15.710215986345924,62.59007891233314,57.52079943437009,3.237724376958795e-05,0.0890663415193557,0,0,0
5304,180783.4515002849,2010-09-16 16:10:35,900.4583723594664,2,16,0.5499359965324402,3.835572004318237,15.72654004806948,15.710215986345924,62.607663480418985,57.52079943437009,6.47544875391759e-05,0.0890663415193557,0,0,0
5305,180813.466365847,2010-09-16 16:11:05,930.4732379015312,2,16,0.5499359965324402,3.8389716148376474,15.73112651007666,15.710215986345924,62.62526322776143,57.52079943437009,6.47544875391759e-05,0.0890663415193557,0,0,0
5306,180843.4816452722,2010-09-16 16:11:35,960.4885173467618,2,16,0.550297200679779,3.842371225357056,15.735713019075586,15.710215986345924,62.64287856499081,57.52079943437009,9.713172767078504e-05,0.0890663415193557,0,0,0
5307,180873.49692413097,2010-09-16 16:12:05,990.5037962055284,2,16,0.5499359965324402,3.845608949661255,15.740299492070209,15.710215986345924,62.66050881129189,57.52079943437009,9.713172767078504e-05,0.0890663415193557,0,0,0
5308,180903.5121781527,2010-09-16 16:12:35,1020.5190502022356,2,16,0.5501165986061096,3.848684787750244,15.744886062945575,15.710215986345924,62.67815426909946,57.52079943437009,9.713172767078504e-05,0.0890663415193557,0,0,0
5309,180933.5275936676,2010-09-16 16:13:05,1050.534465727142,2,16,0.5501165986061096,3.8519225120544434,15.749472577820953,15.710215986345924,62.69581408719172,57.52079943437009,9.713172767078504e-05,0.0890663415193557,0,0,0
5310,180963.54267900836,2010-09-16 16:13:35,1080.5495510578328,2,16,0.550297200679779,3.8551602363586426,15.754059041669052,15.710215986345924,62.713487887886586,57.52079943437009,9.713172767078504e-05,0.0890663415193557,0,0,0
5311,180993.55800159628,2010-09-16 16:14:05,1110.5648736457542,2,16,0.5501165986061096,3.858074188232422,15.758645528494782,15.710215986345924,62.731175782903314,57.52079943437009,9.713172767078504e-05,0.0890663415193557,0,0,0
5312,181023.5732324953,2010-09-16 16:14:35,1140.580104554831,2,16,0.5501165986061096,3.860988140106201,15.763232044058457,15.710215986345924,62.74887741691866,57.52079943437009,9.713172767078504e-05,0.0890663415193557,0,0,0
5313,181053.58848334412,2010-09-16 16:15:05,1170.5953553986683,2,16,0.550297200679779,3.863902091979981,15.76781852244587,15.710215986345924,62.76659214733175,57.52079943437009,9.713172767078504e-05,0.0890663415193557,0,0,0
5314,181083.60374650377,2010-09-16 16:15:35,1200.6106185532346,2,16,0.5501165986061096,3.86633038520813,15.77240496420258,15.710215986345924,62.78431933078658,57.52079943437009,6.47544875391759e-05,0.0890663415193557,0,0,0
5315,181113.6190350968,2010-09-16 16:16:05,1230.6259072615876,2,16,0.5499359965324402,3.868920564651489,15.776991425104924,15.710215986345924,62.802058701410616,57.52079943437009,3.237724376958795e-05,0.0890663415193557,0,0,0
5316,181143.63432136909,2010-09-16 16:16:35,1260.6411934436344,2,16,0.5499359965324402,3.871348857879639,15.781577870959966,15.710215986345924,62.81980949327025,57.52079943437009,3.237724376958795e-05,0.0890663415193557,0,0,0
5317,181173.6495505438,2010-09-16 16:17:05,1290.6564225933196,2,16,0.5499359965324402,3.873939037322998,15.786164394906308,15.710215986345924,62.83757130712683,57.52079943437009,6.47544875391759e-05,0.0890663415193557,0,0,0
5318,181203.66781637853,2010-09-16 16:17:35,1320.674688558363,2,16,0.5501165986061096,3.876043558120728,15.79075135156602,15.710215986345924,62.85534466027458,57.52079943437009,9.713172767078504e-05,0.0890663415193557,0,0,0
5319,181233.68330508613,2010-09-16 16:18:05,1350.6901772709573,2,16,0.5499359965324402,3.877662420272827,15.795337874357276,15.710215986345924,62.873125656818985,57.52079943437009,0.0,0.0890663415193557,0,0,0
5320,181263.6953412857,2010-09-16 16:18:35,1380.7022133352098,2,16,0.5501165986061096,3.8794431686401367,15.799923914266964,15.710215986345924,62.89091349367332,57.52079943437009,0.0,0.0890663415193557,0,0,0
5321,181293.71062157807,2010-09-16 16:19:05,1410.7174937227928,2,16,0.5501165986061096,3.8812239170074463,15.804510449832136,15.710215986345924,62.90871120946827,57.52079943437009,0.0,0.0890663415193557,0,0,0
5322,181323.72586474777,2010-09-16 16:19:35,1440.7327367972362,2,16,0.5501165986061096,3.882842779159546,15.809096981152225,15.710215986345924,62.92651623671559,57.52079943437009,3.237724376958795e-05,0.0890663415193557,0,0,0
5323,181353.74116565657,2010-09-16 16:20:05,1470.7480377060433,2,16,0.5497553944587708,3.8841378688812256,15.81368348856595,15.710215986345924,62.94432791850756,57.52079943437009,3.237724376958795e-05,0.0890663415193557,0,0,0
5324,181383.7564932971,2010-09-16 16:20:35,1500.7633654718895,2,16,0.5501165986061096,3.885432958602905,15.818270106068251,15.710215986345924,62.96214610023752,57.52079943437009,3.237724376958795e-05,0.0890663415193557,0,0,0
5325,181413.77167372016,2010-09-16 16:21:05,1530.7785457696325,2,16,0.5501165986061096,3.886728048324585,15.822856597551276,15.710215986345924,62.979969579867024,57.52079943437009,3.237724376958795e-05,0.0890663415193557,0,0,0
5326,181443.7869607543,2010-09-16 16:21:35,1560.7938329190945,2,16,0.5501165986061096,3.887861251831055,15.827443165707235,15.710215986345924,62.997798849120485,57.52079943437009,3.237724376958795e-05,0.0890663415193557,0,0,0
5327,181473.8022291269,2010-09-16 16:22:05,1590.809101176398,2,16,0.5499359965324402,3.888994455337525,15.832029674006296,15.710215986345924,63.01563312113365,57.52079943437009,3.237724376958795e-05,0.0890663415193557,0,0,0
5328,181503.8174759457,2010-09-16 16:22:35,1620.8243479951882,2,16,0.5501165986061096,3.890127658843994,15.836616269968992,15.710215986345924,63.033472754060746,57.52079943437009,3.237724376958795e-05,0.0890663415193557,0,0,0
5329,181533.8327496215,2010-09-16 16:23:05,1650.8396216710173,2,16,0.5501165986061096,3.891098976135254,15.841202910404558,15.710215986345924,63.05131755583138,57.52079943437009,3.237724376958795e-05,0.0890663415193557,0,0,0
5330,181563.84803427977,2010-09-16 16:23:35,1680.8549063543228,2,16,0.550297200679779,3.892232179641724,15.84578946449274,15.710215986345924,63.06916689986742,57.52079943437009,3.237724376958795e-05,0.0890663415193557,0,0,0
5331,181593.86328833163,2010-09-16 16:24:05,1710.8701603811053,2,16,0.5501165986061096,3.893203496932984,15.850376100253817,15.710215986345924,63.08702139262942,57.52079943437009,0.0,0.0890663415193557,0,0,0
5332,181623.87854662404,2010-09-16 16:24:35,1740.8854186985975,2,16,0.5501165986061096,3.894174814224243,15.854962631544977,15.710215986345924,63.10488031251885,57.52079943437009,0.0,0.0890663415193557,0,0,0
5333,181653.89416233863,2010-09-16 16:25:05,1770.9010343781206,2,16,0.5497553944587708,3.895146131515503,15.859548934870745,15.710215986345924,63.1227427129561,57.52079943437009,3.237724376958795e-05,0.0890663415193557,0,0,0
5334,181683.90903476792,2010-09-16 16:25:35,1800.915906817402,2,16,0.5501165986061096,3.8962793350219727,15.864134566458088,15.710215986345924,63.14060694592008,57.52079943437009,3.237724376958795e-05,0.0890663415193557,0,0,0
5335,181713.9241801084,2010-09-16 16:26:05,1830.9310521578864,2,16,0.5501165986061096,3.8974125385284415,15.868720380919138,15.710215986345924,63.1584769041881,57.52079943437009,3.237724376958795e-05,0.0890663415193557,0,0,0
5336,181743.93944341337,2010-09-16 16:26:35,1860.9463154728533,2,16,0.5499359965324402,3.898221969604492,15.873306123458915,15.710215986345924,63.17635135435358,57.52079943437009,0.0,0.0890663415193557,0,0,0
5337,181773.95486050216,2010-09-16 16:27:05,1890.9617326468765,2,16,0.5501165986061096,3.899517059326172,15.877891832260678,15.710215986345924,63.19423052971359,57.52079943437009,6.47544875391759e-05,0.0890663415193557,0,0,0
5338,181803.9700602334,2010-09-16 16:27:35,1920.9769323781284,2,16,0.5499359965324402,3.900488376617432,15.8824775360825,15.710215986345924,63.21211456787344,57.52079943437009,3.237724376958795e-05,0.0890663415193557,0,0,0
5339,181833.98525219024,2010-09-16 16:28:05,1950.992124239737,2,16,0.5501165986061096,3.901621580123901,15.887063225799736,15.710215986345924,63.23000350009893,57.52079943437009,6.47544875391759e-05,0.0890663415193557,0,0,0
5340,181864.00050838245,2010-09-16 16:28:35,1981.007380527162,2,16,0.5499359965324402,3.902592897415161,15.891648934392276,15.710215986345924,63.24789750912067,57.52079943437009,0.0,0.0890663415193557,0,0,0
5341,181894.01591100017,2010-09-16 16:29:05,2011.0227830496124,2,16,0.5497553944587708,3.903726100921631,15.896234701289757,15.710215986345924,63.26579670730601,57.52079943437009,3.237724376958795e-05,0.0890663415193557,0,0,0
5342,181924.03106199973,2010-09-16 16:29:35,2041.0379340492227,2,16,0.5501165986061096,3.9048593044281006,15.900820376284477,15.710215986345924,63.283700656352224,57.52079943437009,3.237724376958795e-05,0.0890663415193557,0,0,0
5343,181954.04631819192,2010-09-16 16:30:05,2071.0531902464227,2,16,0.5501165986061096,3.9059925079345694,15.905406104556858,15.710215986345924,63.30160982555592,57.52079943437009,3.237724376958795e-05,0.0890663415193557,0,0,0
5344,181984.06159965217,2010-09-16 16:30:35,2101.068471701671,2,16,0.5499359965324402,3.90712571144104,15.909991790058552,15.710215986345924,63.31952403808032,57.52079943437009,3.237724376958795e-05,0.0890663415193557,0,0,0
5345,182014.076838476,2010-09-16 16:31:05,2131.083710525504,2,16,0.5501165986061096,3.90842080116272,15.914577515798351,15.710215986345924,63.33744364016603,57.52079943437009,6.47544875391759e-05,0.0890663415193557,0,0,0
5346,182044.0921047584,2010-09-16 16:31:35,2161.0989768078784,2,16,0.5499359965324402,3.90939211845398,15.919163173029224,15.710215986345924,63.355368249475866,57.52079943437009,0.0,0.0890663415193557,0,0,0
5347,182074.1073540233,2010-09-16 16:32:05,2191.114226072774,2,16,0.5499359965324402,3.910687208175659,15.923748939189618,15.710215986345924,63.37329870603429,57.52079943437009,3.237724376958795e-05,0.0890663415193557,0,0,0
5348,182104.12274377383,2010-09-16 16:32:35,2221.129615823344,2,16,0.5499359965324402,3.911820411682129,15.92833460034096,15.710215986345924,63.39123418243816,57.52079943437009,3.237724376958795e-05,0.0890663415193557,0,0,0
5349,182134.13794220687,2010-09-16 16:33:05,2251.1448142513427,2,16,0.5501165986061096,3.9131155014038086,15.932920232628604,15.710215986345924,63.40917508416101,57.52079943437009,3.237724376958795e-05,0.0890663415193557,0,0,0
5350,182164.15318831388,2010-09-16 16:33:35,2281.1600603733937,2,16,0.5501165986061096,3.914248466491699,15.93750597217344,15.710215986345924,63.427121907655554,57.52079943437009,3.237724376958795e-05,0.0890663415193557,0,0,0
5351,182194.1686314928,2010-09-16 16:34:05,2311.175503542303,2,16,0.5499359965324402,3.915381669998169,15.9420917484751,15.710215986345924,63.44507456727536,57.52079943437009,3.237724376958795e-05,0.0890663415193557,0,0,0
5352,182224.18374508905,2010-09-16 16:34:35,2341.19061713855,2,16,0.5501165986061096,3.9168386459350586,15.946677437635852,15.710215986345924,63.4630323409983,57.52079943437009,6.47544875391759e-05,0.0890663415193557,0,0,0
5353,182254.1989810257,2010-09-16 16:35:05,2371.2058530852014,2,16,0.5501165986061096,3.9181337356567374,15.951263077717968,15.710215986345924,63.48099581089344,57.52079943437009,6.47544875391759e-05,0.0890663415193557,0,0,0
5354,182284.21424154367,2010-09-16 16:35:35,2401.221113598174,2,16,0.5501165986061096,3.919266939163208,15.955848716395948,15.710215986345924,63.4989650915032,57.52079943437009,6.47544875391759e-05,0.0890663415193557,0,0,0
5355,182314.2297183716,2010-09-16 16:36:05,2431.2365904210897,2,16,0.5499359965324402,3.9204001426696777,15.960434396974929,15.710215986345924,63.51694050099128,57.52079943437009,0.0,0.0890663415193557,0,0,0
5356,182344.2447802137,2010-09-16 16:36:35,2461.251652263149,2,16,0.5499359965324402,3.921695232391357,15.965019972075234,15.710215986345924,63.53492128830547,57.52079943437009,0.0,0.0890663415193557,0,0,0
5357,182374.2600433131,2010-09-16 16:37:05,2491.2669153625784,2,16,0.5499359965324402,3.922990322113037,15.969605604427358,15.710215986345924,63.55290839457119,57.52079943437009,0.0,0.0890663415193557,0,0,0
5358,182404.2754547929,2010-09-16 16:37:35,2521.282326842387,2,16,0.5499359965324402,3.924447298049927,15.97419129089726,15.710215986345924,63.57090175129633,57.52079943437009,0.0,0.0890663415193557,0,0,0
5359,182434.29059808824,2010-09-16 16:38:05,2551.297470162829,2,16,0.5499359965324402,3.925904273986816,15.978776884788616,15.710215986345924,63.58890093757039,57.52079943437009,6.47544875391759e-05,0.0890663415193557,0,0,0
5360,182464.3058587667,2010-09-16 16:38:35,2581.3127308362027,2,16,0.5499359965324402,3.927037477493286,15.983362567748388,15.710215986345924,63.606906553088606,57.52079943437009,0.0,0.0890663415193557,0,0,0
5361,182494.3211111694,2010-09-16 16:39:06,2611.327983218881,2,16,0.5499359965324402,3.928494453430176,15.987948164816132,15.710215986345924,63.62491817546931,57.52079943437009,3.237724376958795e-05,0.0890663415193557,0,0,0
5362,182524.3363893565,2010-09-16 16:39:36,2641.343261501209,2,16,0.5499359965324402,3.9299514293670654,15.992533863175092,15.710215986345924,63.64293648153282,57.52079943437009,3.237724376958795e-05,0.0890663415193557,0,0,0
5363,182554.3516668418,2010-09-16 16:40:06,2671.358538896322,2,16,0.5501165986061096,3.931408405303955,15.997119526110108,15.710215986345924,63.6609610524414,57.52079943437009,6.47544875391759e-05,0.0890663415193557,0,0,0
5364,182584.36690199148,2010-09-16 16:40:36,2701.3737740409715,2,16,0.5501165986061096,3.9328653812408447,16.001705235430645,15.710215986345924,63.67899225487074,57.52079943437009,6.47544875391759e-05,0.0890663415193557,0,0,0
5365,182614.38218630885,2010-09-16 16:41:06,2731.389058358364,2,16,0.5501165986061096,3.934160470962525,16.00629092598784,15.710215986345924,63.69702990259463,57.52079943437009,3.237724376958795e-05,0.0890663415193557,0,0,0
5366,182644.3974349773,2010-09-16 16:41:36,2761.4043070267708,2,16,0.5501165986061096,3.935779333114624,16.01087666337581,15.710215986345924,63.71507432549432,57.52079943437009,9.713172767078504e-05,0.0890663415193557,0,0,0
5367,182674.41271040248,2010-09-16 16:42:06,2791.4195824519666,2,16,0.5501165986061096,3.937074422836304,16.01546243330183,15.710215986345924,63.73312529133537,57.52079943437009,3.237724376958795e-05,0.0890663415193557,0,0,0
5368,182704.4279648603,2010-09-16 16:42:36,2821.434836914837,2,16,0.5499359965324402,3.9386932849884033,16.02004816986432,15.710215986345924,63.75118291356211,57.52079943437009,9.713172767078504e-05,0.0890663415193557,0,0,0
5369,182734.44324004493,2010-09-16 16:43:06,2851.4501120944205,2,16,0.5499359965324402,3.939826488494873,16.02463387941701,15.710215986345924,63.76924708384788,57.52079943437009,0.0,0.0890663415193557,0,0,0
5370,182764.4584967584,2010-09-16 16:43:36,2881.4653688079093,2,16,0.5499359965324402,3.9414453506469727,16.029219554382152,15.710215986345924,63.78731794922764,57.52079943437009,6.47544875391759e-05,0.0890663415193557,0,0,0
5371,182794.4737862888,2010-09-16 16:44:06,2911.480658338314,2,16,0.5501165986061096,3.9429023265838623,16.03380522335835,15.710215986345924,63.80539552479395,57.52079943437009,0.0,0.0890663415193557,0,0,0
5372,182824.4890519697,2010-09-16 16:44:36,2941.495924019186,2,16,0.5499359965324402,3.944359302520752,16.038390936992386,15.710215986345924,63.82348023533348,57.52079943437009,3.237724376958795e-05,0.0890663415193557,0,0,0
5373,182854.50443020652,2010-09-16 16:45:06,2971.5113022560163,2,16,0.5501165986061096,3.945978164672852,16.042976679050348,15.710215986345924,63.841572045979945,57.52079943437009,3.237724376958795e-05,0.0890663415193557,0,0,0
5374,182884.5197071906,2010-09-16 16:45:36,3001.5265792401037,2,16,0.5499359965324402,3.947435140609741,16.04756243581325,15.710215986345924,63.859670806066006,57.52079943437009,0.0,0.0890663415193557,0,0,0
5375,182914.53558203703,2010-09-16 16:46:06,3031.542454106597,2,16,0.5499359965324402,3.949054002761841,16.052148212520166,15.710215986345924,63.87777677620122,57.52079943437009,3.237724376958795e-05,0.0890663415193557,0,0,0
5376,182944.55009639752,2010-09-16 16:46:36,3061.5569684470083,2,16,0.5499359965324402,3.950672864913941,16.056733836324064,15.710215986345924,63.8958892504704,57.52079943437009,3.237724376958795e-05,0.0890663415193557,0,0,0
5377,182974.56536498564,2010-09-16 16:47:06,3091.5722370351377,2,16,0.5499359965324402,3.95212984085083,16.06131961938127,15.710215986345924,63.914009546902975,57.52079943437009,3.237724376958795e-05,0.0890663415193557,0,0,0
5378,183004.580628055,2010-09-16 16:47:36,3121.5875001044915,2,16,0.5499359965324402,3.9537487030029297,16.06590537925568,15.710215986345924,63.93213702390603,57.52079943437009,3.237724376958795e-05,0.0890663415193557,0,0,0
5379,183034.59592142,2010-09-16 16:48:06,3151.6027934744807,2,16,0.5499359965324402,3.955367565155029,16.070491109422584,15.710215986345924,63.95027177256533,57.52079943437009,6.47544875391759e-05,0.0890663415193557,0,0,0
5380,183064.6113115916,2010-09-16 16:48:36,3181.618183646101,2,16,0.5499359965324402,3.956986427307129,16.075076866406356,15.710215986345924,63.968414065067016,57.52079943437009,6.47544875391759e-05,0.0890663415193557,0,0,0
5381,183094.62643436572,2010-09-16 16:49:06,3211.6333064202568,2,16,0.5499359965324402,3.958605289459229,16.07966261303647,15.710215986345924,63.98656368905459,57.52079943437009,3.237724376958795e-05,0.0890663415193557,0,0,0
5382,183124.64170769573,2010-09-16 16:49:36,3241.648579755235,2,16,0.5499359965324402,3.960224151611328,16.084248385604266,15.710215986345924,64.0047210563,57.52079943437009,3.237724376958795e-05,0.0890663415193557,0,0,0
5383,183154.6569769104,2010-09-16 16:50:06,3271.6638489649163,2,16,0.5499359965324402,3.962166786193848,16.088834042620228,15.710215986345924,64.0228856457263,57.52079943437009,6.47544875391759e-05,0.0890663415193557,0,0,0
5384,183184.6722427517,2010-09-16 16:50:36,3301.6791148011766,2,16,0.5499359965324402,3.9637856483459473,16.093419790692753,15.710215986345924,64.0410583217772,57.52079943437009,6.47544875391759e-05,0.0890663415193557,0,0,0
5385,183214.68741900937,2010-09-16 16:51:06,3331.694291063848,2,16,0.5501165986061096,3.965404510498047,16.098005512724907,15.710215986345924,64.05923874290879,57.52079943437009,6.47544875391759e-05,0.0890663415193557,0,0,0
5386,183244.70278249937,2010-09-16 16:51:36,3361.70965455888,2,16,0.5499359965324402,3.9670233726501465,16.102591217444665,15.710215986345924,64.07742681000869,57.52079943437009,3.237724376958795e-05,0.0890663415193557,0,0,0
5387,183274.7207738389,2010-09-16 16:52:06,3391.727646033753,2,16,0.5499359965324402,3.968804121017456,16.10717724931787,15.710215986345924,64.09562399566602,57.52079943437009,0.0,0.0890663415193557,0,0,0
5388,183304.7333363071,2010-09-16 16:52:36,3421.7402083566285,2,16,0.550297200679779,3.970746755599976,16.111762482195658,15.710215986345924,64.11382612360039,57.52079943437009,6.47544875391759e-05,0.0890663415193557,0,0,0
5389,183334.7484891664,2010-09-16 16:53:06,3451.755361225906,2,16,0.5497553944587708,3.972365617752075,16.116348109217302,15.710215986345924,64.13203808607032,57.52079943437009,6.47544875391759e-05,0.0890663415193557,0,0,0
5390,183364.76396308205,2010-09-16 16:53:36,3481.770835141565,2,16,0.5499359965324402,3.9743082523345943,16.120933861701925,15.710215986345924,64.15025894252533,57.52079943437009,3.237724376958795e-05,0.0890663415193557,0,0,0
5391,183394.77912780596,2010-09-16 16:54:06,3511.785999870446,2,16,0.5501165986061096,3.976089000701904,16.125519597991424,15.710215986345924,64.16848827414513,57.52079943437009,9.713172767078504e-05,0.0890663415193557,0,0,0
5392,183424.7943911861,2010-09-16 16:54:36,3541.801263245563,2,16,0.5501165986061096,3.977869749069214,16.13010540071452,15.710215986345924,64.1867263550326,57.52079943437009,3.237724376958795e-05,0.0890663415193557,0,0,0
5393,183454.8096748418,2010-09-16 16:55:06,3571.8165468912784,2,16,0.5499359965324402,3.979812383651733,16.134691102711415,15.710215986345924,64.20497235203979,57.52079943437009,3.237724376958795e-05,0.0890663415193557,0,0,0
5394,183484.824902598,2010-09-16 16:55:36,3601.8317746474854,2,16,0.5499359965324402,3.981755018234253,16.139276710138446,15.710215986345924,64.22322700948399,57.52079943437009,6.47544875391759e-05,0.0890663415193557,0,0,0
5395,183514.84019221863,2010-09-16 16:56:06,3631.847064278141,2,16,0.5497553944587708,3.983697652816773,16.143862324210527,15.710215986345924,64.24149052325568,57.52079943437009,3.237724376958795e-05,0.0890663415193557,0,0,0
5396,183544.8555662149,2010-09-16 16:56:36,3661.86243826436,2,16,0.5497553944587708,3.985640287399292,16.148447965564092,15.710215986345924,64.25976318412448,57.52079943437009,3.237724376958795e-05,0.0890663415193557,0,0,0
5397,183574.87110912777,2010-09-16 16:57:06,3691.877981187272,2,16,0.5501165986061096,3.9877448081970215,16.153033618104338,15.710215986345924,64.27804500483266,57.52079943437009,3.237724376958795e-05,0.0890663415193557,0,0,0
5398,183604.886103732,2010-09-16 16:57:36,3721.892975781469,2,16,0.5499359965324402,3.989687442779541,16.157619236187173,15.710215986345924,64.29633576399921,57.52079943437009,3.237724376958795e-05,0.0890663415193557,0,0,0
5399,183634.9013865256,2010-09-16 16:58:06,3751.9082585750575,2,16,0.5499359965324402,3.9917919635772714,16.16220484478627,15.710215986345924,64.31463581782478,57.52079943437009,6.47544875391759e-05,0.0890663415193557,0,0,0
5400,183664.9165356104,2010-09-16 16:58:36,3781.923407684952,2,16,0.5499359965324402,3.99373459815979,16.166790498301037,15.710215986345924,64.33294546250724,57.52079943437009,0.0,0.0890663415193557,0,0,0
5401,183694.93190536107,2010-09-16 16:59:06,3811.9387774406114,2,16,0.5501165986061096,3.9960007667541504,16.171376089351682,15.710215986345924,64.3512643699764,57.52079943437009,6.47544875391759e-05,0.0890663415193557,0,0,0
5402,183724.9470651225,2010-09-16 16:59:36,3841.95393717703,2,16,0.5499359965324402,3.99794340133667,16.175961716561595,15.710215986345924,64.36959303606879,57.52079943437009,6.47544875391759e-05,0.0890663415193557,0,0,0
5403,183754.9624018257,2010-09-16 17:00:06,3871.9692739704105,2,16,0.5499359965324402,4.000209808349609,16.18054737923081,15.710215986345924,64.38793142329672,57.52079943437009,6.47544875391759e-05,0.0890663415193557,0,0,0
5404,183784.9775790758,2010-09-16 17:00:36,3901.9844511253086,2,16,0.5499359965324402,4.002314567565918,16.1851329012409,15.710215986345924,64.40627906768856,57.52079943437009,6.47544875391759e-05,0.0890663415193557,0,0,0
5405,183814.99297182888,2010-09-16 17:01:06,3931.9998438783737,2,16,0.5501165986061096,4.004418849945068,16.189718554664797,15.710215986345924,64.42463705156258,57.52079943437009,6.47544875391759e-05,0.0890663415193557,0,0,0
5406,183845.0081087734,2010-09-16 17:01:36,3962.0149808229,2,16,0.5499359965324402,4.006685256958008,16.194304104531987,15.710215986345924,64.44300449583811,57.52079943437009,6.47544875391759e-05,0.0890663415193557,0,0,0
5407,183875.02341089025,2010-09-16 17:02:06,3992.0302829397233,2,16,0.5499359965324402,4.008790016174316,16.198889476358598,15.710215986345924,64.46138131711872,57.52079943437009,6.47544875391759e-05,0.0890663415193557,0,0,0
5408,183905.0386620298,2010-09-16 17:02:36,4022.045534079298,2,16,0.5499359965324402,4.011056423187256,16.20347488831637,15.710215986345924,64.47976820062559,57.52079943437009,9.71794142969884e-05,0.0890663415193557,0,0,0
5409,183935.05390497897,2010-09-16 17:03:06,4052.0607770384536,2,16,0.5497553944587708,4.012999057769775,16.208060268975522,15.710215986345924,64.49816507482412,57.52079943437009,6.47544875391759e-05,0.0890663415193557,0,0,0
5410,183965.069171141,2010-09-16 17:03:36,4082.0760432005272,2,16,0.5499359965324402,4.015427112579346,16.212645699574267,15.710215986345924,64.51657226931839,57.52079943437009,6.47544875391759e-05,0.0890663415193557,0,0,0
5411,183995.08444661635,2010-09-16 17:04:06,4112.091318675849,2,16,0.5501165986061096,4.017693519592285,16.217231365510262,15.710215986345924,64.53499053476781,57.52079943437009,6.47544875391759e-05,0.0890663415193557,0,0,0
5412,184025.09973094377,2010-09-16 17:04:36,4142.106603003266,2,16,0.5499359965324402,4.019798278808594,16.22181709477607,15.710215986345924,64.55341928829492,57.52079943437009,3.24249267578125e-05,0.0890663415193557,0,0,0
5413,184055.11509716057,2010-09-16 17:05:06,4172.121969215079,2,16,0.5499359965324402,4.022064685821533,16.22640265461844,15.710215986345924,64.57185769137209,57.52079943437009,6.47544875391759e-05,0.0890663415193557,0,0,0
5414,184085.1303819692,2010-09-16 17:05:36,4202.137254018685,2,16,0.5501165986061096,4.024492740631104,16.230988197601786,15.710215986345924,64.59030646453962,57.52079943437009,9.70840483205393e-05,0.0890663415193557,0,0,0
5415,184115.14564358996,2010-09-16 17:06:06,4232.152515639424,2,16,0.5497553944587708,4.026597499847412,16.235573769438552,15.710215986345924,64.60876582354453,57.52079943437009,3.24249267578125e-05,0.0890663415193557,0,0,0
5416,184145.16076290543,2010-09-16 17:06:36,4262.1676349599575,2,16,0.5497553944587708,4.029025554656982,16.240159293871912,15.710215986345924,64.62723562229331,57.52079943437009,6.47544875391759e-05,0.0890663415193557,0,0,0
5417,184175.1761604104,2010-09-16 17:07:06,4292.183032459871,2,16,0.5499359965324402,4.031291961669922,16.24474483435006,15.710215986345924,64.64571614576629,57.52079943437009,6.47544875391759e-05,0.0890663415193557,0,0,0
5418,184205.19129480352,2010-09-16 17:07:36,4322.198166853029,2,16,0.5501165986061096,4.033882141113281,16.249330365926042,15.710215986345924,64.66420754721491,57.52079943437009,9.70840483205393e-05,0.0890663415193557,0,0,0
5419,184235.20677427808,2010-09-16 17:08:06,4352.213646327564,2,16,0.5499359965324402,4.036148548126221,16.2539159187851,15.710215986345924,64.68270996547498,57.52079943437009,6.47544875391759e-05,0.0890663415193557,0,0,0
5420,184265.221970681,2010-09-16 17:08:36,4382.228842740533,2,16,0.5499359965324402,4.03841495513916,16.25850153751808,15.710215986345924,64.70122372560715,57.52079943437009,3.24249267578125e-05,0.0890663415193557,0,0,0
5421,184295.2371193999,2010-09-16 17:09:06,4412.243991454438,2,16,0.5499359965324402,4.04100513458252,16.263087096067732,15.710215986345924,64.71974831029107,57.52079943437009,6.47544875391759e-05,0.0890663415193557,0,0,0
5422,184325.252367136,2010-09-16 17:09:36,4442.259239185506,2,16,0.5499359965324402,4.04343318939209,16.267672647678484,15.710215986345924,64.73828416359704,57.52079943437009,3.23295607813634e-05,0.0890663415193557,0,0,0
5423,184355.26765692708,2010-09-16 17:10:06,4472.274528976561,2,16,0.5499359965324402,4.045861721038818,16.272258249170502,15.710215986345924,64.7568316235102,57.52079943437009,3.24249267578125e-05,0.0890663415193557,0,0,0
5424,184385.28290009676,2010-09-16 17:10:36,4502.289772146241,2,16,0.5499359965324402,4.048451900482178,16.27684379146717,15.710215986345924,64.7753903522857,57.52079943437009,6.47544875391759e-05,0.0890663415193557,0,0,0
5425,184415.29817100568,2010-09-16 17:11:07,4532.305043055165,2,16,0.5499359965324402,4.050879955291748,16.281429392111374,15.710215986345924,64.79396090718873,57.52079943437009,3.23295607813634e-05,0.0890663415193557,0,0,0
5426,184445.3134267417,2010-09-16 17:11:37,4562.320298791214,2,16,0.5501165986061096,4.053470134735107,16.286014955659446,15.710215986345924,64.8125429787699,57.52079943437009,6.47544875391759e-05,0.0890663415193557,0,0,0
5427,184475.32870553032,2010-09-16 17:12:07,4592.3355775798045,2,16,0.5499359965324402,4.056060314178467,16.29060059731406,15.710215986345924,64.83113720372424,57.52079943437009,6.47544875391759e-05,0.0890663415193557,0,0,0
5428,184505.3439852462,2010-09-16 17:12:37,4622.350857295712,2,16,0.5499359965324402,4.058974266052246,16.295186203629893,15.710215986345924,64.84974320891575,57.52079943437009,6.47544875391759e-05,0.0890663415193557,0,0,0
5429,184535.3592263056,2010-09-16 17:13:07,4652.366098355124,2,16,0.5499359965324402,4.0612406730651855,16.29977194397243,15.710215986345924,64.86836162435863,57.52079943437009,9.70840483205393e-05,0.0890663415193557,0,0,0
5430,184565.37451108417,2010-09-16 17:13:37,4682.381383133668,2,16,0.5499359965324402,4.063992977142334,16.304357502372785,15.710215986345924,64.88699130011987,57.52079943437009,9.71794142969884e-05,0.0890663415193557,0,0,0
5431,184595.3897786197,2010-09-16 17:14:07,4712.39665066917,2,16,0.5501165986061096,4.066744804382324,16.308943064521205,15.710215986345924,64.90563326982452,57.52079943437009,6.47544875391759e-05,0.0890663415193557,0,0,0
5432,184625.40507513253,2010-09-16 17:14:37,4742.411947367467,2,16,0.5499359965324402,4.069334983825684,16.313528635180266,15.710215986345924,64.92428771341986,57.52079943437009,3.23295607813634e-05,0.0890663415193557,0,0,0
5433,184655.4202939915,2010-09-16 17:15:07,4772.427166041002,2,16,0.5497553944587708,4.072087287902832,16.318114241446292,15.710215986345924,64.94295479227108,57.52079943437009,3.24249267578125e-05,0.0890663415193557,0,0,0
5434,184685.43557904573,2010-09-16 17:15:37,4802.442451090221,2,16,0.5501165986061096,4.074839115142822,16.322699757241757,15.710215986345924,64.96163416918353,57.52079943437009,6.47544875391759e-05,0.0890663415193557,0,0,0
5435,184715.45087845583,2010-09-16 17:16:07,4832.4577505103125,2,16,0.5499359965324402,4.077915191650391,16.3272853950532,15.710215986345924,64.98032680257641,57.52079943437009,9.71794142969884e-05,0.0890663415193557,0,0,0
5436,184745.46609039253,2010-09-16 17:16:37,4862.472962452044,2,16,0.5497553944587708,4.08050537109375,16.331871023193447,15.710215986345924,64.99903229861029,57.52079943437009,6.47544875391759e-05,0.0890663415193557,0,0,0
5437,184775.4814781782,2010-09-16 17:17:07,4892.488350227683,2,16,0.5499359965324402,4.083419322967529,16.336456611605115,15.710215986345924,65.01775046999441,57.52079943437009,0.0001295089750783,0.0890663415193557,0,0,0
5438,184805.49675930265,2010-09-16 17:17:37,4922.503631357118,2,16,0.5499359965324402,4.086333274841309,16.34104220498773,15.710215986345924,65.03648176938074,57.52079943437009,6.47544875391759e-05,0.0890663415193557,0,0,0
5439,184835.51203519892,2010-09-16 17:18:07,4952.518907248478,2,16,0.5499359965324402,4.089085102081299,16.345627798086184,15.710215986345924,65.05522621051489,57.52079943437009,6.47544875391759e-05,0.0890663415193557,0,0,0
5440,184865.52715255963,2010-09-16 17:18:37,4982.534024609121,2,16,0.5499359965324402,4.091999053955078,16.350213324349227,15.710215986345924,65.07398370556547,57.52079943437009,9.70840483205393e-05,0.0890663415193557,0,0,0
5441,184895.54256708204,2010-09-16 17:19:07,5012.54943914155,2,16,0.5501165986061096,4.095075130462647,16.354798913252093,15.710215986345924,65.09275491201406,57.52079943437009,9.71794142969884e-05,0.0890663415193557,0,0,0
5442,184925.5577786929,2010-09-16 17:19:37,5042.5646508376685,2,16,0.5501165986061096,4.097989082336426,16.359384414410123,15.710215986345924,65.11153934319911,57.52079943437009,9.71794142969884e-05,0.0890663415193557,0,0,0
5443,184955.57295381275,2010-09-16 17:20:07,5072.579825862248,2,16,0.5501165986061096,4.101064682006836,16.363969897024113,15.710215986345924,65.13033736198743,57.52079943437009,6.47544875391759e-05,0.0890663415193557,0,0,0
5444,184985.58821303752,2010-09-16 17:20:37,5102.595085087006,2,16,0.5501165986061096,4.103978633880615,16.368555477758672,15.710215986345924,65.14914957308787,57.52079943437009,6.47544875391759e-05,0.0890663415193557,0,0,0
5445,185015.60347978104,2010-09-16 17:21:07,5132.610351830531,2,16,0.5499359965324402,4.107054710388184,16.37314101363538,15.710215986345924,65.16797557685709,57.52079943437009,9.71794142969884e-05,0.0890663415193557,0,0,0
5446,185045.61886837872,2010-09-16 17:21:37,5162.625740433236,2,16,0.5499359965324402,4.110130310058594,16.377726592982256,15.710215986345924,65.18681580481189,57.52079943437009,9.70840483205393e-05,0.0890663415193557,0,0,0
5447,185075.63415266605,2010-09-16 17:22:07,5192.641024720552,2,16,0.5501165986061096,4.113368034362793,16.382312203916822,15.710215986345924,65.20567035099944,57.52079943437009,0.0001295089750783,0.0890663415193557,0,0,0
5448,185105.64927609684,2010-09-16 17:22:37,5222.656148151347,2,16,0.5499359965324402,4.116443634033203,16.386897749736153,15.710215986345924,65.22453890483204,57.52079943437009,9.70840483205393e-05,0.0890663415193557,0,0,0
5449,185135.66469978716,2010-09-16 17:23:07,5252.6715718466485,2,16,0.550297200679779,4.119681358337402,16.39148339559841,15.710215986345924,65.24342231092682,57.52079943437009,9.70840483205393e-05,0.0890663415193557,0,0,0
5450,185165.67980994983,2010-09-16 17:23:37,5282.686681999297,2,16,0.5499359965324402,4.122595310211182,16.39606897963041,15.710215986345924,65.26232004640757,57.52079943437009,3.23295607813634e-05,0.0890663415193557,0,0,0
5451,185195.69532472748,2010-09-16 17:24:07,5312.702196781966,2,16,0.5499359965324402,4.12599515914917,16.40065457598527,15.710215986345924,65.28123245111817,57.52079943437009,0.0001295089750783,0.0890663415193557,0,0,0
5452,185225.71051083977,2010-09-16 17:24:37,5342.717382899237,2,16,0.5499359965324402,4.129232883453369,16.405240137033818,15.710215986345924,65.30015963566437,57.52079943437009,9.71794142969884e-05,0.0890663415193557,0,0,0
5453,185255.72560877688,2010-09-16 17:25:07,5372.732480836396,2,16,0.5499359965324402,4.132308483123779,16.409825689982988,15.710215986345924,65.3191017212965,57.52079943437009,6.47544875391759e-05,0.0890663415193557,0,0,0
5454,185285.74087536,2010-09-16 17:25:37,5402.747747409496,2,16,0.5499359965324402,4.135708332061768,16.414411270916336,15.710215986345924,65.33805896195834,57.52079943437009,6.47544875391759e-05,0.0890663415193557,0,0,0
5455,185315.7561601235,2010-09-16 17:26:07,5432.763032173001,2,16,0.550297200679779,4.139107704162598,16.418996887625365,15.710215986345924,65.35703156491586,57.52079943437009,9.70840483205393e-05,0.0890663415193557,0,0,0
5456,185345.7714295738,2010-09-16 17:26:37,5462.778301623283,2,16,0.5501165986061096,4.142507553100586,16.42358256664324,15.710215986345924,65.3760198030769,57.52079943437009,0.0001295089750783,0.0890663415193557,0,0,0
5457,185375.78666955556,2010-09-16 17:27:07,5492.793541605006,2,16,0.5497553944587708,4.145906925201416,16.428168196464554,15.710215986345924,65.39502334324226,57.52079943437009,6.47544875391759e-05,0.0890663415193557,0,0,0
5458,185405.801941482,2010-09-16 17:27:37,5522.808813531468,2,16,0.5499359965324402,4.149306774139404,16.43275376511186,15.710215986345924,65.41404241620008,57.52079943437009,9.71794142969884e-05,0.0890663415193557,0,0,0
5459,185435.8172096992,2010-09-16 17:28:07,5552.824081748673,2,16,0.5501165986061096,4.152868270874023,16.43733932451412,15.710215986345924,65.43307725983873,57.52079943437009,9.71794142969884e-05,0.0890663415193557,0,0,0
5460,185465.8324701069,2010-09-16 17:28:37,5582.83934225162,2,16,0.5501165986061096,4.1562676429748535,16.441924889097987,15.710215986345924,65.45212799077254,57.52079943437009,9.70840483205393e-05,0.0890663415193557,0,0,0
5461,185495.848145706,2010-09-16 17:29:07,5612.855017880787,2,16,0.5497553944587708,4.159667491912842,16.446510506224033,15.710215986345924,65.47119503290263,57.52079943437009,6.47544875391759e-05,0.0890663415193557,0,0,0
5462,185525.86297609028,2010-09-16 17:29:37,5642.869848134767,2,16,0.5499359965324402,4.163390636444092,16.45109591800649,15.710215986345924,65.49027747146623,57.52079943437009,0.0001295089750783,0.0890663415193557,0,0,0
5463,185555.87829237749,2010-09-16 17:30:07,5672.885164517199,2,16,0.5499359965324402,4.16679048538208,16.455681382939787,15.710215986345924,65.50937639338511,57.52079943437009,6.47544875391759e-05,0.0890663415193557,0,0,0
5464,185585.89350167764,2010-09-16 17:30:37,5702.900373732124,2,16,0.5501165986061096,4.17051362991333,16.460266870466928,15.710215986345924,65.5284918527551,57.52079943437009,0.0001295089750783,0.0890663415193557,0,0,0
5465,185615.90877195497,2010-09-16 17:31:07,5732.915644004458,2,16,0.5501165986061096,4.174237251281738,16.46485240354135,15.710215986345924,65.54762402579904,57.52079943437009,9.71794142969884e-05,0.0890663415193557,0,0,0
5466,185645.92412036736,2010-09-16 17:31:37,5762.930992607316,2,16,0.5499359965324402,4.177636623382568,16.469437996995318,15.710215986345924,65.56677306384923,57.52079943437009,6.47544875391759e-05,0.0890663415193557,0,0,0
5467,185675.93933341184,2010-09-16 17:32:07,5792.94620555155,2,16,0.5499359965324402,4.181360244750977,16.474023516809993,15.710215986345924,65.58593859384114,57.52079943437009,9.71794142969884e-05,0.0890663415193557,0,0,0
5468,185705.954695769,2010-09-16 17:32:37,5822.961567828542,2,16,0.5501165986061096,4.185083389282227,16.478609128639675,15.710215986345924,65.60512144296452,57.52079943437009,6.47544875391759e-05,0.0890663415193557,0,0,0
5469,185735.96995653264,2010-09-16 17:33:07,5852.976828582115,2,16,0.5499359965324402,4.188807010650635,16.483194641323063,15.710215986345924,65.6243208639328,57.52079943437009,6.47544875391759e-05,0.0890663415193557,0,0,0
5470,185765.98512467,2010-09-16 17:33:37,5882.991996719504,2,16,0.5501165986061096,4.192692279815674,16.487780180438175,15.710215986345924,65.64353760503943,57.52079943437009,9.71794142969884e-05,0.0890663415193557,0,0,0
5471,185796.0003678848,2010-09-16 17:34:07,5913.007239934297,2,16,0.5499359965324402,4.196415424346924,16.492365707069478,15.710215986345924,65.66277158060032,57.52079943437009,9.71794142969884e-05,0.0890663415193557,0,0,0
5472,185824.0312870916,2010-09-16 17:34:35,5941.038159141087,2,16,0.5501165986061096,4.200138568878174,16.496648110629053,15.710215986345924,65.68074984113268,57.52079943437009,9.70840483205393e-05,0.0890663415193557,0,0,0
5473,185854.0474743861,2010-09-16 17:35:05,30.014889657259857,3,16,0.0,4.117577075958252,16.496648110629053,15.710215986345924,65.68074984113268,57.52079943437009,-0.0003885269106831,0.0890663415193557,0,0,0
5474,185884.06282329976,2010-09-16 17:35:35,60.03023857089427,3,16,0.0,4.107216358184815,16.496648110629053,15.710215986345924,65.68074984113268,57.52079943437009,-0.0002590179501567,0.0890663415193557,0,0,0
5475,185914.0780620484,2010-09-16 17:36:05,90.04547731953993,3,16,0.0,4.101388454437256,16.496648110629053,15.710215986345924,65.68074984113268,57.52079943437009,-9.71794142969884e-05,0.0890663415193557,0,0,0
5476,185944.0464521055,2010-09-16 17:36:35,120.01386738165652,3,16,0.0,4.097341537475586,16.496648110629053,15.710215986345924,65.68074984113268,57.52079943437009,-9.70840483205393e-05,0.0890663415193557,0,0,0
5477,185944.04911123053,2010-09-16 17:36:36,2.666656385e-06,4,16,1.0032652616500854,4.199653148651123,16.49664811137221,15.710215986345924,65.68074984425368,57.52079943437009,0.0,0.0890663415193557,0,0,0
5478,185944.76782611344,2010-09-16 17:36:36,0.718717579650744,4,16,0.9532365202903748,4.199491024017334,16.49684172213183,15.710215986345924,65.68156294881841,57.52079943437009,-3.24249267578125e-05,0.0890663415193557,0,0,0
5479,185946.7836007972,2010-09-16 17:36:38,2.734492288443075,4,16,0.90302711725235,4.199653148651123,16.497360276410763,15.710215986345924,65.68374072958004,57.52079943437009,0.0,0.0890663415193557,0,0,0
5480,185949.8615166888,2010-09-16 17:36:41,5.812408154971449,4,16,0.8528177738189697,4.199491024017334,16.498109790181005,15.710215986345924,65.68688847629429,57.52079943437009,-3.24249267578125e-05,0.0890663415193557,0,0,0
5481,185954.04895653285,2010-09-16 17:36:46,9.999848024106326,4,16,0.8024277687072754,4.199814796447754,16.499071356653538,15.710215986345924,65.69092678465746,57.52079943437009,0.0,0.0890663415193557,0,0,0
5482,185959.48640853955,2010-09-16 17:36:51,15.43730003585874,4,16,0.7522183656692505,4.199653148651123,16.500244032507176,15.710215986345924,65.69585168620104,57.52079943437009,0.0,0.0890663415193557,0,0,0
5483,185966.40819082304,2010-09-16 17:36:58,22.35908228925279,4,16,0.7020090222358704,4.199491024017334,16.501640308740555,15.710215986345924,65.70171566988039,57.52079943437009,-6.47544875391759e-05,0.0890663415193557,0,0,0
5484,185975.51749089244,2010-09-16 17:37:07,31.4683823586568,4,16,0.6519802212715149,4.199653148651123,16.503351052662172,15.710215986345924,65.7089003305592,57.52079943437009,-3.23295607813634e-05,0.0890663415193557,0,0,0
5485,185988.09548039932,2010-09-16 17:37:20,44.046371865541296,4,16,0.6019514799118042,4.199653148651123,16.5055370553264,15.710215986345924,65.71808094782146,57.52079943437009,-3.23295607813634e-05,0.0890663415193557,0,0,0
5486,186006.2515614559,2010-09-16 17:37:38,62.20245301733944,4,16,0.5519226789474487,4.199653148651123,16.508438172836776,15.710215986345924,65.7302648374046,57.52079943437009,0.0,0.0890663415193557,0,0,0
5487,186035.78240409232,2010-09-16 17:38:07,91.73329558359134,4,16,0.501893937587738,4.199491024017334,16.512744866091296,15.710215986345924,65.74835169333195,57.52079943437009,-3.24249267578125e-05,0.0890663415193557,0,0,0
5488,186089.0942667734,2010-09-16 17:39:01,145.04515823960577,4,16,0.4518651664257049,4.199653148651123,16.51977612078945,15.710215986345924,65.77788091583545,57.52079943437009,-3.23295607813634e-05,0.0890663415193557,0,0,0
5489,186174.98387079383,2010-09-16 17:40:26,230.934762260026,4,16,0.4016557931900024,4.199653148651123,16.529927593716334,15.710215986345924,65.82051413667983,57.52079943437009,0.0,0.0890663415193557,0,0,0
5490,186288.20138371413,2010-09-16 17:42:20,344.1522751753415,4,16,0.3516270220279693,4.199491024017334,16.541753872581527,15.710215986345924,65.8701810712681,57.52079943437009,-3.24249267578125e-05,0.0890663415193557,0,0,0
5491,186424.777714282,2010-09-16 17:44:36,480.7286057481946,4,16,0.3015982508659363,4.199653148651123,16.554126729424524,15.710215986345924,65.92214351465643,57.52079943437009,0.0,0.0890663415193557,0,0,0
5492,186589.15073513016,2010-09-16 17:47:21,645.1016265963887,4,16,0.2515694797039032,4.199653148651123,16.566730296252175,15.710215986345924,65.97507485169793,57.52079943437009,0.0,0.0890663415193557,0,0,0
5493,186790.2420901344,2010-09-16 17:50:42,846.1929816106358,4,16,0.2015407085418701,4.199491024017334,16.57936101904338,15.710215986345924,66.02812023184251,57.52079943437009,-3.24249267578125e-05,0.0890663415193557,0,0,0
5494,187058.8952283236,2010-09-16 17:55:10,1114.846119789783,4,16,0.151511937379837,4.199653148651123,16.59247311329522,15.710215986345924,66.08318723585275,57.52079943437009,0.0,0.0890663415193557,0,0,0
5495,187442.06226475528,2010-09-16 18:01:34,1498.0131562465538,4,16,0.1013025641441345,4.199653148651123,16.605814622989698,15.710215986345924,66.13921771841325,57.52079943437009,-3.23295607813634e-05,0.0890663415193557,0,0,0
5496,188158.95998018995,2010-09-16 18:13:30,2214.9108716561723,4,16,0.0512737929821014,4.199653148651123,16.620501611716858,15.710215986345924,66.20089885547878,57.52079943437009,-3.23295607813634e-05,0.0890663415193557,0,0,0
5497,188189.8814635496,2010-09-16 18:14:01,2245.832355020802,4,16,0.0496483072638511,4.199653148651123,16.62093994325542,15.710215986345924,66.20273972057271,57.52079943437009,0.0,0.0890663415193557,0,0,0
5498,188219.89537450497,2010-09-16 18:14:32,30.015399279355005,5,16,0.0,4.191882610321045,16.62093994325542,15.710215986345924,66.20273972057271,57.52079943437009,-6.47544875391759e-05,0.0890663415193557,0,0,0
5499,188249.89498477752,2010-09-16 18:15:02,60.01500954690747,5,16,0.0,4.190587520599365,16.62093994325542,15.710215986345924,66.20273972057271,57.52079943437009,-6.47544875391759e-05,0.0890663415193557,0,0,0
5500,188250.08153913988,2010-09-16 18:15:02,0.187425558027538,6,16,-1.9243103452026844e-05,4.190587520599365,16.62093994325542,15.710215987347771,66.20273972057271,57.52079943856842,0.0,0.0923051163554191,0,0,0
5501,188254.909697125,2010-09-16 18:15:07,5.015583668464744,6,16,0.0003419754502829,4.190749645233154,16.62094058108713,15.710215987681805,66.2027423936142,57.520799439968215,0.0,0.0923051163554191,0,0,0
5502,188284.92447701356,2010-09-16 18:15:37,30.01555902309997,7,16,-1.0997490882873535,4.017855644226074,16.62094058108713,15.719384446057209,66.2027423936142,57.55783274140544,-0.0009065627818927,0.0923051163554191,0,0,0
5503,188314.93938440504,2010-09-16 18:16:07,60.03046640460226,7,16,-1.0993878841400146,3.9913063049316406,16.62094058108713,15.728552707424072,66.2027423936142,57.59453875690316,-0.0005827426793985,0.0923051163554191,0,0,0
5504,188344.95467496305,2010-09-16 18:16:37,90.04575699264703,7,16,-1.0997490882873535,3.973013162612915,16.62094058108713,15.737720985006742,66.2027423936142,57.63104392371768,-0.0004209041653666,0.0923051163554191,0,0,0
5505,188374.969904639,2010-09-16 18:17:07,120.06098663857088,7,16,-1.0997490882873535,3.958929061889648,16.62094058108713,15.746889195524885,66.2027423936142,57.66740328932013,-0.0003561496851034,0.0923051163554191,0,0,0
5506,188404.9851651169,2010-09-16 18:17:37,150.0762471314936,7,16,-1.0993878841400146,3.947597026824951,16.62094058108713,15.75605739069334,66.2027423936142,57.70364609734919,-0.0001942634553415,0.0923051163554191,0,0,0
5507,188435.0004439356,2010-09-16 18:18:07,180.0915259451477,7,16,-1.0997490882873535,3.937074422836304,16.62094058108713,15.765225599308613,66.2027423936142,57.73978846801787,-0.0002590179501567,0.0923051163554191,0,0,0
5508,188465.0156975463,2010-09-16 18:18:37,210.1067795508789,7,16,-1.099568486213684,3.927523136138916,16.62094058108713,15.77439376587753,66.2027423936142,57.775839930606686,-0.0001942634553415,0.0923051163554191,0,0,0
5509,188495.0309642347,2010-09-16 18:19:07,240.12204623926647,7,16,-1.099568486213684,3.918457508087158,16.62094058108713,15.783562032694066,66.2027423936142,57.81180689327287,-0.0002266406954731,0.0923051163554191,0,0,0
5510,188525.046222472,2010-09-16 18:19:37,270.1373044765588,7,16,-1.099568486213684,3.90987777709961,16.62094058108713,15.79273028576566,66.2027423936142,57.84769278818733,-0.0002590179501567,0.0923051163554191,0,0,0
5511,188555.0614740326,2010-09-16 18:20:07,300.15255603217264,7,16,-1.0997490882873535,3.9012978076934814,16.62094058108713,15.801898603819858,66.2027423936142,57.88350054531386,-0.0002266406954731,0.0923051163554191,0,0,0
5512,188585.07695068512,2010-09-16 18:20:37,330.1680326846628,7,16,-1.0997490882873535,3.893365383148194,16.62094058108713,15.811066896082492,66.2027423936142,57.91923226760756,-0.0002266406954731,0.0923051163554191,0,0,0
5513,188615.09204765988,2010-09-16 18:21:07,360.1831296594191,7,16,-1.099568486213684,3.8852710723876953,16.62094058108713,15.820235144098843,66.2027423936142,57.95488995545258,-0.0002266406954731,0.0923051163554191,0,0,0
5514,188645.1072919173,2010-09-16 18:21:37,390.1983739268404,7,16,-1.099568486213684,3.877500534057617,16.62094058108713,15.829403406023385,66.2027423936142,57.9904748064614,-0.0001618862152099,0.0923051163554191,0,0,0
5515,188675.1225859188,2010-09-16 18:22:07,420.2136681339189,7,16,-1.099568486213684,3.869568109512329,16.62094058108713,15.8385716546701,66.2027423936142,58.02598799389341,-0.0002266406954731,0.0923051163554191,0,0,0
5516,188705.13780814625,2010-09-16 18:22:37,450.228890145787,7,16,-1.099568486213684,3.861959457397461,16.62094058108713,15.847739940180627,66.2027423936142,58.06143063846368,-0.0001942634553415,0.0923051163554191,0,0,0
5517,188735.1530553109,2010-09-16 18:23:07,480.2441373104403,7,16,-1.0993878841400146,3.8545126914978023,16.62094058108713,15.856907771157164,66.2027423936142,58.096802285888096,-0.0001942634553415,0.0923051163554191,0,0,0
5518,188765.1683079091,2010-09-16 18:23:37,510.2593899086566,7,16,-1.099568486213684,3.8472278118133545,16.62094058108713,15.86607533698976,66.2027423936142,58.132104843867225,-0.0001618862152099,0.0923051163554191,0,0,0
5519,188795.18359352977,2010-09-16 18:24:07,540.2746755293019,7,16,-1.099568486213684,3.839781045913696,16.62094058108713,15.875243309286118,66.2027423936142,58.167341959962165,-0.0001942634553415,0.0923051163554191,0,0,0
5520,188825.1988678522,2010-09-16 18:24:37,570.2899498517453,7,16,-1.0993878841400146,3.832658290863037,16.62094058108713,15.88441166260351,66.2027423936142,58.20251430476863,-0.0001942157687153,0.0923051163554191,0,0,0
5521,188855.21414382377,2010-09-16 18:25:07,600.3052258233051,7,16,-1.099568486213684,3.825697183609009,16.62094058108713,15.893580000114463,66.2027423936142,58.237621197986,-0.0001942634553415,0.0923051163554191,0,0,0
5522,188885.22979949813,2010-09-16 18:25:37,630.320881532749,7,16,-1.099568486213684,3.818736076354981,16.62094058108713,15.90274843929178,66.2027423936142,58.272664400657305,-0.0001618862152099,0.0923051163554191,0,0,0
5523,188915.24467084967,2010-09-16 18:26:07,660.3357528592525,7,16,-1.099568486213684,3.811936855316162,16.62094058108713,15.911916641953924,66.2027423936142,58.30764340820834,-0.0001618862152099,0.0923051163554191,0,0,0
5524,188945.2599161396,2010-09-16 18:26:37,690.3509981492263,7,16,-1.099568486213684,3.805137634277344,16.62094058108713,15.921084935823044,66.2027423936142,58.3425601600717,-0.0001618862152099,0.0923051163554191,0,0,0
5525,188975.27516921403,2010-09-16 18:27:07,720.3662512186188,7,16,-1.099568486213684,3.798500299453736,16.62094058108713,15.930253209272076,66.2027423936142,58.377415708792725,-0.0001618862152099,0.0923051163554191,0,0,0
5526,189005.29043341623,2010-09-16 18:27:37,750.3815154208003,7,16,-1.099568486213684,3.792024850845337,16.62094058108713,15.939421535817663,66.2027423936142,58.412211360250566,-0.0001618862152099,0.0923051163554191,0,0,0
5527,189035.30569222497,2010-09-16 18:28:07,780.3967742245065,7,16,-1.099568486213684,3.785711288452149,16.62094058108713,15.94858984330955,66.2027423936142,58.446948064992256,-0.0001618862152099,0.0923051163554191,0,0,0
5528,189065.3209790436,2010-09-16 18:28:37,810.4120610531673,7,16,-1.0997490882873535,3.77907395362854,16.62094058108713,15.957758176307577,66.2027423936142,58.48162684009493,-0.0001942634553415,0.0923051163554191,0,0,0
5529,189095.3362117321,2010-09-16 18:29:07,840.4272937316609,7,16,-1.0997490882873535,3.773084163665772,16.62094058108713,15.966926557080688,66.2027423936142,58.51624913541136,-0.0001942634553415,0.0923051163554191,0,0,0
5530,189125.35161397385,2010-09-16 18:29:37,870.4426959834356,7,16,-1.099568486213684,3.767094373703003,16.62094058108713,15.976094950179984,66.2027423936142,58.55081552149867,-0.0001618862152099,0.0923051163554191,0,0,0
5531,189155.366860146,2010-09-16 18:30:07,900.4579421556115,7,16,-1.099568486213684,3.761266469955444,16.62094058108713,15.98526331576452,66.2027423936142,58.58532675237906,-0.0001618862152099,0.0923051163554191,0,0,0
5532,189185.3820077572,2010-09-16 18:30:37,930.473089766764,7,16,-1.099568486213684,3.755600452423096,16.62094058108713,15.994431677341373,66.2027423936142,58.61978487615031,-0.0001295089750783,0.0923051163554191,0,0,0
5533,189215.3974153924,2010-09-16 18:31:07,960.488497396964,7,16,-1.099929690361023,3.749772787094116,16.62094058108713,16.003600095853,66.2027423936142,58.65419096333661,-0.0001618862152099,0.0923051163554191,0,0,0
5534,189245.4127335693,2010-09-16 18:31:37,990.5038155788874,7,16,-1.099568486213684,3.7442686557769775,16.62094058108713,16.012768466199066,66.2027423936142,58.68854549542719,-0.0001618862152099,0.0923051163554191,0,0,0
5535,189275.427804474,2010-09-16 18:32:07,1020.5188865888312,7,16,-1.099929690361023,3.738764524459839,16.62094058108713,16.021936786088204,66.2027423936142,58.722848992331365,-0.0001295089750783,0.0923051163554191,0,0,0
5536,189305.44303556852,2010-09-16 18:32:37,1050.5341175781084,7,16,-1.0997490882873535,3.73358416557312,16.62094058108713,16.031105089355794,66.2027423936142,58.75710283402869,-0.0001295089750783,0.0923051163554191,0,0,0
5537,189335.45843107344,2010-09-16 18:33:07,1080.5495130930667,7,16,-1.099568486213684,3.728403806686402,16.62094058108713,16.040273458400485,66.2027423936142,58.79130817360991,-9.713172767078504e-05,0.0923051163554191,0,0,0
5538,189365.4735494416,2010-09-16 18:33:37,1110.5646314411742,7,16,-1.0997490882873535,3.7230615615844727,16.62094058108713,16.049441725557777,66.2027423936142,58.825465822418494,-0.0001295089750783,0.0923051163554191,0,0,0
5539,189395.488805318,2010-09-16 18:34:07,1140.579887322586,7,16,-1.099568486213684,3.718043088912964,16.62094058108713,16.058610078807853,66.2027423936142,58.859576871494994,-0.0001295089750783,0.0923051163554191,0,0,0
5540,189425.5042122164,2010-09-16 18:34:37,1170.5952942359966,7,16,-1.0997490882873535,3.713024616241455,16.62094058108713,16.06777850420073,66.2027423936142,58.89364195632744,-0.0001295089750783,0.0923051163554191,0,0,0
5541,189455.5193313314,2010-09-16 18:35:07,1200.6104133409935,7,16,-1.0997490882873535,3.707844257354736,16.62094058108713,16.076946850270268,66.2027423936142,58.92766077614709,-0.0001618862152099,0.0923051163554191,0,0,0
5542,189485.5347708813,2010-09-16 18:35:37,1230.6258528858575,7,16,-1.099568486213684,3.703149557113648,16.62094058108713,16.086115259849883,66.2027423936142,58.96163468235616,-9.713172767078504e-05,0.0923051163554191,0,0,0
5543,189515.5498684024,2010-09-16 18:36:07,1260.6409504119897,7,16,-1.0997490882873535,3.6982929706573486,16.62094058108713,16.09528359817588,66.2027423936142,58.99556384069568,-0.0001295089750783,0.0923051163554191,0,0,0
5544,189545.5653513657,2010-09-16 18:36:37,1290.656433365208,7,16,-1.0997490882873535,3.6937601566314697,16.62094058108713,16.104452050026847,66.2027423936142,59.02945018615514,-9.713172767078504e-05,0.0923051163554191,0,0,0
5545,189575.58039142337,2010-09-16 18:37:07,1320.6714734329153,7,16,-1.099568486213684,3.689065456390381,16.62094058108713,16.113620385038114,66.2027423936142,59.063293711191264,-0.0001618862152099,0.0923051163554191,0,0,0
5546,189605.59567974572,2010-09-16 18:37:37,1350.6867618655797,7,16,-1.0997490882873535,3.684370756149292,16.62094058108713,16.122788727722085,66.2027423936142,59.097095434261135,-0.0001295089750783,0.0923051163554191,0,0,0
5547,189635.61091220367,2010-09-16 18:38:07,1380.701994208235,7,16,-1.099568486213684,3.680161714553833,16.62094058108713,16.131957140321955,66.2027423936142,59.13085596175581,-6.47544875391759e-05,0.0923051163554191,0,0,0
5548,189665.62619330303,2010-09-16 18:38:37,1410.7172753075947,7,16,-1.099568486213684,3.675467014312744,16.62094058108713,16.14112555184858,66.2027423936142,59.16457537128827,-0.0001295089750783,0.0923051163554191,0,0,0
5549,189695.64144990625,2010-09-16 18:39:07,1440.732531910808,7,16,-1.099568486213684,3.6710963249206543,16.62094058108713,16.150293991704302,66.2027423936142,59.19825431277908,-0.0001295089750783,0.0923051163554191,0,0,0
5550,189725.65669823883,2010-09-16 18:39:38,1470.7477802383642,7,16,-1.099929690361023,3.666725397109986,16.62094058108713,16.159462429835877,66.2027423936142,59.23189308462558,-0.0001295089750783,0.0923051163554191,0,0,0
5551,189755.67194683204,2010-09-16 18:40:08,1500.7630288315834,7,16,-1.0997490882873535,3.6625163555145264,16.62094058108713,16.16863084370472,66.2027423936142,59.26549257091852,-0.0001618862152099,0.0923051163554191,0,0,0
5552,189785.687219365,2010-09-16 18:40:38,1530.77830136456,7,16,-1.0997490882873535,3.658469200134277,16.62094058108713,16.17779928216349,66.2027423936142,59.29905329028431,-6.47544875391759e-05,0.0923051163554191,0,0,0
5553,189815.7024694269,2010-09-16 18:41:08,1560.7935514264452,7,16,-1.0993878841400146,3.6542601585388175,16.62094058108713,16.186967649534953,66.2027423936142,59.33257558774838,-9.713172767078504e-05,0.0923051163554191,0,0,0
5554,189845.71773057143,2010-09-16 18:41:38,1590.8088125760073,7,16,-1.0993878841400146,3.6503748893737793,16.62094058108713,16.19613597700512,66.2027423936142,59.3660604920172,-9.713172767078504e-05,0.0923051163554191,0,0,0
5555,189875.73301958555,2010-09-16 18:42:08,1620.8241015851104,7,16,-1.099568486213684,3.64616584777832,16.62094058108713,16.2053043222078,66.2027423936142,59.39950821815657,-3.237724376958795e-05,0.0923051163554191,0,0,0
5556,189905.7483124543,2010-09-16 18:42:38,1650.8393944638733,7,16,-1.0997490882873535,3.6421186923980713,16.62094058108713,16.214472609745297,66.2027423936142,59.43291928342191,-0.0001295089750783,0.0923051163554191,0,0,0
5557,189935.7635156943,2010-09-16 18:43:08,1680.854597693859,7,16,-1.0997490882873535,3.638233423233032,16.62094058108713,16.22364095732761,66.2027423936142,59.466294742019976,-0.0001618862152099,0.0923051163554191,0,0,0
5558,189965.77890624187,2010-09-16 18:43:38,1710.8699882664807,7,16,-1.0997490882873535,3.634510040283203,16.62094058108713,16.232809321610805,66.2027423936142,59.499635757029225,-0.0001295089750783,0.0923051163554191,0,0,0
5559,189995.79417985253,2010-09-16 18:44:08,1740.8852618621097,7,16,-1.0997490882873535,3.630948543548584,16.62094058108713,16.241977648276023,66.2027423936142,59.532942790834696,-9.713172767078504e-05,0.0923051163554191,0,0,0
5560,190025.8093063109,2010-09-16 18:44:38,1770.9003883204614,7,16,-1.0997490882873535,3.627387046813965,16.62094058108713,16.251145966094814,66.2027423936142,59.56621607321961,-6.47544875391759e-05,0.0923051163554191,0,0,0
5561,190055.8246905176,2010-09-16 18:45:08,1800.9157725322054,7,16,-1.0993878841400146,3.6238255500793457,16.62094058108713,16.260314370527293,66.2027423936142,59.59945668328793,-6.47544875391759e-05,0.0923051163554191,0,0,0
5562,190085.8398852213,2010-09-16 18:45:38,1830.930967230896,7,16,-1.099568486213684,3.620425939559937,16.62094058108713,16.269482675740225,66.2027423936142,59.6326650382084,-3.237724376958795e-05,0.0923051163554191,0,0,0
5563,190115.85521038063,2010-09-16 18:46:08,1860.9462923802107,7,16,-1.0997490882873535,3.616864442825317,16.62094058108713,16.278651049676814,66.2027423936142,59.665842140434606,-6.47544875391759e-05,0.0923051163554191,0,0,0
5564,190145.8705281515,2010-09-16 18:46:38,1890.9616101761703,7,16,-1.0997490882873535,3.613626718521118,16.62094058108713,16.287819445660844,66.2027423936142,59.69898878913891,-0.0001295089750783,0.0923051163554191,0,0,0
5565,190175.88558291097,2010-09-16 18:47:08,1920.976664910488,7,16,-1.099568486213684,3.610550880432129,16.62094058108713,16.29698769034538,66.2027423936142,59.73210502007269,-6.47544875391759e-05,0.0923051163554191,0,0,0
5566,190205.90081637137,2010-09-16 18:47:38,1950.991898375946,7,16,-1.099568486213684,3.60715126991272,16.62094058108713,16.30615598121922,66.2027423936142,59.76519224587575,-6.47544875391759e-05,0.0923051163554191,0,0,0
5567,190235.91611365112,2010-09-16 18:48:08,1981.0071956506813,7,16,-1.099568486213684,3.6043992042541504,16.62094058108713,16.315324250572246,66.2027423936142,59.79825047397431,-3.237724376958795e-05,0.0923051163554191,0,0,0
5568,190265.93138021923,2010-09-16 18:48:38,2011.0224622187693,7,16,-1.099568486213684,3.601161479949951,16.62094058108713,16.324492564301313,66.2027423936142,59.83128046730925,-3.237724376958795e-05,0.0923051163554191,0,0,0
5569,190295.94663363448,2010-09-16 18:49:08,2041.0377156340248,7,16,-1.099568486213684,3.598085641860962,16.62094058108713,16.33366085446357,66.2027423936142,59.86428248723971,-6.47544875391759e-05,0.0923051163554191,0,0,0
5570,190325.9619260621,2010-09-16 18:49:38,2071.053008066674,7,16,-1.0997490882873535,3.5950098037719727,16.62094058108713,16.34282918172417,66.2027423936142,59.89725688886453,-0.0001295089750783,0.0923051163554191,0,0,0
5571,190355.9771570564,2010-09-16 18:50:08,2101.068239060964,7,16,-1.0997490882873535,3.5920960903167725,16.62094058108713,16.351997433761557,66.2027423936142,59.93020344135675,-6.470680091297254e-05,0.0923051163554191,0,0,0
5572,190385.9924383212,2010-09-16 18:50:38,2131.083520320724,7,16,-1.0997490882873535,3.589182138442993,16.62094058108713,16.361165808396215,66.2027423936142,59.96312314417108,-6.47544875391759e-05,0.0923051163554191,0,0,0
5573,190416.0076858317,2010-09-16 18:51:08,2161.0987678312404,7,16,-1.0997490882873535,3.586106300354004,16.62094058108713,16.3703342069179,66.2027423936142,59.99601621369858,-0.0001295089750783,0.0923051163554191,0,0,0
5574,190446.02297078568,2010-09-16 18:51:38,2191.1140527952466,7,16,-1.0997490882873535,3.5831923484802246,16.62094058108713,16.37950251821975,66.2027423936142,60.02888214875927,-6.47544875391759e-05,0.0923051163554191,0,0,0
5575,190476.0382095694,2010-09-16 18:52:08,2221.1292915789795,7,16,-1.0997490882873535,3.5802783966064453,16.62094058108713,16.38867086480693,66.2027423936142,60.061721582460265,-9.713172767078504e-05,0.0923051163554191,0,0,0
5576,190506.05349039307,2010-09-16 18:52:38,2251.1445723926263,7,16,-1.099568486213684,3.577364444732666,16.62094058108713,16.397839215297683,66.2027423936142,60.094533868108,-9.713172767078504e-05,0.0923051163554191,0,0,0
5577,190536.06880643463,2010-09-16 18:53:08,2281.159888444232,7,16,-1.0993878841400146,3.5746123790740967,16.62094058108713,16.40700757092487,66.2027423936142,60.12731929617702,-3.237724376958795e-05,0.0923051163554191,0,0,0
5578,190566.08399436643,2010-09-16 18:53:38,2311.175076366006,7,16,-1.099568486213684,3.5715365409851074,16.62094058108713,16.41617587257658,66.2027423936142,60.16007734018179,-6.47544875391759e-05,0.0923051163554191,0,0,0
5579,190596.0992475912,2010-09-16 18:54:08,2341.1903295907864,7,16,-1.0997490882873535,3.568460702896118,16.62094058108713,16.425344212264626,66.2027423936142,60.19280824777358,-6.47544875391759e-05,0.0923051163554191,0,0,0
5580,190626.11453145748,2010-09-16 18:54:38,2371.205613462065,7,16,-1.099568486213684,3.565384864807129,16.62094058108713,16.43451260525414,66.2027423936142,60.22551192165635,-9.713172767078504e-05,0.0923051163554191,0,0,0
5581,190656.12977268736,2010-09-16 18:55:08,2401.2208546969164,7,16,-1.0997490882873535,3.5624709129333496,16.62094058108713,16.44368089183493,66.2027423936142,60.25818715376066,-9.713172767078504e-05,0.0923051163554191,0,0,0
5582,190686.14503453363,2010-09-16 18:55:38,2431.236116538206,7,16,-1.0997490882873535,3.5593950748443604,16.62094058108713,16.45284914216915,66.2027423936142,60.2908344271531,-9.713172767078504e-05,0.0923051163554191,0,0,0
5583,190716.1603033423,2010-09-16 18:56:08,2461.2513853418723,7,16,-1.0997490882873535,3.556157350540161,16.62094058108713,16.462017556308293,66.2027423936142,60.32345370403576,-9.713172767078504e-05,0.0923051163554191,0,0,0
5584,190746.17563558937,2010-09-16 18:56:38,2491.2667175889046,7,16,-1.0997490882873535,3.552919626235962,16.62094058108713,16.471185934663662,66.2027423936142,60.35604328808159,-9.713172767078504e-05,0.0923051163554191,0,0,0
5585,190776.1908235713,2010-09-16 18:57:08,2521.2819055808536,7,16,-1.0997490882873535,3.5496819019317627,16.62094058108713,16.48035422974353,66.2027423936142,60.38860281650838,-0.0001295089750783,0.0923051163554191,0,0,0
5586,190806.20647252887,2010-09-16 18:57:38,2551.297554533431,7,16,-1.0997490882873535,3.546120405197144,16.62094058108713,16.489522740321853,66.2027423936142,60.421131829393474,-9.713172767078504e-05,0.0923051163554191,0,0,0
5587,190836.22131760983,2010-09-16 18:58:08,2581.3123996094096,7,16,-1.099568486213684,3.5427207946777344,16.62094058108713,16.49869099216332,66.2027423936142,60.4536285795571,-9.713172767078504e-05,0.0923051163554191,0,0,0
5588,190866.2366002631,2010-09-16 18:58:38,2611.327682262648,7,16,-1.099568486213684,3.539321184158325,16.62094058108713,16.507859491675315,66.2027423936142,60.48609447064002,-6.47544875391759e-05,0.0923051163554191,0,0,0
5589,190896.2518598788,2010-09-16 18:59:08,2641.342941878381,7,16,-1.0997490882873535,3.535597801208496,16.62094058108713,16.51702811237743,66.2027423936142,60.51852816687838,-0.0001295089750783,0.0923051163554191,0,0,0
5590,190926.2670969633,2010-09-16 18:59:38,2671.358178992948,7,16,-1.099568486213684,3.532036304473877,16.62094058108713,16.52619661434082,66.2027423936142,60.55092727363618,-6.47544875391759e-05,0.0923051163554191,0,0,0
5591,190956.2825112,2010-09-16 19:00:08,2701.3735932196137,7,16,-1.099568486213684,3.527827262878418,16.62094058108713,16.53536514236906,66.2027423936142,60.58329131639312,-9.713172767078504e-05,0.0923051163554191,0,0,0
5592,190986.2976310218,2010-09-16 19:00:38,2731.388713036387,7,16,-1.0997490882873535,3.523780107498169,16.62094058108713,16.54453340222977,66.2027423936142,60.6156181774237,-0.0001295089750783,0.0923051163554191,0,0,0
5593,191016.31300811577,2010-09-16 19:01:08,2761.404090145402,7,16,-1.0997490882873535,3.51973295211792,16.62094058108713,16.55370174322375,66.2027423936142,60.64790799269734,-0.0001295089750783,0.0923051163554191,0,0,0
5594,191046.32834751563,2010-09-16 19:01:38,2791.4194296054384,7,16,-1.099568486213684,3.515685796737671,16.62094058108713,16.562870021797806,66.2027423936142,60.68015923097301,-9.713172767078504e-05,0.0923051163554191,0,0,0
5595,191076.34352828452,2010-09-16 19:02:08,2821.4346102841323,7,16,-1.099568486213684,3.510991334915161,16.62094058108713,16.57203828118338,66.2027423936142,60.7123696343428,-9.713172767078504e-05,0.0923051163554191,0,0,0
5596,191106.3586887127,2010-09-16 19:02:38,2851.449770717291,7,16,-1.0997490882873535,3.5061347484588623,16.62094058108713,16.58120648316736,66.2027423936142,60.74453727991895,-0.0001618862152099,0.0923051163554191,0,0,0
5597,191136.37407901968,2010-09-16 19:03:08,2881.4651610292617,7,16,-1.099568486213684,3.501116275787353,16.62094058108713,16.59037481396026,66.2027423936142,60.776660329598826,-0.0001295089750783,0.0923051163554191,0,0,0
5598,191166.38919973373,2010-09-16 19:03:38,2911.4802817332493,7,16,-1.099568486213684,3.495612144470215,16.62094058108713,16.59954307507994,66.2027423936142,60.80873491878761,-0.0001618862152099,0.0923051163554191,0,0,0
5599,191196.40457437155,2010-09-16 19:04:08,2941.495656396158,7,16,-1.099568486213684,3.489946126937866,16.62094058108713,16.608711322401412,66.2027423936142,60.84075777089634,-0.0001295089750783,0.0923051163554191,0,0,0
5600,191226.4197173411,2010-09-16 19:04:38,2971.5107993406623,7,16,-1.099568486213684,3.483470678329468,16.62094058108713,16.617879529263973,66.2027423936142,60.87272458323388,-0.0001942634553415,0.0923051163554191,0,0,0
5601,191256.4350029818,2010-09-16 19:05:08,3001.52608498637,7,16,-1.099568486213684,3.4765095710754395,16.62094058108713,16.627047774985222,66.2027423936142,60.904629935436525,-0.0001942634553415,0.0923051163554191,0,0,0
5602,191286.4502318959,2010-09-16 19:05:38,3031.5413139906923,7,16,-1.0997490882873535,3.4684152603149414,16.62094058108713,16.63621595604287,66.2027423936142,60.93646639869696,-0.0002266406954731,0.0923051163554191,0,0,0
5603,191316.46561340088,2010-09-16 19:06:08,3061.556695400442,7,16,-1.099568486213684,3.4591877460479736,16.62094058108713,16.64538419301049,66.2027423936142,60.96822461030287,-0.0002913951757363,0.0923051163554191,0,0,0
5604,191346.4807622702,2010-09-16 19:06:38,3091.57184427976,7,16,-1.0997490882873535,3.448665142059326,16.62094058108713,16.654552419306622,66.2027423936142,60.999892921539455,-0.0002913951757363,0.0923051163554191,0,0,0
5605,191376.4960298107,2010-09-16 19:07:08,3121.5871118202745,7,16,-1.0997490882873535,3.436038017272949,16.62094058108713,16.663720587116053,66.2027423936142,61.03145459008118,-0.0003561496851034,0.0923051163554191,0,0,0
5606,191406.5114056816,2010-09-16 19:07:38,3151.6024876911983,7,16,-1.0997490882873535,3.420335292816162,16.62094058108713,16.67288888255681,66.2027423936142,61.06288774883112,-0.0004856586456298,0.0923051163554191,0,0,0
5607,191436.52667738756,2010-09-16 19:08:08,3181.6177593870857,7,16,-1.0997490882873535,3.400099515914917,16.62094058108713,16.682057140710473,66.2027423936142,61.094158776367614,-0.0006475448608398,0.0923051163554191,0,0,0
5608,191466.542011815,2010-09-16 19:08:38,3211.63309381456,7,16,-1.0997490882873535,3.3735501766204834,16.62094058108713,16.69122542035578,66.2027423936142,61.125218029935766,-0.0008094310760498,0.0923051163554191,0,0,0
5609,191496.5573216511,2010-09-16 19:09:08,3241.6484037709515,7,16,-1.099568486213684,3.3363165855407715,16.62094058108713,16.700393720819434,66.2027423936142,61.15598736729347,-0.0011332035064697,0.0923051163554191,0,0,0
5610,191526.57231658112,2010-09-16 19:09:38,3271.663398590713,7,16,-1.0997490882873535,3.2822465896606445,16.62094058108713,16.709561899253913,66.2027423936142,61.18634260093714,-0.0016512393485754,0.0923051163554191,0,0,0
5611,191556.58770414625,2010-09-16 19:10:08,3301.678786175877,7,16,-1.0997490882873535,3.2035701274871826,16.62094058108713,16.718730189404074,66.2027423936142,61.21609804966144,-0.0024930476211011,0.0923051163554191,0,0,0
5612,191586.60287521093,2010-09-16 19:10:38,3331.693957215511,7,16,-1.099568486213684,3.08361291885376,16.62094058108713,16.727898453720663,66.2027423936142,61.24496267150919,-0.0039176465943455,0.0923051163554191,0,0,0
5613,191613.7900537061,2010-09-16 19:11:06,3358.8811357357404,7,16,-1.0997490882873535,2.8831982612609863,16.62094058108713,16.73620285196278,66.2027423936142,61.269853548284914,-0.0083533283323049,0.0923051163554191,0,0,0
5614,191626.82122899944,2010-09-16 19:11:19,3371.912310998993,7,16,-1.099568486213684,2.699458122253418,16.62094058108713,16.740183263340803,66.2027423936142,61.28098837550623,-0.0127565860748291,0.0923051163554191,0,0,0
5615,191686.82943273493,2010-09-16 19:12:19,60.01501137647436,8,16,0.0,3.395081043243408,16.62094058108713,16.740183263340803,66.2027423936142,61.28098837550623,0.0012303352123126,0.0923051163554191,0,0,0
5616,191687.0108369226,2010-09-16 19:12:19,0.187485512683583,9,16,-1.9243103452026844e-05,3.395242929458618,16.62094058108713,16.74018326434297,66.2027423936142,61.28098837890883,0.0,0.0898760333657264,0,0,0
5617,191691.8388949482,2010-09-16 19:12:24,5.015543508218592,9,16,0.0005225847125984,3.4025278091430664,16.620941100944556,16.740183264760642,66.20274416087399,61.28098838032793,0.0010360718006268,0.0898760333657264,0,0,0
