Data_Point,Test_Time(s),Date_Time,Step_Time(s),Step_Index,Cycle_Index,Current(A),Voltage(V),Charge_Capacity(Ah),Discharge_Capacity(Ah),Charge_Energy(Wh),Discharge_Energy(Wh),dV/dt(V/s),Internal_Resistance(Ohm),Is_FC_Data,AC_Impedance(Ohm),ACI_Phase_Angle(Deg)
7016,239304.4477765419,2010-09-17 08:26:01,30.01523026246284,1,21,0.0,3.448503255844116,20.759611579194004,20.877404094430943,82.68696773815859,76.42696640980483,0.0007122993702068,0.0898760333657264,0,0,0
7017,239334.4631939064,2010-09-17 08:26:31,60.03064762194864,1,21,0.0,3.469548463821411,20.759611579194004,20.877404094430943,82.68696773815859,76.42696640980483,0.0004532813909463,0.0898760333657264,0,0,0
7018,239364.4783063297,2010-09-17 08:27:01,90.04576005027936,1,21,0.0,3.4849276542663574,20.759611579194004,20.877404094430943,82.68696773815859,76.42696640980483,0.0003885269106831,0.0898760333657264,0,0,0
7019,239394.44669295827,2010-09-17 08:27:31,120.0141466738127,1,21,0.0,3.4965834617614746,20.759611579194004,20.877404094430943,82.68696773815859,76.42696640980483,0.0002590179501567,0.0898760333657264,0,0,0
7020,239424.4620169536,2010-09-17 08:28:02,30.015272828714757,2,21,0.5499359965324402,3.6330530643463135,20.764196942855133,20.877404094430943,82.70349344110112,76.42696640980483,0.0012627125252038,0.0898760333657264,0,0,0
7021,239454.4772699077,2010-09-17 08:28:32,60.030525782819424,2,21,0.5499359965324402,3.672391414642334,20.768782297321337,20.877404094430943,82.72024855424354,76.42696640980483,0.0008741855854168,0.0898760333657264,0,0,0
7022,239484.4925351776,2010-09-17 08:29:02,90.04579106269111,2,21,0.5499359965324402,3.701368808746338,20.77336757201273,20.877404094430943,82.73715725136526,76.42696640980483,0.0006799221155233,0.0898760333657264,0,0,0
7023,239514.50779689857,2010-09-17 08:29:32,120.06105286387944,2,21,0.5499359965324402,3.724032878875733,20.77795286879625,20.877404094430943,82.75418317589065,76.42696640980483,0.0005504131549969,0.0898760333657264,0,0,0
7024,239544.5230690105,2010-09-17 08:30:02,150.0763248855798,2,21,0.5501165986061096,3.742487907409668,20.782538212108506,20.877404094430943,82.77130289447868,76.42696640980483,0.0004532813909463,0.0898760333657264,0,0,0
7025,239574.53833369387,2010-09-17 08:30:32,180.09158957397503,2,21,0.5497553944587708,3.7560861110687256,20.78712347733928,20.877404094430943,82.78849624513232,76.42696640980483,0.0002590179501567,0.0898760333657264,0,0,0
7026,239604.5537068179,2010-09-17 08:31:02,210.1069626980424,2,21,0.5501165986061096,3.765313625335693,20.791708822046026,20.877404094430943,82.80574211717622,76.42696640980483,0.0002266406954731,0.0898760333657264,0,0,0
7027,239634.5688501133,2010-09-17 08:31:32,240.12210598840952,2,21,0.5501165986061096,3.770332098007202,20.7962941674626,20.877404094430943,82.8230194218012,76.42696640980483,0.0001295089750783,0.0898760333657264,0,0,0
7028,239664.58414163868,2010-09-17 08:32:02,270.13739752381906,2,21,0.5499359965324402,3.773893594741821,20.800879497214577,20.877404094430943,82.84031625582327,76.42696640980483,3.237724376958795e-05,0.0898760333657264,0,0,0
7029,239694.5994184323,2010-09-17 08:32:32,300.1526743074058,2,21,0.5499359965324402,3.7772932052612314,20.8054648557751,20.877404094430943,82.85762900474182,76.42696640980483,9.713172767078504e-05,0.0898760333657264,0,0,0
7030,239724.61464545663,2010-09-17 08:33:02,330.1679013317859,2,21,0.5501165986061096,3.7805309295654297,20.81005016648071,20.877404094430943,82.87495627518234,76.42696640980483,0.0001295089750783,0.0898760333657264,0,0,0
7031,239754.62989960372,2010-09-17 08:33:32,360.1831554788684,2,21,0.5499359965324402,3.783606767654419,20.814635456957408,20.877404094430943,82.89229789636994,76.42696640980483,9.713172767078504e-05,0.0898760333657264,0,0,0
7032,239784.6451893497,2010-09-17 08:34:02,390.1984452248112,2,21,0.5499359965324402,3.7865207195281982,20.819220751090345,20.877404094430943,82.90965408605501,76.42696640980483,0.0,0.0898760333657264,0,0,0
7033,239814.6604242237,2010-09-17 08:34:32,420.21368009878506,2,21,0.5499359965324402,3.789920330047608,20.82380600547332,20.877404094430943,82.92702456477528,76.42696640980483,6.47544875391759e-05,0.0898760333657264,0,0,0
7034,239844.67570440075,2010-09-17 08:35:02,450.2289603710802,2,21,0.5499359965324402,3.793158054351807,20.82839134725548,20.877404094430943,82.94440974662602,76.42696640980483,6.47544875391759e-05,0.0898760333657264,0,0,0
7035,239874.6909787533,2010-09-17 08:35:32,480.244234718586,2,21,0.5501165986061096,3.796072006225586,20.832976673677845,20.877404094430943,82.96180918538208,76.42696640980483,9.713172767078504e-05,0.0898760333657264,0,0,0
7036,239904.7062493965,2010-09-17 08:36:02,510.25950527663286,2,21,0.5501165986061096,3.799471616744995,20.83756199639315,20.877404094430943,82.97922262851839,76.42696640980483,0.0001295089750783,0.0898760333657264,0,0,0
7037,239934.72161145296,2010-09-17 08:36:32,540.2748673380862,2,21,0.5499359965324402,3.8020617961883545,20.84214741807101,20.877404094430943,82.99665040691494,76.42696640980483,6.47544875391759e-05,0.0898760333657264,0,0,0
7038,239964.73674095896,2010-09-17 08:37:02,570.2899968390328,2,21,0.5499359965324402,3.805137634277344,20.84673272501973,20.877404094430943,83.01409155488028,76.42696640980483,9.713172767078504e-05,0.0898760333657264,0,0,0
7039,239994.75203061465,2010-09-17 08:37:32,600.3052864997629,2,21,0.5499359965324402,3.808213472366333,20.85131803699761,20.877404094430943,83.03154644730004,76.42696640980483,9.713172767078504e-05,0.0898760333657264,0,0,0
7040,240024.7674996882,2010-09-17 08:38:02,630.3207555933851,2,21,0.5499359965324402,3.811127424240112,20.85590337690892,20.877404094430943,83.04901519111623,76.42696640980483,3.237724376958795e-05,0.0898760333657264,0,0,0
7041,240054.76970164,2010-09-17 08:38:32,660.3229576354054,2,21,0.5499359965324402,3.814365148544312,20.860486710663785,20.877404094430943,83.06649021708004,76.42696640980483,9.713172767078504e-05,0.0898760333657264,0,0,0
7042,240084.782221136,2010-09-17 08:39:02,690.3354771063155,2,21,0.5499359965324402,3.817279100418091,20.865071621485217,20.877404094430943,83.08398550537642,76.42696640980483,6.47544875391759e-05,0.0898760333657264,0,0,0
7043,240114.79744007016,2010-09-17 08:39:32,720.3506959502758,2,21,0.5497553944587708,3.82051682472229,20.869656940631423,20.877404094430943,83.10149657232495,76.42696640980483,6.47544875391759e-05,0.0898760333657264,0,0,0
7044,240144.8127260918,2010-09-17 08:40:02,750.3659819769347,2,21,0.5501165986061096,3.823916435241699,20.87424229433761,20.877404094430943,83.11902237812741,76.42696640980483,9.713172767078504e-05,0.0898760333657264,0,0,0
7045,240174.82798157225,2010-09-17 08:40:32,780.3812374573455,2,21,0.5499359965324402,3.826992273330689,20.878827582597044,20.877404094430943,83.13656289704257,76.42696640980483,9.713172767078504e-05,0.0898760333657264,0,0,0
7046,240204.84322433587,2010-09-17 08:41:02,810.3964802160007,2,21,0.5501165986061096,3.830553770065308,20.88341284228637,20.877404094430943,83.15411862628426,76.42696640980483,9.713172767078504e-05,0.0898760333657264,0,0,0
7047,240234.85849212704,2010-09-17 08:41:32,840.4117480121535,2,21,0.5501165986061096,3.833791255950928,20.887998179074977,20.877404094430943,83.17169023695274,76.42696640980483,6.47544875391759e-05,0.0898760333657264,0,0,0
7048,240264.8737521337,2010-09-17 08:42:02,870.4270080288875,2,21,0.5499359965324402,3.837190866470337,20.892583477094337,20.877404094430943,83.18927735207245,76.42696640980483,9.713172767078504e-05,0.0898760333657264,0,0,0
7049,240294.8890295138,2010-09-17 08:42:32,900.4422853939255,2,21,0.5499359965324402,3.840590476989746,20.89716880829864,20.877404094430943,83.20688012124556,76.42696640980483,9.713172767078504e-05,0.0898760333657264,0,0,0
7050,240324.9042755055,2010-09-17 08:43:02,930.4575313806386,2,21,0.5501165986061096,3.8439900875091553,20.90175414625641,20.877404094430943,83.224498240785,76.42696640980483,9.713172767078504e-05,0.0898760333657264,0,0,0
7051,240354.91993067364,2010-09-17 08:43:32,960.4731866489816,2,21,0.5501165986061096,3.847389698028565,20.90633948675983,20.877404094430943,83.24213143580523,76.42696640980483,0.0001295089750783,0.0898760333657264,0,0,0
7052,240384.9347745817,2010-09-17 08:44:02,990.488030456794,2,21,0.5501165986061096,3.850303649902344,20.91092468198974,20.877404094430943,83.25977870917337,76.42696640980483,6.47544875391759e-05,0.0898760333657264,0,0,0
7053,240414.95004850312,2010-09-17 08:44:32,1020.5033043682114,2,21,0.5501165986061096,3.853379487991333,20.91550997324115,20.877404094430943,83.27744080362775,76.42696640980483,6.47544875391759e-05,0.0898760333657264,0,0,0
7054,240444.9653023144,2010-09-17 08:45:02,1050.5185581894805,2,21,0.5497553944587708,3.856455326080322,20.920095319120605,20.877404094430943,83.29511724351563,76.42696640980483,9.713172767078504e-05,0.0898760333657264,0,0,0
7055,240474.9805602509,2010-09-17 08:45:32,1080.5338161260222,2,21,0.5499359965324402,3.859531164169312,20.92468059862253,20.877404094430943,83.31280738063559,76.42696640980483,9.713172767078504e-05,0.0898760333657264,0,0,0
7056,240504.9958244631,2010-09-17 08:46:02,1110.5490803432413,2,21,0.5501165986061096,3.862607002258301,20.929265879848447,20.877404094430943,83.33051119580614,76.42696640980483,9.713172767078504e-05,0.0898760333657264,0,0,0
7057,240535.0112277174,2010-09-17 08:46:32,1140.564483592506,2,21,0.5501165986061096,3.86535906791687,20.933851222551738,20.877404094430943,83.34822834975073,76.42696640980483,9.713172767078504e-05,0.0898760333657264,0,0,0
7058,240565.0263700955,2010-09-17 08:47:02,1170.5796260006707,2,21,0.5499359965324402,3.86778736114502,20.93843647596655,20.877404094430943,83.36595773735584,76.42696640980483,3.237724376958795e-05,0.0898760333657264,0,0,0
7059,240595.0417562872,2010-09-17 08:47:32,1200.5950121572696,2,21,0.5499359965324402,3.870377540588379,20.94302177590661,20.877404094430943,83.38369936072539,76.42696640980483,3.237724376958795e-05,0.0898760333657264,0,0,0
7060,240625.05690125676,2010-09-17 08:48:02,1230.610157136853,2,21,0.5501165986061096,3.8729677200317374,20.947607058864797,20.877404094430943,83.40145237363032,76.42696640980483,6.47544875391759e-05,0.0898760333657264,0,0,0
7061,240655.0721862308,2010-09-17 08:48:32,1260.6254421910846,2,21,0.5499359965324402,3.8752341270446777,20.95219239723685,20.877404094430943,83.4192162899839,76.42696640980483,6.47544875391759e-05,0.0898760333657264,0,0,0
7062,240685.08741121003,2010-09-17 08:49:02,1290.640667095172,2,21,0.5499359965324402,3.8773386478424072,20.956777635905024,20.877404094430943,83.43698987306847,76.42696640980483,6.47544875391759e-05,0.0898760333657264,0,0,0
7063,240715.1026635476,2010-09-17 08:49:32,1320.6559194227127,2,21,0.5501165986061096,3.879281282424927,20.961362847022,20.877404094430943,83.45477273137534,76.42696640980483,3.237724376958795e-05,0.0898760333657264,0,0,0
7064,240745.11792956933,2010-09-17 08:50:02,1350.6711854494488,2,21,0.5499359965324402,3.8812239170074463,20.965948094028967,20.877404094430943,83.47256430302015,76.42696640980483,9.713172767078504e-05,0.0898760333657264,0,0,0
7065,240775.13334276344,2010-09-17 08:50:32,1380.6865986485498,2,21,0.5497553944587708,3.882680892944336,20.97053344171485,20.877404094430943,83.49036424954632,76.42696640980483,3.237724376958795e-05,0.0898760333657264,0,0,0
7066,240805.1484552369,2010-09-17 08:51:02,1410.7017111270054,2,21,0.5499359965324402,3.884299755096436,20.97511867297903,20.877404094430943,83.5081710900595,76.42696640980483,6.47544875391759e-05,0.0898760333657264,0,0,0
7067,240835.16384690723,2010-09-17 08:51:32,1440.717102837467,2,21,0.5499359965324402,3.885756731033325,20.979704050698643,20.877404094430943,83.52598508972055,76.42696640980483,6.47544875391759e-05,0.0898760333657264,0,0,0
7068,240865.1789778468,2010-09-17 08:52:02,1470.7322337218673,2,21,0.5501165986061096,3.887051820755005,20.98428932609474,20.877404094430943,83.54380499864827,76.42696640980483,3.237724376958795e-05,0.0898760333657264,0,0,0
7069,240895.19425218925,2010-09-17 08:52:32,1500.7475080894233,2,21,0.5499359965324402,3.8881850242614746,20.98887469178235,20.877404094430943,83.56163104831731,76.42696640980483,3.237724376958795e-05,0.0898760333657264,0,0,0
7070,240925.20962629572,2010-09-17 08:53:02,1530.7628822009551,2,21,0.5499359965324402,3.8894801139831534,20.99346003698387,20.877404094430943,83.5794625659637,76.42696640980483,3.237724376958795e-05,0.0898760333657264,0,0,0
7071,240955.2247629446,2010-09-17 08:53:32,1560.7780188447316,2,21,0.5499359965324402,3.890451431274414,20.998045393558403,20.877404094430943,83.59729928308423,76.42696640980483,3.237724376958795e-05,0.0898760333657264,0,0,0
7072,240985.2401321689,2010-09-17 08:54:02,1590.7933881442525,2,21,0.5499359965324402,3.891584634780884,21.002630785926584,20.877404094430943,83.61514123569809,76.42696640980483,3.237724376958795e-05,0.0898760333657264,0,0,0
7073,241015.25563389892,2010-09-17 08:54:32,1620.8088897791026,2,21,0.5501165986061096,3.8927178382873535,21.00721615998021,20.877404094430943,83.63298798220315,76.42696640980483,6.47544875391759e-05,0.0898760333657264,0,0,0
7074,241045.2705485386,2010-09-17 08:55:02,1650.8238044437849,2,21,0.5497553944587708,3.893689155578613,21.01180149698628,20.877404094430943,83.65083941319195,76.42696640980483,3.237724376958795e-05,0.0898760333657264,0,0,0
7075,241075.28613538612,2010-09-17 08:55:32,1680.8393912712888,2,21,0.5499359965324402,3.894660472869873,21.016386983253447,20.877404094430943,83.66869620446299,76.42696640980483,0.0,0.0898760333657264,0,0,0
7076,241105.3010768728,2010-09-17 08:56:02,1710.8543327579223,2,21,0.5501165986061096,3.895793676376343,21.02097237311725,20.877404094430943,83.68655683477954,76.42696640980483,3.237724376958795e-05,0.0898760333657264,0,0,0
7077,241135.316360709,2010-09-17 08:56:32,1740.8696165891013,2,21,0.5497553944587708,3.8967649936676025,21.025557733193427,20.877404094430943,83.70442235658003,76.42696640980483,3.237724376958795e-05,0.0898760333657264,0,0,0
7078,241165.3316036732,2010-09-17 08:57:02,1770.8848595532695,2,21,0.5499359965324402,3.8977363109588623,21.03014307153176,20.877404094430943,83.72229256877115,76.42696640980483,3.237724376958795e-05,0.0898760333657264,0,0,0
7079,241195.34691488263,2010-09-17 08:57:33,1800.9001708780766,2,21,0.5501165986061096,3.898869514465332,21.03472836354164,20.877404094430943,83.74016740807792,76.42696640980483,3.237724376958795e-05,0.0898760333657264,0,0,0
7080,241225.36215512003,2010-09-17 08:58:03,1830.9154111104256,2,21,0.5497553944587708,3.899840831756592,21.03931367117889,20.877404094430943,83.75804717721164,76.42696640980483,3.237724376958795e-05,0.0898760333657264,0,0,0
7081,241255.3775728204,2010-09-17 08:58:33,1860.9308295877013,2,21,0.5497553944587708,3.900812149047852,21.04389908520766,20.877404094430943,83.77593208449053,76.42696640980483,3.237724376958795e-05,0.0898760333657264,0,0,0
7082,241285.3925974345,2010-09-17 08:59:03,1890.9458533396823,2,21,0.5499359965324402,3.9021072387695312,21.04848435146528,20.877404094430943,83.79382134529088,76.42696640980483,3.237724376958795e-05,0.0898760333657264,0,0,0
7083,241315.40791745603,2010-09-17 08:59:33,1920.9611733311224,2,21,0.5501165986061096,3.903078556060791,21.05306962699048,20.877404094430943,83.81171559580177,76.42696640980483,0.0,0.0898760333657264,0,0,0
7084,241345.42318319704,2010-09-17 09:00:03,1950.9764390821704,2,21,0.5501165986061096,3.9042117595672607,21.05765490823249,20.877404094430943,83.82961482465568,76.42696640980483,0.0,0.0898760333657264,0,0,0
7085,241375.43845766984,2010-09-17 09:00:33,1980.9917135499768,2,21,0.5499359965324402,3.905183076858521,21.06224019718848,20.877404094430943,83.84751908675165,76.42696640980483,3.237724376958795e-05,0.0898760333657264,0,0,0
7086,241405.45367224817,2010-09-17 09:01:03,2011.006928123277,2,21,0.5499359965324402,3.9063162803649902,21.066825481537165,20.877404094430943,83.8654283243447,76.42696640980483,0.0,0.0898760333657264,0,0,0
7087,241435.46897495145,2010-09-17 09:01:33,2041.0222308265631,2,21,0.5499359965324402,3.90744948387146,21.07141081207731,20.877404094430943,83.88334295312916,76.42696640980483,0.0,0.0898760333657264,0,0,0
7088,241465.48420614123,2010-09-17 09:02:03,2071.0374620163407,2,21,0.5497553944587708,3.90874457359314,21.075995982415886,20.877404094430943,83.90126226114282,76.42696640980483,3.237724376958795e-05,0.0898760333657264,0,0,0
7089,241495.49948184716,2010-09-17 09:02:33,2101.052737742288,2,21,0.5499359965324402,3.90987777709961,21.080581120893253,20.877404094430943,83.91918684968353,76.42696640980483,3.237724376958795e-05,0.0898760333657264,0,0,0
7090,241525.5147346609,2010-09-17 09:03:03,2131.0679905309794,2,21,0.5499359965324402,3.910849094390869,21.08516625407549,20.877404094430943,83.93711669949235,76.42696640980483,3.237724376958795e-05,0.0898760333657264,0,0,0
7091,241555.53024383457,2010-09-17 09:03:33,2161.08349970966,2,21,0.5497553944587708,3.912306070327759,21.089751371113383,20.877404094430943,83.95505194149288,76.42696640980483,3.237724376958795e-05,0.0898760333657264,0,0,0
7092,241585.545276594,2010-09-17 09:04:03,2191.098532469125,2,21,0.5499359965324402,3.9132773876190186,21.09433664747487,20.877404094430943,83.97299324510917,76.42696640980483,0.0,0.0898760333657264,0,0,0
7093,241615.56061297137,2010-09-17 09:04:33,2221.1138688514798,2,21,0.5499359965324402,3.914572238922119,21.098922061224048,20.877404094430943,83.99094068553885,76.42696640980483,3.237724376958795e-05,0.0898760333657264,0,0,0
7094,241645.5757914997,2010-09-17 09:05:03,2251.129047374793,2,21,0.5501165986061096,3.915705442428589,21.10350754184344,20.877404094430943,84.0088939820631,76.42696640980483,0.0,0.0898760333657264,0,0,0
7095,241675.59105749635,2010-09-17 09:05:33,2281.144313401529,2,21,0.5501165986061096,3.917324304580689,21.108092971751773,20.877404094430943,84.026852777962,76.42696640980483,6.47544875391759e-05,0.0898760333657264,0,0,0
7096,241705.60632519727,2010-09-17 09:06:03,2311.1595810723693,2,21,0.5499359965324402,3.918619394302368,21.112678400741945,20.877404094430943,84.04481743544117,76.42696640980483,6.47544875391759e-05,0.0898760333657264,0,0,0
7097,241735.6216005974,2010-09-17 09:06:33,2341.1748565025778,2,21,0.5499359965324402,3.919752597808838,21.11726389481838,20.877404094430943,84.06278818344384,76.42696640980483,3.237724376958795e-05,0.0898760333657264,0,0,0
7098,241765.63685306028,2010-09-17 09:07:03,2371.1901089403937,2,21,0.5495747923851013,3.920885801315308,21.121849299307005,20.877404094430943,84.0807645142712,76.42696640980483,0.0,0.0898760333657264,0,0,0
7099,241795.65211954812,2010-09-17 09:07:33,2401.2053754332933,2,21,0.5497553944587708,3.9221808910369873,21.12643473045613,20.877404094430943,84.09874695438069,76.42696640980483,3.237724376958795e-05,0.0898760333657264,0,0,0
7100,241825.6675456194,2010-09-17 09:08:03,2431.220801509537,2,21,0.5501165986061096,3.923637866973877,21.131020216902325,20.877404094430943,84.11673566379233,76.42696640980483,6.47544875391759e-05,0.0898760333657264,0,0,0
7101,241855.682654148,2010-09-17 09:08:33,2461.235910023096,2,21,0.5501165986061096,3.9249329566955566,21.135605606877093,20.877404094430943,84.13473005362358,76.42696640980483,3.237724376958795e-05,0.0898760333657264,0,0,0
7102,241885.6980293924,2010-09-17 09:09:03,2491.251285297531,2,21,0.5499359965324402,3.926228046417236,21.140191099416292,20.877404094430943,84.15273095133358,76.42696640980483,3.237724376958795e-05,0.0898760333657264,0,0,0
7103,241915.71316776043,2010-09-17 09:09:33,2521.2664236605992,2,21,0.5501165986061096,3.927685022354126,21.14477650003748,20.877404094430943,84.17073769259562,76.42696640980483,3.237724376958795e-05,0.0898760333657264,0,0,0
7104,241945.72843176217,2010-09-17 09:10:03,2551.281687732456,2,21,0.5501165986061096,3.929141998291016,21.149361951451187,20.877404094430943,84.18875098618037,76.42696640980483,3.237724376958795e-05,0.0898760333657264,0,0,0
7105,241975.74388599364,2010-09-17 09:10:33,2581.2971418687416,2,21,0.5499359965324402,3.9304370880126953,21.153947352453564,20.877404094430943,84.2067704975476,76.42696640980483,3.237724376958795e-05,0.0898760333657264,0,0,0
7106,242005.7590187477,2010-09-17 09:11:03,2611.3122747180464,2,21,0.5499359965324402,3.931894063949585,21.15853282313819,20.877404094430943,84.22479674014056,76.42696640980483,3.237724376958795e-05,0.0898760333657264,0,0,0
7107,242035.7742610402,2010-09-17 09:11:33,2641.327516925325,2,21,0.5499359965324402,3.9331891536712646,21.16311828269993,20.877404094430943,84.24282946522597,76.42696640980483,3.237724376958795e-05,0.0898760333657264,0,0,0
7108,242065.7896046556,2010-09-17 09:12:03,2671.342860530709,2,21,0.5499359965324402,3.9346461296081534,21.16770372618579,20.877404094430943,84.26086869467917,76.42696640980483,3.237724376958795e-05,0.0898760333657264,0,0,0
7109,242095.8047816752,2010-09-17 09:12:33,2701.3580375502697,2,21,0.5499359965324402,3.936103105545044,21.172289263289137,20.877404094430943,84.27891497402379,76.42696640980483,0.0,0.0898760333657264,0,0,0
7110,242125.82002074964,2010-09-17 09:13:03,2731.3732766247285,2,21,0.5499359965324402,3.937721967697144,21.1768746950542,20.877404094430943,84.29696734707724,76.42696640980483,6.47544875391759e-05,0.0898760333657264,0,0,0
7111,242155.83528352823,2010-09-17 09:13:33,2761.3885394033564,2,21,0.5499359965324402,3.9390170574188232,21.18146013716798,20.877404094430943,84.3150266138031,76.42696640980483,0.0,0.0898760333657264,0,0,0
7112,242185.850548763,2010-09-17 09:14:03,2791.4038047433787,2,21,0.5499359965324402,3.940635919570923,21.18604551988969,20.877404094430943,84.33309243843523,76.42696640980483,6.47544875391759e-05,0.0898760333657264,0,0,0
7113,242215.86582557164,2010-09-17 09:14:33,2821.419081446765,2,21,0.5499359965324402,3.942092895507813,21.19063094913909,20.877404094430943,84.35116522911332,76.42696640980483,6.47544875391759e-05,0.0898760333657264,0,0,0
7114,242245.88108840043,2010-09-17 09:15:03,2851.4343442755185,2,21,0.5499359965324402,3.943549871444702,21.19521635877442,20.877404094430943,84.36924480800246,76.42696640980483,3.237724376958795e-05,0.0898760333657264,0,0,0
7115,242275.89672295703,2010-09-17 09:15:33,2881.4499788321614,2,21,0.5499359965324402,3.945006847381592,21.19980180637769,20.877404094430943,84.38733144444203,76.42696640980483,6.47544875391759e-05,0.0898760333657264,0,0,0
7116,242305.9115958174,2010-09-17 09:16:03,2911.4648516874818,2,21,0.5499359965324402,3.9466257095336914,21.204387111005246,20.877404094430943,84.40542458235899,76.42696640980483,3.237724376958795e-05,0.0898760333657264,0,0,0
7117,242335.9268665609,2010-09-17 09:16:33,2941.480122436004,2,21,0.5499359965324402,3.948244571685791,21.20897246189399,20.877404094430943,84.42352491065436,76.42696640980483,6.47544875391759e-05,0.0898760333657264,0,0,0
7118,242365.94224280276,2010-09-17 09:17:03,2971.4954986979037,2,21,0.5501165986061096,3.94986343383789,21.213557948968205,20.877404094430943,84.44163305012512,76.42696640980483,6.47544875391759e-05,0.0898760333657264,0,0,0
7119,242395.95737893024,2010-09-17 09:17:33,3001.5106348153654,2,21,0.5499359965324402,3.95132040977478,21.21814340096244,20.877404094430943,84.45974828666192,76.42696640980483,6.47544875391759e-05,0.0898760333657264,0,0,0
7120,242425.9726522452,2010-09-17 09:18:03,3031.5259081202694,2,21,0.5501165986061096,3.95310115814209,21.222728830958108,20.877404094430943,84.47787062583306,76.42696640980483,6.47544875391759e-05,0.0898760333657264,0,0,0
7121,242455.9879394748,2010-09-17 09:18:33,3061.5411953649686,2,21,0.5501165986061096,3.9547200202941895,21.22731432030371,20.877404094430943,84.49600061702787,76.42696640980483,3.237724376958795e-05,0.0898760333657264,0,0,0
7122,242486.00320212817,2010-09-17 09:19:03,3091.556458013272,2,21,0.5499359965324402,3.956338882446289,21.23189978759553,20.877404094430943,84.51413793511301,76.42696640980483,6.47544875391759e-05,0.0898760333657264,0,0,0
7123,242516.01860754783,2010-09-17 09:19:33,3121.571863422929,2,21,0.5499359965324402,3.9577958583831783,21.23648530311221,20.877404094430943,84.53228284954038,76.42696640980483,3.237724376958795e-05,0.0898760333657264,0,0,0
7124,242546.0337035401,2010-09-17 09:20:03,3151.586959420245,2,21,0.5501165986061096,3.9594147205352783,21.24107072659125,20.877404094430943,84.55043501927624,76.42696640980483,0.0,0.0898760333657264,0,0,0
7125,242576.04899271965,2010-09-17 09:20:33,3181.602248594761,2,21,0.5499359965324402,3.961195468902588,21.24565615528488,20.877404094430943,84.56859484075417,76.42696640980483,6.47544875391759e-05,0.0898760333657264,0,0,0
7126,242606.0642488768,2010-09-17 09:21:03,3211.617504756874,2,21,0.5501165986061096,3.962814331054688,21.250241605275345,20.877404094430943,84.5867624798648,76.42696640980483,3.237724376958795e-05,0.0898760333657264,0,0,0
7127,242636.07948995623,2010-09-17 09:21:33,3241.6327458363376,2,21,0.5501165986061096,3.964595079421997,21.25482704070413,20.877404094430943,84.60493790230989,76.42696640980483,6.47544875391759e-05,0.0898760333657264,0,0,0
7128,242666.09478422345,2010-09-17 09:22:03,3271.6480401286285,2,21,0.5499359965324402,3.9662139415740967,21.259412549863992,20.877404094430943,84.62312153422177,76.42696640980483,3.237724376958795e-05,0.0898760333657264,0,0,0
7129,242696.11015338765,2010-09-17 09:22:33,3301.663409292812,2,21,0.5501165986061096,3.9679946899414062,21.2639980993846,20.877404094430943,84.64131327616586,76.42696640980483,6.47544875391759e-05,0.0898760333657264,0,0,0
7130,242726.12527986604,2010-09-17 09:23:03,3331.678535741138,2,21,0.5501165986061096,3.969937324523926,21.268583544929964,20.877404094430943,84.65951264636884,76.42696640980483,6.47544875391759e-05,0.0898760333657264,0,0,0
7131,242756.14066945625,2010-09-17 09:23:33,3361.693925341333,2,21,0.5499359965324402,3.9715561866760254,21.273169066018788,20.877404094430943,84.6777204808787,76.42696640980483,3.237724376958795e-05,0.0898760333657264,0,0,0
7132,242786.1558018343,2010-09-17 09:24:03,3391.7090577094364,2,21,0.5499359965324402,3.973336935043335,21.27775460242829,20.877404094430943,84.69593670538222,76.42696640980483,3.237724376958795e-05,0.0898760333657264,0,0,0
7133,242816.1710816756,2010-09-17 09:24:33,3421.7243375506555,2,21,0.5497553944587708,3.9752795696258554,21.2823400574923,20.877404094430943,84.71416096416583,76.42696640980483,3.237724376958795e-05,0.0898760333657264,0,0,0
7134,242846.18632489536,2010-09-17 09:25:03,3451.739580770462,2,21,0.5499359965324402,3.977060317993164,21.28692555640794,20.877404094430943,84.73239389156457,76.42696640980483,3.237724376958795e-05,0.0898760333657264,0,0,0
7135,242876.2017031322,2010-09-17 09:25:33,3481.7549591075413,2,21,0.5497553944587708,3.9791648387908936,21.29151111251668,20.877404094430943,84.75063517614863,76.42696640980483,9.713172767078504e-05,0.0898760333657264,0,0,0
7136,242906.2168466381,2010-09-17 09:26:03,3511.7701025131964,2,21,0.5497553944587708,3.980783700942993,21.296096517218803,20.877404094430943,84.76888498018383,76.42696640980483,3.237724376958795e-05,0.0898760333657264,0,0,0
7137,242936.23245575125,2010-09-17 09:26:33,3541.785711626329,2,21,0.5499359965324402,3.982888221740722,21.30068197947728,20.877404094430943,84.78714390122892,76.42696640980483,6.47544875391759e-05,0.0898760333657264,0,0,0
7138,242966.24750808452,2010-09-17 09:27:03,3571.800763969678,2,21,0.5499359965324402,3.984830856323242,21.305267373961843,20.877404094430943,84.80541138336025,76.42696640980483,3.237724376958795e-05,0.0898760333657264,0,0,0
7139,242996.2626375103,2010-09-17 09:27:33,3601.815893385412,2,21,0.5501165986061096,3.9867734909057617,21.30985275329927,20.877404094430943,84.82368781551985,76.42696640980483,3.237724376958795e-05,0.0898760333657264,0,0,0
7140,243026.2780253612,2010-09-17 09:28:03,3631.8312812663153,2,21,0.5499359965324402,3.988716125488281,21.314438235041138,20.877404094430943,84.8419737646841,76.42696640980483,3.237724376958795e-05,0.0898760333657264,0,0,0
7141,243056.2931859196,2010-09-17 09:28:33,3661.8464417947102,2,21,0.5497553944587708,3.990658760070801,21.31902352978357,20.877404094430943,84.86026810689921,76.42696640980483,3.237724376958795e-05,0.0898760333657264,0,0,0
7142,243086.3084512095,2010-09-17 09:29:03,3691.861707084607,2,21,0.5499359965324402,3.99292516708374,21.323608943442867,20.877404094430943,84.87857224634013,76.42696640980483,9.713172767078504e-05,0.0898760333657264,0,0,0
7143,243116.32369064988,2010-09-17 09:29:34,3721.87694652498,2,21,0.5499359965324402,3.9948675632476807,21.32819427623696,20.877404094430943,84.89688537224058,76.42696640980483,3.237724376958795e-05,0.0898760333657264,0,0,0
7144,243146.338946832,2010-09-17 09:30:04,3751.892202707143,2,21,0.5499359965324402,3.99697208404541,21.33277966057118,20.877404094430943,84.91520820290032,76.42696640980483,6.47544875391759e-05,0.0898760333657264,0,0,0
7145,243176.3543526527,2010-09-17 09:30:34,3781.9076085378506,2,21,0.5499359965324402,3.9989147186279297,21.33736517140408,20.877404094430943,84.93354105608208,76.42696640980483,3.237724376958795e-05,0.0898760333657264,0,0,0
7146,243206.369477878,2010-09-17 09:31:04,3811.9227337781617,2,21,0.5501165986061096,4.001181125640869,21.341950494297752,20.877404094430943,84.9518827886008,76.42696640980483,3.23295607813634e-05,0.0898760333657264,0,0,0
7147,243236.38486529276,2010-09-17 09:31:34,3841.938121177863,2,21,0.5499359965324402,4.003123760223389,21.346535925110658,20.877404094430943,84.97023467833769,76.42696640980483,0.0,0.0898760333657264,0,0,0
7148,243266.40014404125,2010-09-17 09:32:04,3871.9533999163295,2,21,0.5501165986061096,4.005390167236328,21.35112129984579,20.877404094430943,84.98859607021849,76.42696640980483,6.47544875391759e-05,0.0898760333657264,0,0,0
7149,243296.41531506585,2010-09-17 09:32:34,3901.9685709509504,2,21,0.5501165986061096,4.007494926452637,21.355706663466968,20.877404094430943,85.00696730758993,76.42696640980483,3.24249267578125e-05,0.0898760333657264,0,0,0
7150,243326.4305223409,2010-09-17 09:33:04,3931.9837782210207,2,21,0.5497553944587708,4.009761333465576,21.36029208415055,20.877404094430943,85.02534865103239,76.42696640980483,6.47544875391759e-05,0.0898760333657264,0,0,0
7151,243356.44581538008,2010-09-17 09:33:34,3961.9990713504094,2,21,0.5499359965324402,4.011865615844727,21.364877392412076,20.877404094430943,85.04373949984911,76.42696640980483,9.70840483205393e-05,0.0898760333657264,0,0,0
7152,243386.4618648424,2010-09-17 09:34:04,3992.015120717483,2,21,0.5499359965324402,4.013970375061035,21.369462934959586,20.877404094430943,85.06214135935673,76.42696640980483,3.24249267578125e-05,0.0898760333657264,0,0,0
7153,243416.4763413784,2010-09-17 09:34:34,4022.029597278592,2,21,0.5499359965324402,4.0163984298706055,21.374048250911184,20.877404094430943,85.08055235968914,76.42696640980483,6.47544875391759e-05,0.0898760333657264,0,0,0
7154,243446.49161134,2010-09-17 09:35:04,4052.044867240149,2,21,0.5499359965324402,4.018341064453125,21.37863359486884,20.877404094430943,85.09897361814893,76.42696640980483,0.0,0.0898760333657264,0,0,0
7155,243476.5070884085,2010-09-17 09:35:34,4082.060344283616,2,21,0.5499359965324402,4.0207695960998535,21.38321894196663,20.877404094430943,85.11740502783655,76.42696640980483,6.47544875391759e-05,0.0898760333657264,0,0,0
7156,243506.52210566928,2010-09-17 09:36:04,4112.075361544394,2,21,0.5499359965324402,4.023197650909424,21.387804275747232,20.877404094430943,85.13584679589192,76.42696640980483,6.47544875391759e-05,0.0898760333657264,0,0,0
7157,243536.53779323824,2010-09-17 09:36:34,4142.091049178526,2,21,0.5497553944587708,4.025302410125732,21.392389681413302,20.877404094430943,85.15429917338264,76.42696640980483,6.47544875391759e-05,0.0898760333657264,0,0,0
7158,243566.55247209937,2010-09-17 09:37:04,4172.105727758906,2,21,0.5499359965324402,4.027568817138672,21.39697496180557,20.877404094430943,85.17276145174303,76.42696640980483,6.47544875391759e-05,0.0898760333657264,0,0,0
7159,243596.56808324755,2010-09-17 09:37:34,4202.121339217893,2,21,0.5501165986061096,4.030158996582031,21.40156034401428,20.877404094430943,85.19123460687888,76.42696640980483,0.0001295089750783,0.0898760333657264,0,0,0
7160,243626.5831519367,2010-09-17 09:38:04,4232.136407811808,2,21,0.5497553944587708,4.032101631164551,21.40614563330455,20.877404094430943,85.20971796511061,76.42696640980483,0.0,0.0898760333657264,0,0,0
7161,243656.60160123932,2010-09-17 09:38:34,4262.154857214739,2,21,0.5501165986061096,4.034529685974121,21.41073146265293,20.877404094430943,85.22821426298634,76.42696640980483,6.47544875391759e-05,0.0898760333657264,0,0,0
7162,243686.6132861471,2010-09-17 09:39:04,4292.166541796639,2,21,0.5499359965324402,4.036957740783691,21.41531628793188,20.877404094430943,85.24671725925973,76.42696640980483,3.23295607813634e-05,0.0898760333657264,0,0,0
7163,243716.6135418157,2010-09-17 09:39:34,4322.166797685762,2,21,0.5499359965324402,4.039224147796631,21.419899422411216,20.877404094430943,85.26522431764515,76.42696640980483,6.47544875391759e-05,0.0898760333657264,0,0,0
7164,243746.62875890025,2010-09-17 09:40:04,4352.182014795393,2,21,0.5499359965324402,4.041652679443359,21.424484726847176,20.877404094430943,85.28375093947547,76.42696640980483,9.71794142969884e-05,0.0898760333657264,0,0,0
7165,243776.6439145615,2010-09-17 09:40:34,4382.197170627065,2,21,0.5497553944587708,4.04408073425293,21.429070034951053,20.877404094430943,85.30228869116088,76.42696640980483,6.47544875391759e-05,0.0898760333657264,0,0,0
7166,243806.66186618188,2010-09-17 09:41:04,4412.215122092068,2,21,0.5499359965324402,4.046509265899658,21.43365582721241,20.877404094430943,85.32083961034937,76.42696640980483,6.47544875391759e-05,0.0898760333657264,0,0,0
7167,243836.67453271488,2010-09-17 09:41:34,4442.227788620055,2,21,0.5499359965324402,4.0489373207092285,21.43824079562681,20.877404094430943,85.33939850645862,76.42696640980483,6.47544875391759e-05,0.0898760333657264,0,0,0
7168,243866.6896505567,2010-09-17 09:42:04,4472.242906431824,2,21,0.5501165986061096,4.051527500152588,21.44282620168264,20.877404094430943,85.35797056908649,76.42696640980483,9.70840483205393e-05,0.0898760333657264,0,0,0
7169,243896.70506371072,2010-09-17 09:42:34,4502.258319605863,2,21,0.5499359965324402,4.054117679595947,21.447411591490525,20.877404094430943,85.37655411456689,76.42696640980483,9.70840483205393e-05,0.0898760333657264,0,0,0
7170,243926.720208169,2010-09-17 09:43:04,4532.273464124295,2,21,0.5495747923851013,4.056546211242676,21.451997000338096,20.877404094430943,85.39514943818388,76.42696640980483,3.24249267578125e-05,0.0898760333657264,0,0,0
7171,243956.73544672216,2010-09-17 09:43:34,4562.288702597252,2,21,0.5499359965324402,4.059298038482666,21.456582383740447,20.877404094430943,85.41375639982228,76.42696640980483,6.47544875391759e-05,0.0898760333657264,0,0,0
7172,243986.7507188892,2010-09-17 09:44:04,4592.303974764315,2,21,0.5499359965324402,4.0615644454956055,21.461167802198137,20.877404094430943,85.4323751608115,76.42696640980483,3.23295607813634e-05,0.0898760333657264,0,0,0
7173,244016.76599038465,2010-09-17 09:44:34,4622.319246264715,2,21,0.5499359965324402,4.064316749572754,21.465753163452103,20.877404094430943,85.4510056419272,76.42696640980483,3.24249267578125e-05,0.0898760333657264,0,0,0
7174,244046.7812399653,2010-09-17 09:45:04,4652.334495840387,2,21,0.5501165986061096,4.067068576812744,21.470338550524623,20.877404094430943,85.46964836952844,76.42696640980483,9.70840483205393e-05,0.0898760333657264,0,0,0
7175,244076.79603448007,2010-09-17 09:45:34,4682.349290129592,2,21,0.5499359965324402,4.069820880889893,21.474923827178756,20.877404094430943,85.48830295535846,76.42696640980483,9.71794142969884e-05,0.0898760333657264,0,0,0
7176,244106.7962014923,2010-09-17 09:46:04,4712.349457467679,2,21,0.5495747923851013,4.072411060333252,21.4795068645658,20.877404094430943,85.5069607905167,76.42696640980483,6.47544875391759e-05,0.0898760333657264,0,0,0
7177,244136.7964102087,2010-09-17 09:46:34,4742.349666093826,2,21,0.5499359965324402,4.075162887573242,21.484089889526825,20.877404094430943,85.52563107716058,76.42696640980483,6.47544875391759e-05,0.0898760333657264,0,0,0
7178,244166.8106323999,2010-09-17 09:47:04,4772.363887964188,2,21,0.5499359965324402,4.077753067016602,21.48867513138117,20.877404094430943,85.54432306939637,76.42696640980483,3.23295607813634e-05,0.0898760333657264,0,0,0
7179,244196.81068841508,2010-09-17 09:47:34,4802.36394429017,2,21,0.5499359965324402,4.08082914352417,21.49325811257116,20.877404094430943,85.56301862903369,76.42696640980483,9.71794142969884e-05,0.0898760333657264,0,0,0
7180,244226.82633948297,2010-09-17 09:48:04,4832.379595358028,2,21,0.5497553944587708,4.08358097076416,21.49784348735185,20.877404094430943,85.58173672217355,76.42696640980483,6.47544875391759e-05,0.0898760333657264,0,0,0
7181,244256.8412728644,2010-09-17 09:48:34,4862.39452873943,2,21,0.5499359965324402,4.086333274841309,21.50242879993207,20.877404094430943,85.60046757353486,76.42696640980483,6.47544875391759e-05,0.0898760333657264,0,0,0
7182,244286.85652682596,2010-09-17 09:49:04,4892.40978270105,2,21,0.5499359965324402,4.089085102081299,21.507014185015827,20.877404094430943,85.61921175413785,76.42696640980483,0.0,0.0898760333657264,0,0,0
7183,244316.87146371108,2010-09-17 09:49:34,4922.424719285447,2,21,0.5501165986061096,4.092161178588867,21.51159946886143,20.877404094430943,85.63796868395097,76.42696640980483,9.71794142969884e-05,0.0898760333657264,0,0,0
7184,244346.8717858356,2010-09-17 09:50:04,4952.42504172068,2,21,0.5499359965324402,4.094913005828857,21.51618249084403,20.877404094430943,85.65672960175418,76.42696640980483,6.47544875391759e-05,0.0898760333657264,0,0,0
7185,244376.88667781863,2010-09-17 09:50:34,4982.43993369372,2,21,0.5499359965324402,4.097989082336426,21.52076780604743,20.877404094430943,85.67551337096688,76.42696640980483,6.47544875391759e-05,0.0898760333657264,0,0,0
7186,244406.90191884292,2010-09-17 09:51:04,5012.455174718047,2,21,0.5501165986061096,4.100903034210205,21.525353182545032,20.877404094430943,85.69431100051305,76.42696640980483,6.47544875391759e-05,0.0898760333657264,0,0,0
7187,244436.9171976516,2010-09-17 09:51:34,5042.470453526687,2,21,0.5499359965324402,4.104140758514404,21.5299385661086,20.877404094430943,85.71312243801948,76.42696640980483,9.71794142969884e-05,0.0898760333657264,0,0,0
7188,244466.9324809916,2010-09-17 09:52:04,5072.48573686664,2,21,0.5499359965324402,4.107054710388184,21.534524033701697,20.877404094430943,85.73194829799328,76.42696640980483,6.47544875391759e-05,0.0898760333657264,0,0,0
7189,244496.9477311737,2010-09-17 09:52:34,5102.500987078901,2,21,0.5499359965324402,4.109968662261963,21.539109431929003,20.877404094430943,85.75078802389233,76.42696640980483,3.24249267578125e-05,0.0898760333657264,0,0,0
7190,244526.9630179623,2010-09-17 09:53:04,5132.5162738373865,2,21,0.5499359965324402,4.113368034362793,21.54369484340277,20.877404094430943,85.76964215918758,76.42696640980483,6.47544875391759e-05,0.0898760333657264,0,0,0
7191,244556.9782510969,2010-09-17 09:53:34,5162.531506972018,2,21,0.5501165986061096,4.116605758666992,21.548280167086837,20.877404094430943,85.78851034710533,76.42696640980483,9.71794142969884e-05,0.0898760333657264,0,0,0
7192,244586.99364937376,2010-09-17 09:54:04,5192.546905253884,2,21,0.5497553944587708,4.119681358337402,21.55286556199496,20.877404094430943,85.80739336280845,76.42696640980483,6.47544875391759e-05,0.0898760333657264,0,0,0
7193,244617.0087959724,2010-09-17 09:54:34,5222.562051847496,2,21,0.5501165986061096,4.122757434844971,21.557450949182467,20.877404094430943,85.82629099816403,76.42696640980483,6.47544875391759e-05,0.0898760333657264,0,0,0
7194,244647.02413649508,2010-09-17 09:55:04,5252.577392370185,2,21,0.5499359965324402,4.126156806945801,21.56203644662501,20.877404094430943,85.84520379304607,76.42696640980483,9.70840483205393e-05,0.0898760333657264,0,0,0
7195,244677.039338101,2010-09-17 09:55:34,5282.592593976117,2,21,0.5499359965324402,4.12939453125,21.56662185541988,20.877404094430943,85.86413105418691,76.42696640980483,9.70840483205393e-05,0.0898760333657264,0,0,0
7196,244707.05471286416,2010-09-17 09:56:04,5312.607968754314,2,21,0.5499359965324402,4.132470607757568,21.571207277322173,20.877404094430943,85.88307340743991,76.42696640980483,3.24249267578125e-05,0.0898760333657264,0,0,0
7197,244737.0698600643,2010-09-17 09:56:34,5342.623116029627,2,21,0.5499359965324402,4.135869979858398,21.57579267955749,20.877404094430943,85.90203061794064,76.42696640980483,9.70840483205393e-05,0.0898760333657264,0,0,0
7198,244767.08508228668,2010-09-17 09:57:04,5372.638338161796,2,21,0.5497553944587708,4.139107704162598,21.58037801817959,20.877404094430943,85.92100272983126,76.42696640980483,6.47544875391759e-05,0.0898760333657264,0,0,0
7199,244797.1005436811,2010-09-17 09:57:34,5402.653799651437,2,21,0.5497553944587708,4.142507553100586,21.584963442150173,20.877404094430943,85.9399905830102,76.42696640980483,6.47544875391759e-05,0.0898760333657264,0,0,0
7200,244827.11567990383,2010-09-17 09:58:04,5432.668935879176,2,21,0.5501165986061096,4.145906925201416,21.58954879496047,20.877404094430943,85.9589937172838,76.42696640980483,9.70840483205393e-05,0.0898760333657264,0,0,0
7201,244857.1310089228,2010-09-17 09:58:34,5462.684264913188,2,21,0.5497553944587708,4.149306774139404,21.59413418664325,20.877404094430943,85.9780128044761,76.42696640980483,3.24249267578125e-05,0.0898760333657264,0,0,0
7202,244887.1457772121,2010-09-17 09:59:04,5492.699032776431,2,21,0.5497553944587708,4.152868270874023,21.59871936179944,20.877404094430943,85.99704671011966,76.42696640980483,0.0001295089750783,0.0898760333657264,0,0,0
7203,244917.1613851122,2010-09-17 09:59:34,5522.714641107611,2,21,0.5499359965324402,4.1562676429748535,21.60330469697334,20.877404094430943,86.01609699520486,76.42696640980483,6.47544875391759e-05,0.0898760333657264,0,0,0
7204,244947.17672954468,2010-09-17 10:00:04,5552.72998541976,2,21,0.550297200679779,4.159829139709473,21.60789097413248,20.877404094430943,86.03516712173007,76.42696640980483,9.70840483205393e-05,0.0898760333657264,0,0,0
7205,244977.1919100028,2010-09-17 10:00:34,5582.745165907978,2,21,0.5499359965324402,4.163390636444092,21.612477149914888,20.877404094430943,86.0542527881466,76.42696640980483,0.0001295089750783,0.0898760333657264,0,0,0
7206,245007.20725044023,2010-09-17 10:01:04,5612.76050631538,2,21,0.5501165986061096,4.16679048538208,21.617063357605527,20.877404094430943,86.07335457748462,76.42696640980483,9.71794142969884e-05,0.0898760333657264,0,0,0
7207,245037.22253379528,2010-09-17 10:01:34,5642.77578967037,2,21,0.5501165986061096,4.17051362991333,21.621649694484788,20.877404094430943,86.0924730593985,76.42696640980483,0.0001295089750783,0.0898760333657264,0,0,0
7208,245067.2377878872,2010-09-17 10:02:04,5672.791043762314,2,21,0.5499359965324402,4.173913478851318,21.626236069026948,20.877404094430943,86.11160808705917,76.42696640980483,6.47544875391759e-05,0.0898760333657264,0,0,0
7209,245097.2532029911,2010-09-17 10:02:34,5702.80645886617,2,21,0.5501165986061096,4.1774749755859375,21.630822445489343,20.877404094430943,86.13075953693789,76.42696640980483,9.71794142969884e-05,0.0898760333657264,0,0,0
7210,245127.26832514867,2010-09-17 10:03:04,5732.821581018774,2,21,0.5499359965324402,4.181036472320557,21.63540800307985,20.877404094430943,86.1499242457899,76.42696640980483,6.47544875391759e-05,0.0898760333657264,0,0,0
7211,245157.2835812907,2010-09-17 10:03:34,5762.836837165848,2,21,0.5499359965324402,4.184921741485596,21.63999349176035,20.877404094430943,86.16910551004764,76.42696640980483,9.71794142969884e-05,0.0898760333657264,0,0,0
7212,245187.29885573848,2010-09-17 10:04:05,5792.852111608592,2,21,0.5497553944587708,4.188483238220215,21.64457895939009,20.877404094430943,86.18830357332456,76.42696640980483,6.47544875391759e-05,0.0898760333657264,0,0,0
7213,245217.31450839032,2010-09-17 10:04:35,5822.867764265417,2,21,0.5499359965324402,4.192206382751465,21.649164465949628,20.877404094430943,86.20751900909552,76.42696640980483,6.47544875391759e-05,0.0898760333657264,0,0,0
7214,245247.3294115112,2010-09-17 10:05:05,5852.882667381271,2,21,0.5499359965324402,4.196091651916504,21.65374997366833,20.877404094430943,86.22675176535436,76.42696640980483,0.0001295089750783,0.0898760333657264,0,0,0
7215,245277.2665363956,2010-09-17 10:05:34,5882.819792265694,2,21,0.5501165986061096,4.200138568878174,21.658323577220063,20.877404094430943,86.24595195720906,76.42696640980483,0.0001295089750783,0.0898760333657264,0,0,0
7216,245307.27458724665,2010-09-17 10:06:05,30.0152959865202,3,21,0.0,4.117414951324463,21.658323577220063,20.877404094430943,86.24595195720906,76.42696640980483,-0.0004209518374409,0.0898760333657264,0,0,0
7217,245337.2898214339,2010-09-17 10:06:35,60.03053016876742,3,21,0.0,4.107216358184815,21.658323577220063,20.877404094430943,86.24595195720906,76.42696640980483,-0.0001942634553415,0.0898760333657264,0,0,0
7218,245367.305086804,2010-09-17 10:07:05,90.04579554387682,3,21,0.0,4.101064682006836,21.658323577220063,20.877404094430943,86.24595195720906,76.42696640980483,-0.0001295089750783,0.0898760333657264,0,0,0
7219,245397.27349395372,2010-09-17 10:07:35,120.01420268863431,3,21,0.0,4.097341537475586,21.658323577220063,20.877404094430943,86.24595195720906,76.42696640980483,-9.70840483205393e-05,0.0898760333657264,0,0,0
7220,245397.28344117876,2010-09-17 10:07:35,0.015762159775748,4,21,0.9974858164787292,4.199653148651123,21.658327944589672,20.877404094430943,86.24597029864658,76.42696640980483,0.0,0.0898760333657264,0,0,0
7221,245398.1896697096,2010-09-17 10:07:36,0.921990685595968,4,21,0.9472764134407043,4.199653148651123,21.65857104985418,20.877404094430943,86.2469912564699,76.42696640980483,0.0,0.0898760333657264,0,0,0
7222,245400.3460188287,2010-09-17 10:07:38,3.078339899981107,4,21,0.8970670104026794,4.199653148651123,21.659122186003287,20.877404094430943,86.24930583692502,76.42696640980483,0.0,0.0898760333657264,0,0,0
7223,245403.50211009305,2010-09-17 10:07:41,6.234431074104206,4,21,0.8470382690429688,4.199653148651123,21.659885620548742,20.877404094430943,86.25251199976806,76.42696640980483,0.0,0.0898760333657264,0,0,0
7224,245407.7988293604,2010-09-17 10:07:45,10.531150336416673,4,21,0.7970094680786133,4.199491024017334,21.660865700624928,20.877404094430943,86.25662802051221,76.42696640980483,-3.24249267578125e-05,0.0898760333657264,0,0,0
7225,245413.32999707092,2010-09-17 10:07:51,16.062318056996116,4,21,0.7469807267189026,4.199653148651123,21.662050405581446,20.877404094430943,86.26160340503522,76.42696640980483,3.24249267578125e-05,0.0898760333657264,0,0,0
7226,245420.4392798545,2010-09-17 10:07:58,23.171600835547192,4,21,0.6969519853591919,4.199491024017334,21.66347414900397,20.877404094430943,86.26758267955226,76.42696640980483,-3.24249267578125e-05,0.0898760333657264,0,0,0
7227,245429.84544201236,2010-09-17 10:08:07,32.57776298838254,4,21,0.6469231843948364,4.199653148651123,21.66522680385001,20.877404094430943,86.27494329605518,76.42696640980483,0.0,0.0898760333657264,0,0,0
7228,245442.73594424909,2010-09-17 10:08:20,45.46826532536986,4,21,0.5968944430351257,4.199653148651123,21.667448990779093,20.877404094430943,86.28427579878449,76.42696640980483,-3.23295607813634e-05,0.0898760333657264,0,0,0
7229,245461.97003609143,2010-09-17 10:08:39,64.70235707246164,4,21,0.5468656420707703,4.199653148651123,21.670495013528043,20.877404094430943,86.29706814322438,76.42696640980483,0.0,0.0898760333657264,0,0,0
7230,245493.32904351843,2010-09-17 10:09:11,96.0613644944496,4,21,0.4968368709087372,4.199491024017334,21.67502237113227,20.877404094430943,86.31608163317283,76.42696640980483,-3.24249267578125e-05,0.0898760333657264,0,0,0
7231,245549.68772748412,2010-09-17 10:10:07,152.42004846019486,4,21,0.4468080997467041,4.199653148651123,21.682376191648085,20.877404094430943,86.34696542459464,76.42696640980483,0.0,0.0898760333657264,0,0,0
7232,245638.54642132955,2010-09-17 10:11:36,241.2787423106138,4,21,0.396779328584671,4.199653148651123,21.69275587018325,20.877404094430943,86.39055691167026,76.42696640980483,0.0,0.0898760333657264,0,0,0
7233,245753.49789543377,2010-09-17 10:13:31,356.23021641482006,4,21,0.3467505574226379,4.199653148651123,21.70460801516088,20.877404094430943,86.44033231226165,76.42696640980483,3.24249267578125e-05,0.0898760333657264,0,0,0
7234,245892.3400511548,2010-09-17 10:15:50,495.0723722310691,4,21,0.2967217862606048,4.199814796447754,21.717001279822085,20.877404094430943,86.49238023861055,76.42696640980483,3.23295607813634e-05,0.0898760333657264,0,0,0
7235,246060.7285255027,2010-09-17 10:18:38,663.4608464837228,4,21,0.2466930299997329,4.199653148651123,21.729683085309023,20.877404094430943,86.5456400065344,76.42696640980483,0.0,0.0898760333657264,0,0,0
7236,246267.92914059496,2010-09-17 10:22:05,870.6614615810236,4,21,0.1964836567640304,4.199653148651123,21.74240810568376,20.877404094430943,86.59908120317125,76.42696640980483,-3.23295607813634e-05,0.0898760333657264,0,0,0
7237,246544.03542593107,2010-09-17 10:26:42,1146.7677469121,4,21,0.1464548856019973,4.199653148651123,21.75550496963821,20.877404094430943,86.65408406681411,76.42696640980483,0.0,0.0898760333657264,0,0,0
7238,246955.32717011016,2010-09-17 10:33:33,1558.059491091224,4,21,0.0962455049157142,4.199653148651123,21.76920939314473,20.877404094430943,86.71163849417468,76.42696640980483,0.0,0.0898760333657264,0,0,0
7239,247648.64703387476,2010-09-17 10:45:06,2251.379354940987,4,21,0.0498289167881011,4.199653148651123,21.78280196283919,20.877404094430943,86.7687231147745,76.42696640980483,0.0,0.0898760333657264,0,0,0
7240,247678.66775889703,2010-09-17 10:45:36,30.015255710986267,5,21,0.0,4.191882610321045,21.78280196283919,20.877404094430943,86.7687231147745,76.42696640980483,-6.47544875391759e-05,0.0898760333657264,0,0,0
7241,247708.66739371588,2010-09-17 10:46:06,60.01489052982252,5,21,0.0,4.190749645233154,21.78280196283919,20.877404094430943,86.7687231147745,76.42696640980483,0.0,0.0898760333657264,0,0,0
7242,247708.86124923683,2010-09-17 10:46:07,0.187626208882942,6,21,-1.9243103452026844e-05,4.190911293029785,21.78280196283919,20.877404095433864,86.7687231147745,76.42696641400798,0.0,0.0923051163554191,0,0,0
7243,247713.6891951476,2010-09-17 10:46:11,5.015572114624582,6,21,0.0005225847125984,4.190749645233154,21.782802652515876,20.877404095684028,86.76872600509564,76.42696641505636,-3.23295607813634e-05,0.0923051163554191,0,0,0
7244,247743.7109574584,2010-09-17 10:46:42,30.01548067753739,7,21,-1.099568486213684,4.018503189086914,21.782802652515876,20.88657240920288,86.76872600509564,76.46400400633343,-0.0008741378551349,0.0923051163554191,0,0,0
7245,247773.72611901432,2010-09-17 10:47:12,60.03064245404876,7,21,-1.0997490882873535,3.9917919635772714,21.782802652515876,20.895740594049443,86.76872600509564,76.50071428449168,-0.0005827426793985,0.0923051163554191,0,0,0
7246,247803.7412706004,2010-09-17 10:47:42,90.04579381957271,7,21,-1.0993878841400146,3.973498821258545,21.782802652515876,20.90490882928117,86.76872600509564,76.53722366186167,-0.0004209041653666,0.0923051163554191,0,0,0
7247,247833.7566725414,2010-09-17 10:48:12,120.0611957605716,7,21,-1.0997490882873535,3.9594147205352783,21.782802652515876,20.91407700673204,86.76872600509564,76.57358705306744,-0.0003561496851034,0.0923051163554191,0,0,0
7248,247863.77182956607,2010-09-17 10:48:42,150.07635278522156,7,21,-1.099568486213684,3.947758913040161,21.782802652515876,20.92324512354673,86.76872600509564,76.60983342013056,-0.0003237724304199,0.0923051163554191,0,0,0
7249,247893.78718951723,2010-09-17 10:49:12,180.0917127364074,7,21,-1.0997490882873535,3.937398195266724,21.782802652515876,20.932413305331924,86.76872600509564,76.64597944502991,-0.0002913951757363,0.0923051163554191,0,0,0
7250,247923.78814428588,2010-09-17 10:49:42,210.0926676002792,7,21,-1.0997490882873535,3.927846908569336,21.782802652515876,20.94157710858057,86.76872600509564,76.68201710772351,-0.0002590179501567,0.0923051163554191,0,0,0
7251,247953.80197547103,2010-09-17 10:50:12,240.10649869019207,7,21,-1.099568486213684,3.918943166732788,21.782802652515876,20.95074485614328,86.76872600509564,76.71798539089916,-0.0002590179501567,0.0923051163554191,0,0,0
7252,247983.8172402948,2010-09-17 10:50:42,270.12176351392515,7,21,-1.0993878841400146,3.9103634357452393,21.782802652515876,20.959913003235883,86.76872600509564,76.75387438855907,-0.0001942634553415,0.0923051163554191,0,0,0
7253,248013.83250982023,2010-09-17 10:51:12,300.13703303939445,7,21,-1.099568486213684,3.9017834663391113,21.782802652515876,20.969081140496908,86.76872600509564,76.78968539974728,-0.0002266406954731,0.0923051163554191,0,0,0
7254,248043.8477663733,2010-09-17 10:51:42,330.1522896025078,7,21,-1.099568486213684,3.893689155578613,21.782802652515876,20.97824929394392,86.76872600509564,76.82542071244644,-0.0002266406954731,0.0923051163554191,0,0,0
7255,248073.86303083115,2010-09-17 10:52:12,360.1675540503025,7,21,-1.099568486213684,3.885756731033325,21.782802652515876,20.987417446451463,86.76872600509564,76.86108275160798,-0.0002266406954731,0.0923051163554191,0,0,0
7256,248103.87843075712,2010-09-17 10:52:42,390.1829539762715,7,21,-1.0997490882873535,3.877986192703247,21.782802652515876,20.996585704164705,86.76872600509564,76.89667270239809,-0.0001942634553415,0.0923051163554191,0,0,0
7257,248133.8935632405,2010-09-17 10:53:12,420.1980864596627,7,21,-1.099568486213684,3.870377540588379,21.782802652515876,21.005753830985697,86.76872600509564,76.93219096659928,-0.0001942634553415,0.0923051163554191,0,0,0
7258,248163.90878410448,2010-09-17 10:53:42,450.2133073336906,7,21,-1.0997490882873535,3.862607002258301,21.782802652515876,21.014922016489063,86.76872600509564,76.96763955386777,-0.0002266406954731,0.0923051163554191,0,0,0
7259,248193.92461106644,2010-09-17 10:54:12,480.2291343006196,7,21,-1.099568486213684,3.855322122573853,21.782802652515876,21.024090428054578,86.76872600509564,77.00302027186781,-0.0001942634553415,0.0923051163554191,0,0,0
7260,248223.93943086427,2010-09-17 10:54:42,510.2439542689251,7,21,-1.099568486213684,3.848037242889404,21.782802652515876,21.03325846840372,86.76872600509564,77.03833159426725,-0.0001618862152099,0.0923051163554191,0,0,0
7261,248253.9546697683,2010-09-17 10:55:12,540.2591929824832,7,21,-1.0997490882873535,3.840428590774536,21.782802652515876,21.04242670539683,86.76872600509564,77.0735764382802,-0.0002266406954731,0.0923051163554191,0,0,0
7262,248283.96998785503,2010-09-17 10:55:42,570.2745110791938,7,21,-1.099568486213684,3.833305597305298,21.782802652515876,21.05159495807282,86.76872600509564,77.1087549527971,-0.0001942634553415,0.0923051163554191,0,0,0
7263,248313.98515347112,2010-09-17 10:56:12,600.2896766902768,7,21,-1.099568486213684,3.8265066146850586,21.782802652515876,21.060763080058404,86.76872600509564,77.14386731256475,-0.0001295089750783,0.0923051163554191,0,0,0
7264,248344.00053251497,2010-09-17 10:56:42,630.3050558293586,7,21,-1.099929690361023,3.81938362121582,21.782802652515876,21.06993130758335,86.76872600509564,77.17891580949987,-0.0001618862152099,0.0923051163554191,0,0,0
7265,248374.01592316275,2010-09-17 10:57:12,660.3204464721555,7,21,-1.099568486213684,3.812260627746582,21.782802652515876,21.079099491426543,86.76872600509564,77.21390063951775,-0.0002590179501567,0.0923051163554191,0,0,0
7266,248404.03053354792,2010-09-17 10:57:42,690.335056541521,7,21,-1.0997490882873535,3.8056232929229736,21.782802652515876,21.088267438308403,86.76872600509564,77.2488212660359,-0.0001942634553415,0.0923051163554191,0,0,0
7267,248434.030600726,2010-09-17 10:58:12,720.3351239451554,7,21,-1.0997490882873535,3.798985958099365,21.782802652515876,21.09743096089895,86.76872600509564,77.283663979481,-0.0001942634553415,0.0923051163554191,0,0,0
7268,248464.04556010227,2010-09-17 10:58:42,750.3500830958816,7,21,-1.099568486213684,3.7926723957061768,21.782802652515876,21.106599162359643,86.76872600509564,77.3184644468776,-0.0001295089750783,0.0923051163554191,0,0,0
7269,248494.04622821536,2010-09-17 10:59:12,780.3507516250179,7,21,-1.099568486213684,3.786035060882568,21.782802652515876,21.115762951718832,86.76872600509564,77.35318907855043,-0.0001942634553415,0.0923051163554191,0,0,0
7270,248524.0609430112,2010-09-17 10:59:42,810.3654663305712,7,21,-1.0997490882873535,3.77988338470459,21.782802652515876,21.124931024510264,86.76872600509564,77.3878719861722,-0.0001942634553415,0.0923051163554191,0,0,0
7271,248554.0760686725,2010-09-17 11:00:12,840.3805918916835,7,21,-1.0997490882873535,3.7737317085266113,21.782802652515876,21.134099223603847,86.76872600509564,77.42249878345166,-0.0001618862152099,0.0923051163554191,0,0,0
7272,248584.09133504008,2010-09-17 11:00:42,870.3958582592702,7,21,-1.0997490882873535,3.7677419185638423,21.782802652515876,21.143267409117804,86.76872600509564,77.45706997845086,-0.0001618862152099,0.0923051163554191,0,0,0
7273,248614.10955243887,2010-09-17 11:01:12,900.4140757082101,7,21,-1.099929690361023,3.761914014816284,21.782802652515876,21.152436627716376,86.76872600509564,77.49159094848955,-0.0001618862152099,0.0923051163554191,0,0,0
7274,248644.12197509813,2010-09-17 11:01:42,930.4264983223508,7,21,-1.099929690361023,3.756247997283936,21.782802652515876,21.161604054003945,86.76872600509564,77.52605192810624,-0.0001295089750783,0.0923051163554191,0,0,0
7275,248674.13713478943,2010-09-17 11:02:12,960.4416581038824,7,21,-1.0997490882873535,3.750582218170166,21.782802652515876,21.170772308917392,86.76872600509564,77.56046357103962,-0.0001618862152099,0.0923051163554191,0,0,0
7276,248704.15247994373,2010-09-17 11:02:42,990.4570031578826,7,21,-1.099568486213684,3.7449162006378174,21.782802652515876,21.17994057929113,86.76872600509564,77.59482406506672,-0.0001618862152099,0.0923051163554191,0,0,0
7277,248734.1676593342,2010-09-17 11:03:12,1020.4721825533736,7,21,-1.0997490882873535,3.739412069320679,21.782802652515876,21.18910888576437,86.76872600509564,77.6291338401524,-0.0001618862152099,0.0923051163554191,0,0,0
7278,248764.18634753823,2010-09-17 11:03:42,1050.4908708576409,7,21,-1.0997490882873535,3.73406982421875,21.782802652515876,21.198278263452693,86.76872600509564,77.66339831328315,-0.0001618862152099,0.0923051163554191,0,0,0
7279,248794.1983298984,2010-09-17 11:04:12,1080.5028531175897,7,21,-1.0993878841400146,3.729051351547241,21.782802652515876,21.20744550021176,86.76872600509564,77.69760613675966,-6.47544875391759e-05,0.0923051163554191,0,0,0
7280,248824.2135044869,2010-09-17 11:04:42,1110.5180277060815,7,21,-1.0997490882873535,3.7238709926605225,21.782802652515876,21.21661373018665,86.76872600509564,77.7317710746034,-0.0001295089750783,0.0923051163554191,0,0,0
7281,248854.2326996514,2010-09-17 11:05:12,1140.5372229908503,7,21,-1.099568486213684,3.7188525199890137,21.782802652515876,21.2257832395942,86.76872600509564,77.7658946066934,-0.0001942634553415,0.0923051163554191,0,0,0
7282,248884.2348849115,2010-09-17 11:05:42,1170.539408245968,7,21,-1.099568486213684,3.713995933532715,21.782802652515876,21.234947526993977,86.76872600509564,77.79995345271813,-0.0001295089750783,0.0923051163554191,0,0,0
7283,248914.24404502191,2010-09-17 11:06:12,1200.5485683413597,7,21,-1.0997490882873535,3.709301233291626,21.782802652515876,21.24411395828869,86.76872600509564,77.83397586625563,-0.0001295089750783,0.0923051163554191,0,0,0
7284,248944.25890019813,2010-09-17 11:06:42,1230.5634234172992,7,21,-1.099568486213684,3.704444646835327,21.782802652515876,21.25328201031797,86.76872600509564,77.86796073786239,-0.0001295089750783,0.0923051163554191,0,0,0
7285,248974.25905713023,2010-09-17 11:07:12,1260.5635801238475,7,21,-1.099568486213684,3.6997499465942383,21.782802652515876,21.26244568583975,86.76872600509564,77.90188594501991,-0.0001295089750783,0.0923051163554191,0,0,0
7286,249004.2739410833,2010-09-17 11:07:42,1290.5784643976694,7,21,-1.099568486213684,3.69521713256836,21.782802652515876,21.27161384596033,86.76872600509564,77.93578478577585,-9.713172767078504e-05,0.0923051163554191,0,0,0
7287,249034.2892236212,2010-09-17 11:08:12,1320.5937468403822,7,21,-1.099568486213684,3.690684318542481,21.782802652515876,21.2807821765556,86.76872600509564,77.96964245068123,-9.713172767078504e-05,0.0923051163554191,0,0,0
7288,249064.30436920232,2010-09-17 11:08:42,1350.6088925467802,7,21,-1.099568486213684,3.686313390731812,21.782802652515876,21.28995046037609,86.76872600509564,78.00345844613895,-9.713172767078504e-05,0.0923051163554191,0,0,0
7289,249094.31962262257,2010-09-17 11:09:12,1380.6241458467482,7,21,-1.099568486213684,3.681618690490722,21.782802652515876,21.299118781967305,86.76872600509564,78.03723373256865,-0.0001295089750783,0.0923051163554191,0,0,0
7290,249124.33490712545,2010-09-17 11:09:42,1410.6394303496036,7,21,-1.099568486213684,3.6772477626800537,21.782802652515876,21.308287150358503,86.76872600509564,78.07096809263655,-9.713172767078504e-05,0.0923051163554191,0,0,0
7291,249154.35018580875,2010-09-17 11:10:12,1440.6547090379447,7,21,-1.099568486213684,3.6728768348693848,21.782802652515876,21.317455517706225,86.76872600509564,78.10466200839447,-0.0001295089750783,0.0923051163554191,0,0,0
7292,249184.36555388023,2010-09-17 11:10:42,1470.6700771094,7,21,-1.099568486213684,3.668506145477295,21.782802652515876,21.326623884572665,86.76872600509564,78.13831576157985,-9.713172767078504e-05,0.0923051163554191,0,0,0
7293,249214.3806921931,2010-09-17 11:11:12,1500.6852154123178,7,21,-1.0997490882873535,3.664135217666626,21.782802652515876,21.335792135367768,86.76872600509564,78.17192958859444,-0.0001295089750783,0.0923051163554191,0,0,0
7294,249244.3959708564,2010-09-17 11:11:42,1530.7004940755962,7,21,-1.099568486213684,3.659926176071167,21.782802652515876,21.34496044194203,86.76872600509564,78.20550445646026,-0.0001295089750783,0.0923051163554191,0,0,0
7295,249274.39681480845,2010-09-17 11:12:12,1560.7013380276153,7,21,-1.099568486213684,3.655717134475708,21.782802652515876,21.354124305742403,86.76872600509564,78.2390240820433,-0.0001295089750783,0.0923051163554191,0,0,0
7296,249304.41102234804,2010-09-17 11:12:42,1590.7155455772292,7,21,-1.099568486213684,3.651669979095459,21.782802652515876,21.363292294000185,86.76872600509564,78.27252089696835,-9.713172767078504e-05,0.0923051163554191,0,0,0
7297,249334.42613664604,2010-09-17 11:13:12,1620.7306598702146,7,21,-1.099929690361023,3.6474609375,21.782802652515876,21.37246056965345,86.76872600509564,78.30598177269026,-0.0001942634553415,0.0923051163554191,0,0,0
7298,249364.44154063216,2010-09-17 11:13:42,1650.7460639415308,7,21,-1.099929690361023,3.643575668334961,21.782802652515876,21.381628908922025,86.76872600509564,78.33940614749112,-0.0001295089750783,0.0923051163554191,0,0,0
7299,249394.45668121072,2010-09-17 11:14:12,1680.7612044349164,7,21,-1.0997490882873535,3.639852285385132,21.782802652515876,21.390797124620264,86.76872600509564,78.37279504487294,-9.713172767078504e-05,0.0923051163554191,0,0,0
7300,249424.47218505613,2010-09-17 11:14:42,1710.7767083905596,7,21,-1.099568486213684,3.636128902435303,21.782802652515876,21.39996546277852,86.76872600509564,78.40614955252884,-9.713172767078504e-05,0.0923051163554191,0,0,0
7301,249454.48678478465,2010-09-17 11:15:12,1740.791307693049,7,21,-1.099568486213684,3.632567405700684,21.782802652515876,21.409133561152643,86.76872600509564,78.43946922564744,-6.47544875391759e-05,0.0923051163554191,0,0,0
7302,249484.4868622434,2010-09-17 11:15:42,1770.7913854625583,7,21,-1.099568486213684,3.6288440227508554,21.782802652515876,21.41829720467755,86.76872600509564,78.47273916104932,-9.713172767078504e-05,0.0923051163554191,0,0,0
7303,249514.50215901688,2010-09-17 11:16:12,1800.8066822560927,7,21,-1.0997490882873535,3.6251206398010254,21.782802652515876,21.427465472254017,86.76872600509564,78.50599310957216,-9.713172767078504e-05,0.0923051163554191,0,0,0
7304,249544.5175203465,2010-09-17 11:16:42,1830.82204356567,7,21,-1.099568486213684,3.621882915496826,21.782802652515876,21.43663384923642,86.76872600509564,78.53921496245873,-6.47544875391759e-05,0.0923051163554191,0,0,0
7305,249574.5326536018,2010-09-17 11:17:12,1860.837176820988,7,21,-1.099568486213684,3.618483304977417,21.782802652515876,21.445802175192995,86.76872600509564,78.57240541359053,-6.47544875391759e-05,0.0923051163554191,0,0,0
7306,249604.547983092,2010-09-17 11:17:42,1890.852506311138,7,21,-1.099568486213684,3.615083694458008,21.782802652515876,21.45497056751866,86.76872600509564,78.6055655264234,-9.713172767078504e-05,0.0923051163554191,0,0,0
7307,249634.563214387,2010-09-17 11:18:12,1920.8677376061785,7,21,-1.099568486213684,3.6118459701538086,21.782802652515876,21.46413884735334,86.76872600509564,78.6386950209166,-9.713172767078504e-05,0.0923051163554191,0,0,0
7308,249664.58210134212,2010-09-17 11:18:42,1950.8866246615587,7,21,-1.099568486213684,3.60860824584961,21.782802652515876,21.47330826084522,86.76872600509564,78.67179911197324,-0.0001295089750783,0.0923051163554191,0,0,0
7309,249694.5937676785,2010-09-17 11:19:12,1980.898290897664,7,21,-1.0997490882873535,3.60537052154541,21.782802652515876,21.48247548114708,86.76872600509564,78.704865996567,-9.713172767078504e-05,0.0923051163554191,0,0,0
7310,249724.6091579604,2010-09-17 11:19:42,2010.913681184572,7,21,-1.099568486213684,3.602456569671631,21.782802652515876,21.491643747242485,86.76872600509564,78.73790815497526,-9.713172767078504e-05,0.0923051163554191,0,0,0
7311,249754.6242884889,2010-09-17 11:20:12,2040.9288117180963,7,21,-1.0997490882873535,3.5993807315826416,21.782802652515876,21.500811989566746,86.76872600509564,78.77092198387673,-6.47544875391759e-05,0.0923051163554191,0,0,0
7312,249784.6395864453,2010-09-17 11:20:42,2070.944109674534,7,21,-1.0997490882873535,3.5964667797088623,21.782802652515876,21.50998027837669,86.76872600509564,78.80390859682073,-6.47544875391759e-05,0.0923051163554191,0,0,0
7313,249814.6548529633,2010-09-17 11:21:12,2100.9593763027715,7,21,-1.099568486213684,3.593552827835083,21.782802652515876,21.519148550802356,86.76872600509564,78.83686778103048,-6.47544875391759e-05,0.0923051163554191,0,0,0
7314,249844.67009564172,2010-09-17 11:21:43,2130.9746188659383,7,21,-1.099568486213684,3.590477228164673,21.782802652515876,21.52831691590171,86.76872600509564,78.86980020200176,-6.47544875391759e-05,0.0923051163554191,0,0,0
7315,249874.6727213112,2010-09-17 11:22:13,2160.977244645673,7,21,-1.099568486213684,3.5875632762908936,21.782802652515876,21.537481408807405,86.76872600509564,78.90269138147723,-6.47544875391759e-05,0.0923051163554191,0,0,0
7316,249904.68501029172,2010-09-17 11:22:43,2190.989533606194,7,21,-1.0997490882873535,3.5843255519866943,21.782802652515876,21.54664885789257,86.76872600509564,78.93556632165456,-0.0001295089750783,0.0923051163554191,0,0,0
7317,249934.687694753,2010-09-17 11:23:13,2220.992218052369,7,21,-1.099568486213684,3.581573486328125,21.782802652515876,21.555813283357217,86.76872600509564,78.96840353652333,-9.713172767078504e-05,0.0923051163554191,0,0,0
7318,249964.69992418995,2010-09-17 11:23:43,2251.0044474091096,7,21,-1.099568486213684,3.5786595344543457,21.782802652515876,21.564980692784022,86.76872600509564,79.00122404069909,-9.713172767078504e-05,0.0923051163554191,0,0,0
7319,249994.71534347924,2010-09-17 11:24:13,2281.0198667084373,7,21,-1.099568486213684,3.5755836963653564,21.782802652515876,21.57414910610792,86.76872600509564,79.0340206437943,-9.713172767078504e-05,0.0923051163554191,0,0,0
7320,250024.7304712008,2010-09-17 11:24:43,2311.0349944299423,7,21,-1.0997490882873535,3.572669744491577,21.782802652515876,21.583317415877247,86.76872600509564,79.06678889148297,-6.47544875391759e-05,0.0923051163554191,0,0,0
7321,250054.7458356432,2010-09-17 11:25:13,2341.0503588623137,7,21,-1.099568486213684,3.569432020187378,21.782802652515876,21.59248580474472,86.76872600509564,79.09952965551598,-9.713172767078504e-05,0.0923051163554191,0,0,0
7322,250084.76098807636,2010-09-17 11:25:43,2371.0655113005155,7,21,-1.099929690361023,3.5663561820983887,21.782802652515876,21.601654091329557,86.76872600509564,79.13224175047154,-0.0001295089750783,0.0923051163554191,0,0,0
7323,250114.77644539555,2010-09-17 11:26:13,2401.0809686247594,7,21,-1.0997490882873535,3.5632803440093994,21.782802652515876,21.610822446129493,86.76872600509564,79.16492525103737,-3.237724376958795e-05,0.0923051163554191,0,0,0
7324,250144.7916733924,2010-09-17 11:26:43,2431.096196621567,7,21,-1.0997490882873535,3.56020450592041,21.782802652515876,21.619990732249423,86.76872600509564,79.19758049248723,-6.47544875391759e-05,0.0923051163554191,0,0,0
7325,250174.8069409329,2010-09-17 11:27:13,2461.111464152056,7,21,-1.099568486213684,3.556804895401001,21.782802652515876,21.62915905110482,86.76872600509564,79.2302061482552,-9.713172767078504e-05,0.0923051163554191,0,0,0
7326,250204.8223326634,2010-09-17 11:27:43,2491.126855907631,7,21,-1.0997490882873535,3.5535671710968018,21.782802652515876,21.63832748371931,86.76872600509564,79.2628022969443,-0.0001290863438043,0.0923051163554191,0,0,0
7327,250234.8375440137,2010-09-17 11:28:13,2521.1420672428485,7,21,-1.0997490882873535,3.5503294467926025,21.782802652515876,21.6474957593704,86.76872600509564,79.29536734790199,-6.47544875391759e-05,0.0923051163554191,0,0,0
7328,250264.85291403,2010-09-17 11:28:43,2551.1574372792084,7,21,-1.099568486213684,3.5469298362731934,21.782802652515876,21.656663340535555,86.76872600509564,79.32789915128805,-9.713172767078504e-05,0.0923051163554191,0,0,0
7329,250294.8680215661,2010-09-17 11:29:13,2581.1725448804905,7,21,-1.099568486213684,3.543368339538574,21.782802652515876,21.66583081959359,86.76872600509564,79.36039886246938,-6.47544875391759e-05,0.0923051163554191,0,0,0
7330,250324.8832992068,2010-09-17 11:29:43,2611.187822436004,7,21,-1.099568486213684,3.539806842803955,21.782802652515876,21.674998302045264,86.76872600509564,79.39286604756172,-6.47544875391759e-05,0.0923051163554191,0,0,0
7331,250354.8985380006,2010-09-17 11:30:13,2641.203061219737,7,21,-1.0997490882873535,3.536245346069336,21.782802652515876,21.68416577716599,86.76872600509564,79.42530031835882,-6.47544875391759e-05,0.0923051163554191,0,0,0
7332,250384.91382563623,2010-09-17 11:30:43,2671.218348855412,7,21,-1.099568486213684,3.532521963119507,21.782802652515876,21.693333316963088,86.76872600509564,79.45770153327257,-9.713172767078504e-05,0.0923051163554191,0,0,0
7333,250414.9294245389,2010-09-17 11:31:13,2701.2339477580576,7,21,-1.0993878841400146,3.528636693954468,21.782802652515876,21.70250086715268,86.76872600509564,79.49006848068782,-0.0001295089750783,0.0923051163554191,0,0,0
7334,250444.94438424092,2010-09-17 11:31:43,2731.24890746016,7,21,-1.099568486213684,3.5245895385742188,21.782802652515876,21.71166825671496,86.76872600509564,79.52239899832944,-0.0001618862152099,0.0923051163554191,0,0,0
7335,250474.95962953096,2010-09-17 11:32:13,2761.264152750134,7,21,-1.0997490882873535,3.52038049697876,21.782802652515876,21.720835708535688,86.76872600509564,79.55469217247075,-0.0001295089750783,0.0923051163554191,0,0,0
7336,250504.97492581324,2010-09-17 11:32:43,2791.2794491276304,7,21,-1.099568486213684,3.516171455383301,21.782802652515876,21.73000313582345,86.76872600509564,79.58694610711984,-9.713172767078504e-05,0.0923051163554191,0,0,0
7337,250534.9901492436,2010-09-17 11:33:13,2821.294672462802,7,21,-1.099568486213684,3.511476993560791,21.782802652515876,21.739170588261675,86.76872600509564,79.6191588779661,-0.0001294612884521,0.0923051163554191,0,0,0
7338,250565.005457175,2010-09-17 11:33:43,2851.3099804442627,7,21,-1.0993878841400146,3.506620407104492,21.782802652515876,21.74833807162263,86.76872600509564,79.65132815870464,-0.0001295089750783,0.0923051163554191,0,0,0
7339,250595.0206845252,2010-09-17 11:34:13,2881.3252077443312,7,21,-1.0992072820663452,3.5012781620025635,21.782802652515876,21.75750551659679,86.76872600509564,79.68345060152552,-0.0001618862152099,0.0923051163554191,0,0,0
7340,250625.0359677348,2010-09-17 11:34:43,2911.340490953958,7,21,-1.0993878841400146,3.495774030685425,21.782802652515876,21.76667296357108,86.76872600509564,79.71552319101232,-0.0001618862152099,0.0923051163554191,0,0,0
7341,250655.05123918504,2010-09-17 11:35:13,2941.355762429295,7,21,-1.0993878841400146,3.4896223545074463,21.782802652515876,21.77584042532576,86.76872600509564,79.74754167753272,-0.0001295089750783,0.0923051163554191,0,0,0
7342,250685.06648040988,2010-09-17 11:35:43,2971.3710036290586,7,21,-1.099568486213684,3.482823133468628,21.782802652515876,21.785007884544797,86.76872600509564,79.77950124835144,-0.0001942634553415,0.0923051163554191,0,0,0
7343,250715.081871188,2010-09-17 11:36:13,3001.386394407193,7,21,-1.099568486213684,3.47521448135376,21.782802652515876,21.794175303871413,86.76872600509564,79.81139534003717,-0.0002266406954731,0.0923051163554191,0,0,0
7344,250745.09700267893,2010-09-17 11:36:43,3031.401525898107,7,21,-1.0997490882873535,3.466796398162842,21.782802652515876,21.80334267197788,86.76872600509564,79.84321634506583,-0.0002590179501567,0.0923051163554191,0,0,0
7345,250775.1123844095,2010-09-17 11:37:13,3061.4169076286576,7,21,-1.0993878841400146,3.456921339035034,21.782802652515876,21.812510205790552,86.76872600509564,79.87495408882157,-0.0002913951757363,0.0923051163554191,0,0,0
7346,250805.1275226172,2010-09-17 11:37:43,3091.4320458363377,7,21,-1.099568486213684,3.445265531539917,21.782802652515876,21.821677622406625,86.76872600509564,79.90659365256134,-0.0003237724304199,0.0923051163554191,0,0,0
7347,250835.14285131532,2010-09-17 11:38:13,3121.447374534511,7,21,-1.0993878841400146,3.4313435554504395,21.782802652515876,21.83084514264039,86.76872600509564,79.93811681400024,-0.0003884792386088,0.0923051163554191,0,0,0
7348,250865.1581354924,2010-09-17 11:38:43,3151.462658736616,7,21,-1.099568486213684,3.413859844207764,21.782802652515876,21.84001260148065,86.76872600509564,79.96949660793426,-0.0005180359003134,0.0923051163554191,0,0,0
7349,250895.17337063703,2010-09-17 11:39:13,3181.4778938562026,7,21,-1.0997490882873535,3.390872001647949,21.782802652515876,21.84918005857136,86.76872600509564,80.00069300275672,-0.0007122993702068,0.0923051163554191,0,0,0
7350,250925.1886404883,2010-09-17 11:39:43,3211.4931637074856,7,21,-1.099568486213684,3.3596279621124268,21.782802652515876,21.85834754454557,86.76872600509564,80.0316447005653,-0.0010036944877356,0.0923051163554191,0,0,0
7351,250955.20391814908,2010-09-17 11:40:13,3241.508441368261,7,21,-1.0993878841400146,3.3147857189178467,21.782802652515876,21.86751501000012,86.76872600509564,80.06225205583937,-0.0014245987404137,0.0923051163554191,0,0,0
7352,250985.21962052505,2010-09-17 11:40:43,3271.524143749205,7,21,-1.099568486213684,3.250193357467652,21.782802652515876,21.876682619213405,86.76872600509564,80.09236426358973,-0.0020397664047777,0.0923051163554191,0,0,0
7353,251015.23446741057,2010-09-17 11:41:13,3301.538990629687,7,21,-1.099568486213684,3.1540331840515137,21.782802652515876,21.88584995203887,86.76872600509564,80.12175046701249,-0.0030758380889892,0.0923051163554191,0,0,0
7354,251045.2496999136,2010-09-17 11:41:43,3331.554223152793,7,21,-1.099568486213684,2.9940900802612305,21.782802652515876,21.89501742369045,86.76872600509564,80.15001045420189,-0.0057307719253003,0.0923051163554191,0,0,0
7355,251063.56201669853,2010-09-17 11:42:01,3349.866539917717,7,21,-1.099568486213684,2.793675422668457,21.782802652515876,21.900610473816144,86.76872600509564,80.16626140960433,-0.0112996576353907,0.0923051163554191,0,0,0
7356,251069.37443511412,2010-09-17 11:42:07,3355.6789583333016,7,21,-1.0993878841400146,2.699781894683838,21.782802652515876,21.902385726054696,86.76872600509564,80.171139144182,-0.013145113363862,0.0923051163554191,0,0,0
7357,251129.38862302428,2010-09-17 11:43:07,60.01498355202023,8,21,0.0,3.3984806537628174,21.782802652515876,21.902385726054696,86.76872600509564,80.171139144182,0.0012950897216796,0.0923051163554191,0,0,0
7358,251129.5758367176,2010-09-17 11:43:08,0.187394164664875,9,21,-1.9243103452026844e-05,3.3988044261932373,21.782802652515876,21.902385727056377,86.76872600509564,80.17113914758652,0.0,0.0897949114441871,0,0,0
7359,251134.40389890355,2010-09-17 11:43:12,5.015456350659916,9,21,0.0008838032954372,3.406413078308105,21.782803635969472,21.902385727056377,86.76872935204389,80.17113914758652,0.0011332035064697,0.0897949114441871,0,0,0
