Data_Point,Test_Time(s),Date_Time,Step_Time(s),Step_Index,Cycle_Index,Current(A),Voltage(V),Charge_Capacity(Ah),Discharge_Capacity(Ah),Charge_Energy(Wh),Discharge_Energy(Wh),dV/dt(V/s),Internal_Resistance(Ohm),Is_FC_Data,AC_Impedance(Ohm),ACI_Phase_Angle(Deg)
11151,378594.48292971536,2010-09-18 23:07:46,30.015375038846965,1,33,0.0,3.392490863800049,32.959990078594885,33.09672095591222,131.25594447233289,121.171152743884,0.0007770538213662,0.0874469503760337,0,0,0
11152,378624.4983963127,2010-09-18 23:08:16,60.030841636238144,1,33,0.0,3.416126251220703,32.959990078594885,33.09672095591222,131.25594447233289,121.171152743884,0.0005504131549969,0.0874469503760337,0,0,0
11153,378654.5137789656,2010-09-18 23:08:46,90.04622429410335,1,33,0.0,3.43344783782959,32.959990078594885,33.09672095591222,131.25594447233289,121.171152743884,0.0004208564641885,0.0874469503760337,0,0,0
11154,378684.4822402505,2010-09-18 23:09:16,120.01468557399046,1,33,0.0,3.4470462799072266,32.959990078594885,33.09672095591222,131.25594447233289,121.171152743884,0.0003237724304199,0.0874469503760337,0,0,0
11155,378714.5073427311,2010-09-18 23:09:46,30.0153160766683,2,33,0.5501165986061096,3.585296869277954,32.96457634338032,33.09672095591222,131.27223800432094,121.171152743884,0.0014569759368896,0.0874469503760337,0,0,0
11156,378744.5226940607,2010-09-18 23:10:16,60.0306674063335,2,33,0.550297200679779,3.630139112472534,32.96916317450397,33.09672095591222,131.28879200300116,121.171152743884,0.0010684489971026,0.0874469503760337,0,0,0
11157,378774.53806105454,2010-09-18 23:10:46,90.0460344000987,2,33,0.5501165986061096,3.663325786590576,32.97375005454393,33.09672095591222,131.30552257140457,121.171152743884,0.0007770538213662,0.0874469503760337,0,0,0
11158,378804.5537881973,2010-09-18 23:11:16,120.0617615478637,2,33,0.5501165986061096,3.689874887466431,32.978336946046106,33.09672095591222,131.32238929776327,121.171152743884,0.0006151676061563,0.0874469503760337,0,0,0
11159,378834.56875701714,2010-09-18 23:11:46,150.07673036271308,2,33,0.5501165986061096,3.711891412734986,32.98292372492733,33.09672095591222,131.339366104074,121.171152743884,0.0005504131549969,0.0874469503760337,0,0,0
11160,378864.5841059609,2010-09-18 23:12:16,180.09207931143507,2,33,0.5501165986061096,3.729860782623291,32.98751055808934,33.09672095591222,131.3564345733869,121.171152743884,0.0004209041653666,0.0874469503760337,0,0,0
11161,378894.5994770999,2010-09-18 23:12:46,210.1074504655853,2,33,0.5501165986061096,3.744430541992188,32.9920973424441,33.09672095591222,131.37357728750487,121.171152743884,0.0003885269106831,0.0874469503760337,0,0,0
11162,378924.614806956,2010-09-18 23:13:16,240.12278030159897,2,33,0.5501165986061096,3.753981590270996,32.996684170234715,33.09672095591222,131.3907757174226,121.171152743884,0.0001942634553415,0.0874469503760337,0,0,0
11163,378954.63016081695,2010-09-18 23:13:46,270.1381341625828,2,33,0.550297200679779,3.759323835372925,33.00127099730765,33.09672095591222,131.40800789202652,121.171152743884,6.47544875391759e-05,0.0874469503760337,0,0,0
11164,378984.6455104124,2010-09-18 23:14:16,300.1534837579188,2,33,0.5501165986061096,3.762885332107544,33.005857815725555,33.09672095591222,131.42526010070347,121.171152743884,6.47544875391759e-05,0.0874469503760337,0,0,0
11165,379014.6608714412,2010-09-18 23:14:46,330.16884478679475,2,33,0.5501165986061096,3.766123056411743,33.01044470723755,33.09672095591222,131.44252791682555,121.171152743884,9.713172767078504e-05,0.0874469503760337,0,0,0
11166,379044.6763486752,2010-09-18 23:15:16,360.18432204078647,2,33,0.5501165986061096,3.769198894500733,33.01503154104415,33.09672095591222,131.45980958790892,121.171152743884,6.47544875391759e-05,0.0874469503760337,0,0,0
11167,379074.69157747895,2010-09-18 23:15:46,390.19955082455823,2,33,0.5501165986061096,3.7722747325897217,33.0196184201998,33.09672095591222,131.4771053249686,121.171152743884,9.713172767078504e-05,0.0874469503760337,0,0,0
11168,379104.70694729977,2010-09-18 23:16:16,420.2149206453802,2,33,0.5501165986061096,3.775188684463501,33.02420521178827,33.09672095591222,131.49441453967057,121.171152743884,6.47544875391759e-05,0.0874469503760337,0,0,0
11169,379134.7222870957,2010-09-18 23:16:46,450.23026044125527,2,33,0.5501165986061096,3.77810263633728,33.02879211558555,33.09672095591222,131.51173783703672,121.171152743884,9.713172767078504e-05,0.0874469503760337,0,0,0
11170,379164.7376360444,2010-09-18 23:17:16,480.2456093899773,2,33,0.5501165986061096,3.78101658821106,33.03337904257371,33.09672095591222,131.5290747570059,121.171152743884,6.47544875391759e-05,0.0874469503760337,0,0,0
11171,379194.7529854993,2010-09-18 23:17:46,510.260958844963,2,33,0.550297200679779,3.783930540084839,33.03796585659968,33.09672095591222,131.54642450138445,121.171152743884,6.47544875391759e-05,0.0874469503760337,0,0,0
11172,379224.76833420247,2010-09-18 23:18:16,540.2763075480719,2,33,0.5501165986061096,3.786844491958618,33.04255268819747,33.09672095591222,131.5637875602226,121.171152743884,6.47544875391759e-05,0.0874469503760337,0,0,0
11173,379254.7837282989,2010-09-18 23:18:46,570.2917017397273,2,33,0.5501165986061096,3.789596557617188,33.04713955611173,33.09672095591222,131.58116383364646,121.171152743884,6.47544875391759e-05,0.0874469503760337,0,0,0
11174,379284.7990474232,2010-09-18 23:19:16,600.3070207687651,2,33,0.5501165986061096,3.792510509490967,33.051726433204294,33.09672095591222,131.59855310847436,121.171152743884,6.47544875391759e-05,0.0874469503760337,0,0,0
11175,379314.814414031,2010-09-18 23:19:46,630.3223874918547,2,33,0.5501165986061096,3.795424461364746,33.056313248666484,33.09672095591222,131.61595507898554,121.171152743884,9.713172767078504e-05,0.0874469503760337,0,0,0
11176,379344.82974702993,2010-09-18 23:20:16,660.3377203754757,2,33,0.5501165986061096,3.798176527023315,33.06090011235393,33.09672095591222,131.63337023209195,121.171152743884,9.713172767078504e-05,0.0874469503760337,0,0,0
11177,379374.8452074418,2010-09-18 23:20:46,690.3531808826649,2,33,0.5499359965324402,3.801090478897095,33.065486999960456,33.09672095591222,131.6507986246033,121.171152743884,9.713172767078504e-05,0.0874469503760337,0,0,0
11178,379404.86045172927,2010-09-18 23:21:16,720.3684250748985,2,33,0.550297200679779,3.804004430770874,33.0700738206773,33.09672095591222,131.66824004241897,121.171152743884,6.47544875391759e-05,0.0874469503760337,0,0,0
11179,379434.8758191592,2010-09-18 23:21:46,750.3837925047524,2,33,0.5501165986061096,3.806918382644653,33.07466065085091,33.09672095591222,131.68569520043567,121.171152743884,6.47544875391759e-05,0.0874469503760337,0,0,0
11180,379464.8759280664,2010-09-18 23:22:16,780.3839015072239,2,33,0.5501165986061096,3.810156106948853,33.079245204545465,33.09672095591222,131.70315588257935,121.171152743884,9.713172767078504e-05,0.0874469503760337,0,0,0
11181,379494.8908869113,2010-09-18 23:22:46,810.3988602619615,2,33,0.5501165986061096,3.8135557174682617,33.083832028912255,33.09672095591222,131.7206399721043,121.171152743884,0.0001295089750783,0.0874469503760337,0,0,0
11182,379524.90624586,2010-09-18 23:23:16,840.4142192056324,2,33,0.5499359965324402,3.816793441772461,33.08841888910436,33.09672095591222,131.7381397182568,121.171152743884,6.47544875391759e-05,0.0874469503760337,0,0,0
11183,379554.9215837863,2010-09-18 23:23:46,870.4295571318406,2,33,0.5501165986061096,3.82051682472229,33.09300579785255,33.09672095591222,131.75565520878297,121.171152743884,0.0001618862152099,0.0874469503760337,0,0,0
11184,379584.9369741584,2010-09-18 23:24:16,900.4449475991995,2,33,0.5501165986061096,3.823754549026489,33.09759267820401,33.09672095591222,131.77318633404784,121.171152743884,9.713172767078504e-05,0.0874469503760337,0,0,0
11185,379614.9523131673,2010-09-18 23:24:46,930.4602865228976,2,33,0.5501165986061096,3.8271541595458975,33.10217954965057,33.09672095591222,131.79073325210732,121.171152743884,6.47544875391759e-05,0.0874469503760337,0,0,0
11186,379644.9678666315,2010-09-18 23:25:16,960.4758400973968,2,33,0.5504778623580933,3.8307156562805176,33.10676643681975,33.09672095591222,131.8082958441983,121.171152743884,0.0001295089750783,0.0874469503760337,0,0,0
11187,379674.98306309467,2010-09-18 23:25:47,990.4910366306666,2,33,0.5501165986061096,3.833791255950928,33.11135331088291,33.09672095591222,131.82587380381372,121.171152743884,6.47544875391759e-05,0.0874469503760337,0,0,0
11188,379704.9983472366,2010-09-18 23:26:17,1020.5063205821456,2,33,0.5499359965324402,3.837028980255127,33.11594012974814,33.09672095591222,131.8434666393507,121.171152743884,6.47544875391759e-05,0.0874469503760337,0,0,0
11189,379735.0136982354,2010-09-18 23:26:47,1050.5216715859974,2,33,0.550297200679779,3.840428590774536,33.12052696104078,33.09672095591222,131.8610742944826,121.171152743884,9.713172767078504e-05,0.0874469503760337,0,0,0
11190,379765.0290657655,2010-09-18 23:27:17,1080.5370392063264,2,33,0.5501165986061096,3.843504428863525,33.12511385329324,33.09672095591222,131.87869669028214,121.171152743884,9.713172767078504e-05,0.0874469503760337,0,0,0
11191,379795.0444195312,2010-09-18 23:27:47,1110.5523928768348,2,33,0.5499359965324402,3.8464183807373047,33.12970067841246,33.09672095591222,131.89633307961356,121.171152743884,6.47544875391759e-05,0.0874469503760337,0,0,0
11192,379825.0597575778,2010-09-18 23:28:17,1140.567730923343,2,33,0.5501165986061096,3.849494218826294,33.13428750174318,33.09672095591222,131.91398342261974,121.171152743884,9.713172767078504e-05,0.0874469503760337,0,0,0
11193,379855.0751125365,2010-09-18 23:28:47,1170.5830858820673,2,33,0.550297200679779,3.852570056915283,33.1388743910625,33.09672095591222,131.93164757957064,121.171152743884,0.0001295089750783,0.0874469503760337,0,0,0
11194,379885.0904800816,2010-09-18 23:29:17,1200.598453452271,2,33,0.5501165986061096,3.855322122573853,33.14346130663026,33.09672095591222,131.9493248456753,121.171152743884,6.47544875391759e-05,0.0874469503760337,0,0,0
11195,379915.1057851307,2010-09-18 23:29:47,1230.613758471338,2,33,0.5501165986061096,3.857912302017212,33.14804812688023,33.09672095591222,131.9670142651402,121.171152743884,9.713172767078504e-05,0.0874469503760337,0,0,0
11196,379945.1211419692,2010-09-18 23:30:17,1260.6291153097538,2,33,0.5501165986061096,3.860340595245361,33.15263494575016,33.09672095591222,131.9847154516327,121.171152743884,9.713172767078504e-05,0.0874469503760337,0,0,0
11197,379975.136614321,2010-09-18 23:30:47,1290.6445876615087,2,33,0.5501165986061096,3.862768888473511,33.15722184009183,33.09672095591222,132.00242816638254,121.171152743884,9.713172767078504e-05,0.0874469503760337,0,0,0
11198,380005.1518685081,2010-09-18 23:31:17,1320.6598418486917,2,33,0.5501165986061096,3.86503529548645,33.16180868714932,33.09672095591222,132.02015117723948,121.171152743884,6.47544875391759e-05,0.0874469503760337,0,0,0
11199,380035.16739412287,2010-09-18 23:31:47,1350.675367463399,2,33,0.5501165986061096,3.8669779300689697,33.1663956065507,33.09672095591222,132.03788432657166,121.171152743884,3.237724376958795e-05,0.0874469503760337,0,0,0
11200,380065.1825446763,2010-09-18 23:32:17,1380.6905180219087,2,33,0.5501165986061096,3.868920564651489,33.1709825325578,33.09672095591222,132.0556268130397,121.171152743884,3.237724376958795e-05,0.0874469503760337,0,0,0
11201,380095.19791696826,2010-09-18 23:32:47,1410.7058903138989,2,33,0.5501165986061096,3.870701313018799,33.17556947204009,33.09672095591222,132.07337786169094,121.171152743884,3.237724376958795e-05,0.0874469503760337,0,0,0
11202,380125.2132962978,2010-09-18 23:33:17,1440.7212696334311,2,33,0.5499359965324402,3.872482061386109,33.18015641132357,33.09672095591222,132.09113683845777,121.171152743884,3.237724376958795e-05,0.0874469503760337,0,0,0
11203,380155.2286022192,2010-09-18 23:33:47,1470.7365755647752,2,33,0.5499359965324402,3.873939037322998,33.184743374265096,33.09672095591222,132.10890329743586,121.171152743884,3.237724376958795e-05,0.0874469503760337,0,0,0
11204,380185.24395279685,2010-09-18 23:34:17,1500.7519261425637,2,33,0.5499359965324402,3.875396013259888,33.189330361978094,33.09672095591222,132.1266764793395,121.171152743884,3.237724376958795e-05,0.0874469503760337,0,0,0
11205,380215.2593108885,2010-09-18 23:34:47,1530.7672842341074,2,33,0.5501165986061096,3.876691102981568,33.19391729123143,33.09672095591222,132.14445584348036,121.171152743884,3.237724376958795e-05,0.0874469503760337,0,0,0
11206,380245.274678178,2010-09-18 23:35:17,1560.7826515236109,2,33,0.550297200679779,3.878148078918457,33.19850421051183,33.09672095591222,132.16224112806984,121.171152743884,6.47544875391759e-05,0.0874469503760337,0,0,0
11207,380275.2901243594,2010-09-18 23:35:47,1590.7980977150655,2,33,0.5501165986061096,3.879281282424927,33.203091250908045,33.09672095591222,132.1800326718513,121.171152743884,6.47544875391759e-05,0.0874469503760337,0,0,0
11208,380305.3053775943,2010-09-18 23:36:17,1620.8133509649083,2,33,0.550297200679779,3.8805763721466064,33.207678221866864,33.09672095591222,132.19782936641383,121.171152743884,6.47544875391759e-05,0.0874469503760337,0,0,0
11209,380335.3207202172,2010-09-18 23:36:47,1650.828693562778,2,33,0.550297200679779,3.881709575653076,33.21226512377184,33.09672095591222,132.21563119711448,121.171152743884,6.47544875391759e-05,0.0874469503760337,0,0,0
11210,380365.3360798476,2010-09-18 23:37:17,1680.8440532182256,2,33,0.5501165986061096,3.882680892944336,33.216852091454804,33.09672095591222,132.23343851577334,121.171152743884,3.237724376958795e-05,0.0874469503760337,0,0,0
11211,380395.3514268665,2010-09-18 23:37:47,1710.8594002120678,2,33,0.550297200679779,3.8838140964508057,33.22143907669798,33.09672095591222,132.25125115595793,121.171152743884,0.0,0.0874469503760337,0,0,0
11212,380425.36691413546,2010-09-18 23:38:17,1740.8748874860712,2,33,0.5501165986061096,3.8849472999572754,33.22602606643036,33.09672095591222,132.26906879632818,121.171152743884,-3.237724376958795e-05,0.0874469503760337,0,0,0
11213,380455.3821258316,2010-09-18 23:38:47,1770.8900991771768,2,33,0.5501165986061096,3.885918617248535,33.23061305498931,33.09672095591222,132.2868916244979,121.171152743884,3.237724376958795e-05,0.0874469503760337,0,0,0
11214,380485.3976178775,2010-09-18 23:39:17,1800.9055913233417,2,33,0.5501165986061096,3.887375593185425,33.23520002165955,33.09672095591222,132.304719437678,121.171152743884,6.47544875391759e-05,0.0874469503760337,0,0,0
11215,380515.4128506963,2010-09-18 23:39:47,1830.920824066998,2,33,0.5504778623580933,3.8885087966918954,33.239787003836014,33.09672095591222,132.3225523940757,121.171152743884,6.47544875391759e-05,0.0874469503760337,0,0,0
11216,380545.42820220144,2010-09-18 23:40:17,1860.9361755470384,2,33,0.550297200679779,3.8894801139831534,33.24437406965802,33.09672095591222,132.34039082624753,121.171152743884,3.237724376958795e-05,0.0874469503760337,0,0,0
11217,380575.443546278,2010-09-18 23:40:47,1890.951519628611,2,33,0.550297200679779,3.890775203704834,33.24896113686934,33.09672095591222,132.3582343130199,121.171152743884,6.47544875391759e-05,0.0874469503760337,0,0,0
11218,380605.45910948655,2010-09-18 23:41:17,1920.967082927384,2,33,0.550297200679779,3.8917465209960938,33.253548098202856,33.09672095591222,132.37608256585906,121.171152743884,3.237724376958795e-05,0.0874469503760337,0,0,0
11219,380635.4742513183,2010-09-18 23:41:47,1950.9822246638728,2,33,0.550297200679779,3.892879724502564,33.25813506750544,33.09672095591222,132.3939360297772,121.171152743884,6.47544875391759e-05,0.0874469503760337,0,0,0
11220,380665.4895969938,2010-09-18 23:42:17,1980.997570339424,2,33,0.550297200679779,3.894012928009033,33.2627220827917,33.09672095591222,132.41179490629037,121.171152743884,6.47544875391759e-05,0.0874469503760337,0,0,0
11221,380695.5049417471,2010-09-18 23:42:47,2011.0129150926737,2,33,0.5501165986061096,3.894984245300293,33.26730907811992,33.09672095591222,132.429658881281,121.171152743884,3.237724376958795e-05,0.0874469503760337,0,0,0
11222,380725.52045093576,2010-09-18 23:43:17,2041.028424286392,2,33,0.550297200679779,3.8961174488067623,33.27189617388105,33.09672095591222,132.44752804210512,121.171152743884,3.237724376958795e-05,0.0874469503760337,0,0,0
11223,380755.5360446253,2010-09-18 23:43:47,2071.044017971012,2,33,0.5501165986061096,3.8974125385284415,33.27648317571017,33.09672095591222,132.46540233012564,121.171152743884,3.237724376958795e-05,0.0874469503760337,0,0,0
11224,380785.55100433255,2010-09-18 23:44:17,2101.058977678127,2,33,0.550297200679779,3.898545742034912,33.281070121098395,33.09672095591222,132.48328176338185,121.171152743884,3.237724376958795e-05,0.0874469503760337,0,0,0
11225,380815.5663528902,2010-09-18 23:44:47,2131.0743262358733,2,33,0.5501165986061096,3.899678945541382,33.2856571121559,33.09672095591222,132.5011668684641,121.171152743884,3.237724376958795e-05,0.0874469503760337,0,0,0
11226,380845.5817383752,2010-09-18 23:45:17,2161.0897117207955,2,33,0.5499359965324402,3.900812149047852,33.29024420773986,33.09672095591222,132.51905781488594,121.171152743884,3.237724376958795e-05,0.0874469503760337,0,0,0
11227,380875.5970566674,2010-09-18 23:45:47,2191.105030012994,2,33,0.550297200679779,3.902269124984741,33.29483116069745,33.09672095591222,132.5369537470925,121.171152743884,6.47544875391759e-05,0.0874469503760337,0,0,0
11228,380905.6124128943,2010-09-18 23:46:17,2221.1203862398834,2,33,0.5501165986061096,3.903240442276001,33.29941817159409,33.09672095591222,132.55485555758204,121.171152743884,3.237724376958795e-05,0.0874469503760337,0,0,0
11229,380935.62777809857,2010-09-18 23:46:47,2251.135751469244,2,33,0.5501165986061096,3.90469741821289,33.30400521924197,33.09672095591222,132.57276324378043,121.171152743884,6.47544875391759e-05,0.0874469503760337,0,0,0
11230,380965.6431250723,2010-09-18 23:47:17,2281.151098417974,2,33,0.550297200679779,3.9059925079345694,33.30859228357898,33.09672095591222,132.59067656791296,121.171152743884,6.47544875391759e-05,0.0874469503760337,0,0,0
11231,380995.6586067775,2010-09-18 23:47:47,2311.1665801230765,2,33,0.5499359965324402,3.90712571144104,33.31317930061517,33.09672095591222,132.60859558073818,121.171152743884,3.237724376958795e-05,0.0874469503760337,0,0,0
11232,381025.6738443582,2010-09-18 23:48:17,2341.1818177038067,2,33,0.5501165986061096,3.90842080116272,33.317766243647775,33.09672095591222,132.626520104321,121.171152743884,3.237724376958795e-05,0.0874469503760337,0,0,0
11233,381055.6891803646,2010-09-18 23:48:47,2371.1971537102227,2,33,0.550297200679779,3.9097158908844,33.32235321053572,33.09672095591222,132.64445069977074,121.171152743884,3.237724376958795e-05,0.0874469503760337,0,0,0
11234,381085.70455127815,2010-09-18 23:49:17,2401.2125247190106,2,33,0.5501165986061096,3.911010980606079,33.326940258949094,33.09672095591222,132.66238756963395,121.171152743884,6.47544875391759e-05,0.0874469503760337,0,0,0
11235,381115.71987994126,2010-09-18 23:49:47,2431.227853286858,2,33,0.5501165986061096,3.912306070327759,33.33152729582659,33.09672095591222,132.68033044014368,121.171152743884,3.237724376958795e-05,0.0874469503760337,0,0,0
11236,381145.7352560377,2010-09-18 23:50:17,2461.243229403395,2,33,0.5501165986061096,3.9136011600494394,33.33611432364856,33.09672095591222,132.69827937930216,121.171152743884,0.0,0.0874469503760337,0,0,0
11237,381175.7505975228,2010-09-18 23:50:47,2491.2585708684373,2,33,0.5501165986061096,3.915057897567749,33.34070136859683,33.09672095591222,132.71623458306564,121.171152743884,3.237724376958795e-05,0.0874469503760337,0,0,0
11238,381205.7659640555,2010-09-18 23:51:17,2521.273937401051,2,33,0.5501165986061096,3.9161911010742183,33.345288422340595,33.09672095591222,132.73419591924048,121.171152743884,0.0,0.0874469503760337,0,0,0
11239,381235.7812992449,2010-09-18 23:51:47,2551.289272590428,2,33,0.5501165986061096,3.9178099632263184,33.349875335572314,33.09672095591222,132.7521630455266,121.171152743884,3.237724376958795e-05,0.0874469503760337,0,0,0
11240,381265.7966430808,2010-09-18 23:52:17,2581.3046164263874,2,33,0.5501165986061096,3.919105052947998,33.354462268547536,33.09672095591222,132.7701365891634,121.171152743884,3.237724376958795e-05,0.0874469503760337,0,0,0
11241,381295.8120029668,2010-09-18 23:52:47,2611.3199763124107,2,33,0.5501165986061096,3.9204001426696777,33.35904923665395,33.09672095591222,132.7881167216257,121.171152743884,0.0,0.0874469503760337,0,0,0
11242,381325.8273782011,2010-09-18 23:53:17,2641.3353515467456,2,33,0.5501165986061096,3.921857118606568,33.363636241445235,33.09672095591222,132.8061033946363,121.171152743884,-3.237724376958795e-05,0.0874469503760337,0,0,0
11243,381355.842854573,2010-09-18 23:53:47,2671.3508279235475,2,33,0.5499359965324402,3.923152208328247,33.36822323244283,33.09672095591222,132.8240965508014,121.171152743884,-3.237724376958795e-05,0.0874469503760337,0,0,0
11244,381385.85818797286,2010-09-18 23:54:17,2701.366161418695,2,33,0.550297200679779,3.9247710704803462,33.372810181009925,33.09672095591222,132.8420961375874,121.171152743884,3.237724376958795e-05,0.0874469503760337,0,0,0
11245,381415.8734064911,2010-09-18 23:54:47,2731.381379836592,2,33,0.550297200679779,3.926228046417236,33.377397150164015,33.09672095591222,132.86010242410384,121.171152743884,6.47544875391759e-05,0.0874469503760337,0,0,0
11246,381445.8887688883,2010-09-18 23:55:17,2761.396742233884,2,33,0.550297200679779,3.927685022354126,33.38198418248667,33.09672095591222,132.87811561367715,121.171152743884,3.237724376958795e-05,0.0874469503760337,0,0,0
11247,381475.90410671424,2010-09-18 23:55:47,2791.412080079892,2,33,0.5501165986061096,3.929141998291016,33.3865711787903,33.09672095591222,132.89613536807386,121.171152743884,3.237724376958795e-05,0.0874469503760337,0,0,0
11248,381505.91947968793,2010-09-18 23:56:17,2821.4274530585963,2,33,0.5501165986061096,3.9307608604431152,33.39115814824831,33.09672095591222,132.91416188452428,121.171152743884,6.47544875391759e-05,0.0874469503760337,0,0,0
11249,381535.9348252131,2010-09-18 23:56:47,2851.4427985587104,2,33,0.5501165986061096,3.932217836380005,33.39574517359706,33.09672095591222,132.93219544960087,121.171152743884,9.713172767078504e-05,0.0874469503760337,0,0,0
11250,381565.95056686713,2010-09-18 23:57:17,2881.4585402076723,2,33,0.550297200679779,3.933836698532105,33.40033222267175,33.09672095591222,132.9502360634392,121.171152743884,6.47544875391759e-05,0.0874469503760337,0,0,0
11251,381595.96557209786,2010-09-18 23:57:48,2911.4735455386717,2,33,0.5501165986061096,3.935293674468994,33.404919873077745,33.09672095591222,132.96828604712152,121.171152743884,6.47544875391759e-05,0.0874469503760337,0,0,0
11252,381625.98085804936,2010-09-18 23:58:18,2941.4888313949045,2,33,0.5504778623580933,3.9369125366210938,33.40950759801927,33.09672095591222,132.98634336714682,121.171152743884,9.713172767078504e-05,0.0874469503760337,0,0,0
11253,381655.99633204006,2010-09-18 23:58:48,2971.504305385751,2,33,0.5501165986061096,3.938369512557984,33.41409524217099,33.09672095591222,133.0044075936004,121.171152743884,3.237724376958795e-05,0.0874469503760337,0,0,0
11254,381686.0116174703,2010-09-18 23:59:18,3001.519590815921,2,33,0.5501165986061096,3.939826488494873,33.41868290181999,33.09672095591222,133.02247906023004,121.171152743884,0.0,0.0874469503760337,0,0,0
11255,381716.0269644491,2010-09-18 23:59:48,3031.534937824801,2,33,0.5501165986061096,3.9414453506469727,33.42326988587193,33.09672095591222,133.04055511228952,121.171152743884,3.237724376958795e-05,0.0874469503760337,0,0,0
11256,381746.0423116034,2010-09-19 00:00:18,3061.550284948969,2,33,0.5501165986061096,3.943226099014282,33.42785686635667,33.09672095591222,133.05863846057713,121.171152743884,6.47544875391759e-05,0.0874469503760337,0,0,0
11257,381776.05768869736,2010-09-19 00:00:48,3091.5656620680084,2,33,0.5501165986061096,3.944683074951172,33.43244383385766,33.09672095591222,133.07672917906265,121.171152743884,3.237724376958795e-05,0.0874469503760337,0,0,0
11258,381806.07302493934,2010-09-19 00:01:18,3121.58099828495,2,33,0.5501165986061096,3.9464638233184814,33.43703083400684,33.09672095591222,133.09482757169695,121.171152743884,0.0,0.0874469503760337,0,0,0
11259,381836.0885010104,2010-09-19 00:01:48,3151.596474446214,2,33,0.5501165986061096,3.947920799255371,33.441617740757174,33.09672095591222,133.1129330361498,121.171152743884,3.237724376958795e-05,0.0874469503760337,0,0,0
11260,381866.1038488363,2010-09-19 00:02:18,3181.611822191933,2,33,0.5501165986061096,3.949539661407471,33.44620463555057,33.09672095591222,133.13104611886118,121.171152743884,0.0,0.0874469503760337,0,0,0
11261,381896.1190757053,2010-09-19 00:02:48,3211.6270490559127,2,33,0.5501165986061096,3.95132040977478,33.4507915623809,33.09672095591222,133.1491671235751,121.171152743884,3.237724376958795e-05,0.0874469503760337,0,0,0
11262,381926.13443883945,2010-09-19 00:03:18,3241.642412215106,2,33,0.5501165986061096,3.95310115814209,33.455378484129355,33.09672095591222,133.16729580734167,121.171152743884,6.47544875391759e-05,0.0874469503760337,0,0,0
11263,381956.1499156873,2010-09-19 00:03:48,3271.657889058072,2,33,0.5501165986061096,3.9547200202941895,33.459965408018626,33.09672095591222,133.18543238076552,121.171152743884,0.0,0.0874469503760337,0,0,0
11264,381986.1651650024,2010-09-19 00:04:18,3301.673138373093,2,33,0.5501165986061096,3.956662654876709,33.46455233560156,33.09672095591222,133.20357694947495,121.171152743884,3.237724376958795e-05,0.0874469503760337,0,0,0
11265,382016.1805116103,2010-09-19 00:04:48,3331.688484955909,2,33,0.550297200679779,3.9582815170288086,33.46913926611342,33.09672095591222,133.22172943664106,121.171152743884,3.237724376958795e-05,0.0874469503760337,0,0,0
11266,382046.1958482884,2010-09-19 00:05:18,3361.7038216640767,2,33,0.5501165986061096,3.960062265396118,33.47372621153363,33.09672095591222,133.2398901558076,121.171152743884,6.47544875391759e-05,0.0874469503760337,0,0,0
11267,382076.2111899589,2010-09-19 00:05:48,3391.719163329619,2,33,0.5501165986061096,3.961843013763428,33.47831316884614,33.09672095591222,133.25805919304756,121.171152743884,3.237724376958795e-05,0.0874469503760337,0,0,0
11268,382106.2265403663,2010-09-19 00:06:18,3421.734513716932,2,33,0.550297200679779,3.963623762130737,33.48290007424039,33.09672095591222,133.27623627592067,121.171152743884,3.237724376958795e-05,0.0874469503760337,0,0,0
11269,382136.24190163583,2010-09-19 00:06:48,3451.749874981396,2,33,0.5501165986061096,3.965566396713257,33.4874870237095,33.09672095591222,133.29442199800872,121.171152743884,3.237724376958795e-05,0.0874469503760337,0,0,0
11270,382166.25726034894,2010-09-19 00:07:18,3481.765233694492,2,33,0.550297200679779,3.967509031295776,33.49207400138803,33.09672095591222,133.31261637395102,121.171152743884,6.47544875391759e-05,0.0874469503760337,0,0,0
11271,382196.27262392914,2010-09-19 00:07:48,3511.7805972997985,2,33,0.5501165986061096,3.969451665878296,33.496660950085115,33.09672095591222,133.3308191587717,121.171152743884,6.47544875391759e-05,0.0874469503760337,0,0,0
11272,382226.2879626474,2010-09-19 00:08:18,3541.795935992921,2,33,0.5501165986061096,3.9712324142456055,33.50124789718739,33.09672095591222,133.34903072335217,121.171152743884,3.237724376958795e-05,0.0874469503760337,0,0,0
11273,382256.3034349439,2010-09-19 00:08:48,3571.811408299563,2,33,0.5501165986061096,3.973175048828125,33.50583484875533,33.09672095591222,133.36725115325214,121.171152743884,6.47544875391759e-05,0.0874469503760337,0,0,0
11274,382286.31867404346,2010-09-19 00:09:18,3601.8266473890594,2,33,0.5501165986061096,3.975117683410645,33.51042170525355,33.09672095591222,133.38548014856391,121.171152743884,3.237724376958795e-05,0.0874469503760337,0,0,0
11275,382316.33430369786,2010-09-19 00:09:48,3631.842277253992,2,33,0.5501165986061096,3.977222204208374,33.51500872460523,33.09672095591222,133.40371888157517,121.171152743884,6.47544875391759e-05,0.0874469503760337,0,0,0
11276,382346.34938858246,2010-09-19 00:10:18,3661.8573619380686,2,33,0.5501165986061096,3.979326725006104,33.51959562291597,33.09672095591222,133.42196591437946,121.171152743884,6.47544875391759e-05,0.0874469503760337,0,0,0
11277,382376.3647215112,2010-09-19 00:10:48,3691.872694856778,2,33,0.550297200679779,3.981107473373413,33.524182485263175,33.09672095591222,133.44022248319447,121.171152743884,0.0,0.0874469503760337,0,0,0
11278,382406.3802251761,2010-09-19 00:11:18,3721.88819853172,2,33,0.5501165986061096,3.983211994171143,33.52876938952968,33.09672095591222,133.45848856870987,121.171152743884,6.47544875391759e-05,0.0874469503760337,0,0,0
11279,382436.395554962,2010-09-19 00:11:48,3751.9035283326457,2,33,0.550297200679779,3.985316514968872,33.53335631883395,33.09672095591222,133.47676416266816,121.171152743884,6.47544875391759e-05,0.0874469503760337,0,0,0
11280,382466.4107754551,2010-09-19 00:12:18,3781.91874880066,2,33,0.5501165986061096,3.987259149551392,33.537943182921545,33.09672095591222,133.49504900566228,121.171152743884,3.237724376958795e-05,0.0874469503760337,0,0,0
11281,382496.4261324639,2010-09-19 00:12:48,3811.9341058395767,2,33,0.5501165986061096,3.989363670349121,33.542530067897566,33.09672095591222,133.51334347443995,121.171152743884,3.237724376958795e-05,0.0874469503760337,0,0,0
11282,382526.4418547946,2010-09-19 00:13:18,3841.9498282605423,2,33,0.5501165986061096,3.991630077362061,33.54711696208463,33.09672095591222,133.5316476229492,121.171152743884,6.47544875391759e-05,0.0874469503760337,0,0,0
11283,382556.45684954425,2010-09-19 00:13:48,3871.9648228898286,2,33,0.550297200679779,3.993896484375,33.551703757756044,33.09672095591222,133.54996114315932,121.171152743884,9.713172767078504e-05,0.0874469503760337,0,0,0
11284,382586.4722081972,2010-09-19 00:14:18,3901.980181572849,2,33,0.550297200679779,3.995838880538941,33.55629064004542,33.09672095591222,133.56828481180358,121.171152743884,3.237724376958795e-05,0.0874469503760337,0,0,0
11285,382616.4875708701,2010-09-19 00:14:48,3931.995544240816,2,33,0.5501165986061096,3.99794340133667,33.56087748190837,33.09672095591222,133.58661817228716,121.171152743884,3.237724376958795e-05,0.0874469503760337,0,0,0
11286,382646.50290974375,2010-09-19 00:15:18,3962.0108831093767,2,33,0.5501165986061096,4.0000481605529785,33.56546432740493,33.09672095591222,133.6049613630829,121.171152743884,0.0,0.0874469503760337,0,0,0
11287,382676.5187346756,2010-09-19 00:15:48,3992.026708031201,2,33,0.550297200679779,4.002314567565918,33.57005123218855,33.09672095591222,133.62331484742126,121.171152743884,3.24249267578125e-05,0.0874469503760337,0,0,0
11288,382706.5335973104,2010-09-19 00:16:18,4022.0415706660087,2,33,0.5501165986061096,4.004418849945068,33.57463805191764,33.09672095591222,133.6416781202927,121.171152743884,0.0,0.0874469503760337,0,0,0
11289,382736.5490838274,2010-09-19 00:16:48,4052.0570571680846,2,33,0.5501165986061096,4.006847381591797,33.579224941155935,33.09672095591222,133.6600518066544,121.171152743884,6.47544875391759e-05,0.0874469503760337,0,0,0
11290,382766.56431822525,2010-09-19 00:17:18,4082.072291595945,2,33,0.5501165986061096,4.008951663970947,33.58381175828936,33.09672095591222,133.67843539069872,121.171152743884,6.47544875391759e-05,0.0874469503760337,0,0,0
11291,382796.57965843217,2010-09-19 00:17:48,4112.087631777784,2,33,0.550297200679779,4.011380195617676,33.58839860313881,33.09672095591222,133.6968293122993,121.171152743884,9.71794142969884e-05,0.0874469503760337,0,0,0
11292,382826.59504897473,2010-09-19 00:18:18,4142.103022345393,2,33,0.5501165986061096,4.013484477996826,33.59298547600629,33.09672095591222,133.715233724761,121.171152743884,3.23295607813634e-05,0.0874469503760337,0,0,0
11293,382856.610367267,2010-09-19 00:18:48,4172.118340612529,2,33,0.550297200679779,4.015913009643555,33.597572331507585,33.09672095591222,133.73364849749586,121.171152743884,6.47544875391759e-05,0.0874469503760337,0,0,0
11294,382886.6257285313,2010-09-19 00:19:18,4202.133701876994,2,33,0.5501165986061096,4.018179416656494,33.602159252282846,33.09672095591222,133.75207413080048,121.171152743884,3.24249267578125e-05,0.0874469503760337,0,0,0
11295,382916.6412381661,2010-09-19 00:19:48,4232.14921160705,2,33,0.5501165986061096,4.020445823669434,33.60674615150932,33.09672095591222,133.77051021247993,121.171152743884,6.47544875391759e-05,0.0874469503760337,0,0,0
11296,382946.6564209201,2010-09-19 00:20:18,4262.1643942907485,2,33,0.550297200679779,4.022873878479004,33.61133293644226,33.09672095591222,133.78895664045916,121.171152743884,6.47544875391759e-05,0.0874469503760337,0,0,0
11297,382976.6719385699,2010-09-19 00:20:48,4292.179911915512,2,33,0.5501165986061096,4.025302410125732,33.61591977879135,33.09672095591222,133.80741410827324,121.171152743884,9.71794142969884e-05,0.0874469503760337,0,0,0
11298,383006.6871889026,2010-09-19 00:21:18,4322.195162333285,2,33,0.550297200679779,4.027730464935303,33.62050664788669,33.09672095591222,133.82588262791444,121.171152743884,9.70840483205393e-05,0.0874469503760337,0,0,0
11299,383036.70265042223,2010-09-19 00:21:48,4352.210623863028,2,33,0.5501165986061096,4.029996871948242,33.6250935772089,33.09672095591222,133.84436240057047,121.171152743884,6.47544875391759e-05,0.0874469503760337,0,0,0
11300,383066.7179647344,2010-09-19 00:22:18,4382.225938080054,2,33,0.5504778623580933,4.032587051391602,33.62968038938291,33.09672095591222,133.86285279258948,121.171152743884,9.70840483205393e-05,0.0874469503760337,0,0,0
11301,383096.73327168834,2010-09-19 00:22:48,4412.241245129188,2,33,0.5501165986061096,4.034853458404541,33.634267248710145,33.09672095591222,133.881354635077,121.171152743884,6.47544875391759e-05,0.0874469503760337,0,0,0
11302,383126.7485638904,2010-09-19 00:23:18,4442.256537266099,2,33,0.5501165986061096,4.0374436378479,33.638854096482085,33.09672095591222,133.89986778209473,121.171152743884,9.71794142969884e-05,0.0874469503760337,0,0,0
11303,383156.76402550034,2010-09-19 00:23:48,4472.27199885599,2,33,0.5501165986061096,4.039871692657471,33.643441039923204,33.09672095591222,133.91839281418623,121.171152743884,6.47544875391759e-05,0.0874469503760337,0,0,0
11304,383186.77925063,2010-09-19 00:24:18,4502.287224000678,2,33,0.5499359965324402,4.042300224304199,33.64802787371732,33.09672095591222,133.93692887361576,121.171152743884,6.47544875391759e-05,0.0874469503760337,0,0,0
11305,383216.7946166363,2010-09-19 00:24:48,4532.302590011992,2,33,0.5499359965324402,4.0447282791137695,33.65261476108246,33.09672095591222,133.9554768921842,121.171152743884,3.23295607813634e-05,0.0874469503760337,0,0,0
11306,383246.809947946,2010-09-19 00:25:18,4562.317921316671,2,33,0.5501165986061096,4.047642230987549,33.657201632262215,33.09672095591222,133.9740365840974,121.171152743884,9.70840483205393e-05,0.0874469503760337,0,0,0
11307,383276.8254112652,2010-09-19 00:25:48,4592.33338463588,2,33,0.5501165986061096,4.050232410430908,33.66178844544055,33.09672095591222,133.99260791322868,121.171152743884,6.47544875391759e-05,0.0874469503760337,0,0,0
11308,383306.840645648,2010-09-19 00:26:18,4622.348619018628,2,33,0.550297200679779,4.052822589874268,33.66637524739294,33.09672095591222,134.0111911100935,121.171152743884,6.47544875391759e-05,0.0874469503760337,0,0,0
11309,383336.8559917496,2010-09-19 00:26:48,4652.363965120243,2,33,0.5499359965324402,4.055251121520996,33.67096204853971,33.09672095591222,134.0297864503792,121.171152743884,3.24249267578125e-05,0.0874469503760337,0,0,0
11310,383366.8713554552,2010-09-19 00:27:18,4682.379328800737,2,33,0.5501165986061096,4.058165073394775,33.67554890456103,33.09672095591222,134.04839429380095,121.171152743884,6.47544875391759e-05,0.0874469503760337,0,0,0
11311,383396.8866973161,2010-09-19 00:27:48,4712.394670691842,2,33,0.550297200679779,4.060755252838135,33.68013587411925,33.09672095591222,134.06701505494547,121.171152743884,3.24249267578125e-05,0.0874469503760337,0,0,0
11312,383426.9020605305,2010-09-19 00:28:18,4742.410033906174,2,33,0.5501165986061096,4.063507080078125,33.68472279183162,33.09672095591222,134.0856477069795,121.171152743884,6.47544875391759e-05,0.0874469503760337,0,0,0
11313,383456.917577669,2010-09-19 00:28:48,4772.425551109885,2,33,0.5501165986061096,4.066259384155273,33.689309718966435,33.09672095591222,134.10429313149558,121.171152743884,6.47544875391759e-05,0.0874469503760337,0,0,0
11314,383486.9329954094,2010-09-19 00:29:18,4802.440968850323,2,33,0.5501165986061096,4.069173336029053,33.69389658699833,33.09672095591222,134.12295107302256,121.171152743884,9.71794142969884e-05,0.0874469503760337,0,0,0
11315,383516.9481581283,2010-09-19 00:29:49,4832.456131664424,2,33,0.550297200679779,4.071925163269043,33.69848347658088,33.09672095591222,134.14162180780113,121.171152743884,6.47544875391759e-05,0.0874469503760337,0,0,0
11316,383546.9636012621,2010-09-19 00:30:19,4862.471574632834,2,33,0.550297200679779,4.074839115142822,33.703070277897254,33.09672095591222,134.1603050183621,121.171152743884,0.0001295089750783,0.0874469503760337,0,0,0
11317,383576.97894798033,2010-09-19 00:30:49,4892.486921421163,2,33,0.5501165986061096,4.077429294586182,33.70765717338347,33.09672095591222,134.17900172512378,121.171152743884,6.47544875391759e-05,0.0874469503760337,0,0,0
11318,383606.9942013605,2010-09-19 00:31:19,4922.502174706093,2,33,0.550297200679779,4.08050537109375,33.712243977389384,33.09672095591222,134.19771121963083,121.171152743884,0.0001295089750783,0.0874469503760337,0,0,0
11319,383637.00965650927,2010-09-19 00:31:49,4952.517629945132,2,33,0.5501165986061096,4.08325719833374,33.71683081368071,33.09672095591222,134.21643419878464,121.171152743884,3.23295607813634e-05,0.0874469503760337,0,0,0
11320,383667.02489886695,2010-09-19 00:32:19,4982.532872217575,2,33,0.550297200679779,4.086333274841309,33.721417607647936,33.09672095591222,134.2351704728088,121.171152743884,6.47544875391759e-05,0.0874469503760337,0,0,0
11321,383697.0402273898,2010-09-19 00:32:49,5012.548200735297,2,33,0.5501165986061096,4.089408874511719,33.72600444974616,33.09672095591222,134.25392047673506,121.171152743884,9.70840483205393e-05,0.0874469503760337,0,0,0
11322,383727.0555844687,2010-09-19 00:33:19,5042.563557844388,2,33,0.5501165986061096,4.092161178588867,33.73059138542941,33.09672095591222,134.27268455816025,121.171152743884,9.71794142969884e-05,0.0874469503760337,0,0,0
11323,383757.07092310674,2010-09-19 00:33:49,5072.578896452298,2,33,0.5501165986061096,4.095398902893066,33.735178280128345,33.09672095591222,134.291462293949,121.171152743884,9.71794142969884e-05,0.0874469503760337,0,0,0
11324,383787.0863990073,2010-09-19 00:34:19,5102.594372347899,2,33,0.5501165986061096,4.098474502563477,33.73976517703199,33.09672095591222,134.31025396906554,121.171152743884,0.0001295089750783,0.0874469503760337,0,0,0
11325,383817.1016501819,2010-09-19 00:34:49,5132.609623647875,2,33,0.550297200679779,4.101550579071045,33.74435207697296,33.09672095591222,134.32905972913974,121.171152743884,0.0001295089750783,0.0874469503760337,0,0,0
11326,383847.1171214811,2010-09-19 00:35:19,5162.625094836727,2,33,0.5499359965324402,4.104464530944824,33.748939027470804,33.09672095591222,134.3478797682696,121.171152743884,9.71794142969884e-05,0.0874469503760337,0,0,0
11327,383877.1325937026,2010-09-19 00:35:49,5192.6405671433695,2,33,0.550297200679779,4.107702255249023,33.75352593396542,33.09672095591222,134.36671396305374,121.171152743884,0.0001295089750783,0.0874469503760337,0,0,0
11328,383907.1476862212,2010-09-19 00:36:19,5222.655659566764,2,33,0.5499359965324402,4.110616207122803,33.75811281145183,33.09672095591222,134.38556240189442,121.171152743884,3.24249267578125e-05,0.0874469503760337,0,0,0
11329,383937.16303900944,2010-09-19 00:36:49,5252.671012380133,2,33,0.550297200679779,4.114177703857422,33.762699680651394,33.09672095591222,134.40442524239668,121.171152743884,0.0001295089750783,0.0874469503760337,0,0,0
11330,383967.178406304,2010-09-19 00:37:19,5282.686379649587,2,33,0.5501165986061096,4.117253303527832,33.767286601585546,33.09672095591222,134.42330298611495,121.171152743884,6.47544875391759e-05,0.0874469503760337,0,0,0
11331,383997.19376618497,2010-09-19 00:37:49,5312.7017395305975,2,33,0.550297200679779,4.120491027832031,33.771873503429774,33.09672095591222,134.44219539919808,121.171152743884,9.71794142969884e-05,0.0874469503760337,0,0,0
11332,384027.20909298846,2010-09-19 00:38:19,5342.717066334042,2,33,0.5501165986061096,4.123566627502441,33.77646047812561,33.09672095591222,134.46110299007233,121.171152743884,9.70840483205393e-05,0.0874469503760337,0,0,0
11333,384057.224574072,2010-09-19 00:38:49,5372.732547417592,2,33,0.5501165986061096,4.1271281242370605,33.78104738456996,33.09672095591222,134.4800252835233,121.171152743884,0.0001295089750783,0.0874469503760337,0,0,0
11334,384087.23981346725,2010-09-19 00:39:19,5402.747786832902,2,33,0.5501165986061096,4.130204200744629,33.78563429488121,33.09672095591222,134.4989627280069,121.171152743884,6.47544875391759e-05,0.0874469503760337,0,0,0
11335,384117.2552714531,2010-09-19 00:39:49,5432.76324480376,2,33,0.5501165986061096,4.133603572845459,33.79022124955457,33.09672095591222,134.51791560875995,121.171152743884,9.70840483205393e-05,0.0874469503760337,0,0,0
11336,384147.2704803222,2010-09-19 00:40:19,5462.778453692872,2,33,0.5499359965324402,4.136841297149658,33.79480824766341,33.09672095591222,134.53688400927504,121.171152743884,9.70840483205393e-05,0.0874469503760337,0,0,0
11337,384177.2858509801,2010-09-19 00:40:49,5492.7938243307335,2,33,0.550297200679779,4.140402793884277,33.79939591502804,33.09672095591222,134.55587067590758,121.171152743884,9.70840483205393e-05,0.0874469503760337,0,0,0
11338,384207.3012139439,2010-09-19 00:41:19,5522.809187314489,2,33,0.550297200679779,4.143640518188477,33.80398358913741,33.09672095591222,134.57487297172946,121.171152743884,9.70840483205393e-05,0.0874469503760337,0,0,0
11339,384237.3167077692,2010-09-19 00:41:49,5552.824681109771,2,33,0.5501165986061096,4.147202014923096,33.80857041726482,33.09672095591222,134.5938876870639,121.171152743884,6.47544875391759e-05,0.0874469503760337,0,0,0
11340,384267.33196212177,2010-09-19 00:42:19,5582.839935467378,2,33,0.5501165986061096,4.150763511657715,33.813157260553744,33.09672095591222,134.6129183906832,121.171152743884,9.70840483205393e-05,0.0874469503760337,0,0,0
11341,384297.3473056018,2010-09-19 00:42:49,5612.8552789675,2,33,0.5501165986061096,4.154163360595703,33.81774412879649,33.09672095591222,134.63196517444143,121.171152743884,9.71794142969884e-05,0.0874469503760337,0,0,0
11342,384327.3626718588,2010-09-19 00:43:19,5642.870645204375,2,33,0.5501165986061096,4.157724857330322,33.82233099821563,33.09672095591222,134.65102803038727,121.171152743884,9.71794142969884e-05,0.0874469503760337,0,0,0
11343,384357.3779907575,2010-09-19 00:43:49,5672.885964103088,2,33,0.5499359965324402,4.161124229431152,33.82691780342519,33.09672095591222,134.67010687455786,121.171152743884,3.23295607813634e-05,0.0874469503760337,0,0,0
11344,384387.39334324,2010-09-19 00:44:19,5702.901316585631,2,33,0.550297200679779,4.1648478507995605,33.831504732289616,33.09672095591222,134.6892025597791,121.171152743884,0.0001295089750783,0.0874469503760337,0,0,0
11345,384417.4087054569,2010-09-19 00:44:49,5732.916678802472,2,33,0.550297200679779,4.1685709953308105,33.83609148120057,33.09672095591222,134.70831389783902,121.171152743884,0.0001295089750783,0.0874469503760337,0,0,0
11346,384447.42407395947,2010-09-19 00:45:19,5762.932047305004,2,33,0.5499359965324402,4.171970844268799,33.84067835810205,33.09672095591222,134.7274423630353,121.171152743884,9.71794142969884e-05,0.0874469503760337,0,0,0
11347,384477.4394057102,2010-09-19 00:45:49,5792.947379055797,2,33,0.5501165986061096,4.175693988800049,33.845265170232594,33.09672095591222,134.74658717593496,121.171152743884,9.70840483205393e-05,0.0874469503760337,0,0,0
11348,384507.4548994504,2010-09-19 00:46:19,5822.962872805966,2,33,0.5499359965324402,4.179417610168457,33.84985199254635,33.09672095591222,134.76574885066614,121.171152743884,0.0001295089750783,0.0874469503760337,0,0,0
11349,384537.4701055625,2010-09-19 00:46:49,5852.978078908121,2,33,0.550297200679779,4.183140754699707,33.85443881643043,33.09672095591222,134.78492748427593,121.171152743884,9.70840483205393e-05,0.0874469503760337,0,0,0
11350,384567.4856055433,2010-09-19 00:47:19,5882.993578989092,2,33,0.550297200679779,4.186864376068115,33.85902571643402,33.09672095591222,134.80412350159182,121.171152743884,9.71794142969884e-05,0.0874469503760337,0,0,0
11351,384597.5012180699,2010-09-19 00:47:49,5913.00919142552,2,33,0.550297200679779,4.190749645233154,33.86361252326305,33.09672095591222,134.8233363582074,121.171152743884,0.0001295089750783,0.0874469503760337,0,0,0
11352,384627.5161651655,2010-09-19 00:48:19,5943.024138521155,2,33,0.5501165986061096,4.194472789764404,33.8681992535158,33.09672095591222,134.84256625411265,121.171152743884,0.0001295089750783,0.0874469503760337,0,0,0
11353,384657.5316495975,2010-09-19 00:48:49,5973.039622943038,2,33,0.550297200679779,4.198195934295654,33.87278612503415,33.09672095591222,134.8618141755271,121.171152743884,9.70840483205393e-05,0.0874469503760337,0,0,0
11354,384671.2502751173,2010-09-19 00:49:03,5986.758248462894,2,33,0.550297200679779,4.200138568878174,33.87488260451427,33.09672095591222,134.87061754871644,121.171152743884,0.0001295089750783,0.0874469503760337,0,0,0
11355,384701.2516693522,2010-09-19 00:49:33,30.01538333956684,3,33,0.0,4.122757434844971,33.87488260451427,33.09672095591222,134.87061754871644,121.171152743884,-0.0003237724304199,0.0874469503760337,0,0,0
11356,384731.26694873226,2010-09-19 00:50:03,60.03066271963478,3,33,0.0,4.113044261932373,33.87488260451427,33.09672095591222,134.87061754871644,121.171152743884,-0.0002266883820993,0.0874469503760337,0,0,0
11357,384761.2823018564,2010-09-19 00:50:33,90.04601583876676,3,33,0.0,4.107540130615234,33.87488260451427,33.09672095591222,134.87061754871644,121.171152743884,-0.0001295089750783,0.0874469503760337,0,0,0
11358,384791.2509562082,2010-09-19 00:51:03,120.01467018557862,3,33,0.0,4.103978633880615,33.87488260451427,33.09672095591222,134.87061754871644,121.171152743884,-0.0001295089750783,0.0874469503760337,0,0,0
11359,384791.2537632533,2010-09-19 00:51:03,0.015736094713342,4,33,0.9938735961914062,4.199653148651123,33.87488694887251,33.09672095591222,134.8706357935142,121.171152743884,0.0,0.0874469503760337,0,0,0
11360,384792.1600106764,2010-09-19 00:51:04,0.921983417453567,4,33,0.9438448548316956,4.199653148651123,33.875129308494834,33.09672095591222,134.87165361708912,121.171152743884,0.0,0.0874469503760337,0,0,0
11361,384794.20673392754,2010-09-19 00:51:06,2.968706668568851,4,33,0.8938160538673401,4.199653148651123,33.87565061555245,33.09672095591222,134.8738429071019,121.171152743884,0.0,0.0874469503760337,0,0,0
11362,384797.3163437621,2010-09-19 00:51:09,6.078316498104885,4,33,0.84360671043396,4.199653148651123,33.87639985443789,33.09672095591222,134.87698942735662,121.171152743884,0.0,0.0874469503760337,0,0,0
11363,384801.50367359153,2010-09-19 00:51:13,10.265646337588826,4,33,0.7933973073959351,4.199491024017334,33.87735080488753,33.09672095591222,134.8809830755854,121.171152743884,-6.47544875391759e-05,0.0874469503760337,0,0,0
11364,384806.9411506006,2010-09-19 00:51:19,15.703123336713569,4,33,0.7431879043579102,4.199653148651123,33.87851012699896,33.09672095591222,134.88585181788488,121.171152743884,0.0,0.0874469503760337,0,0,0
11365,384813.9565533151,2010-09-19 00:51:26,22.718526051181605,4,33,0.6931591629981995,4.199653148651123,33.87990795706393,33.09672095591222,134.8917222347428,121.171152743884,0.0,0.0874469503760337,0,0,0
11366,384823.2064724814,2010-09-19 00:51:35,31.96844522751021,4,33,0.643130362033844,4.199653148651123,33.881621769061155,33.09672095591222,134.8989196641356,121.171152743884,-3.23295607813634e-05,0.0874469503760337,0,0,0
11367,384835.8783590448,2010-09-19 00:51:48,44.64033181094347,4,33,0.5929210186004639,4.199491024017334,33.88379307199994,33.09672095591222,134.90803841812763,121.171152743884,-3.24249267578125e-05,0.0874469503760337,0,0,0
11368,384854.7531362626,2010-09-19 00:52:07,63.51510918407872,4,33,0.542711615562439,4.199491024017334,33.886762300136176,33.09672095591222,134.9205081851061,121.171152743884,-3.24249267578125e-05,0.0874469503760337,0,0,0
11369,384885.1906936184,2010-09-19 00:52:37,93.95266636450216,4,33,0.4926828742027282,4.199329376220703,33.89112242448881,33.09672095591222,134.93881921136142,121.171152743884,-6.47544875391759e-05,0.0874469503760337,0,0,0
11370,384937.3460661772,2010-09-19 00:53:29,146.1080389132874,4,33,0.4426541030406952,4.199491024017334,33.897869436231474,33.09672095591222,134.96715434076688,121.171152743884,-6.47544875391759e-05,0.0874469503760337,0,0,0
11371,385019.1421328236,2010-09-19 00:54:51,227.90410558470955,4,33,0.3926253318786621,4.199329376220703,33.907330756032955,33.09672095591222,135.0068886791379,121.171152743884,-3.23295607813634e-05,0.0874469503760337,0,0,0
11372,385124.8132326959,2010-09-19 00:56:37,333.57520545708326,4,33,0.3424159586429596,4.199653148651123,33.91809901533639,33.09672095591222,135.0521115736385,121.171152743884,3.24249267578125e-05,0.0874469503760337,0,0,0
11373,385254.28068649874,2010-09-19 00:58:46,463.0426592548322,4,33,0.2923871874809265,4.199491024017334,33.929501373904664,33.09672095591222,135.0999971773764,121.171152743884,-3.24249267578125e-05,0.0874469503760337,0,0,0
11374,385409.9512586111,2010-09-19 01:01:22,618.7132313571184,4,33,0.2423584014177322,4.199653148651123,33.94104351890197,33.09672095591222,135.14847038511004,121.171152743884,3.24249267578125e-05,0.0874469503760337,0,0,0
11375,385603.27756332513,2010-09-19 01:04:35,812.039536061168,4,33,0.1923296302556991,4.199491024017334,33.95268532735786,33.09672095591222,135.19736209183088,121.171152743884,-3.24249267578125e-05,0.0874469503760337,0,0,0
11376,385864.6501426242,2010-09-19 01:08:57,1073.412115355252,4,33,0.1421202570199966,4.199491024017334,33.96476477397799,33.09672095591222,135.2480916964836,121.171152743884,-3.24249267578125e-05,0.0874469503760337,0,0,0
11377,386253.255997318,2010-09-19 01:15:25,1462.0179700591093,4,33,0.0920914858579635,4.199491024017334,33.97724366740969,33.09672095591222,135.300498919829,121.171152743884,-6.47544875391759e-05,0.0874469503760337,0,0,0
11378,386848.2350015679,2010-09-19 01:25:20,2056.996974298923,4,33,0.0498289167881011,4.199491024017334,33.98865100635391,33.09672095591222,135.34840592321368,121.171152743884,-3.24249267578125e-05,0.0874469503760337,0,0,0
11379,386878.2561855011,2010-09-19 01:25:50,30.0153380465084,5,33,0.0,4.192530155181885,33.98865100635391,33.09672095591222,135.34840592321368,121.171152743884,-3.24249267578125e-05,0.0874469503760337,0,0,0
11380,386908.2559117982,2010-09-19 01:26:20,60.01506433867616,5,33,0.0,4.191397190093994,33.98865100635391,33.09672095591222,135.34840592321368,121.171152743884,0.0,0.0874469503760337,0,0,0
11381,386908.4497410501,2010-09-19 01:26:21,0.187437532918709,6,33,-1.9243103452026844e-05,4.191397190093994,33.98865100635391,33.096720956914126,135.34840592321368,121.1711527480834,0.0,0.0891468673944473,0,0,0
11382,386913.27794105007,2010-09-19 01:26:25,5.01563756299378,6,33,0.0008838032954372,4.191397190093994,33.98865184574209,33.09672095699885,135.34840944147828,121.17115274843852,-3.23295607813634e-05,0.0891468673944473,0,0,0
11383,386943.2839105434,2010-09-19 01:26:56,30.01529277851252,7,33,-1.099568486213684,4.030968189239502,33.98865184574209,33.1058902075928,135.34840944147828,121.2082955972931,-0.0008418083307333,0.0891468673944473,0,0,0
11384,386973.2992908003,2010-09-19 01:27:26,60.03067305543453,7,33,-1.0997490882873535,4.006685256958008,33.98865184574209,33.11505948534554,135.34840944147828,121.24513651950396,-0.0005180359003134,0.0891468673944473,0,0,0
11385,387003.3146297591,2010-09-19 01:27:56,90.04601199417009,7,33,-1.099568486213684,3.990173101425171,33.98865184574209,33.12422867983886,135.34840944147828,121.2817943516809,-0.0003561496851034,0.0891468673944473,0,0,0
11386,387033.3299692943,2010-09-19 01:28:26,120.06135152939451,7,33,-1.0997490882873535,3.977060317993164,33.98865184574209,33.133397789041986,135.34840944147828,121.31831807257716,-0.0003237724304199,0.0891468673944473,0,0,0
11387,387063.3453305888,2010-09-19 01:28:56,150.07671282894609,7,33,-1.099929690361023,3.966052055358887,33.98865184574209,33.142566859462235,135.34840944147828,121.354732162613,-0.0002590179501567,0.0891468673944473,0,0,0
11388,387093.360701753,2010-09-19 01:29:26,180.09208398810878,7,33,-1.0997490882873535,3.955853223800659,33.98865184574209,33.151735968604456,135.34840944147828,121.39105025958985,-0.0003237724304199,0.0891468673944473,0,0,0
11389,387123.37604188966,2010-09-19 01:29:56,210.1074241248347,7,33,-1.0997490882873535,3.9466257095336914,33.98865184574209,33.16090517566744,135.34840944147828,121.42728051154712,-0.0002590179501567,0.0891468673944473,0,0,0
11390,387153.3913983572,2010-09-19 01:30:26,240.1227805923247,7,33,-1.0997490882873535,3.937721967697144,33.98865184574209,33.17007430972162,135.34840944147828,121.46342741277122,-0.0002913951757363,0.0891468673944473,0,0,0
11391,387183.4068067744,2010-09-19 01:30:56,270.1381890145016,7,33,-1.099929690361023,3.929141998291016,33.98865184574209,33.17924350530135,135.34840944147828,121.49949476373736,-0.0002590179501567,0.0891468673944473,0,0,0
11392,387213.4221649712,2010-09-19 01:31:26,300.1535473015335,7,33,-1.0997490882873535,3.920885801315308,33.98865184574209,33.188412662558484,135.34840944147828,121.53548487422752,-0.0002266406954731,0.0891468673944473,0,0,0
11393,387243.43746441125,2010-09-19 01:31:56,330.1688466464367,7,33,-1.099568486213684,3.912953615188599,33.98865184574209,33.197581764989565,135.34840944147828,121.571399455031,-0.0001942157687153,0.0891468673944473,0,0,0
11394,387273.4530412088,2010-09-19 01:32:26,360.1844234489167,7,33,-1.099568486213684,3.905021190643311,33.98865184574209,33.20675099206589,135.34840944147828,121.60724058849875,-0.0001618862152099,0.0891468673944473,0,0,0
11395,387303.4682875314,2010-09-19 01:32:56,390.1996697915181,7,33,-1.0997490882873535,3.896926879882813,33.98865184574209,33.21592035584514,135.34840944147828,121.64300938710494,-0.0001942634553415,0.0891468673944473,0,0,0
11396,387333.4835073127,2010-09-19 01:33:26,420.2148895778308,7,33,-1.099929690361023,3.889318227767944,33.98865184574209,33.22509025876862,135.34840944147828,121.67870878302251,-0.0001942634553415,0.0891468673944473,0,0,0
11397,387363.49890042667,2010-09-19 01:33:56,450.2302826667335,7,33,-1.0997490882873535,3.881709575653076,33.98865184574209,33.234260060589065,135.34840944147828,121.7143377622528,-0.0001942634553415,0.0891468673944473,0,0,0
11398,387393.5142589292,2010-09-19 01:34:26,480.24564119436593,7,33,-1.0997490882873535,3.874100923538208,33.98865184574209,33.24342925435394,135.34840944147828,121.7498952530679,-0.0001618862152099,0.0891468673944473,0,0,0
11399,387423.52959115617,2010-09-19 01:34:56,510.2609733962853,7,33,-1.099568486213684,3.86681604385376,33.98865184574209,33.25259839107131,135.34840944147828,121.7853840328744,-0.0001618862152099,0.0891468673944473,0,0,0
11400,387453.5449681198,2010-09-19 01:35:26,540.2763503599369,7,33,-1.099568486213684,3.8593692779541016,33.98865184574209,33.26176760231648,135.34840944147828,121.82080559960896,-0.0002266406954731,0.0891468673944473,0,0,0
11401,387483.5603183467,2010-09-19 01:35:56,570.2917005868495,7,33,-1.099568486213684,3.8522462844848633,33.98865184574209,33.270936815744044,135.34840944147828,121.85616060457244,-0.0001618862152099,0.0891468673944473,0,0,0
11402,387513.5756648393,2010-09-19 01:36:26,600.3070471746782,7,33,-1.099929690361023,3.845123291015625,33.98865184574209,33.28010609491908,135.34840944147828,121.89144992780544,-0.0001942634553415,0.0891468673944473,0,0,0
11403,387543.5910116327,2010-09-19 01:36:56,630.3223938727825,7,33,-1.0997490882873535,3.8381621837615967,33.98865184574209,33.28927531608746,135.34840944147828,121.92667441401896,-0.0001618862152099,0.0891468673944473,0,0,0
11404,387573.60636493226,2010-09-19 01:37:26,660.3377471723649,7,33,-1.099929690361023,3.831201314926148,33.98865184574209,33.298444556556575,135.34840944147828,121.9618354143569,-0.0001942634553415,0.0891468673944473,0,0,0
11405,387603.6217508433,2010-09-19 01:37:56,690.3531331034005,7,33,-1.099929690361023,3.824402093887329,33.98865184574209,33.30761381905074,135.34840944147828,121.99693406970748,-0.0001942634553415,0.0891468673944473,0,0,0
11406,387633.6370702583,2010-09-19 01:38:26,720.3684524983516,7,33,-1.099929690361023,3.817602872848511,33.98865184574209,33.316783066394635,135.34840944147828,122.03197092967316,-0.0002266406954731,0.0891468673944473,0,0,0
11407,387663.65245452005,2010-09-19 01:38:56,750.383836850446,7,33,-1.0997490882873535,3.811289310455322,33.98865184574209,33.32595226417954,135.34840944147828,122.06694682429372,-0.0001295089750783,0.0891468673944473,0,0,0
11408,387693.6677901456,2010-09-19 01:39:26,780.3991724809235,7,33,-1.0997490882873535,3.804813861846924,33.98865184574209,33.33512141915676,135.34840944147828,122.10186264513288,-0.0001618862152099,0.0891468673944473,0,0,0
11409,387723.6831437008,2010-09-19 01:39:56,810.4145259509313,7,33,-1.0997490882873535,3.798338413238525,33.98865184574209,33.34429060123394,135.34840944147828,122.1367200641064,-0.0001942634553415,0.0891468673944473,0,0,0
11410,387753.6986097618,2010-09-19 01:40:26,840.4299920019587,7,33,-1.0997490882873535,3.792348623275757,33.98865184574209,33.353459824581584,135.34840944147828,122.17152043498773,-0.0001295089750783,0.0891468673944473,0,0,0
11411,387783.71383550303,2010-09-19 01:40:56,870.4452177732109,7,33,-1.0997490882873535,3.786035060882568,33.98865184574209,33.36262902123974,135.34840944147828,122.20626438169728,-0.0001618862152099,0.0891468673944473,0,0,0
11412,387813.72934857645,2010-09-19 01:41:26,900.4607308416008,7,33,-1.0997490882873535,3.7802071571350098,33.98865184574209,33.3717983173861,135.34840944147828,122.24095324075964,-0.0001295089750783,0.0891468673944473,0,0,0
11413,387843.74475713394,2010-09-19 01:41:56,930.4761393740528,7,33,-1.1001102924346924,3.774379253387451,33.98865184574209,33.38096755496986,135.34840944147828,122.27558769498194,-0.0001295089750783,0.0891468673944473,0,0,0
11414,387873.759896294,2010-09-19 01:42:26,960.4912785341104,7,33,-1.099568486213684,3.768713235855103,33.98865184574209,33.39013678807486,135.34840944147828,122.31016907009824,-0.0001618862152099,0.0891468673944473,0,0,0
11415,387903.7752579996,2010-09-19 01:42:56,990.5066402396752,7,33,-1.0997490882873535,3.763047218322754,33.98865184574209,33.39930605952837,135.34840944147828,122.3446987939376,-0.0001618862152099,0.0891468673944473,0,0,0
11416,387933.7906022265,2010-09-19 01:43:26,1020.5219844816484,7,33,-1.0997490882873535,3.7575430870056152,33.98865184574209,33.4084753658281,135.34840944147828,122.37917755170496,-0.0001295089750783,0.0891468673944473,0,0,0
11417,387963.8061002423,2010-09-19 01:43:56,1050.5374825776653,7,33,-1.099929690361023,3.7518773078918457,33.98865184574209,33.41764473474114,135.34840944147828,122.41360611876704,-0.0001618862152099,0.0891468673944473,0,0,0
11418,387993.82182842266,2010-09-19 01:44:26,1080.5532106727949,7,33,-1.099929690361023,3.746696949005127,33.98865184574209,33.42681415663897,135.34840944147828,122.44798531949029,-0.0001295089750783,0.0891468673944473,0,0,0
11419,388023.8367258744,2010-09-19 01:44:56,1110.5681082297735,7,33,-1.0997490882873535,3.7413547039031982,33.98865184574209,33.43598332431321,135.34840944147828,122.48231510696134,-0.0001295089750783,0.0891468673944473,0,0,0
11420,388053.8521574143,2010-09-19 01:45:26,1140.583539654368,7,33,-1.0997490882873535,3.7363362312316895,33.98865184574209,33.44515272212945,135.34840944147828,122.51659836374446,-9.713172767078504e-05,0.0891468673944473,0,0,0
11421,388083.8674223533,2010-09-19 01:45:56,1170.5988046886266,7,33,-1.0997490882873535,3.7313177585601807,33.98865184574209,33.45432195740985,135.34840944147828,122.55083448088412,-9.713172767078504e-05,0.0891468673944473,0,0,0
11422,388113.8826962196,2010-09-19 01:46:26,1200.6140784847562,7,33,-1.099568486213684,3.726461172103882,33.98865184574209,33.46349103327895,135.34840944147828,122.5850242448778,-0.0001295089750783,0.0891468673944473,0,0,0
11423,388143.8981883407,2010-09-19 01:46:56,1230.629570580796,7,33,-1.099929690361023,3.721442699432373,33.98865184574209,33.47266009373771,135.34840944147828,122.61916906528508,-0.0001618862152099,0.0891468673944473,0,0,0
11424,388173.9134116057,2010-09-19 01:47:26,1260.644793865842,7,33,-1.0997490882873535,3.716586112976074,33.98865184574209,33.4818290443832,135.34840944147828,122.6532691089444,-0.0001618862152099,0.0891468673944473,0,0,0
11425,388203.92891442846,2010-09-19 01:47:56,1290.6602966786324,7,33,-1.0997490882873535,3.711891412734986,33.98865184574209,33.49099817698955,135.34840944147828,122.68732586621029,-0.0001295089750783,0.0891468673944473,0,0,0
11426,388233.9442635777,2010-09-19 01:48:26,1320.6756458278553,7,33,-1.0997490882873535,3.707196712493897,33.98865184574209,33.50016738182637,135.34840944147828,122.7213398529998,-0.0001618862152099,0.0891468673944473,0,0,0
11427,388263.9594699154,2010-09-19 01:48:56,1350.6908521555729,7,33,-1.0997490882873535,3.7026638984680176,33.98865184574209,33.5093367190906,135.34840944147828,122.75531209324024,-0.0001295089750783,0.0891468673944473,0,0,0
11428,388293.9748319719,2010-09-19 01:49:26,1380.706214212014,7,33,-1.0997490882873535,3.6981310844421382,33.98865184574209,33.518505990101026,135.34840944147828,122.78924241155848,-0.0001295089750783,0.0891468673944473,0,0,0
11429,388323.990189452,2010-09-19 01:49:56,1410.7215716920314,7,33,-1.1001102924346924,3.69359827041626,33.98865184574209,33.52767531672734,135.34840944147828,122.82313187598837,-0.0001618862152099,0.0891468673944473,0,0,0
11430,388354.0055326162,2010-09-19 01:50:26,1440.7369148563143,7,33,-1.0997490882873535,3.689227342605591,33.98865184574209,33.53684466094905,135.34840944147828,122.85698089864948,-0.0001295089750783,0.0891468673944473,0,0,0
11431,388384.0208854897,2010-09-19 01:50:56,1470.7522677298332,7,33,-1.099568486213684,3.685018301010132,33.98865184574209,33.5460139482041,135.34840944147828,122.89078983946136,-0.0001295089750783,0.0891468673944473,0,0,0
11432,388414.0362406239,2010-09-19 01:51:26,1500.7676228639953,7,33,-1.0997490882873535,3.680647373199463,33.98865184574209,33.55518315380354,135.34840944147828,122.92455942594388,-0.0001942634553415,0.0891468673944473,0,0,0
11433,388444.05166768254,2010-09-19 01:51:56,1530.7830499427416,7,33,-1.099568486213684,3.676600217819214,33.98865184574209,33.56435248973751,135.34840944147828,122.95829085967164,-0.0001295089750783,0.0891468673944473,0,0,0
11434,388474.06707279646,2010-09-19 01:52:26,1560.7984550416231,7,33,-1.099929690361023,3.672553062438965,33.98865184574209,33.5735218459308,135.34840944147828,122.99198450432804,-9.713172767078504e-05,0.0891468673944473,0,0,0
11435,388504.08229960536,2010-09-19 01:52:56,1590.8136818454527,7,33,-1.0997490882873535,3.668506145477295,33.98865184574209,33.582691085609056,135.34840944147828,123.02564014119012,-9.713172767078504e-05,0.0891468673944473,0,0,0
11436,388534.0976550453,2010-09-19 01:53:26,1620.8290372853778,7,33,-1.0997490882873535,3.664458990097046,33.98865184574209,33.59186038440803,135.34840944147828,123.05925939814408,-0.0001295089750783,0.0891468673944473,0,0,0
11437,388564.113016415,2010-09-19 01:53:56,1650.8443986551044,7,33,-1.0997490882873535,3.660573720932007,33.98865184574209,33.60102964450661,135.34840944147828,123.09284265916745,-0.0001295089750783,0.0891468673944473,0,0,0
11438,388594.1283624666,2010-09-19 01:54:26,1680.8597447366697,7,33,-1.0997490882873535,3.6568503379821777,33.98865184574209,33.610198978199534,135.34840944147828,123.1263906487674,-6.47544875391759e-05,0.0891468673944473,0,0,0
11439,388624.1284376746,2010-09-19 01:54:56,1710.8598199147102,7,33,-1.099929690361023,3.653288841247559,33.98865184574209,33.61936358423221,135.34840944147828,123.15988688988546,-6.47544875391759e-05,0.0891468673944473,0,0,0
11440,388654.1434743187,2010-09-19 01:55:26,1740.874856558872,7,33,-1.0997490882873535,3.64940357208252,33.98865184574209,33.62853275619764,135.34840944147828,123.1933659653418,-9.713172767078504e-05,0.0891468673944473,0,0,0
11441,388684.1587987663,2010-09-19 01:55:56,1770.8901810064351,7,33,-1.0997490882873535,3.645842075347901,33.98865184574209,33.6377019851449,135.34840944147828,123.22681160632672,-6.47544875391759e-05,0.0891468673944473,0,0,0
11442,388714.1741595196,2010-09-19 01:56:26,1800.9055417896982,7,33,-1.099568486213684,3.642442464828491,33.98865184574209,33.64687120627441,135.34840944147828,123.2602247683119,-3.237724376958795e-05,0.0891468673944473,0,0,0
11443,388744.189501952,2010-09-19 01:56:56,1830.92088419208,7,33,-1.0997490882873535,3.639042854309082,33.98865184574209,33.65604047399599,135.34840944147828,123.2936065379716,-6.47544875391759e-05,0.0891468673944473,0,0,0
11444,388774.204854625,2010-09-19 01:57:26,1860.936236865098,7,33,-1.1001102924346924,3.635319471359253,33.98865184574209,33.665209750613,135.34840944147828,123.32695705142235,-0.0001295089750783,0.0891468673944473,0,0,0
11445,388804.2202576285,2010-09-19 01:57:56,1890.951639893812,7,33,-1.099568486213684,3.632243633270264,33.98865184574209,33.67437901884156,135.34840944147828,123.36027733588368,-9.713172767078504e-05,0.0891468673944473,0,0,0
11446,388834.2355868582,2010-09-19 01:58:26,1920.966969098249,7,33,-1.0997490882873535,3.6291677951812735,33.98865184574209,33.68354830253903,135.34840944147828,123.39356805228849,-6.47544875391759e-05,0.0891468673944473,0,0,0
11447,388864.2511045982,2010-09-19 01:58:57,1950.982486933538,7,33,-1.0997490882873535,3.625930070877075,33.98865184574209,33.69271763936826,135.34840944147828,123.42683009824296,-9.713172767078504e-05,0.0891468673944473,0,0,0
11448,388894.2662713872,2010-09-19 01:59:27,1980.997653632336,7,33,-1.099568486213684,3.623016119003296,33.98865184574209,33.701886845115155,135.34840944147828,123.46006331939664,-6.47544875391759e-05,0.0891468673944473,0,0,0
11449,388924.2817543554,2010-09-19 01:59:57,2011.013136605604,7,33,-1.099568486213684,3.619940280914306,33.98865184574209,33.71105617265425,135.34840944147828,123.49326940338216,-9.713172767078504e-05,0.0891468673944473,0,0,0
11450,388954.2969975703,2010-09-19 02:00:27,2041.0283799056103,7,33,-1.0997490882873535,3.6170263290405273,33.98865184574209,33.720225392037975,135.34840944147828,123.52644788561788,-6.47544875391759e-05,0.0891468673944473,0,0,0
11451,388984.312330454,2010-09-19 02:00:57,2071.0437126939937,7,33,-1.099568486213684,3.614274263381958,33.98865184574209,33.72939469296362,135.34840944147828,123.559600060662,-6.47544875391759e-05,0.0891468673944473,0,0,0
11452,389014.3277087408,2010-09-19 02:01:27,2101.0590910009987,7,33,-1.0997490882873535,3.6111984252929688,33.98865184574209,33.73856396147406,135.34840944147828,123.59272583092232,-9.713172767078504e-05,0.0891468673944473,0,0,0
11453,389044.34316766914,2010-09-19 02:01:57,2131.0745499142085,7,33,-1.0997490882873535,3.60860824584961,33.98865184574209,33.74773323445601,135.34840944147828,123.62582572530708,0.0,0.0891468673944473,0,0,0
11454,389074.3585134349,2010-09-19 02:02:27,2161.089895700036,7,33,-1.0997490882873535,3.60569429397583,33.98865184574209,33.756902594296534,135.34840944147828,123.65890017297414,-6.47544875391759e-05,0.0891468673944473,0,0,0
11455,389104.37372672,2010-09-19 02:02:57,2191.1051089600583,7,33,-1.0997490882873535,3.6029422283172607,33.98865184574209,33.76607185825846,135.34840944147828,123.69194868030662,-6.47544875391759e-05,0.0891468673944473,0,0,0
11456,389134.38925499126,2010-09-19 02:03:27,2221.120637231397,7,33,-1.0997490882873535,3.6001901626586914,33.98865184574209,33.775241257498564,135.34840944147828,123.72497271178568,-9.713172767078504e-05,0.0891468673944473,0,0,0
11457,389164.4044867375,2010-09-19 02:03:57,2251.1358689775634,7,33,-1.099929690361023,3.597438097000122,33.98865184574209,33.78441057008708,135.34840944147828,123.75797121282224,-6.47544875391759e-05,0.0891468673944473,0,0,0
11458,389194.4198451548,2010-09-19 02:04:27,2281.15122739492,7,33,-1.0997490882873535,3.5946860313415527,33.98865184574209,33.79357994993061,135.34840944147828,123.79094438828028,-9.713172767078504e-05,0.0891468673944473,0,0,0
11459,389224.4353298975,2010-09-19 02:04:57,2311.166712137605,7,33,-1.099929690361023,3.5917723178863525,33.98865184574209,33.80274942403649,135.34840944147828,123.82389264968168,-6.47544875391759e-05,0.0891468673944473,0,0,0
11460,389254.4505415334,2010-09-19 02:05:27,2341.181923793624,7,33,-1.0997490882873535,3.588858366012573,33.98865184574209,33.8119187605325,135.34840944147828,123.85681463330717,-9.713172767078504e-05,0.0891468673944473,0,0,0
11461,389284.4658932892,2010-09-19 02:05:57,2371.197275539327,7,33,-1.0997490882873535,3.586268186569214,33.98865184574209,33.82108813036899,135.34840944147828,123.8897104668956,-6.47544875391759e-05,0.0891468673944473,0,0,0
11462,389314.4813862073,2010-09-19 02:06:27,2401.212768457419,7,33,-1.0997490882873535,3.5831923484802246,33.98865184574209,33.83025752637421,135.34840944147828,123.92258019075024,-9.713172767078504e-05,0.0891468673944473,0,0,0
11463,389344.4965981039,2010-09-19 02:06:57,2431.227980374088,7,33,-1.0997490882873535,3.5804402828216557,33.98865184574209,33.839426909708195,135.34840944147828,123.95542333456676,-6.47544875391759e-05,0.0891468673944473,0,0,0
11464,389374.51208528766,2010-09-19 02:07:27,2461.243467542828,7,33,-1.099929690361023,3.577202558517456,33.98865184574209,33.84859635939736,135.34840944147828,123.98823957048847,-0.0001295089750783,0.0891468673944473,0,0,0
11465,389404.527310678,2010-09-19 02:07:57,2491.258692918092,7,33,-1.0997490882873535,3.5742886066436768,33.98865184574209,33.85776574654375,135.34840944147828,124.02102799292015,-9.713172767078504e-05,0.0891468673944473,0,0,0
11466,389434.5426982381,2010-09-19 02:08:27,2521.274080508269,7,33,-1.0997490882873535,3.571374654769897,33.98865184574209,33.866935203240885,135.34840944147828,124.05378840750946,-3.237724376958795e-05,0.0891468673944473,0,0,0
11467,389464.5581532666,2010-09-19 02:08:57,2551.289535506707,7,33,-1.0997490882873535,3.5681369304656982,33.98865184574209,33.876104670852094,135.34840944147828,124.08651995715752,-6.47544875391759e-05,0.0891468673944473,0,0,0
11468,389494.57337138365,2010-09-19 02:09:27,2581.304753623853,7,33,-1.0997490882873535,3.564737319946289,33.98865184574209,33.88527412227308,135.34840944147828,124.11922141542254,-3.237724376958795e-05,0.0891468673944473,0,0,0
11469,389524.58872500405,2010-09-19 02:09:57,2611.320107254261,7,33,-1.0997490882873535,3.56133770942688,33.98865184574209,33.894443451909694,135.34840944147828,124.15189162824208,-6.47544875391759e-05,0.0891468673944473,0,0,0
11470,389554.6040919327,2010-09-19 02:10:27,2641.335474172839,7,33,-1.0997490882873535,3.5577762126922607,33.98865184574209,33.903612879868334,135.34840944147828,124.18453047264656,-9.713172767078504e-05,0.0891468673944473,0,0,0
11471,389584.61943854566,2010-09-19 02:10:57,2671.350820785731,7,33,-1.099568486213684,3.5542147159576416,33.98865184574209,33.912782355637404,135.34840944147828,124.21713618755952,-6.47544875391759e-05,0.0891468673944473,0,0,0
11472,389614.6348315744,2010-09-19 02:11:27,2701.366213814483,7,33,-1.0997490882873535,3.5500056743621826,33.98865184574209,33.92195180802388,135.34840944147828,124.24970712900952,-9.713172767078504e-05,0.0891468673944473,0,0,0
11473,389644.6502138212,2010-09-19 02:11:57,2731.381596086385,7,33,-1.0997490882873535,3.546282291412353,33.98865184574209,33.93112118633035,135.34840944147828,124.28224216241485,-9.713172767078504e-05,0.0891468673944473,0,0,0
11474,389674.6655312864,2010-09-19 02:12:27,2761.3969136166816,7,33,-1.0997490882873535,3.5420732498168945,33.98865184574209,33.94029058241429,135.34840944147828,124.31473971001908,-9.713172767078504e-05,0.0891468673944473,0,0,0
11475,389704.680859353,2010-09-19 02:12:57,2791.4122416231285,7,33,-1.0997490882873535,3.5377023220062256,33.98865184574209,33.9494600579324,135.34840944147828,124.34719890264309,-0.0001295089750783,0.0891468673944473,0,0,0
11476,389734.6962049884,2010-09-19 02:13:27,2821.4275872285048,7,33,-1.0997490882873535,3.5331695079803467,33.98865184574209,33.95862951780812,135.34840944147828,124.37961755617144,-0.0001295089750783,0.0891468673944473,0,0,0
11477,389764.7115680424,2010-09-19 02:13:57,2851.442950282436,7,33,-1.0997490882873535,3.528636693954468,33.98865184574209,33.96779893655498,135.34840944147828,124.411994040527,-9.713172767078504e-05,0.0891468673944473,0,0,0
11478,389794.727129697,2010-09-19 02:14:27,2881.4585119371045,7,33,-1.099568486213684,3.523618221282959,33.98865184574209,33.976968471212224,135.34840944147828,124.4443268250797,-0.0001295089750783,0.0891468673944473,0,0,0
11479,389824.74227402,2010-09-19 02:14:57,2911.4736562600488,7,33,-1.099568486213684,3.5182759761810303,33.98865184574209,33.986137761043025,135.34840944147828,124.47661149114109,-0.0001295089750783,0.0891468673944473,0,0,0
11480,389854.7576642016,2010-09-19 02:15:27,2941.489046466758,7,33,-1.0997490882873535,3.5126099586486816,33.98865184574209,33.995307249591484,135.34840944147828,124.5088465593614,-0.0001618862152099,0.0891468673944473,0,0,0
11481,389884.77298272937,2010-09-19 02:15:57,2971.5043649694817,7,33,-1.0997490882873535,3.5064585208892822,33.98865184574209,34.00447665541032,135.34840944147828,124.54102730109808,-0.0001618862152099,0.0891468673944473,0,0,0
11482,389914.7883490565,2010-09-19 02:16:27,3001.5197312965824,7,33,-1.0997490882873535,3.499821186065674,33.98865184574209,34.01364614130879,135.34840944147828,124.57314919509948,-0.0001618862152099,0.0891468673944473,0,0,0
11483,389944.804079718,2010-09-19 02:16:57,3031.535461973156,7,33,-1.099568486213684,3.4922125339508057,33.98865184574209,34.02281576442689,135.34840944147828,124.60520700163346,-0.0002266406954731,0.0891468673944473,0,0,0
11484,389974.8190423074,2010-09-19 02:17:27,3061.550424642666,7,33,-1.099929690361023,3.483794450759888,33.98865184574209,34.031985119832164,135.34840944147828,124.63719099046902,-0.0002266406954731,0.0891468673944473,0,0,0
11485,390004.834394454,2010-09-19 02:17:57,3091.5657766941326,7,33,-1.1001102924346924,3.47391939163208,33.98865184574209,34.04115451120901,135.34840944147828,124.66909088845388,-0.0002913951757363,0.0891468673944473,0,0,0
11486,390034.8497750918,2010-09-19 02:18:27,3121.581157331956,7,33,-1.0997490882873535,3.461939811706543,33.98865184574209,34.05032397769998,135.34840944147828,124.70089203221296,-0.0003561496851034,0.0891468673944473,0,0,0
11487,390064.8651186421,2010-09-19 02:18:57,3151.5965009072647,7,33,-1.099568486213684,3.4473700523376465,33.98865184574209,34.0594933627332,135.34840944147828,124.73257188394196,-0.0004209041653666,0.0891468673944473,0,0,0
11488,390094.8803637216,2010-09-19 02:19:27,3181.6117459616503,7,33,-1.0997490882873535,3.4279439449310303,33.98865184574209,34.068662854623284,135.34840944147828,124.76409787885072,-0.0005827903514727,0.0891468673944473,0,0,0
11489,390124.8957832966,2010-09-19 02:19:57,3211.627165541679,7,33,-1.0997490882873535,3.4013946056365967,33.98865184574209,34.077832371354546,135.34840944147828,124.79541566862332,-0.0008094310760498,0.0891468673944473,0,0,0
11490,390154.9111440097,2010-09-19 02:20:27,3241.6425262798293,7,33,-1.0997490882873535,3.363027572631836,33.98865184574209,34.08700182564837,135.34840944147828,124.82643958200528,-0.0011979580158367,0.0891468673944473,0,0,0
11491,390184.9266285519,2010-09-19 02:20:57,3271.6580108921885,7,33,-1.099568486213684,3.3078246116638184,33.98865184574209,34.09617129121906,135.34840944147828,124.85703939212736,-0.0017159938579425,0.0891468673944473,0,0,0
11492,390214.94178353134,2010-09-19 02:21:27,3301.673165866721,7,33,-1.099568486213684,3.2281768321990967,33.98865184574209,34.105340613646035,135.34840944147828,124.887026859854,-0.0024930476211011,0.0891468673944473,0,0,0
11493,390244.9572135476,2010-09-19 02:21:57,3331.688595787562,7,33,-1.0997490882873535,3.1054675579071045,33.98865184574209,34.114510094634966,135.34840944147828,124.91610971643276,-0.0040147304534912,0.0891468673944473,0,0,0
11494,390270.06635443104,2010-09-19 02:22:22,3356.797736671152,7,33,-1.099929690361023,2.905376672744751,33.98865184574209,34.1221807117885,135.34840944147828,124.93928673361263,-0.0096159931272268,0.0891468673944473,0,0,0
11495,390282.1912598103,2010-09-19 02:22:34,3368.9226420503487,7,33,-1.0997490882873535,2.705286026000977,33.98865184574209,34.125884818568295,135.34840944147828,124.9496974690007,-0.0143430707976222,0.0891468673944473,0,0,0
11496,390282.5193843396,2010-09-19 02:22:35,3369.250766604717,7,33,-1.099929690361023,2.699620008468628,33.98865184574209,34.12598505636703,135.34840944147828,124.94996838350671,-0.0143430707976222,0.0891468673944473,0,0,0
11497,390342.5400870696,2010-09-19 02:23:35,60.01509271450659,8,33,0.0,3.3492674827575684,33.98865184574209,34.12598505636703,135.34840944147828,124.94996838350671,0.0013922214275225,0.0891468673944473,0,0,0
11498,390342.7178104272,2010-09-19 02:23:35,0.187201368415776,9,33,-1.9243103452026844e-05,3.3494293689727783,33.98865184574209,34.12598505736768,135.34840944147828,124.94996838685832,0.0,0.0874469503760337,0,0,0
11499,390347.5457925683,2010-09-19 02:23:40,5.01518352965672,9,33,0.0005225847125984,3.3575234413146973,33.98865260364829,34.12598505753407,135.34841198362588,124.94996838741564,0.0011655807029455,0.0874469503760337,0,0,0
