Data_Point,Test_Time(s),Date_Time,Step_Time(s),Step_Index,Cycle_Index,Current(A),Voltage(V),Charge_Capacity(Ah),Discharge_Capacity(Ah),Charge_Energy(Wh),Discharge_Energy(Wh),dV/dt(V/s),Internal_Resistance(Ohm),Is_FC_Data,AC_Impedance(Ohm),ACI_Phase_Angle(Deg)
10453,355014.9817637974,2010-09-18 16:34:44,30.01532214682033,1,31,0.0,3.3929765224456787,30.90138410617874,31.036349552318843,123.06573270115808,113.60700441585038,0.0007122993702068,0.0867940634489059,0,0,0
10454,355044.9973336877,2010-09-18 16:35:14,60.03089192175855,1,31,0.0,3.416611909866333,30.90138410617874,31.036349552318843,123.06573270115808,113.60700441585038,0.0005504131549969,0.0867940634489059,0,0,0
10455,355075.01247051684,2010-09-18 16:35:44,90.0460288462354,1,31,0.0,3.4337716102600098,30.90138410617874,31.036349552318843,123.06573270115808,113.60700441585038,0.0004856109735555,0.0867940634489059,0,0,0
10456,355104.9809220124,2010-09-18 16:36:14,120.01448025648638,1,31,0.0,3.446722507476806,30.90138410617874,31.036349552318843,123.06573270115808,113.60700441585038,0.0002913951757363,0.0867940634489059,0,0,0
10457,355135.0097776091,2010-09-18 16:36:44,30.01537159023871,2,31,0.5501165986061096,3.585134983062744,30.90597083880942,31.036349552318843,123.08202713765093,113.60700441585038,0.0014569759368896,0.0867940634489059,0,0,0
10458,355165.02509572584,2010-09-18 16:37:14,60.03068973206195,2,31,0.5501165986061096,3.629977226257324,30.91055765902004,31.036349552318843,123.09857996164024,113.60700441585038,0.0010360718006268,0.0867940634489059,0,0,0
10459,355195.040458484,2010-09-18 16:37:44,90.04605249526703,2,31,0.5501165986061096,3.663325786590576,30.91514439169363,31.036349552318843,123.11530887381232,113.60700441585038,0.0008094310760498,0.0867940634489059,0,0,0
10460,355225.055791072,2010-09-18 16:38:14,120.06138507813736,2,31,0.5501165986061096,3.689874887466431,30.91973117873431,31.036349552318843,123.13217437167162,113.60700441585038,0.0006475448608398,0.0867940634489059,0,0,0
10461,355255.0711491284,2010-09-18 16:38:44,150.0767431095311,2,31,0.5501165986061096,3.711729526519776,30.92431786947179,31.036349552318843,123.14915023994014,113.60700441585038,0.0005180359003134,0.0867940634489059,0,0,0
10462,355285.08650954574,2010-09-18 16:39:14,180.0921035469306,2,31,0.5501165986061096,3.729860782623291,30.92890464532568,31.036349552318843,123.16621821971972,113.60700441585038,0.0004532813909463,0.0867940634489059,0,0,0
10463,355315.1019587948,2010-09-18 16:39:44,210.10755279601776,2,31,0.5499359965324402,3.7442686557769775,30.933491212483275,31.036349552318843,123.1833601220768,113.60700441585038,0.0003237724304199,0.0867940634489059,0,0,0
10464,355345.11716985435,2010-09-18 16:40:14,240.1227638605596,2,31,0.5499359965324402,3.753981590270996,30.93807699262407,31.036349552318843,123.20055472279476,113.60700441585038,0.0001942634553415,0.0867940634489059,0,0,0
10465,355375.13256135926,2010-09-18 16:40:44,270.138155340446,2,31,0.5499359965324402,3.759323835372925,30.942662933940912,31.036349552318843,123.21778382867336,113.60700441585038,6.47544875391759e-05,0.0867940634489059,0,0,0
10466,355405.1478901477,2010-09-18 16:41:14,300.1534841288447,2,31,0.550297200679779,3.763047218322754,30.94724965330032,31.036349552318843,123.23503605337964,113.60700441585038,6.47544875391759e-05,0.0867940634489059,0,0,0
10467,355435.16324440466,2010-09-18 16:41:44,330.1688383858169,2,31,0.5504778623580933,3.766446828842163,30.9518363998734,31.036349552318843,123.25230374420106,113.60700441585038,0.0001295089750783,0.0867940634489059,0,0,0
10468,355465.1785876442,2010-09-18 16:42:14,360.1841816252877,2,31,0.5501165986061096,3.769198894500733,30.95642311564477,31.036349552318843,123.269585461843,113.60700441585038,6.47544875391759e-05,0.0867940634489059,0,0,0
10469,355495.1939515452,2010-09-18 16:42:44,390.1995455513956,2,31,0.5501165986061096,3.772436618804932,30.961009855381636,31.036349552318843,123.28688117779116,113.60700441585038,9.713172767078504e-05,0.0867940634489059,0,0,0
10470,355525.20941177174,2010-09-18 16:43:14,420.2150057628465,2,31,0.5499359965324402,3.775350570678711,30.965596568544072,31.036349552318843,123.3041906415234,113.60700441585038,6.47544875391759e-05,0.0867940634489059,0,0,0
10471,355555.224621929,2010-09-18 16:43:44,450.2302159100987,2,31,0.5501165986061096,3.77826452255249,30.970183320807116,31.036349552318843,123.32151389110976,113.60700441585038,6.47544875391759e-05,0.0867940634489059,0,0,0
10472,355585.2399839403,2010-09-18 16:44:14,480.24557792142696,2,31,0.5501165986061096,3.7811784744262695,30.97477011883316,31.036349552318843,123.33885081444768,113.60700441585038,6.47544875391759e-05,0.0867940634489059,0,0,0
10473,355615.2579111397,2010-09-18 16:44:44,510.26350521609714,2,31,0.550297200679779,3.784092426300049,30.979357221869662,31.036349552318843,123.35620213969712,113.60700441585038,9.713172767078504e-05,0.0867940634489059,0,0,0
10474,355645.27067051444,2010-09-18 16:45:14,540.2762645858315,2,31,0.5499359965324402,3.786844491958618,30.98394361313743,31.036349552318843,123.37356400630316,113.60700441585038,6.47544875391759e-05,0.0867940634489059,0,0,0
10475,355675.2860486109,2010-09-18 16:45:44,570.2916427123859,2,31,0.5501165986061096,3.7897584438323975,30.98853036875438,31.036349552318843,123.39094037983836,113.60700441585038,3.237724376958795e-05,0.0867940634489059,0,0,0
10476,355705.3013911537,2010-09-18 16:46:14,600.3069851598799,2,31,0.5501165986061096,3.792510509490967,30.993117124186853,31.036349552318843,123.40832968993185,113.60700441585038,6.47544875391759e-05,0.0867940634489059,0,0,0
10477,355735.3167250298,2010-09-18 16:46:44,630.3223190109157,2,31,0.550297200679779,3.795586347579956,30.997703821554182,31.036349552318843,123.42573171584148,113.60700441585038,9.713172767078504e-05,0.0867940634489059,0,0,0
10478,355765.33205712645,2010-09-18 16:47:14,660.3376511125848,2,31,0.5501165986061096,3.798338413238525,31.002290599930596,31.036349552318843,123.44314715718096,113.60700441585038,6.47544875391759e-05,0.0867940634489059,0,0,0
10479,355795.34741045104,2010-09-18 16:47:44,690.3530044322173,2,31,0.550297200679779,3.8012523651123047,31.00687738813704,31.036349552318843,123.4605757901728,113.60700441585038,9.713172767078504e-05,0.0867940634489059,0,0,0
10480,355825.3627513998,2010-09-18 16:48:14,720.3683453809701,2,31,0.5501165986061096,3.804004430770874,31.01146413725867,31.036349552318843,123.47801750897088,113.60700441585038,6.47544875391759e-05,0.0867940634489059,0,0,0
10481,355855.37831327005,2010-09-18 16:48:44,750.383907251177,2,31,0.5501165986061096,3.8070802688598633,31.01605088476153,31.036349552318843,123.4954729200446,113.60700441585038,6.47544875391759e-05,0.0867940634489059,0,0,0
10482,355885.3934406106,2010-09-18 16:49:14,780.3990345917309,2,31,0.550297200679779,3.8103179931640634,31.02063768435479,31.036349552318843,123.51294281777209,113.60700441585038,9.713172767078504e-05,0.0867940634489059,0,0,0
10483,355915.40880533366,2010-09-18 16:49:45,810.4143993198408,2,31,0.5497553944587708,3.813393831253052,31.02522445026479,31.036349552318843,123.53042739437444,113.60700441585038,3.237724376958795e-05,0.0867940634489059,0,0,0
10484,355945.42426685337,2010-09-18 16:50:15,840.4298608395573,2,31,0.5501165986061096,3.817117214202881,31.02981123809228,31.036349552318843,123.54792754693078,113.60700441585038,9.713172767078504e-05,0.0867940634489059,0,0,0
10485,355975.4395092812,2010-09-18 16:50:45,870.4451032623742,2,31,0.550297200679779,3.82035493850708,31.03439795435655,31.036349552318843,123.56544302245408,113.60700441585038,6.47544875391759e-05,0.0867940634489059,0,0,0
10486,356005.45495677594,2010-09-18 16:51:15,900.4605508773824,2,31,0.5501165986061096,3.823916435241699,31.038984722046813,31.036349552318843,123.58297448844934,113.60700441585038,9.713172767078504e-05,0.0867940634489059,0,0,0
10487,356035.47017049714,2010-09-18 16:51:45,930.4757644782552,2,31,0.550297200679779,3.8274779319763184,31.0435714400769,31.036349552318843,123.6005216388275,113.60700441585038,9.713172767078504e-05,0.0867940634489059,0,0,0
10488,356065.48568284366,2010-09-18 16:52:15,960.4912768549184,2,31,0.5501165986061096,3.8307156562805176,31.04815815806285,31.036349552318843,123.61808447137976,113.60700441585038,9.713172767078504e-05,0.0867940634489059,0,0,0
10489,356095.5008852165,2010-09-18 16:52:45,990.5064791976896,2,31,0.5501165986061096,3.834115028381348,31.05274493769062,31.036349552318843,123.63566302769452,113.60700441585038,6.47544875391759e-05,0.0867940634489059,0,0,0
10490,356125.5162275187,2010-09-18 16:53:15,1020.5218215248832,2,31,0.5501165986061096,3.837514638900757,31.05733166346321,31.036349552318843,123.65325654406526,113.60700441585038,0.0001295089750783,0.0867940634489059,0,0,0
10491,356155.53155349003,2010-09-18 16:53:45,1050.5371474711876,2,31,0.5501165986061096,3.840590476989746,31.061918447710173,31.036349552318843,123.67086514417898,113.60700441585038,6.47544875391759e-05,0.0867940634489059,0,0,0
10492,356185.5469051555,2010-09-18 16:54:15,1080.5524991366913,2,31,0.5501165986061096,3.843666315078736,31.066505212817777,31.036349552318843,123.68848821299449,113.60700441585038,6.47544875391759e-05,0.0867940634489059,0,0,0
10493,356215.5622642496,2010-09-18 16:54:45,1110.5678582608125,2,31,0.550297200679779,3.8467421531677246,31.07109193909537,31.036349552318843,123.70612542218971,113.60700441585038,9.713172767078504e-05,0.0867940634489059,0,0,0
10494,356245.5775941959,2010-09-18 16:55:15,1140.5831881770266,2,31,0.5501165986061096,3.849817991256714,31.075678703052063,31.036349552318843,123.72377676149922,113.60700441585038,6.47544875391759e-05,0.0867940634489059,0,0,0
10495,356275.59306832706,2010-09-18 16:55:45,1170.5986623082233,2,31,0.5501165986061096,3.852731943130493,31.080265471874387,31.036349552318843,123.74144174474512,113.60700441585038,9.713172767078504e-05,0.0867940634489059,0,0,0
10496,356305.608288354,2010-09-18 16:56:15,1200.6138823351366,2,31,0.5501165986061096,3.8554840087890634,31.084852233427952,31.036349552318843,123.75911976395072,113.60700441585038,6.47544875391759e-05,0.0867940634489059,0,0,0
10497,356335.62365671113,2010-09-18 16:56:45,1230.629250712355,2,31,0.5499359965324402,3.858074188232422,31.08943898263444,31.036349552318843,123.77681038964072,113.60700441585038,0.0,0.0867940634489059,0,0,0
10498,356365.63897843193,2010-09-18 16:57:15,1260.6445724130615,2,31,0.550297200679779,3.860826253890991,31.094025701532885,31.036349552318843,123.79451278822584,113.60700441585038,9.713172767078504e-05,0.0867940634489059,0,0,0
10499,356395.6543272403,2010-09-18 16:57:45,1290.6599212214337,2,31,0.5501165986061096,3.8632545471191406,31.098612370436665,31.036349552318843,123.81222627800176,113.60700441585038,6.47544875391759e-05,0.0867940634489059,0,0,0
10500,356425.66979779257,2010-09-18 16:58:15,1320.6753917837218,2,31,0.5501165986061096,3.86535906791687,31.103199193775087,31.036349552318843,123.82995095006328,113.60700441585038,6.47544875391759e-05,0.0867940634489059,0,0,0
10501,356455.68503635074,2010-09-18 16:58:45,1350.6906303318667,2,31,0.5501165986061096,3.8674635887146,31.107785829967312,31.036349552318843,123.84768477209892,113.60700441585038,6.47544875391759e-05,0.0867940634489059,0,0,0
10502,356485.7003662068,2010-09-18 16:59:15,1380.7059602831685,2,31,0.5501165986061096,3.869406223297119,31.112372520531437,31.036349552318843,123.86542806226328,113.60700441585038,6.47544875391759e-05,0.0867940634489059,0,0,0
10503,356515.71572386223,2010-09-18 16:59:45,1410.7213179386238,2,31,0.550297200679779,3.871348857879639,31.116959296834995,31.036349552318843,123.8831802687094,113.60700441585038,9.713172767078504e-05,0.0867940634489059,0,0,0
10504,356545.7310851367,2010-09-18 17:00:15,1440.73667914795,2,31,0.5501165986061096,3.8729677200317374,31.12154600019682,31.036349552318843,123.90094011143418,113.60700441585038,9.713172767078504e-05,0.0867940634489059,0,0,0
10505,356575.7464279251,2010-09-18 17:00:45,1470.7520219062196,2,31,0.550297200679779,3.874424695968628,31.126132779223376,31.036349552318843,123.91870756866702,113.60700441585038,6.47544875391759e-05,0.0867940634489059,0,0,0
10506,356605.7617539265,2010-09-18 17:01:15,1500.7673479076618,2,31,0.5499359965324402,3.875719785690308,31.130719491729177,31.036349552318843,123.9364814636778,113.60700441585038,3.237724376958795e-05,0.0867940634489059,0,0,0
10507,356635.77709737653,2010-09-18 17:01:45,1530.7826913576582,2,31,0.5501165986061096,3.877176761627197,31.13530624888288,31.036349552318843,123.95426192516658,113.60700441585038,3.237724376958795e-05,0.0867940634489059,0,0,0
10508,356665.79258166306,2010-09-18 17:02:15,1560.798175739442,2,31,0.5499359965324402,3.878309965133667,31.139893016071845,31.036349552318843,123.97204843105956,113.60700441585038,3.237724376958795e-05,0.0867940634489059,0,0,0
10509,356695.8077879557,2010-09-18 17:02:45,1590.8133819368347,2,31,0.5499359965324402,3.8796050548553462,31.14447973194559,31.036349552318843,123.98984038565028,113.60700441585038,6.47544875391759e-05,0.0867940634489059,0,0,0
10510,356725.8231330899,2010-09-18 17:03:15,1620.828727071035,2,31,0.5501165986061096,3.880738258361816,31.14906643267919,31.036349552318843,124.0076376871482,113.60700441585038,3.237724376958795e-05,0.0867940634489059,0,0,0
10511,356755.838531472,2010-09-18 17:03:45,1650.844125548388,2,31,0.5501165986061096,3.882033348083496,31.153653145062925,31.036349552318843,124.02544039566702,113.60700441585038,3.237724376958795e-05,0.0867940634489059,0,0,0
10512,356785.8538509371,2010-09-18 17:04:15,1680.8594450085018,2,31,0.5499359965324402,3.883004665374756,31.15823982497686,31.036349552318843,124.04324820663702,113.60700441585038,0.0,0.0867940634489059,0,0,0
10513,356815.8693964264,2010-09-18 17:04:45,1710.874990432657,2,31,0.5499359965324402,3.8841378688812256,31.16282655470264,31.036349552318843,124.0610614547974,113.60700441585038,0.0,0.0867940634489059,0,0,0
10514,356845.8845150001,2010-09-18 17:05:15,1740.89010907149,2,31,0.5499359965324402,3.8852710723876953,31.16741319708461,31.036349552318843,124.07887951352495,113.60700441585038,0.0,0.0867940634489059,0,0,0
10515,356875.8998593173,2010-09-18 17:05:45,1770.9054533234882,2,31,0.5501165986061096,3.886404275894165,31.171999811693237,31.036349552318843,124.096702657102,113.60700441585038,3.237724376958795e-05,0.0867940634489059,0,0,0
10516,356905.91526146384,2010-09-18 17:06:15,1800.9208554399252,2,31,0.5501165986061096,3.8875374794006343,31.176586531091623,31.036349552318843,124.11453124004176,113.60700441585038,3.237724376958795e-05,0.0867940634489059,0,0,0
10517,356935.93061411177,2010-09-18 17:06:45,1830.9362080928936,2,31,0.5501165986061096,3.888670682907105,31.181173230060423,31.036349552318843,124.13236484064306,113.60700441585038,3.237724376958795e-05,0.0867940634489059,0,0,0
10518,356965.9460055616,2010-09-18 17:07:15,1860.9515996579923,2,31,0.5501165986061096,3.889642000198364,31.18575996274475,31.036349552318843,124.15020365656466,113.60700441585038,0.0,0.0867940634489059,0,0,0
10519,356995.9616759326,2010-09-18 17:07:45,1890.967270019009,2,31,0.5501165986061096,3.890775203704834,31.190346883839524,31.036349552318843,124.16804828749426,113.60700441585038,0.0,0.0867940634489059,0,0,0
10520,357025.97662689287,2010-09-18 17:08:15,1920.982220874028,2,31,0.5501165986061096,3.8920702934265137,31.194933589650617,31.036349552318843,124.1858972231578,113.60700441585038,6.47544875391759e-05,0.0867940634489059,0,0,0
10521,357055.9920033152,2010-09-18 17:08:45,1950.9975973013409,2,31,0.550297200679779,3.893203496932984,31.19952038824075,31.036349552318843,124.20375169911767,113.60700441585038,0.0,0.0867940634489059,0,0,0
10522,357086.00745291513,2010-09-18 17:09:15,1981.013046901304,2,31,0.5501165986061096,3.894336700439453,31.20410716149349,31.036349552318843,124.22161130166302,113.60700441585038,3.237724376958795e-05,0.0867940634489059,0,0,0
10523,357116.0226645762,2010-09-18 17:09:45,2011.028258557322,2,31,0.550297200679779,3.895308017730713,31.208693931020797,31.036349552318843,124.23947576553134,113.60700441585038,6.47544875391759e-05,0.0867940634489059,0,0,0
10524,357146.0380173545,2010-09-18 17:10:15,2041.0436113356031,2,31,0.550297200679779,3.8966031074523926,31.21328071006648,31.036349552318843,124.2573455172617,113.60700441585038,3.237724376958795e-05,0.0867940634489059,0,0,0
10525,357176.0533948044,2010-09-18 17:10:45,2071.058988800506,2,31,0.550297200679779,3.897574424743652,31.21786747401613,31.036349552318843,124.27522056204836,113.60700441585038,0.0,0.0867940634489059,0,0,0
10526,357206.06870921684,2010-09-18 17:11:15,2101.0743031979828,2,31,0.5501165986061096,3.899031400680542,31.222454246145013,31.036349552318843,124.2931010033644,113.60700441585038,6.47544875391759e-05,0.0867940634489059,0,0,0
10527,357236.0841840498,2010-09-18 17:11:45,2131.089778030931,2,31,0.550297200679779,3.9000027179718018,31.2270410430342,31.036349552318843,124.31098699784442,113.60700441585038,0.0,0.0867940634489059,0,0,0
10528,357266.09941610176,2010-09-18 17:12:15,2161.1050101780984,2,31,0.550297200679779,3.9012978076934814,31.231627735901355,31.036349552318843,124.32887800227296,113.60700441585038,6.47544875391759e-05,0.0867940634489059,0,0,0
10529,357296.11477203283,2010-09-18 17:12:45,2191.120366008999,2,31,0.5499359965324402,3.902269124984741,31.23621438692799,31.036349552318843,124.34677442993872,113.60700441585038,0.0,0.0867940634489059,0,0,0
10530,357326.1300972273,2010-09-18 17:13:15,2221.1356912084398,2,31,0.5501165986061096,3.903726100921631,31.240801101554627,31.036349552318843,124.36467671695596,113.60700441585038,6.47544875391759e-05,0.0867940634489059,0,0,0
10531,357356.14551222086,2010-09-18 17:13:45,2251.151106297257,2,31,0.550297200679779,3.9048593044281006,31.24538783045765,31.036349552318843,124.382584754568,113.60700441585038,0.0,0.0867940634489059,0,0,0
10532,357386.16094915924,2010-09-18 17:14:15,2281.16654314539,2,31,0.5501165986061096,3.90615439414978,31.24997462970014,31.036349552318843,124.40049864777276,113.60700441585038,6.47544875391759e-05,0.0867940634489059,0,0,0
10533,357416.1761439532,2010-09-18 17:14:45,2311.1817379643803,2,31,0.550297200679779,3.90744948387146,31.25456131136573,31.036349552318843,124.41841790987242,113.60700441585038,3.237724376958795e-05,0.0867940634489059,0,0,0
10534,357446.19161699165,2010-09-18 17:15:15,2341.1972109727744,2,31,0.5501165986061096,3.9085826873779297,31.259148064384032,31.036349552318843,124.43634324018755,113.60700441585038,0.0,0.0867940634489059,0,0,0
10535,357476.2068304772,2010-09-18 17:15:45,2371.212424453347,2,31,0.5501165986061096,3.90987777709961,31.263734755485437,31.036349552318843,124.45427426904352,113.60700441585038,0.0,0.0867940634489059,0,0,0
10536,357506.2221857216,2010-09-18 17:16:15,2401.227779697784,2,31,0.5501165986061096,3.911334753036499,31.26832157262673,31.036349552318843,124.4722117520913,113.60700441585038,3.237724376958795e-05,0.0867940634489059,0,0,0
10537,357536.24017838447,2010-09-18 17:16:45,2431.245772450849,2,31,0.5501165986061096,3.9124679565429688,31.2729086580876,31.036349552318843,124.49015631376368,113.60700441585038,0.0,0.0867940634489059,0,0,0
10538,357566.25289485714,2010-09-18 17:17:15,2461.2584889235054,2,31,0.5499359965324402,3.9139246940612793,31.277495018652097,31.036349552318843,124.5081041146465,113.60700441585038,0.0,0.0867940634489059,0,0,0
10539,357596.2682842318,2010-09-18 17:17:45,2491.273878212924,2,31,0.5501165986061096,3.915381669998169,31.282081766494933,31.036349552318843,124.52605964530734,113.60700441585038,6.47544875391759e-05,0.0867940634489059,0,0,0
10540,357626.283565682,2010-09-18 17:18:15,2521.28915966316,2,31,0.550297200679779,3.9166767597198486,31.286668508699183,31.036349552318843,124.54402115412272,113.60700441585038,6.47544875391759e-05,0.0867940634489059,0,0,0
10541,357656.29893614945,2010-09-18 17:18:45,2551.3045301255825,2,31,0.5501165986061096,3.917971849441528,31.291255205273004,31.036349552318843,124.56198884625184,113.60700441585038,3.237724376958795e-05,0.0867940634489059,0,0,0
10542,357686.3142624617,2010-09-18 17:19:15,2581.3198564378004,2,31,0.5501165986061096,3.919428825378418,31.29584191053321,31.036349552318843,124.57996283583668,113.60700441585038,6.47544875391759e-05,0.0867940634489059,0,0,0
10543,357716.3296142324,2010-09-18 17:19:45,2611.335208208567,2,31,0.5499359965324402,3.920885801315308,31.300428670638773,31.036349552318843,124.5979435232192,113.60700441585038,3.237724376958795e-05,0.0867940634489059,0,0,0
10544,357746.3449566348,2010-09-18 17:20:15,2641.350550610948,2,31,0.5504778623580933,3.922342777252197,31.305015424124967,31.036349552318843,124.6159305442376,113.60700441585038,6.47544875391759e-05,0.0867940634489059,0,0,0
10545,357776.3605340589,2010-09-18 17:20:45,2671.366128039992,2,31,0.5499359965324402,3.923475980758667,31.30960218521615,31.036349552318843,124.63392413742363,113.60700441585038,0.0,0.0867940634489059,0,0,0
10546,357806.37567833666,2010-09-18 17:21:15,2701.381272342887,2,31,0.5499359965324402,3.9249329566955566,31.314188951057552,31.036349552318843,124.6519243369999,113.60700441585038,0.0,0.0867940634489059,0,0,0
10547,357836.391003481,2010-09-18 17:21:46,2731.3965974621265,2,31,0.550297200679779,3.926551818847656,31.318775762550395,31.036349552318843,124.66993126269443,113.60700441585038,6.47544875391759e-05,0.0867940634489059,0,0,0
10548,357866.4063452468,2010-09-18 17:22:16,2761.411939227919,2,31,0.550297200679779,3.928008794784546,31.323362482232604,31.036349552318843,124.68794449168752,113.60700441585038,3.237724376958795e-05,0.0867940634489059,0,0,0
10549,357896.42171166406,2010-09-18 17:22:46,2791.4273056452453,2,31,0.5501165986061096,3.929465770721436,31.32794923844751,31.036349552318843,124.70596456921903,113.60700441585038,6.47544875391759e-05,0.0867940634489059,0,0,0
10550,357926.4370557357,2010-09-18 17:23:16,2821.4426497117806,2,31,0.5501165986061096,3.930922746658325,31.33253587333991,31.036349552318843,124.72399101110192,113.60700441585038,0.0,0.0867940634489059,0,0,0
10551,357956.4524121781,2010-09-18 17:23:46,2851.458006154208,2,31,0.5501165986061096,3.932379722595215,31.337122626768604,31.036349552318843,124.74202470546042,113.60700441585038,0.0,0.0867940634489059,0,0,0
10552,357986.46774927725,2010-09-18 17:24:16,2881.473343253352,2,31,0.5499359965324402,3.933836698532105,31.34170940546569,31.036349552318843,124.76006545913694,113.60700441585038,6.47544875391759e-05,0.0867940634489059,0,0,0
10553,358016.48312318325,2010-09-18 17:24:46,2911.488717274659,2,31,0.5501165986061096,3.935455560684204,31.346296236507783,31.036349552318843,124.77811344720418,113.60700441585038,3.237724376958795e-05,0.0867940634489059,0,0,0
10554,358046.4985837155,2010-09-18 17:25:16,2941.504177716685,2,31,0.5501165986061096,3.9369125366210938,31.35088301635382,31.036349552318843,124.79616813594306,113.60700441585038,0.0,0.0867940634489059,0,0,0
10555,358076.5138077625,2010-09-18 17:25:46,2971.519401743583,2,31,0.550297200679779,3.9386932849884033,31.35546972344325,31.036349552318843,124.81422973735212,113.60700441585038,6.47544875391759e-05,0.0867940634489059,0,0,0
10556,358106.52913245064,2010-09-18 17:26:16,3001.534726431747,2,31,0.5501165986061096,3.940150260925293,31.36005643612269,31.036349552318843,124.83229850976836,113.60700441585038,3.237724376958795e-05,0.0867940634489059,0,0,0
10557,358136.54449531407,2010-09-18 17:26:46,3031.5500892901896,2,31,0.5501165986061096,3.9417691230773926,31.36464322173106,31.036349552318843,124.85037484364942,113.60700441585038,3.237724376958795e-05,0.0867940634489059,0,0,0
10558,358166.5598272403,2010-09-18 17:27:16,3061.5654212214336,2,31,0.550297200679779,3.943387985229492,31.36922996748872,31.036349552318843,124.86845831021718,113.60700441585038,3.237724376958795e-05,0.0867940634489059,0,0,0
10559,358196.57529623364,2010-09-18 17:27:46,3091.580890214805,2,31,0.5501165986061096,3.945006847381592,31.37381676641116,31.036349552318843,124.88654937670758,113.60700441585038,0.0,0.0867940634489059,0,0,0
10560,358226.5905347968,2010-09-18 17:28:16,3121.596128798038,2,31,0.5501165986061096,3.9466257095336914,31.3784035305707,31.036349552318843,124.90464778117178,113.60700441585038,3.237724376958795e-05,0.0867940634489059,0,0,0
10561,358256.60600612604,2010-09-18 17:28:46,3151.611600112203,2,31,0.5501165986061096,3.948406457901001,31.382990322347545,31.036349552318843,124.922753673525,113.60700441585038,9.713172767078504e-05,0.0867940634489059,0,0,0
10562,358286.6212095816,2010-09-18 17:29:16,3181.6268035577264,2,31,0.5501165986061096,3.9500253200531006,31.387577088523315,31.036349552318843,124.94086715405582,113.60700441585038,6.47544875391759e-05,0.0867940634489059,0,0,0
10563,358316.6365574025,2010-09-18 17:29:46,3211.6421513786336,2,31,0.5501165986061096,3.9514822959899902,31.392163872549865,31.036349552318843,124.95898841164136,113.60700441585038,0.0,0.0867940634489059,0,0,0
10564,358346.65203400987,2010-09-18 17:30:16,3241.657627986011,2,31,0.5499359965324402,3.95310115814209,31.396750692024856,31.036349552318843,124.9771175056378,113.60700441585038,0.0,0.0867940634489059,0,0,0
10565,358376.6672623676,2010-09-18 17:30:46,3271.6728563537445,2,31,0.5501165986061096,3.95504379272461,31.401337433718208,31.036349552318843,124.99525417831504,113.60700441585038,3.237724376958795e-05,0.0867940634489059,0,0,0
10566,358406.68272649887,2010-09-18 17:31:16,3301.6883204899923,2,31,0.5501165986061096,3.956662654876709,31.405924213269927,31.036349552318843,125.01339896434092,113.60700441585038,-3.237724376958795e-05,0.0867940634489059,0,0,0
10567,358436.6979644805,2010-09-18 17:31:46,3331.7035584867613,2,31,0.5501165986061096,3.9584434032440186,31.410510988336156,31.036349552318843,125.03155161048475,113.60700441585038,6.47544875391759e-05,0.0867940634489059,0,0,0
10568,358466.7132991386,2010-09-18 17:32:16,3361.718893119749,2,31,0.5501165986061096,3.960224151611328,31.41509775158573,31.036349552318843,125.04971236808838,113.60700441585038,3.237724376958795e-05,0.0867940634489059,0,0,0
10569,358496.728658363,2010-09-18 17:32:46,3391.734252339108,2,31,0.5501165986061096,3.962166786193848,31.41968458235683,31.036349552318843,125.06788162490476,113.60700441585038,6.47544875391759e-05,0.0867940634489059,0,0,0
10570,358526.743992976,2010-09-18 17:33:16,3421.749586952046,2,31,0.5501165986061096,3.963947534561157,31.424271330204764,31.036349552318843,125.08605876317486,113.60700441585038,6.47544875391759e-05,0.0867940634489059,0,0,0
10571,358556.7593489923,2010-09-18 17:33:46,3451.7649429684093,2,31,0.5499359965324402,3.965728282928467,31.42885812329272,31.036349552318843,125.10424453739073,113.60700441585038,6.47544875391759e-05,0.0867940634489059,0,0,0
10572,358586.77482959966,2010-09-18 17:34:16,3481.780423605847,2,31,0.550297200679779,3.967509031295776,31.43344497080548,31.036349552318843,125.12243902754064,113.60700441585038,3.237724376958795e-05,0.0867940634489059,0,0,0
10573,358616.79004452383,2010-09-18 17:34:46,3511.795638499948,2,31,0.550297200679779,3.969451665878296,31.438031805170716,31.036349552318843,125.14064201695824,113.60700441585038,6.47544875391759e-05,0.0867940634489059,0,0,0
10574,358646.8055248305,2010-09-18 17:35:16,3541.81111892686,2,31,0.550297200679779,3.971394300460816,31.44261862793964,31.036349552318843,125.1588535363712,113.60700441585038,9.713172767078504e-05,0.0867940634489059,0,0,0
10575,358676.8207317947,2010-09-18 17:35:46,3571.826325805954,2,31,0.5501165986061096,3.973175048828125,31.447205353710373,31.036349552318843,125.17707342658294,113.60700441585038,3.237724376958795e-05,0.0867940634489059,0,0,0
10576,358706.8360776708,2010-09-18 17:36:16,3601.8416716619563,2,31,0.5501165986061096,3.9752795696258554,31.451792102819805,31.036349552318843,125.195302330457,113.60700441585038,6.47544875391759e-05,0.0867940634489059,0,0,0
10577,358736.8517923324,2010-09-18 17:36:46,3631.857386408767,2,31,0.5499359965324402,3.977222204208374,31.45637899874812,31.036349552318843,125.21354088291274,113.60700441585038,9.713172767078504e-05,0.0867940634489059,0,0,0
10578,358766.8667892273,2010-09-18 17:37:16,3661.872383203458,2,31,0.5501165986061096,3.9791648387908936,31.46096571594388,31.036349552318843,125.23178756702232,113.60700441585038,3.237724376958795e-05,0.0867940634489059,0,0,0
10579,358796.8821605469,2010-09-18 17:37:46,3691.8877545230207,2,31,0.5499359965324402,3.981269359588623,31.46555247916257,31.036349552318843,125.25004416890732,113.60700441585038,0.0,0.0867940634489059,0,0,0
10580,358826.8974810396,2010-09-18 17:38:16,3721.9030750157126,2,31,0.5501165986061096,3.983373880386353,31.47013925922691,31.036349552318843,125.26831016478668,113.60700441585038,9.713172767078504e-05,0.0867940634489059,0,0,0
10581,358856.9128736774,2010-09-18 17:38:46,3751.918467773789,2,31,0.5501165986061096,3.985478401184082,31.474725968336298,31.036349552318843,125.28658529559824,113.60700441585038,3.237724376958795e-05,0.0867940634489059,0,0,0
10582,358886.92817647086,2010-09-18 17:39:16,3781.9337704520126,2,31,0.5501165986061096,3.987582921981812,31.47931270523521,31.036349552318843,125.30487002894633,113.60700441585038,6.47544875391759e-05,0.0867940634489059,0,0,0
10583,358916.9440509213,2010-09-18 17:39:46,3811.94964492753,2,31,0.5501165986061096,3.989687442779541,31.4839001297496,31.036349552318843,125.3231670012944,113.60700441585038,6.47544875391759e-05,0.0867940634489059,0,0,0
10584,358946.95884657395,2010-09-18 17:40:16,3841.964440535028,2,31,0.5501165986061096,3.991630077362061,31.4884876248746,31.036349552318843,125.34147392078404,113.60700441585038,3.237724376958795e-05,0.0867940634489059,0,0,0
10585,358976.9742988706,2010-09-18 17:40:46,3871.9798929470094,2,31,0.550297200679779,3.993896484375,31.493075006260423,31.036349552318843,125.35979005641094,113.60700441585038,9.713172767078504e-05,0.0867940634489059,0,0,0
10586,359006.989666481,2010-09-18 17:41:16,3901.995260462076,2,31,0.550297200679779,3.9960007667541504,31.49766254375421,31.036349552318843,125.37811658183917,113.60700441585038,3.237724376958795e-05,0.0867940634489059,0,0,0
10587,359037.0048820267,2010-09-18 17:41:46,3932.010476007804,2,31,0.550297200679779,3.99826717376709,31.502250117013304,31.036349552318843,125.39645309052618,113.60700441585038,9.713172767078504e-05,0.0867940634489059,0,0,0
10588,359067.0202587046,2010-09-18 17:42:16,3962.02585278098,2,31,0.550297200679779,4.000209808349609,31.50683767844612,31.036349552318843,125.41479931379044,113.60700441585038,6.47544875391759e-05,0.0867940634489059,0,0,0
10589,359097.03560189897,2010-09-18 17:42:46,3992.0411959001503,2,31,0.5501165986061096,4.002314567565918,31.51142474706929,31.036349552318843,125.43315355616564,113.60700441585038,3.24249267578125e-05,0.0867940634489059,0,0,0
10590,359127.0509345119,2010-09-18 17:43:16,4022.0565284930462,2,31,0.5501165986061096,4.004742622375488,31.51601160904344,31.036349552318843,125.45151707251148,113.60700441585038,6.47544875391759e-05,0.0867940634489059,0,0,0
10591,359157.0665453243,2010-09-18 17:43:46,4052.0721393204576,2,31,0.5501165986061096,4.006847381591797,31.52059848166335,31.036349552318843,125.46989074247172,113.60700441585038,9.71794142969884e-05,0.0867940634489059,0,0,0
10592,359187.0816404595,2010-09-18 17:44:16,4082.0872344606346,2,31,0.5501165986061096,4.008951663970947,31.52518532175916,31.036349552318843,125.48827449080662,113.60700441585038,6.47544875391759e-05,0.0867940634489059,0,0,0
10593,359217.0970048517,2010-09-18 17:44:46,4112.102598832856,2,31,0.5499359965324402,4.011218070983887,31.529772145591306,31.036349552318843,125.50666839259274,113.60700441585038,6.47544875391759e-05,0.0867940634489059,0,0,0
10594,359247.11232970527,2010-09-18 17:45:16,4142.117923686433,2,31,0.5501165986061096,4.013646602630615,31.534359014552617,31.036349552318843,125.5250728408176,113.60700441585038,9.71794142969884e-05,0.0867940634489059,0,0,0
10595,359277.1277124133,2010-09-18 17:45:46,4172.133306409461,2,31,0.5501165986061096,4.015913009643555,31.538945891991805,31.036349552318843,125.54348771488304,113.60700441585038,3.24249267578125e-05,0.0867940634489059,0,0,0
10596,359307.1430254273,2010-09-18 17:46:16,4202.148619408446,2,31,0.5501165986061096,4.018179416656494,31.54353267937673,31.036349552318843,125.56191278645214,113.60700441585038,6.47544875391759e-05,0.0867940634489059,0,0,0
10597,359337.1584201854,2010-09-18 17:46:46,4232.164014166516,2,31,0.5499359965324402,4.020445823669434,31.54811954035709,31.036349552318843,125.58034868970525,113.60700441585038,6.47544875391759e-05,0.0867940634489059,0,0,0
10598,359367.17375747504,2010-09-18 17:47:16,4262.179351451122,2,31,0.5501165986061096,4.022873878479004,31.55270638680227,31.036349552318843,125.59879531922422,113.60700441585038,6.47544875391759e-05,0.0867940634489059,0,0,0
10599,359397.18907610804,2010-09-18 17:47:46,4292.194670184423,2,31,0.5501165986061096,4.025302410125732,31.557293201346287,31.036349552318843,125.61725263706631,113.60700441585038,9.71794142969884e-05,0.0867940634489059,0,0,0
10600,359427.20441321726,2010-09-18 17:48:16,4322.210007198352,2,31,0.5501165986061096,4.027568817138672,31.5618800288108,31.036349552318843,125.63572091332166,113.60700441585038,6.47544875391759e-05,0.0867940634489059,0,0,0
10601,359457.2224011683,2010-09-18 17:48:46,4352.227995339906,2,31,0.5501165986061096,4.029835224151611,31.56646729731693,31.036349552318843,125.65420193461522,113.60700441585038,6.47544875391759e-05,0.0867940634489059,0,0,0
10602,359487.23514785134,2010-09-18 17:49:16,4382.240741947785,2,31,0.5501165986061096,4.032263278961182,31.57105371980602,31.036349552318843,125.67269057168494,113.60700441585038,6.47544875391759e-05,0.0867940634489059,0,0,0
10603,359517.25047732645,2010-09-18 17:49:46,4412.256071392823,2,31,0.5501165986061096,4.034691333770752,31.575640574927903,31.036349552318843,125.6911921879751,113.60700441585038,0.0,0.0867940634489059,0,0,0
10604,359547.2658185359,2010-09-18 17:50:16,4442.271412512001,2,31,0.5501165986061096,4.0371198654174805,31.58022743029984,31.036349552318843,125.70970507874432,113.60700441585038,3.24249267578125e-05,0.0867940634489059,0,0,0
10605,359577.2811728229,2010-09-18 17:50:46,4472.286766799049,2,31,0.550297200679779,4.039871692657471,31.58481432091326,31.036349552318843,125.72822959863548,113.60700441585038,6.47544875391759e-05,0.0867940634489059,0,0,0
10606,359607.2965104935,2010-09-18 17:51:16,4502.302104474631,2,31,0.550297200679779,4.042300224304199,31.58940117810643,31.036349552318843,125.74676539413612,113.60700441585038,6.47544875391759e-05,0.0867940634489059,0,0,0
10607,359637.311853357,2010-09-18 17:51:46,4532.317447343176,2,31,0.5501165986061096,4.044890403747559,31.59398801215461,31.036349552318843,125.76531280839802,113.60700441585038,0.0,0.0867940634489059,0,0,0
10608,359667.32720207016,2010-09-18 17:52:16,4562.332796051297,2,31,0.5501165986061096,4.047318458557129,31.59857485410171,31.036349552318843,125.7838719892072,113.60700441585038,3.23295607813634e-05,0.0867940634489059,0,0,0
10609,359697.3427792335,2010-09-18 17:52:46,4592.348373239741,2,31,0.5501165986061096,4.050232410430908,31.603161746443742,31.036349552318843,125.8024432935514,113.60700441585038,9.70840483205393e-05,0.0867940634489059,0,0,0
10610,359727.3579036368,2010-09-18 17:53:16,4622.363497708125,2,31,0.550297200679779,4.052822589874268,31.60774848694408,31.036349552318843,125.821025898784,113.60700441585038,9.70840483205393e-05,0.0867940634489059,0,0,0
10611,359757.3732567559,2010-09-18 17:53:47,4652.37885073202,2,31,0.5501165986061096,4.055251121520996,31.61233531128747,31.036349552318843,125.8396210399562,113.60700441585038,6.47544875391759e-05,0.0867940634489059,0,0,0
10612,359787.38859717833,2010-09-18 17:54:17,4682.394191159471,2,31,0.5501165986061096,4.058002948760986,31.616922096211777,31.036349552318843,125.85822819704362,113.60700441585038,6.47544875391759e-05,0.0867940634489059,0,0,0
10613,359817.40396145027,2010-09-18 17:54:47,4712.4095554264295,2,31,0.550297200679779,4.060755252838135,31.62150900971409,31.036349552318843,125.87684830478752,113.60700441585038,6.47544875391759e-05,0.0867940634489059,0,0,0
10614,359847.4192957525,2010-09-18 17:55:17,4742.424889728592,2,31,0.5499359965324402,4.063345432281494,31.626095791549865,31.036349552318843,125.89547989873608,113.60700441585038,3.24249267578125e-05,0.0867940634489059,0,0,0
10615,359877.4346430972,2010-09-18 17:55:47,4772.44023707331,2,31,0.5501165986061096,4.066259384155273,31.63068261436347,31.036349552318843,125.9141243662286,113.60700441585038,0.0001295089750783,0.0867940634489059,0,0,0
10616,359907.4500208678,2010-09-18 17:56:17,4802.455614848988,2,31,0.5501165986061096,4.068849563598633,31.635269457039424,31.036349552318843,125.9327816195914,113.60700441585038,6.47544875391759e-05,0.0867940634489059,0,0,0
10617,359937.4655052847,2010-09-18 17:56:47,4832.471099265859,2,31,0.550297200679779,4.071925163269043,31.63985636624108,31.036349552318843,125.95145191314002,113.60700441585038,0.0001618385285837,0.0867940634489059,0,0,0
10618,359967.48063973803,2010-09-18 17:57:17,4862.486233719168,2,31,0.5501165986061096,4.074353694915772,31.64444308786092,31.036349552318843,125.97013422229648,113.60700441585038,3.24249267578125e-05,0.0867940634489059,0,0,0
10619,359997.4959982206,2010-09-18 17:57:47,4892.501592221738,2,31,0.550297200679779,4.077429294586182,31.64902995615317,31.036349552318843,125.9888301367066,113.60700441585038,9.70840483205393e-05,0.0867940634489059,0,0,0
10620,360027.51140255254,2010-09-18 17:58:17,4922.516996533655,2,31,0.5499359965324402,4.08018159866333,31.653616814657138,31.036349552318843,126.0075392908152,113.60700441585038,9.71794142969884e-05,0.0867940634489059,0,0,0
10621,360057.5269166635,2010-09-18 17:58:47,4952.532510644647,2,31,0.5501165986061096,4.08325719833374,31.658203729278117,31.036349552318843,126.02626197977344,113.60700441585038,9.70840483205393e-05,0.0867940634489059,0,0,0
10622,360087.5421226604,2010-09-18 17:59:17,4982.547716641539,2,31,0.550297200679779,4.086333274841309,31.662790468349428,31.036349552318843,126.0449973549279,113.60700441585038,9.71794142969884e-05,0.0867940634489059,0,0,0
10623,360117.557746766,2010-09-18 17:59:47,5012.563340777171,2,31,0.550297200679779,4.089085102081299,31.66737737927628,31.036349552318843,126.063746976145,113.60700441585038,6.47544875391759e-05,0.0867940634489059,0,0,0
10624,360147.5728304726,2010-09-18 18:00:17,5042.578424453733,2,31,0.5501165986061096,4.091999053955078,31.671964170261667,31.036349552318843,126.08250976559138,113.60700441585038,6.47544875391759e-05,0.0867940634489059,0,0,0
10625,360177.588194118,2010-09-18 18:00:47,5072.59378809914,2,31,0.550297200679779,4.095075130462647,31.676550943209428,31.036349552318843,126.10128622942146,113.60700441585038,6.47544875391759e-05,0.0867940634489059,0,0,0
10626,360207.6035594025,2010-09-18 18:01:17,5102.609153388651,2,31,0.5501165986061096,4.098150730133057,31.68113778291913,31.036349552318843,126.12007689539298,113.60700441585038,3.23295607813634e-05,0.0867940634489059,0,0,0
10627,360237.619045263,2010-09-18 18:01:47,5132.624639369426,2,31,0.5501165986061096,4.101226806640625,31.68572464807506,31.036349552318843,126.1388816523318,113.60700441585038,9.71794142969884e-05,0.0867940634489059,0,0,0
10628,360267.6346614788,2010-09-18 18:02:17,5162.640255555212,2,31,0.5501165986061096,4.104302406311035,31.690311507688644,31.036349552318843,126.15770052907254,113.60700441585038,9.70840483205393e-05,0.0867940634489059,0,0,0
10629,360297.649557903,2010-09-18 18:02:47,5192.655151884126,2,31,0.5501165986061096,4.107540130615234,31.69489825045365,31.036349552318843,126.1765332319363,113.60700441585038,9.70840483205393e-05,0.0867940634489059,0,0,0
10630,360327.6649156436,2010-09-18 18:03:17,5222.670509649857,2,31,0.5501165986061096,4.110454082489014,31.699485100097476,31.036349552318843,126.19538071398058,113.60700441585038,6.47544875391759e-05,0.0867940634489059,0,0,0
10631,360357.68019094353,2010-09-18 18:03:47,5252.685784924677,2,31,0.5499359965324402,4.113691806793213,31.704071914258275,31.036349552318843,126.21424248037816,113.60700441585038,9.70840483205393e-05,0.0867940634489059,0,0,0
10632,360387.6955945337,2010-09-18 18:04:17,5282.701188514792,2,31,0.5501165986061096,4.116929531097412,31.708658766499205,31.036349552318843,126.2331189508342,113.60700441585038,9.71794142969884e-05,0.0867940634489059,0,0,0
10633,360417.71095415903,2010-09-18 18:04:47,5312.716548140165,2,31,0.550297200679779,4.120328903198242,31.713245660414728,31.036349552318843,126.25201029457232,113.60700441585038,9.70840483205393e-05,0.0867940634489059,0,0,0
10634,360447.7262936993,2010-09-18 18:05:17,5342.731887680402,2,31,0.5501165986061096,4.1234049797058105,31.717832512571757,31.036349552318843,126.27091631230412,113.60700441585038,9.71794142969884e-05,0.0867940634489059,0,0,0
10635,360477.7416407182,2010-09-18 18:05:47,5372.747234699307,2,31,0.550297200679779,4.12664270401001,31.72241935575267,31.036349552318843,126.28983724362332,113.60700441585038,9.71794142969884e-05,0.0867940634489059,0,0,0
10636,360507.75714580674,2010-09-18 18:06:17,5402.762739797803,2,31,0.550297200679779,4.13004207611084,31.727006284243437,31.036349552318843,126.30877366138,113.60700441585038,9.70840483205393e-05,0.0867940634489059,0,0,0
10637,360537.77237526205,2010-09-18 18:06:47,5432.777969243227,2,31,0.5501165986061096,4.133279800415039,31.73159306565051,31.036349552318843,126.32772469644084,113.60700441585038,9.70840483205393e-05,0.0867940634489059,0,0,0
10638,360567.7878200099,2010-09-18 18:07:17,5462.793413991078,2,31,0.5501165986061096,4.136517524719238,31.736179946345352,31.036349552318843,126.34669142912148,113.60700441585038,6.47544875391759e-05,0.0867940634489059,0,0,0
10639,360597.8030570895,2010-09-18 18:07:47,5492.808651085595,2,31,0.550297200679779,4.140241146087647,31.740766858664816,31.036349552318843,126.3656737783782,113.60700441585038,0.0001295089750783,0.0867940634489059,0,0,0
10640,360627.81841285015,2010-09-18 18:08:17,5522.8240068312825,2,31,0.5501165986061096,4.143478870391846,31.74535377683281,31.036349552318843,126.38467176521256,113.60700441585038,9.71794142969884e-05,0.0867940634489059,0,0,0
10641,360657.8339875674,2010-09-18 18:08:47,5552.839581548557,2,31,0.5499359965324402,4.146878242492676,31.74994061701288,31.036349552318843,126.40368525546708,113.60700441585038,6.47544875391759e-05,0.0867940634489059,0,0,0
10642,360687.84912888287,2010-09-18 18:09:17,5582.854722959232,2,31,0.5501165986061096,4.150439739227295,31.75452730058325,31.036349552318843,126.422713968569,113.60700441585038,0.0001295089750783,0.0867940634489059,0,0,0
10643,360717.86444280914,2010-09-18 18:09:47,5612.870036810346,2,31,0.5501165986061096,4.153839588165283,31.7591140394804,31.036349552318843,126.44175883640158,113.60700441585038,6.47544875391759e-05,0.0867940634489059,0,0,0
10644,360747.87997490505,2010-09-18 18:10:17,5642.885568911244,2,31,0.5501165986061096,4.157401084899902,31.763700795507383,31.036349552318843,126.46081973928536,113.60700441585038,6.47544875391759e-05,0.0867940634489059,0,0,0
10645,360777.8952832424,2010-09-18 18:10:47,5672.900877228543,2,31,0.5501165986061096,4.1609625816345215,31.768287529972486,31.036349552318843,126.4798967535971,113.60700441585038,9.71794142969884e-05,0.0867940634489059,0,0,0
10646,360807.9104922869,2010-09-18 18:11:17,5702.916086268031,2,31,0.550297200679779,4.164524078369141,31.77287439744515,31.036349552318843,126.49899071581495,113.60700441585038,9.71794142969884e-05,0.0867940634489059,0,0,0
10647,360837.9265410375,2010-09-18 18:11:47,5732.932135023578,2,31,0.550297200679779,4.16808557510376,31.777461286372823,31.036349552318843,126.51810109986752,113.60700441585038,9.71794142969884e-05,0.0867940634489059,0,0,0
10648,360867.94119867554,2010-09-18 18:12:17,5762.946792771958,2,31,0.5501165986061096,4.171647071838379,31.78204796427453,31.036349552318843,126.53722718710188,113.60700441585038,6.47544875391759e-05,0.0867940634489059,0,0,0
10649,360897.9566923505,2010-09-18 18:12:47,5792.962286431901,2,31,0.550297200679779,4.175370216369629,31.786634816619063,31.036349552318843,126.55637068486114,113.60700441585038,6.47544875391759e-05,0.0867940634489059,0,0,0
10650,360927.971992753,2010-09-18 18:13:17,5822.977586859506,2,31,0.5501165986061096,4.179093837738037,31.791221567885103,31.036349552318843,126.57553052651654,113.60700441585038,9.71794142969884e-05,0.0867940634489059,0,0,0
10651,360957.9872573262,2010-09-18 18:13:47,5852.992851327352,2,31,0.550297200679779,4.182816982269287,31.795808371392884,31.036349552318843,126.59470750547648,113.60700441585038,0.0001295089750783,0.0867940634489059,0,0,0
10652,360988.0025880844,2010-09-18 18:14:17,5883.008182065617,2,31,0.550297200679779,4.186702251434326,31.800395218811065,31.036349552318843,126.61390173970284,113.60700441585038,9.70840483205393e-05,0.0867940634489059,0,0,0
10653,361018.01794506825,2010-09-18 18:14:47,5913.0235390544085,2,31,0.5501165986061096,4.190263748168945,31.804982061913982,31.036349552318843,126.63311319190862,113.60700441585038,9.70840483205393e-05,0.0867940634489059,0,0,0
10654,361048.03327973135,2010-09-18 18:15:17,5943.03887371246,2,31,0.550297200679779,4.194149017333984,31.809568918694108,31.036349552318843,126.65234197885218,113.60700441585038,0.0001295089750783,0.0867940634489059,0,0,0
10655,361078.04875592765,2010-09-18 18:15:47,5973.054349928861,2,31,0.550297200679779,4.197872161865234,31.814155832451032,31.036349552318843,126.67158848698202,113.60700441585038,9.70840483205393e-05,0.0867940634489059,0,0,0
10656,361094.1266128571,2010-09-18 18:16:03,5989.132206838223,2,31,0.550297200679779,4.200138568878174,31.81661281034719,31.036349552318843,126.68190508695588,113.60700441585038,0.0001295089750783,0.0867940634489059,0,0,0
10657,361124.1482445207,2010-09-18 18:16:33,30.01535655270271,3,31,0.0,4.122595310211182,31.81661281034719,31.036349552318843,126.68190508695588,113.60700441585038,-0.0003561973571777,0.0867940634489059,0,0,0
10658,361154.1635836348,2010-09-18 18:17:03,60.03069576211389,3,31,0.0,4.112882614135742,31.81661281034719,31.036349552318843,126.68190508695588,113.60700441585038,-0.0002265930233988,0.0867940634489059,0,0,0
10659,361184.1789375861,2010-09-18 18:17:33,90.04604961808515,3,31,0.0,4.107216358184815,31.81661281034719,31.036349552318843,126.68190508695588,113.60700441585038,-0.0001619339018361,0.0867940634489059,0,0,0
10660,361214.14754131646,2010-09-18 18:18:03,120.01465344378852,3,31,0.0,4.103978633880615,31.81661281034719,31.036349552318843,126.68190508695588,113.60700441585038,-3.24249267578125e-05,0.0867940634489059,0,0,0
10661,361214.1549435136,2010-09-18 18:18:04,0.015785538131721,4,31,0.9899002313613892,4.199491024017334,31.81661716439795,31.036349552318843,126.68192337210596,113.60700441585038,-3.24249267578125e-05,0.0867940634489059,0,0,0
10662,361215.2174195072,2010-09-18 18:18:05,1.078261556731996,4,31,0.9398714303970336,4.199814796447754,31.81690064622012,31.036349552318843,126.68311388381032,113.60700441585038,3.23295607813634e-05,0.0867940634489059,0,0,0
10663,361217.35788656224,2010-09-18 18:18:07,3.21872858674152,4,31,0.889842689037323,4.199491024017334,31.817443517985502,31.036349552318843,126.68539372304244,113.60700441585038,-3.24249267578125e-05,0.0867940634489059,0,0,0
10664,361220.561106512,2010-09-18 18:18:10,6.42194865182706,4,31,0.8398138880729675,4.199814796447754,31.81821193842753,31.036349552318843,126.6886207932223,113.60700441585038,6.47544875391759e-05,0.0867940634489059,0,0,0
10665,361224.8735751021,2010-09-18 18:18:14,10.734417226847016,4,31,0.7896045446395874,4.199653148651123,31.81918666465558,31.036349552318843,126.69271429571144,113.60700441585038,0.0,0.0867940634489059,0,0,0
10666,361230.3890053094,2010-09-18 18:18:20,16.249847338934494,4,31,0.7395757436752319,4.199653148651123,31.82035677412093,31.036349552318843,126.69762833561116,113.60700441585038,0.0,0.0867940634489059,0,0,0
10667,361237.5921947083,2010-09-18 18:18:27,23.45303673284468,4,31,0.689366340637207,4.199653148651123,31.821784530174742,31.036349552318843,126.70362441481116,113.60700441585038,-3.23295607813634e-05,0.0867940634489059,0,0,0
10668,361247.0608895624,2010-09-18 18:18:37,32.92173168216047,4,31,0.6393375992774963,4.199653148651123,31.823529058485377,31.036349552318843,126.71095082069704,113.60700441585038,0.0,0.0867940634489059,0,0,0
10669,361260.1544852416,2010-09-18 18:18:50,46.0153272661374,4,31,0.5893087983131409,4.199653148651123,31.825758840448287,31.036349552318843,126.7203151330918,113.60700441585038,3.24249267578125e-05,0.0867940634489059,0,0,0
10670,361279.6385732328,2010-09-18 18:19:09,65.49941528739045,4,31,0.5392800569534302,4.199653148651123,31.828804050555668,31.036349552318843,126.73310395181478,113.60700441585038,-3.23295607813634e-05,0.0867940634489059,0,0,0
10671,361311.4352724408,2010-09-18 18:19:41,97.296114470351,4,31,0.4892512857913971,4.199653148651123,31.833327952769736,31.036349552318843,126.7521027657782,113.60700441585038,0.0,0.0867940634489059,0,0,0
10672,361365.65340191824,2010-09-18 18:20:35,151.5142439427648,4,31,0.439222514629364,4.199653148651123,31.840291931083996,31.036349552318843,126.78134906002842,113.60700441585038,0.0,0.0867940634489059,0,0,0
10673,361449.84014192806,2010-09-18 18:21:59,235.7009839526356,4,31,0.3891937434673309,4.199653148651123,31.849953097860222,31.036349552318843,126.8219225922454,113.60700441585038,0.0,0.0867940634489059,0,0,0
10674,361558.2298019248,2010-09-18 18:23:48,344.09064394931966,4,31,0.3389843702316284,4.199653148651123,31.86089719616749,31.036349552318843,126.86788395884292,113.60700441585038,0.0,0.0867940634489059,0,0,0
10675,361688.8545061977,2010-09-18 18:25:58,474.71534831753104,4,31,0.2889555990695953,4.199491024017334,31.872274701292437,31.036349552318843,126.91566542541877,113.60700441585038,-3.24249267578125e-05,0.0867940634489059,0,0,0
10676,361847.5083695239,2010-09-18 18:28:37,633.369211548442,4,31,0.2387462258338928,4.199329376220703,31.88388637769661,31.036349552318843,126.96443034031938,113.60700441585038,-9.70840483205393e-05,0.0867940634489059,0,0,0
10677,362046.3974991849,2010-09-18 18:31:56,832.2583412294535,4,31,0.1887174546718597,4.199653148651123,31.89566376785501,31.036349552318843,127.01389121191376,113.60700441585038,0.0,0.0867940634489059,0,0,0
10678,362313.3322622704,2010-09-18 18:36:23,1099.1931043150018,4,31,0.1386886835098266,4.199653148651123,31.90772634696536,31.036349552318843,127.06454981297009,113.60700441585038,0.0,0.0867940634489059,0,0,0
10679,362720.70346234326,2010-09-18 18:43:10,1506.5643043678258,4,31,0.0886599123477935,4.199814796447754,31.92036663894793,31.036349552318843,127.11763425374286,113.60700441585038,3.23295607813634e-05,0.0867940634489059,0,0,0
10680,363276.1671027607,2010-09-18 18:52:26,2062.0279448804904,4,31,0.0498289167881011,4.199491024017334,31.93077594562239,31.036349552318843,127.16134971723277,113.60700441585038,-3.24249267578125e-05,0.0867940634489059,0,0,0
10681,363306.17746963474,2010-09-18 18:52:56,30.015304888741515,5,31,0.0,4.192530155181885,31.93077594562239,31.036349552318843,127.16134971723277,113.60700441585038,0.0,0.0867940634489059,0,0,0
10682,363336.17721284914,2010-09-18 18:53:26,60.01504812319983,5,31,0.0,4.191397190093994,31.93077594562239,31.036349552318843,127.16134971723277,113.60700441585038,-3.23295607813634e-05,0.0867940634489059,0,0,0
10683,363336.37596292194,2010-09-18 18:53:26,0.187508770739268,6,31,-1.9243103452026844e-05,4.191235065460205,31.93077594562239,31.036349553321138,127.16134971723277,113.60700442005124,0.0,0.0897949114441871,0,0,0
10684,363341.203937033,2010-09-18 18:53:31,5.015482891910962,6,31,0.0003419754502829,4.191235065460205,31.93077683013865,31.036349553405927,127.16135342461476,113.6070044204066,-6.47544875391759e-05,0.0897949114441871,0,0,0
10685,363371.2151384321,2010-09-18 18:54:01,30.015411785572446,7,31,-1.099568486213684,4.030644416809082,31.93077683013865,31.045518460379352,127.16135342461476,113.64414291233852,-0.0008093834039755,0.0897949114441871,0,0,0
10686,363401.2309226272,2010-09-18 18:54:31,60.03119606594923,7,31,-1.0993878841400146,4.006361484527588,31.93077683013865,31.054687403959285,127.16135342461476,113.68097865459376,-0.0004857063177041,0.0897949114441871,0,0,0
10687,363431.2458533119,2010-09-18 18:55:01,90.04612665036959,7,31,-1.099568486213684,3.989525556564331,31.93077683013865,31.063856055322955,127.16135342461476,113.7176298233002,-0.0003885269106831,0.0897949114441871,0,0,0
10688,363461.2611887168,2010-09-18 18:55:31,120.06146205528415,7,31,-1.099568486213684,3.976574659347534,31.93077683013865,31.07302474061529,127.16135342461476,113.75414706022546,-0.0002590179501567,0.0897949114441871,0,0,0
10689,363491.27652230713,2010-09-18 18:56:01,150.0767956506819,7,31,-1.0997490882873535,3.965404510498047,31.93077683013865,31.08219368979339,127.16135342461476,113.79055565180845,-0.0003237724304199,0.0897949114441871,0,0,0
10690,363521.2919487192,2010-09-18 18:56:31,180.09222205775183,7,31,-1.099568486213684,3.955367565155029,31.93077683013865,31.091362722894047,127.16135342461476,113.8268682909528,-0.0002590179501567,0.0897949114441871,0,0,0
10691,363551.3072258036,2010-09-18 18:57:01,210.1074991420893,7,31,-1.099568486213684,3.946301937103272,31.93077683013865,31.100531687170538,127.16135342461476,113.86309242905696,-0.0002266406954731,0.0897949114441871,0,0,0
10692,363581.3225885016,2010-09-18 18:57:31,240.1228618401317,7,31,-1.0997490882873535,3.9372363090515137,31.93077683013865,31.109700726864173,127.16135342461476,113.8992335362242,-0.0002266406954731,0.0897949114441871,0,0,0
10693,363611.33791963087,2010-09-18 18:58:01,270.1381929693736,7,31,-1.099568486213684,3.9286563396453857,31.93077683013865,31.118869744528748,127.16135342461476,113.93529463577217,-0.0002266406954731,0.0897949114441871,0,0,0
10694,363641.353416168,2010-09-18 18:58:31,300.1536895115114,7,31,-1.0997490882873535,3.9204001426696777,31.93077683013865,31.12803883747205,127.16135342461476,113.97127877522746,-0.0002266406954731,0.0897949114441871,0,0,0
10695,363671.3687371419,2010-09-18 18:59:01,330.1690104803914,7,31,-1.099568486213684,3.912306070327759,31.93077683013865,31.1372078469834,127.16135342461476,114.00718724743588,-0.0001942634553415,0.0897949114441871,0,0,0
10696,363701.3839699958,2010-09-18 18:59:31,360.184243334323,7,31,-1.0997490882873535,3.9042117595672607,31.93077683013865,31.146376848128757,127.16135342461476,114.04302188648336,-0.0002266406954731,0.0897949114441871,0,0,0
10697,363731.399302268,2010-09-18 19:00:01,390.1995756064176,7,31,-1.0997490882873535,3.896441221237183,31.93077683013865,31.155545810347565,127.16135342461476,114.07878411670202,-0.0001942634553415,0.0897949114441871,0,0,0
10698,363761.4146563294,2010-09-18 19:00:31,420.21492966790186,7,31,-1.0997490882873535,3.8888325691223145,31.93077683013865,31.164714794897087,127.16135342461476,114.11447554721488,-0.0002266406954731,0.0897949114441871,0,0,0
10699,363791.4300056591,2010-09-18 19:01:01,450.2302790025873,7,31,-1.099929690361023,3.881062030792236,31.93077683013865,31.173883878756143,127.16135342461476,114.15009705842628,-0.0002266406954731,0.0897949114441871,0,0,0
10700,363821.44535637216,2010-09-18 19:01:31,480.24562971070094,7,31,-1.099929690361023,3.873615264892578,31.93077683013865,31.18305280706587,127.16135342461476,114.1856486968088,-0.0002266406954731,0.0897949114441871,0,0,0
10701,363851.46073638846,2010-09-18 19:02:01,510.2610097470224,7,31,-1.099929690361023,3.86616849899292,31.93077683013865,31.19222181829408,127.16135342461476,114.22113242424147,-0.0001942634553415,0.0897949114441871,0,0,0
10702,363881.4760422195,2010-09-18 19:02:31,540.2763155630786,7,31,-1.0997490882873535,3.858883619308472,31.93077683013865,31.20139084686459,127.16135342461476,114.2565487415538,-0.0001942634553415,0.0897949114441871,0,0,0
10703,363911.491391459,2010-09-18 19:03:01,570.2916647975137,7,31,-1.0997490882873535,3.8517606258392334,31.93077683013865,31.210559818431246,127.16135342461476,114.29189834780578,-0.0001942634553415,0.0897949114441871,0,0,0
10704,363941.50938299904,2010-09-18 19:03:31,600.309656432788,7,31,-1.099568486213684,3.844799518585205,31.93077683013865,31.219729660157927,127.16135342461476,114.32718563913566,-0.0001618862152099,0.0897949114441871,0,0,0
10705,363971.5221213914,2010-09-18 19:04:01,630.3223947299219,7,31,-1.099568486213684,3.837676525115967,31.93077683013865,31.2288978633952,127.16135342461476,114.36240207957648,-0.0001942634553415,0.0897949114441871,0,0,0
10706,364001.537540776,2010-09-18 19:04:31,660.3378141395252,7,31,-1.0997490882873535,3.8307156562805176,31.93077683013865,31.2380669374209,127.16135342461476,114.3975582691087,-0.0001942634553415,0.0897949114441871,0,0,0
10707,364031.5528999552,2010-09-18 19:05:01,690.3531732987341,7,31,-1.099568486213684,3.824078321456909,31.93077683013865,31.24723603481612,127.16135342461476,114.43265179739645,-0.0001618862152099,0.0897949114441871,0,0,0
10708,364061.5682014455,2010-09-18 19:05:31,720.3684748140552,7,31,-1.0997490882873535,3.817279100418091,31.93077683013865,31.256404968018902,127.16135342461476,114.46768321933186,-0.0001618862152099,0.0897949114441871,0,0,0
10709,364091.5834998631,2010-09-18 19:06:01,750.3837732015685,7,31,-1.0997490882873535,3.810803651809693,31.93077683013865,31.265573990583217,127.16135342461476,114.50265418389554,-0.0001618862152099,0.0897949114441871,0,0,0
10710,364121.5988461301,2010-09-18 19:06:31,780.3991194685966,7,31,-1.099568486213684,3.804328203201294,31.93077683013865,31.274742987958653,127.16135342461476,114.5375651244602,-0.0001942634553415,0.0897949114441871,0,0,0
10711,364151.614194748,2010-09-18 19:07:01,810.414468086493,7,31,-1.099568486213684,3.7980146408081055,31.93077683013865,31.28391194116926,127.16135342461476,114.57241784365502,-0.0001618862152099,0.0897949114441871,0,0,0
10712,364181.62978595146,2010-09-18 19:07:31,840.4300593099699,7,31,-1.0997490882873535,3.791862964630127,31.93077683013865,31.29308107422813,127.16135342461476,114.6072140805796,-0.0001618862152099,0.0897949114441871,0,0,0
10713,364211.64489065047,2010-09-18 19:08:01,870.4451639889571,7,31,-1.0997490882873535,3.785711288452149,31.93077683013865,31.302249982083307,127.16135342461476,114.64195319398976,-0.0001942634553415,0.0897949114441871,0,0,0
10714,364241.6602382208,2010-09-18 19:08:32,900.4605115642509,7,31,-1.0997490882873535,3.77972149848938,31.93077683013865,31.3114189712862,127.16135342461476,114.67663749680617,-0.0001942634553415,0.0897949114441871,0,0,0
10715,364271.6756115303,2010-09-18 19:09:02,930.4758848687686,7,31,-1.0997490882873535,3.774217367172241,31.93077683013865,31.320588042568403,127.16135342461476,114.71126830496476,-9.713172767078504e-05,0.0897949114441871,0,0,0
10716,364301.69095117575,2010-09-18 19:09:32,960.4912245142684,7,31,-1.0997490882873535,3.7682275772094727,31.93077683013865,31.329757119020773,127.16135342461476,114.7458460866862,-0.0001942634553415,0.0897949114441871,0,0,0
10717,364331.7065557125,2010-09-18 19:10:02,990.5068290710274,7,31,-1.0997490882873535,3.762723445892334,31.93077683013865,31.338926264919664,127.16135342461476,114.7803719768018,-0.0001618862152099,0.0897949114441871,0,0,0
10718,364361.7216202713,2010-09-18 19:10:32,1020.5218936098184,7,31,-1.099929690361023,3.7572193145751953,31.93077683013865,31.34809530644307,127.16135342461476,114.81484647956697,-9.713172767078504e-05,0.0897949114441871,0,0,0
10719,364391.7369680622,2010-09-18 19:11:02,1050.53724140065,7,31,-1.0997490882873535,3.7518773078918457,31.93077683013865,31.35726445082449,127.16135342461476,114.849271253623,-0.0001295089750783,0.0897949114441871,0,0,0
10720,364421.7523708152,2010-09-18 19:11:32,1080.552644153676,7,31,-1.0997490882873535,3.746373176574707,31.93077683013865,31.36643361497186,127.16135342461476,114.88364698165874,-0.0001618862152099,0.0897949114441871,0,0,0
10721,364451.7676594984,2010-09-18 19:12:02,1110.5679328469912,7,31,-1.0997490882873535,3.7413547039031982,31.93077683013865,31.375602724252587,127.16135342461476,114.91797433943728,-0.0001295089750783,0.0897949114441871,0,0,0
10722,364481.78305284807,2010-09-18 19:12:32,1140.5833261865191,7,31,-1.0997490882873535,3.73617434501648,31.93077683013865,31.38477178133565,127.16135342461476,114.9522541591666,-0.0001295089750783,0.0897949114441871,0,0,0
10723,364511.7983827492,2010-09-18 19:13:02,1170.598656087696,7,31,-1.0993878841400146,3.7311558723449703,31.93077683013865,31.39394082018159,127.16135342461476,114.98648749843863,-9.713172767078504e-05,0.0897949114441871,0,0,0
10724,364541.8137418132,2010-09-18 19:13:32,1200.6140151717173,7,31,-1.0997490882873535,3.726137399673462,31.93077683013865,31.4031098676355,127.16135342461476,115.02067530660024,-9.713172767078504e-05,0.0897949114441871,0,0,0
10725,364571.8290713484,2010-09-18 19:14:02,1230.6293446969553,7,31,-1.0997490882873535,3.721280813217163,31.93077683013865,31.41227893078973,127.16135342461476,115.05481832791804,-0.0001295089750783,0.0897949114441871,0,0,0
10726,364601.8446712937,2010-09-18 19:14:32,1260.6449457299182,7,31,-1.099568486213684,3.716747999191284,31.93077683013865,31.421448061176296,127.16135342461476,115.0889172086581,-6.47544875391759e-05,0.0897949114441871,0,0,0
10727,364631.8597582936,2010-09-18 19:15:02,1290.6600316320353,7,31,-1.0997490882873535,3.711567640304565,31.93077683013865,31.430617127374585,127.16135342461476,115.12297210441652,-0.0001295089750783,0.0897949114441871,0,0,0
10728,364661.875119944,2010-09-18 19:15:32,1320.6753932924878,7,31,-1.0997490882873535,3.707196712493897,31.93077683013865,31.439786259931847,127.16135342461476,115.15698400101256,-9.713172767078504e-05,0.0897949114441871,0,0,0
10729,364691.8904753689,2010-09-18 19:16:02,1350.6907487324129,7,31,-1.099929690361023,3.702502012252808,31.93077683013865,31.44895535768253,127.16135342461476,115.1909533339414,-0.0001295089750783,0.0897949114441871,0,0,0
10730,364721.90579979634,2010-09-18 19:16:32,1380.7060731549138,7,31,-1.0997490882873535,3.6979691982269287,31.93077683013865,31.458124438338206,127.16135342461476,115.22488082936448,-0.0001295089750783,0.0897949114441871,0,0,0
10731,364751.9211422288,2010-09-18 19:17:02,1410.72141556732,7,31,-1.099929690361023,3.69343638420105,31.93077683013865,31.46729352270951,127.16135342461476,115.25876737836394,-9.713172767078504e-05,0.0897949114441871,0,0,0
10732,364781.9365153779,2010-09-18 19:17:32,1440.7367887164498,7,31,-1.099568486213684,3.688903570175171,31.93077683013865,31.476462668921915,127.16135342461476,115.29261356980048,-0.0001618862152099,0.0897949114441871,0,0,0
10733,364811.95184739947,2010-09-18 19:18:02,1470.752120838169,7,31,-1.099929690361023,3.684694528579712,31.93077683013865,31.48563175660061,127.16135342461476,115.32641981074752,-0.0001295089750783,0.0897949114441871,0,0,0
10734,364841.9665064911,2010-09-18 19:18:32,1500.766779819627,7,31,-1.099568486213684,3.680647373199463,31.93077683013865,31.49479609876765,127.16135342461476,115.3601695521674,-9.713172767078504e-05,0.0897949114441871,0,0,0
10735,364871.9669078134,2010-09-18 19:19:02,1530.7671811517982,7,31,-1.099568486213684,3.676600217819214,31.93077683013865,31.503965184871312,127.16135342461476,115.39389816113072,-9.713172767078504e-05,0.0897949114441871,0,0,0
10736,364901.9822552782,2010-09-18 19:19:32,1560.7825286168163,7,31,-1.0997490882873535,3.672391414642334,31.93077683013865,31.513134363774903,127.16135342461476,115.42758930804114,-0.0001294612884521,0.0897949114441871,0,0,0
10737,364931.997615836,2010-09-18 19:20:02,1590.7978891845412,7,31,-1.0997490882873535,3.668344259262085,31.93077683013865,31.522303505115957,127.16135342461476,115.46124314350676,-9.713172767078504e-05,0.0897949114441871,0,0,0
10738,364962.0129506244,2010-09-18 19:20:32,1620.8132239628922,7,31,-1.099929690361023,3.664297103881836,31.93077683013865,31.53147262932059,127.16135342461476,115.49486025730596,-9.713172767078504e-05,0.0897949114441871,0,0,0
10739,364992.0284296177,2010-09-18 19:21:02,1650.8287029562252,7,31,-1.099568486213684,3.660573720932007,31.93077683013865,31.540641860780088,127.16135342461476,115.52844193834248,-9.713172767078504e-05,0.0897949114441871,0,0,0
10740,365022.04368020594,2010-09-18 19:21:32,1680.8439535494367,7,31,-1.0997490882873535,3.656526565551758,31.93077683013865,31.549810993090738,127.16135342461476,115.56198791004068,-0.0001295089750783,0.0897949114441871,0,0,0
10741,365052.0590211848,2010-09-18 19:22:02,1710.8592945533271,7,31,-1.0997490882873535,3.6529650688171382,31.93077683013865,31.55898008619081,127.16135342461476,115.59549926753787,-9.713172767078504e-05,0.0897949114441871,0,0,0
10742,365082.0744991204,2010-09-18 19:22:32,1740.8747724689706,7,31,-1.0997490882873535,3.6490797996521,31.93077683013865,31.568149379275653,127.16135342461476,115.62897742673108,-0.0001618862152099,0.0897949114441871,0,0,0
10743,365112.0896919244,2010-09-18 19:23:02,1770.8899652729317,7,31,-1.0997490882873535,3.6456801891326895,31.93077683013865,31.57731842914384,127.16135342461476,115.66242127811104,-9.713172767078504e-05,0.0897949114441871,0,0,0
10744,365142.1051766721,2010-09-18 19:23:32,1800.905450015616,7,31,-1.099568486213684,3.642280578613281,31.93077683013865,31.586487609112204,127.16135342461476,115.69583325249783,-6.47544875391759e-05,0.0897949114441871,0,0,0
10745,365172.1207402666,2010-09-18 19:24:02,1830.9210136051145,7,31,-1.0997490882873535,3.638719081878662,31.93077683013865,31.59565683629985,127.16135342461476,115.72921360054208,-9.713172767078504e-05,0.0897949114441871,0,0,0
10746,365202.1357443946,2010-09-18 19:24:32,1860.9360177381232,7,31,-1.0997490882873535,3.635481357574463,31.93077683013865,31.604825965563418,127.16135342461476,115.7625626729447,-6.47544875391759e-05,0.0897949114441871,0,0,0
10747,365232.1510909975,2010-09-18 19:25:02,1890.951364335977,7,31,-1.0997490882873535,3.632243633270264,31.93077683013865,31.613995205974653,127.16135342461476,115.79588199847036,-6.47544875391759e-05,0.0897949114441871,0,0,0
10748,365262.1664306029,2010-09-18 19:25:32,1920.966703971452,7,31,-1.099568486213684,3.629005908966065,31.93077683013865,31.623164376562105,127.16135342461476,115.82917126436276,-6.47544875391759e-05,0.0897949114441871,0,0,0
10749,365292.181903491,2010-09-18 19:26:02,1950.9821768294703,7,31,-1.0997490882873535,3.625768184661865,31.93077683013865,31.632333596173364,127.16135342461476,115.86243146875977,-9.713172767078504e-05,0.0897949114441871,0,0,0
10750,365322.197258961,2010-09-18 19:26:32,1980.9975323947083,7,31,-1.0997490882873535,3.622854232788086,31.93077683013865,31.641502756467084,127.16135342461476,115.8956634759958,-6.47544875391759e-05,0.0897949114441871,0,0,0
10751,365352.2128617382,2010-09-18 19:27:02,2011.013135076788,7,31,-1.099568486213684,3.6197783946990967,31.93077683013865,31.650671680337027,127.16135342461476,115.9288669189055,-6.47544875391759e-05,0.0897949114441871,0,0,0
10752,365382.22795000125,2010-09-18 19:27:32,2041.0282233397984,7,31,-1.099568486213684,3.6170263290405273,31.93077683013865,31.65984016148085,127.16135342461476,115.96204173286728,-9.713172767078504e-05,0.0897949114441871,0,0,0
10753,365412.2433110051,2010-09-18 19:28:02,2071.043584343612,7,31,-1.099568486213684,3.613950490951538,31.93077683013865,31.669008622990617,127.16135342461476,115.99519014081032,-9.713172767078504e-05,0.0897949114441871,0,0,0
10754,365442.2585167464,2010-09-18 19:28:32,2101.058790084866,7,31,-1.099568486213684,3.6111984252929688,31.93077683013865,31.678177120538617,127.16135342461476,116.02831290537746,-9.713172767078504e-05,0.0897949114441871,0,0,0
10755,365472.273900121,2010-09-18 19:29:02,2131.07417345952,7,31,-1.0997490882873535,3.6084463596344,31.93077683013865,31.68734602114512,127.16135342461476,116.06141139563952,-9.713172767078504e-05,0.0897949114441871,0,0,0
10756,365502.28923320514,2010-09-18 19:29:32,2161.0895065436416,7,31,-1.0997490882873535,3.60569429397583,31.93077683013865,31.696515196626216,127.16135342461476,116.09448528514648,-6.47544875391759e-05,0.0897949114441871,0,0,0
10757,365532.3046016125,2010-09-18 19:30:02,2191.104874955948,7,31,-1.0997490882873535,3.603104114532471,31.93077683013865,31.705684340458017,127.16135342461476,116.1275336540628,0.0,0.0897949114441871,0,0,0
10758,365562.319917253,2010-09-18 19:30:32,2221.120190616577,7,31,-1.0997490882873535,3.600028276443481,31.93077683013865,31.71485347719585,127.16135342461476,116.1605569086239,-6.47544875391759e-05,0.0897949114441871,0,0,0
10759,365592.3353994544,2010-09-18 19:31:02,2251.1356727978687,7,31,-1.099929690361023,3.597438097000122,31.93077683013865,31.72402268845498,127.16135342461476,116.19355538278244,-9.713172767078504e-05,0.0897949114441871,0,0,0
10760,365622.35063298506,2010-09-18 19:31:32,2281.1509063234766,7,31,-1.0997490882873535,3.5946860313415527,31.93077683013865,31.73319186214053,127.16135342461476,116.22652831653818,-6.47544875391759e-05,0.0897949114441871,0,0,0
10761,365652.3659919788,2010-09-18 19:32:02,2311.166265342335,7,31,-1.0997490882873535,3.5919342041015625,31.93077683013865,31.74236111100188,127.16135342461476,116.25947622530856,-6.470680091297254e-05,0.0897949114441871,0,0,0
10762,365682.3813448723,2010-09-18 19:32:32,2341.1816182409166,7,31,-1.099929690361023,3.589020252227783,31.93077683013865,31.75153036097744,127.16135342461476,116.29239868052404,-9.713172767078504e-05,0.0897949114441871,0,0,0
10763,365712.3966717761,2010-09-18 19:33:02,2371.196945144611,7,31,-1.099568486213684,3.586430072784424,31.93077683013865,31.76069962242056,127.16135342461476,116.32529549020488,-6.47544875391759e-05,0.0897949114441871,0,0,0
10764,365742.4120272561,2010-09-18 19:33:32,2401.2123005945614,7,31,-1.099929690361023,3.5833542346954346,31.93077683013865,31.769868849081885,127.16135342461476,116.35816626859712,-9.713172767078504e-05,0.0897949114441871,0,0,0
10765,365772.4273823852,2010-09-18 19:34:02,2431.2276557237105,7,31,-1.099568486213684,3.580602169036865,31.93077683013865,31.779038098942777,127.16135342461476,116.39101064908888,-3.237724376958795e-05,0.0897949114441871,0,0,0
10766,365802.4427499354,2010-09-18 19:34:32,2461.2430232738643,7,31,-1.0997490882873535,3.577364444732666,31.93077683013865,31.788207341625988,127.16135342461476,116.42382777852048,-0.0001295089750783,0.0897949114441871,0,0,0
10767,365832.4580790596,2010-09-18 19:35:02,2491.258352398101,7,31,-1.0997490882873535,3.5744504928588867,31.93077683013865,31.79737657441799,127.16135342461476,116.45661708751108,-9.713172767078504e-05,0.0897949114441871,0,0,0
10768,365862.47350174736,2010-09-18 19:35:32,2521.273775206188,7,31,-1.099929690361023,3.5712127685546875,31.93077683013865,31.80654582229175,127.16135342461476,116.48937797318692,-9.713172767078504e-05,0.0897949114441871,0,0,0
10769,365892.4914006261,2010-09-18 19:36:02,2551.2916740849278,7,31,-1.0997490882873535,3.5681369304656982,31.93077683013865,31.815715830860363,127.16135342461476,116.52211204488158,-6.47544875391759e-05,0.0897949114441871,0,0,0
10770,365922.50415555976,2010-09-18 19:36:32,2581.3044289885133,7,31,-1.0997490882873535,3.564899206161499,31.93077683013865,31.82488426738858,127.16135342461476,116.55481043991831,-6.47544875391759e-05,0.0897949114441871,0,0,0
10771,365952.51949446346,2010-09-18 19:37:02,2611.319767832012,7,31,-1.0997490882873535,3.56133770942688,31.93077683013865,31.834053386079045,127.16135342461476,116.5874806399588,-6.47544875391759e-05,0.0897949114441871,0,0,0
10772,365982.5347501342,2010-09-18 19:37:32,2641.335023492873,7,31,-1.099929690361023,3.5577762126922607,31.93077683013865,31.84322253185885,127.16135342461476,116.62011927108875,-9.713172767078504e-05,0.0897949114441871,0,0,0
10773,366012.5503389117,2010-09-18 19:38:02,2671.350612265231,7,31,-1.099929690361023,3.554052829742432,31.93077683013865,31.8523918446607,127.16135342461476,116.6527257453088,-9.713172767078504e-05,0.0897949114441871,0,0,0
10774,366042.5655790237,2010-09-18 19:38:32,2701.3658523622425,7,31,-1.0997490882873535,3.5503294467926025,31.93077683013865,31.861561049466516,127.16135342461476,116.68529739964916,-0.0001295089750783,0.0897949114441871,0,0,0
10775,366072.5808828348,2010-09-18 19:39:02,2731.3811562033693,7,31,-1.0997490882873535,3.5464441776275635,31.93077683013865,31.87073029531184,127.16135342461476,116.71783374024304,-9.713172767078504e-05,0.0897949114441871,0,0,0
10776,366102.5961803752,2010-09-18 19:39:32,2761.396453738756,7,31,-1.0997490882873535,3.5422351360321045,31.93077683013865,31.87989952959927,127.16135342461476,116.75033312928674,-0.0001618862152099,0.0897949114441871,0,0,0
10777,366132.61183136783,2010-09-18 19:40:02,2791.412104701351,7,31,-1.099568486213684,3.538026094436645,31.93077683013865,31.88906887110599,127.16135342461476,116.78279453106376,-0.0001295089750783,0.0897949114441871,0,0,0
10778,366162.6269427336,2010-09-18 19:40:32,2821.427216097104,7,31,-1.0997490882873535,3.5334932804107666,31.93077683013865,31.89823801792212,127.16135342461476,116.81521530728082,-0.0001295089750783,0.0897949114441871,0,0,0
10779,366192.6422821334,2010-09-18 19:41:03,2851.442555471928,7,31,-1.099568486213684,3.528960466384888,31.93077683013865,31.907407273009166,127.16135342461476,116.84759458243644,-0.0001618862152099,0.0897949114441871,0,0,0
10780,366222.65776900144,2010-09-18 19:41:33,2881.458042339918,7,31,-1.0997490882873535,3.523941993713379,31.93077683013865,31.91657656232368,127.16135342461476,116.87993036319872,-0.0001618862152099,0.0897949114441871,0,0,0
10781,366252.6730327926,2010-09-18 19:42:03,2911.473306156136,7,31,-1.0997490882873535,3.51876163482666,31.93077683013865,31.92574581285305,127.16135342461476,116.91221943423623,-0.0001618862152099,0.0897949114441871,0,0,0
10782,366282.68834312994,2010-09-18 19:42:33,2941.488616468416,7,31,-1.099568486213684,3.513257503509521,31.93077683013865,31.934915057630285,127.16135342461476,116.94445890183384,-0.0001295089750783,0.0897949114441871,0,0,0
10783,366312.70370464,2010-09-18 19:43:03,2971.5039779985427,7,31,-1.0997490882873535,3.507267951965332,31.93077683013865,31.94408442326476,127.16135342461476,116.97664564137266,-0.0001942634553415,0.0897949114441871,0,0,0
10784,366342.7190523757,2010-09-18 19:43:33,3001.5193257442616,7,31,-1.0997490882873535,3.500630617141724,31.93077683013865,31.95325371272865,127.16135342461476,117.00877428031006,-0.0001942634553415,0.0897949114441871,0,0,0
10785,366372.7344317905,2010-09-18 19:44:03,3031.534705159032,7,31,-1.0997490882873535,3.4933457374572754,31.93077683013865,31.96242299562552,127.16135342461476,117.04083924170968,-0.0001942634553415,0.0897949114441871,0,0,0
10786,366402.74973701,2010-09-18 19:44:33,3061.5500103735862,7,31,-1.0997490882873535,3.4850895404815674,31.93077683013865,31.97159225097808,127.16135342461476,117.07283276636272,-0.0001942634553415,0.0897949114441871,0,0,0
10787,366432.7650979938,2010-09-18 19:45:03,3091.565371332287,7,31,-1.0997490882873535,3.47521448135376,31.93077683013865,31.98076149976376,127.16135342461476,117.10474392710294,-0.0002590179501567,0.0897949114441871,0,0,0
10788,366462.7804748321,2010-09-18 19:45:33,3121.5807482558384,7,31,-1.0997490882873535,3.4638824462890625,31.93077683013865,31.989930734428988,127.16135342461476,117.1365586580028,-0.0003237724304199,0.0897949114441871,0,0,0
10789,366492.79584346,2010-09-18 19:46:03,3151.5961169187703,7,31,-1.099568486213684,3.449636459350586,31.93077683013865,31.99910004947759,127.16135342461476,117.16825658705169,-0.0004209041653666,0.0897949114441871,0,0,0
10790,366522.8111893961,2010-09-18 19:46:33,3181.611462759735,7,31,-1.0997490882873535,3.4308578968048096,31.93077683013865,32.008269310018115,127.16135342461476,117.199805008339,-0.0005827426793985,0.0897949114441871,0,0,0
10791,366552.8267319281,2010-09-18 19:47:03,3211.627005457083,7,31,-1.0997490882873535,3.4054417610168457,31.93077683013865,32.01743871628504,127.16135342461476,117.23115404008442,-0.0007770538213662,0.0897949114441871,0,0,0
10792,366582.8418451685,2010-09-18 19:47:33,3241.6421185069657,7,31,-1.0997490882873535,3.3690173625946045,31.93077683013865,32.0266079806449,127.16135342461476,117.26222247083597,-0.0011655807029455,0.0897949114441871,0,0,0
10793,366612.8572962823,2010-09-18 19:48:03,3271.6575697109324,7,31,-1.0997490882873535,3.3162426948547363,31.93077683013865,32.03577734212632,127.16135342461476,117.29288699878474,-0.0016512393485754,0.0897949114441871,0,0,0
10794,366642.87254942174,2010-09-18 19:48:33,3301.6728227853373,7,31,-1.0997490882873535,3.240156412124634,31.93077683013865,32.04494662737286,127.16135342461476,117.32296724151904,-0.0023311614058911,0.0897949114441871,0,0,0
10795,366672.8878984256,2010-09-18 19:49:03,3331.688171794209,7,31,-1.0997490882873535,3.1250555515289307,31.93077683013865,32.054115947376154,127.16135342461476,117.35219003809104,-0.0037233829498291,0.0897949114441871,0,0,0
10796,366700.340821465,2010-09-18 19:49:30,3359.141094813592,7,31,-1.0997490882873535,2.924964904785156,31.93077683013865,32.06250249956965,127.16135342461476,117.3776894007573,-0.00887131690979,0.0897949114441871,0,0,0
10797,366712.8406588021,2010-09-18 19:49:43,3371.640932170688,7,31,-1.099929690361023,2.7248740196228027,31.93077683013865,32.06632100158612,127.16135342461476,117.38850210480132,-0.0143430707976222,0.0897949114441871,0,0,0
10798,366714.29378172045,2010-09-18 19:49:44,3373.094055089049,7,31,-1.099568486213684,2.699620008468628,31.93077683013865,32.06676490451033,127.16135342461476,117.38970616092126,-0.0143106933683156,0.0897949114441871,0,0,0
10799,366774.31995188055,2010-09-18 19:50:44,60.01506901534986,8,31,0.0,3.3482961654663086,31.93077683013865,32.06676490451033,127.16135342461476,117.38970616092126,0.0013274669181555,0.0897949114441871,0,0,0
10800,366774.5035031898,2010-09-18 19:50:45,0.187511482508261,9,31,0.0023286775685846,3.3492674827575684,31.930776951431376,32.06676490451033,127.16135383085653,117.38970616092126,0.0,0.0874469503760337,0,0,0
10801,366779.33158082434,2010-09-18 19:50:49,5.01558911706529,9,31,0.0010644125286489,3.3570377826690674,31.93077781754956,32.06676490451033,127.16135673508526,117.38970616092126,0.0012950419913977,0.0874469503760337,0,0,0
