Data_Point,Test_Time(s),Date_Time,Step_Time(s),Step_Index,Cycle_Index,Current(A),Voltage(V),Charge_Capacity(Ah),Discharge_Capacity(Ah),Charge_Energy(Wh),Discharge_Energy(Wh),dV/dt(V/s),Internal_Resistance(Ohm),Is_FC_Data,AC_Impedance(Ohm),ACI_Phase_Angle(Deg)
14254,482105.15666497406,2010-09-20 03:53:07,30.01535994116082,1,42,0.0,3.3782448768615723,42.0950609448924,42.244618745393765,167.56952768358084,154.74039949548896,0.0008094310760498,0.0867155864834785,0,0,0
14255,482135.1720462785,2010-09-20 03:53:37,60.03074123562276,1,42,0.0,3.4018802642822266,42.0950609448924,42.244618745393765,167.56952768358084,154.74039949548896,0.0005180359003134,0.0867155864834785,0,0,0
14256,482165.18781907024,2010-09-20 03:54:07,90.04651403734707,1,42,0.0,3.4193639755249023,42.0950609448924,42.244618745393765,167.56952768358084,154.74039949548896,0.0004532813909463,0.0867155864834785,0,0,0
14257,482195.1559379404,2010-09-20 03:54:37,120.01463291253938,1,42,0.0,3.43280029296875,42.0950609448924,42.244618745393765,167.56952768358084,154.74039949548896,0.0003237247583456,0.0867155864834785,0,0,0
14258,482225.15760701534,2010-09-20 03:55:07,30.015524411704604,2,42,0.550297200679779,3.573155403137207,42.09964784283439,42.244618745393765,167.58576387976711,154.74039949548896,0.0015217304462566,0.0867155864834785,0,0,0
14259,482255.1729861243,2010-09-20 03:55:37,60.03090361093653,2,42,0.5501165986061096,3.619292736053467,42.1042346960438,42.244618745393765,167.60226557927442,154.74039949548896,0.0010360718006268,0.0867155864834785,0,0,0
14260,482285.1881854395,2010-09-20 03:56:07,90.04610284093758,2,42,0.5501165986061096,3.653774499893189,42.10882149045986,42.244618745393765,167.61894892788538,154.74039949548896,0.0008418083307333,0.0867155864834785,0,0,0
14261,482315.2035657865,2010-09-20 03:56:37,120.0614831679847,2,42,0.550297200679779,3.681294918060303,42.113408259759545,42.244618745393765,167.63577303073893,154.74039949548896,0.0006799221155233,0.0867155864834785,0,0,0
14262,482345.21896186296,2010-09-20 03:57:07,150.07687924434455,2,42,0.5501165986061096,3.703958988189697,42.11799501570727,42.244618745393765,167.65271197230572,154.74039949548896,0.0005504131549969,0.0867155864834785,0,0,0
14263,482375.23433299205,2010-09-20 03:57:37,180.09225038345716,2,42,0.5501165986061096,3.7232234477996826,42.122581814079965,42.244618745393765,167.66974695549476,154.74039949548896,0.0004856586456298,0.0867155864834785,0,0,0
14264,482405.2497411235,2010-09-20 03:58:07,210.1076585349584,2,42,0.5501165986061096,3.738764524459839,42.12716853096483,42.244618745393765,167.6868611498236,154.74039949548896,0.0003885269106831,0.0867155864834785,0,0,0
14265,482435.2651099468,2010-09-20 03:58:37,240.1230273282154,2,42,0.5501165986061096,3.750096559524536,42.13175531269664,42.244618745393765,167.7040382113012,154.74039949548896,0.0002266406954731,0.0867155864834785,0,0,0
14266,482465.2805449002,2010-09-20 03:59:07,270.13846230668094,2,42,0.550297200679779,3.757057428359986,42.13634210795046,42.244618745393765,167.72125648469822,154.74039949548896,0.0001618862152099,0.0867155864834785,0,0,0
14267,482495.2958684606,2010-09-20 03:59:37,300.153785841967,2,42,0.550297200679779,3.7611045837402335,42.14092894614338,42.244618745393765,167.73849854505156,154.74039949548896,0.0001295089750783,0.0867155864834785,0,0,0
14268,482525.3112547225,2010-09-20 04:00:07,330.1691721038284,2,42,0.5501165986061096,3.7643423080444336,42.145515681020605,42.244618745393765,167.7557565479866,154.74039949548896,9.713172767078504e-05,0.0867155864834785,0,0,0
14269,482555.3266306636,2010-09-20 04:00:37,360.1845480449275,2,42,0.5499359965324402,3.767256259918213,42.15010251322895,42.244618745393765,167.77302972331216,154.74039949548896,9.713172767078504e-05,0.0867155864834785,0,0,0
14270,482585.34201998304,2010-09-20 04:01:07,390.1999373644212,2,42,0.5501165986061096,3.770493984222412,42.154689317233,42.244618745393765,167.79031728785552,154.74039949548896,6.47544875391759e-05,0.0867155864834785,0,0,0
14271,482615.3575171718,2010-09-20 04:01:37,420.2154345531731,2,42,0.5501165986061096,3.7737317085266113,42.15927609450661,42.244618745393765,167.8076191422415,154.74039949548896,9.713172767078504e-05,0.0867155864834785,0,0,0
14272,482645.3727696949,2010-09-20 04:02:07,450.2306870762018,2,42,0.5501165986061096,3.7768075466156006,42.16386281308354,42.244618745393765,167.82493520002234,154.74039949548896,6.47544875391759e-05,0.0867155864834785,0,0,0
14273,482675.3881533752,2010-09-20 04:02:37,480.2460707866945,2,42,0.5501165986061096,3.7800452709198,42.16844959125013,42.244618745393765,167.8422657047067,154.74039949548896,0.0001295089750783,0.0867155864834785,0,0,0
14274,482705.4035274768,2010-09-20 04:03:07,510.26144485812665,2,42,0.5501165986061096,3.782959222793579,42.173036308958,42.244618745393765,167.85961003238876,154.74039949548896,6.47544875391759e-05,0.0867155864834785,0,0,0
14275,482735.4188811824,2010-09-20 04:03:37,540.2767985637225,2,42,0.5501165986061096,3.786035060882568,42.177622989098445,42.244618745393765,167.8769680482594,154.74039949548896,6.47544875391759e-05,0.0867155864834785,0,0,0
14276,482765.4343762157,2010-09-20 04:04:07,570.2922935970943,2,42,0.550297200679779,3.788949012756348,42.18220967323441,42.244618745393765,167.89433974105978,154.74039949548896,6.47544875391759e-05,0.0867155864834785,0,0,0
14277,482795.4496271347,2010-09-20 04:04:37,600.307544516119,2,42,0.5501165986061096,3.791862964630127,42.18679639900255,42.244618745393765,167.91172510658453,154.74039949548896,0.0001295089750783,0.0867155864834785,0,0,0
14278,482825.4652026641,2010-09-20 04:05:07,630.3231200454211,2,42,0.5499359965324402,3.794776916503906,42.19138304815144,42.244618745393765,167.92912364532117,154.74039949548896,6.47544875391759e-05,0.0867155864834785,0,0,0
14279,482855.4805204199,2010-09-20 04:05:38,660.3384379917563,2,42,0.5499359965324402,3.7976908683776855,42.19596970322244,42.244618745393765,167.94653580166238,154.74039949548896,6.47544875391759e-05,0.0867155864834785,0,0,0
14280,482885.49572501326,2010-09-20 04:06:08,690.3536423946698,2,42,0.5499359965324402,3.800766706466675,42.200556312559634,42.244618745393765,167.96396143598412,154.74039949548896,6.47544875391759e-05,0.0867155864834785,0,0,0
14281,482915.5110517516,2010-09-20 04:06:38,720.3689691329511,2,42,0.5499359965324402,3.803680658340454,42.20514292552829,42.244618745393765,167.98140081967838,154.74039949548896,6.47544875391759e-05,0.0867155864834785,0,0,0
14282,482945.52643320645,2010-09-20 04:07:08,750.3843505878134,2,42,0.5501165986061096,3.8067564964294434,42.20972959264489,42.244618745393765,167.99885456113452,154.74039949548896,3.237724376958795e-05,0.0867155864834785,0,0,0
14283,482975.541763669,2010-09-20 04:07:38,780.3996810554037,2,42,0.5501165986061096,3.8099942207336426,42.2143162269064,42.244618745393765,168.0163227719502,154.74039949548896,6.47544875391759e-05,0.0867155864834785,0,0,0
14284,483005.5571144373,2010-09-20 04:08:08,810.4150318186548,2,42,0.5501165986061096,3.8135557174682617,42.21890285118847,42.244618745393765,168.03380605230666,154.74039949548896,9.713172767078504e-05,0.0867155864834785,0,0,0
14285,483035.57248860894,2010-09-20 04:08:38,840.4304059903372,2,42,0.5501165986061096,3.817117214202881,42.22348944983606,42.244618745393765,168.05130505084756,154.74039949548896,0.0001295089750783,0.0867155864834785,0,0,0
14286,483065.5878303397,2010-09-20 04:09:08,870.445747721042,2,42,0.5501165986061096,3.82051682472229,42.22807601381926,42.244618745393765,168.06881984178185,154.74039949548896,9.713172767078504e-05,0.0867155864834785,0,0,0
14287,483095.6031681606,2010-09-20 04:09:38,900.4610856572752,2,42,0.5501165986061096,3.824078321456909,42.23266257474069,42.244618745393765,168.08635090447407,154.74039949548896,0.0001295089750783,0.0867155864834785,0,0,0
14288,483125.61851980106,2010-09-20 04:10:08,930.4764371824284,2,42,0.5501165986061096,3.827639818191528,42.23724914801521,42.244618745393765,168.1038982574935,154.74039949548896,9.713172767078504e-05,0.0867155864834785,0,0,0
14289,483155.63382614346,2010-09-20 04:10:38,960.4917435247984,2,42,0.5499359965324402,3.8310394287109375,42.241835777601736,42.244618745393765,168.12146205509376,154.74039949548896,6.47544875391759e-05,0.0867155864834785,0,0,0
14290,483185.64919022494,2010-09-20 04:11:08,990.5071076062942,2,42,0.5499359965324402,3.834438800811768,42.24642235771263,42.244618745393765,168.1390415260541,154.74039949548896,6.47544875391759e-05,0.0867155864834785,0,0,0
14291,483215.6646592283,2010-09-20 04:11:38,1020.522576619716,2,42,0.5501165986061096,3.8378384113311768,42.25100899084272,42.244618745393765,168.15663681350196,154.74039949548896,9.713172767078504e-05,0.0867155864834785,0,0,0
14292,483245.67985985184,2010-09-20 04:12:08,1050.5377772331706,2,42,0.5501165986061096,3.841076135635376,42.25559557852836,42.244618745393765,168.17424707788342,154.74039949548896,6.47544875391759e-05,0.0867155864834785,0,0,0
14293,483275.69517023925,2010-09-20 04:12:38,1080.5530876206376,2,42,0.5501165986061096,3.844475746154785,42.2601821378262,42.244618745393765,168.19187212685537,154.74039949548896,0.0001295089750783,0.0867155864834785,0,0,0
14294,483305.7105772429,2010-09-20 04:13:08,1110.568494649336,2,42,0.5501165986061096,3.8475515842437744,42.26476874180087,42.244618745393765,168.20951206014843,154.74039949548896,0.0001295089750783,0.0867155864834785,0,0,0
14295,483335.7258401218,2010-09-20 04:13:38,1140.583757503152,2,42,0.5499359965324402,3.850627422332764,42.26935535852557,42.244618745393765,168.2271664217815,154.74039949548896,9.713172767078504e-05,0.0867155864834785,0,0,0
14296,483365.74118686,2010-09-20 04:14:08,1170.5991043315817,2,42,0.5501165986061096,3.853379487991333,42.273941970565886,42.244618745393765,168.24483476022203,154.74039949548896,3.237724376958795e-05,0.0867155864834785,0,0,0
14297,483395.7564982048,2010-09-20 04:14:38,1200.6144155862137,2,42,0.5501165986061096,3.856455326080322,42.27852847960114,42.244618745393765,168.2625162166183,154.74039949548896,6.47544875391759e-05,0.0867155864834785,0,0,0
14298,483425.7718518152,2010-09-20 04:15:08,1230.6297691965715,2,42,0.5499359965324402,3.8593692779541016,42.28311506026122,42.244618745393765,168.28021100979464,154.74039949548896,9.713172767078504e-05,0.0867155864834785,0,0,0
14299,483455.78726799175,2010-09-20 04:15:38,1260.6451853731044,2,42,0.5501165986061096,3.861797571182251,42.28770168136701,42.244618745393765,168.2979182256814,154.74039949548896,3.237724376958795e-05,0.0867155864834785,0,0,0
14300,483485.8024723295,2010-09-20 04:16:08,1290.6603897108553,2,42,0.5501165986061096,3.8643877506256095,42.29228828844717,42.244618745393765,168.31563702227638,154.74039949548896,9.713172767078504e-05,0.0867155864834785,0,0,0
14301,483515.8177941656,2010-09-20 04:16:38,1320.6757115719624,2,42,0.5501165986061096,3.86681604385376,42.29687491956918,42.244618745393765,168.33336688619372,154.74039949548896,9.713172767078504e-05,0.0867155864834785,0,0,0
14302,483545.8331089389,2010-09-20 04:17:08,1350.6910263453776,2,42,0.550297200679779,3.868920564651489,42.30146151187624,42.244618745393765,168.35110701231636,154.74039949548896,6.47544875391759e-05,0.0867155864834785,0,0,0
14303,483575.848469632,2010-09-20 04:17:38,1380.7063870133525,2,42,0.5501165986061096,3.8710250854492183,42.30604813226078,42.244618745393765,168.36885696245966,154.74039949548896,6.47544875391759e-05,0.0867155864834785,0,0,0
14304,483605.863788636,2010-09-20 04:18:08,1410.721706017328,2,42,0.5501165986061096,3.8729677200317374,42.310634746866384,42.244618745393765,168.38661597996816,154.74039949548896,9.713172767078504e-05,0.0867155864834785,0,0,0
14305,483635.87910579535,2010-09-20 04:18:38,1440.7370231766988,2,42,0.5501165986061096,3.874586582183838,42.31522132074826,42.244618745393765,168.4043832444594,154.74039949548896,3.237724376958795e-05,0.0867155864834785,0,0,0
14306,483665.894447511,2010-09-20 04:19:08,1470.752364892366,2,42,0.5501165986061096,3.8762054443359375,42.3198079841861,42.244618745393765,168.42215871335117,154.74039949548896,3.237724376958795e-05,0.0867155864834785,0,0,0
14307,483695.90974807896,2010-09-20 04:19:38,1500.767665460322,2,42,0.5499359965324402,3.877824306488037,42.324394549407664,42.244618745393765,168.43994104650608,154.74039949548896,0.0,0.0867155864834785,0,0,0
14308,483725.9250882307,2010-09-20 04:20:08,1530.7830056120856,2,42,0.5501165986061096,3.879281282424927,42.32898116442128,42.244618745393765,168.45773041191805,154.74039949548896,3.237724376958795e-05,0.0867155864834785,0,0,0
14309,483755.94039134,2010-09-20 04:20:38,1560.7983087213852,2,42,0.5501165986061096,3.8805763721466064,42.33356775460712,42.244618745393765,168.4755259795778,154.74039949548896,3.237724376958795e-05,0.0867155864834785,0,0,0
14310,483785.9405969586,2010-09-20 04:21:08,1590.7985143600758,2,42,0.5499359965324402,3.881709575653076,42.33815200169136,42.244618745393765,168.49331860902157,154.74039949548896,0.0,0.0867155864834785,0,0,0
14311,483815.9554263906,2010-09-20 04:21:38,1620.813343771954,2,42,0.5501165986061096,3.883166551589966,42.34273848792279,42.244618745393765,168.51112577715116,154.74039949548896,3.237724376958795e-05,0.0867155864834785,0,0,0
14312,483845.9707169786,2010-09-20 04:22:08,1650.828634359999,2,42,0.5501165986061096,3.884299755096436,42.34732511777191,42.244618745393765,168.52893923267467,154.74039949548896,3.237724376958795e-05,0.0867155864834785,0,0,0
14313,483875.98605285975,2010-09-20 04:22:38,1680.843970261152,2,42,0.550297200679779,3.8855948448181152,42.35191173283424,42.244618745393765,168.54675804541432,154.74039949548896,3.237724376958795e-05,0.0867155864834785,0,0,0
14314,483906.0013788812,2010-09-20 04:23:08,1710.8592963578317,2,42,0.5501165986061096,3.886728048324585,42.35649828412845,42.244618745393765,168.56458214985653,154.74039949548896,3.237724376958795e-05,0.0867155864834785,0,0,0
14315,483936.0167761706,2010-09-20 04:23:38,1740.874693577044,2,42,0.5501165986061096,3.8880231380462646,42.36108484238808,42.244618745393765,168.58241169931188,154.74039949548896,6.47544875391759e-05,0.0867155864834785,0,0,0
14316,483966.0324207573,2010-09-20 04:24:08,1770.8903382639744,2,42,0.5501165986061096,3.889318227767944,42.3656714086957,42.244618745393765,168.6002467632829,154.74039949548896,6.47544875391759e-05,0.0867155864834785,0,0,0
14317,483996.04726531694,2010-09-20 04:24:38,1800.9051827234134,2,42,0.5501165986061096,3.890289545059204,42.3702579083069,42.244618745393765,168.61808698012734,154.74039949548896,3.237724376958795e-05,0.0867155864834785,0,0,0
14318,484026.0625827019,2010-09-20 04:25:08,1830.92050009331,2,42,0.5501165986061096,3.891584634780884,42.374844417265,42.244618745393765,168.63593263927345,154.74039949548896,3.237724376958795e-05,0.0867155864834785,0,0,0
14319,484056.0779002322,2010-09-20 04:25:38,1860.935817613581,2,42,0.5501165986061096,3.8927178382873535,42.37943101270734,42.244618745393765,168.6537839577507,154.74039949548896,3.237724376958795e-05,0.0867155864834785,0,0,0
14320,484086.0932963136,2010-09-20 04:26:08,1890.9512138102416,2,42,0.5501165986061096,3.8938510417938232,42.38401765278416,42.244618745393765,168.6716408865632,154.74039949548896,0.0,0.0867155864834785,0,0,0
14321,484116.1085198292,2010-09-20 04:26:38,1920.966437210576,2,42,0.5501165986061096,3.894822359085083,42.38860425429477,42.244618745393765,168.68950304678413,154.74039949548896,0.0,0.0867155864834785,0,0,0
14322,484146.12382238713,2010-09-20 04:27:08,1950.981739773512,2,42,0.5499359965324402,3.8961174488067623,42.39319086712898,42.244618745393765,168.70737025059847,154.74039949548896,0.0,0.0867155864834785,0,0,0
14323,484176.1391382784,2010-09-20 04:27:38,1980.9970556597043,2,42,0.5501165986061096,3.897250652313232,42.39777745485809,42.244618745393765,168.72524306277586,154.74039949548896,3.237724376958795e-05,0.0867155864834785,0,0,0
14324,484206.15456856514,2010-09-20 04:28:08,2011.0124859464588,2,42,0.5501165986061096,3.898707628250122,42.40236407382252,42.244618745393765,168.74312153320855,154.74039949548896,6.47544875391759e-05,0.0867155864834785,0,0,0
14325,484236.1697474544,2010-09-20 04:28:38,2041.0276648356864,2,42,0.550297200679779,3.899840831756592,42.40695058923882,42.244618745393765,168.7610051895216,154.74039949548896,3.237724376958795e-05,0.0867155864834785,0,0,0
14326,484266.1851802924,2010-09-20 04:29:08,2071.043097673809,2,42,0.5499359965324402,3.9009740352630615,42.411537250754336,42.244618745393765,168.77889492950186,154.74039949548896,3.237724376958795e-05,0.0867155864834785,0,0,0
14327,484296.2003884397,2010-09-20 04:29:38,2101.0583058411185,2,42,0.5497553944587708,3.901945352554321,42.416123873020176,42.244618745393765,168.79679020749182,154.74039949548896,-3.237724376958795e-05,0.0867155864834785,0,0,0
14328,484326.2158005511,2010-09-20 04:30:08,2131.07371796253,2,42,0.5499359965324402,3.903402328491211,42.42071059703356,42.244618745393765,168.81469158784878,154.74039949548896,0.0,0.0867155864834785,0,0,0
14329,484356.2311416252,2010-09-20 04:30:38,2161.089059001508,2,42,0.550297200679779,3.9048593044281006,42.4252972212919,42.244618745393765,168.83259841858828,154.74039949548896,6.47544875391759e-05,0.0867155864834785,0,0,0
14330,484386.2462958578,2010-09-20 04:31:08,2191.104213239201,2,42,0.5501165986061096,3.90615439414978,42.429883796257485,42.244618745393765,168.85051076139558,154.74039949548896,3.237724376958795e-05,0.0867155864834785,0,0,0
14331,484416.2616227715,2010-09-20 04:31:38,2221.11954015292,2,42,0.5501165986061096,3.90744948387146,42.43447031326707,42.244618745393765,168.86842877705044,154.74039949548896,6.47544875391759e-05,0.0867155864834785,0,0,0
14332,484446.2769064673,2010-09-20 04:32:08,2251.134823848761,2,42,0.5499359965324402,3.9085826873779297,42.43905690800598,42.244618745393765,168.8863530706573,154.74039949548896,0.0,0.0867155864834785,0,0,0
14333,484476.2922098023,2010-09-20 04:32:38,2281.150127193649,2,42,0.5501165986061096,3.9100396633148193,42.44364342805739,42.244618745393765,168.90428314586367,154.74039949548896,6.47544875391759e-05,0.0867155864834785,0,0,0
14334,484506.3076686603,2010-09-20 04:33:08,2311.1655860416963,2,42,0.5501165986061096,3.911172866821289,42.44823002875049,42.244618745393765,168.92221958952948,154.74039949548896,-3.237724376958795e-05,0.0867155864834785,0,0,0
14335,484536.322832883,2010-09-20 04:33:38,2341.1807502643137,2,42,0.5499359965324402,3.9124679565429688,42.45281656562351,42.244618745393765,168.94016192760358,154.74039949548896,-3.237724376958795e-05,0.0867155864834785,0,0,0
14336,484566.3381230149,2010-09-20 04:34:08,2371.1960404864453,2,42,0.5501165986061096,3.914086580276489,42.45740315830668,42.244618745393765,168.95811070296122,154.74039949548896,3.237724376958795e-05,0.0867155864834785,0,0,0
14337,484596.35356695566,2010-09-20 04:34:38,2401.2114843370564,2,42,0.550297200679779,3.915381669998169,42.46198978720411,42.244618745393765,168.97606593146585,154.74039949548896,3.237724376958795e-05,0.0867155864834785,0,0,0
14338,484626.36873163946,2010-09-20 04:35:08,2431.226649020825,2,42,0.550297200679779,3.9166767597198486,42.466576399113,42.244618745393765,168.99402725349492,154.74039949548896,3.237724376958795e-05,0.0867155864834785,0,0,0
14339,484656.38418004144,2010-09-20 04:35:38,2461.242097422797,2,42,0.5501165986061096,3.917971849441528,42.471163006652105,42.244618745393765,169.01199501687535,154.74039949548896,3.237724376958795e-05,0.0867155864834785,0,0,0
14340,484686.3993496274,2010-09-20 04:36:08,2491.257267008803,2,42,0.550297200679779,3.919590711593628,42.47574955308092,42.244618745393765,169.0299689099921,154.74039949548896,6.47544875391759e-05,0.0867155864834785,0,0,0
14341,484716.4146763907,2010-09-20 04:36:38,2521.2725938022218,2,42,0.5497553944587708,3.920885801315308,42.480336148321975,42.244618745393765,169.04794955762108,154.74039949548896,3.237724376958795e-05,0.0867155864834785,0,0,0
14342,484746.4299679763,2010-09-20 04:37:08,2551.2878853576813,2,42,0.5501165986061096,3.922342777252197,42.48492281148281,42.244618745393765,169.0659369696559,154.74039949548896,6.47544875391759e-05,0.0867155864834785,0,0,0
14343,484776.4454881274,2010-09-20 04:37:38,2581.303405598976,2,42,0.550297200679779,3.923961639404297,42.48950941329374,42.244618745393765,169.08393073785297,154.74039949548896,6.47544875391759e-05,0.0867155864834785,0,0,0
14344,484806.4606063652,2010-09-20 04:38:09,2611.318523932046,2,42,0.5501165986061096,3.9254186153411865,42.49409599690691,42.244618745393765,169.1019311974152,154.74039949548896,3.237724376958795e-05,0.0867155864834785,0,0,0
14345,484836.4759908476,2010-09-20 04:38:39,2641.333908229002,2,42,0.5499359965324402,3.926875591278076,42.49868265929739,42.244618745393765,169.11993859732937,154.74039949548896,9.713172767078504e-05,0.0867155864834785,0,0,0
14346,484866.4911624637,2010-09-20 04:39:09,2671.349079845075,2,42,0.5501165986061096,3.928170680999756,42.50326923547664,42.244618745393765,169.13795248095803,154.74039949548896,3.237724376958795e-05,0.0867155864834785,0,0,0
14347,484896.5064880341,2010-09-20 04:39:39,2701.3644054204533,2,42,0.550297200679779,3.929789543151856,42.50785580973712,42.244618745393765,169.15597310803548,154.74039949548896,3.237724376958795e-05,0.0867155864834785,0,0,0
14348,484926.52180148417,2010-09-20 04:40:09,2731.379718885603,2,42,0.5501165986061096,3.931246519088745,42.51244232270131,42.244618745393765,169.17400037018862,154.74039949548896,6.47544875391759e-05,0.0867155864834785,0,0,0
14349,484956.5370692703,2010-09-20 04:40:39,2761.3949866516805,2,42,0.5501165986061096,3.9328653812408447,42.517028919558825,42.244618745393765,169.19203487389228,154.74039949548896,6.47544875391759e-05,0.0867155864834785,0,0,0
14350,484986.55237451993,2010-09-20 04:41:09,2791.4102919063357,2,42,0.5499359965324402,3.9343223571777344,42.521615526017456,42.244618745393765,169.210076427206,154.74039949548896,3.237724376958795e-05,0.0867155864834785,0,0,0
14351,485016.5676821455,2010-09-20 04:41:39,2821.4255995268963,2,42,0.5499359965324402,3.935779333114624,42.52620213871656,42.244618745393765,169.22812505207392,154.74039949548896,6.47544875391759e-05,0.0867155864834785,0,0,0
14352,485046.5829679115,2010-09-20 04:42:09,2851.440885292904,2,42,0.5499359965324402,3.9372363090515137,42.53078867588138,42.244618745393765,169.24618033549987,154.74039949548896,0.0,0.0867155864834785,0,0,0
14353,485076.5982697527,2010-09-20 04:42:39,2881.456187134039,2,42,0.5501165986061096,3.938855171203613,42.53537517788423,42.244618745393765,169.26424276684278,154.74039949548896,0.0,0.0867155864834785,0,0,0
14354,485106.61356701737,2010-09-20 04:43:09,2911.4714844238115,2,42,0.5501165986061096,3.940474033355713,42.539961703830734,42.244618745393765,169.28231251891174,154.74039949548896,3.237724376958795e-05,0.0867155864834785,0,0,0
14355,485136.62904397066,2010-09-20 04:43:39,2941.486961567528,2,42,0.5501165986061096,3.9422547817230233,42.54454834184887,42.244618745393765,169.30039002922717,154.74039949548896,6.47544875391759e-05,0.0867155864834785,0,0,0
14356,485166.6442951353,2010-09-20 04:44:09,2971.5022125166283,2,42,0.5499359965324402,3.943711757659912,42.549134827168125,42.244618745393765,169.3184742283516,154.74039949548896,3.237724376958795e-05,0.0867155864834785,0,0,0
14357,485196.65947035525,2010-09-20 04:44:39,3001.517387736697,2,42,0.5499359965324402,3.9451687335968018,42.5537213690998,42.244618745393765,169.33656604861892,154.74039949548896,0.0,0.0867155864834785,0,0,0
14358,485226.6748470433,2010-09-20 04:45:09,3031.5327644246604,2,42,0.550297200679779,3.9469494819641113,42.55830864552812,42.244618745393765,169.3546682531353,154.74039949548896,3.237724376958795e-05,0.0867155864834785,0,0,0
14359,485256.69003179215,2010-09-20 04:45:39,3061.5479491785263,2,42,0.550297200679779,3.948568344116211,42.56289603150888,42.244618745393765,169.37277840848827,154.74039949548896,6.47544875391759e-05,0.0867155864834785,0,0,0
14360,485286.7054699486,2010-09-20 04:46:09,3091.563387329912,2,42,0.550297200679779,3.950349092483521,42.56748330326271,42.244618745393765,169.39089569285343,154.74039949548896,9.713172767078504e-05,0.0867155864834785,0,0,0
14361,485316.72077833104,2010-09-20 04:46:39,3121.5786957023493,2,42,0.550297200679779,3.95196795463562,42.57207069654258,42.244618745393765,169.40902112712564,154.74039949548896,3.237724376958795e-05,0.0867155864834785,0,0,0
14362,485346.7359521375,2010-09-20 04:47:09,3151.5938695189147,2,42,0.550297200679779,3.9537487030029297,42.57665807854386,42.244618745393765,169.42715424362677,154.74039949548896,6.47544875391759e-05,0.0867155864834785,0,0,0
14363,485376.7513832915,2010-09-20 04:47:39,3181.6093006728333,2,42,0.550297200679779,3.955367565155029,42.58124554357107,42.244618745393765,169.44529552521672,154.74039949548896,3.237724376958795e-05,0.0867155864834785,0,0,0
14364,485406.76667178434,2010-09-20 04:48:09,3211.624589165648,2,42,0.5501165986061096,3.956986427307129,42.58583249239945,42.244618745393765,169.46344261956074,154.74039949548896,3.237724376958795e-05,0.0867155864834785,0,0,0
14365,485436.78183713474,2010-09-20 04:48:39,3241.6397545160803,2,42,0.5501165986061096,3.9587671756744394,42.59041916965526,42.244618745393765,169.48159649977364,154.74039949548896,0.0,0.0867155864834785,0,0,0
14366,485466.79716904095,2010-09-20 04:49:09,3271.655086422262,2,42,0.5501165986061096,3.960547924041748,42.59500588416746,42.244618745393765,169.4997585994642,154.74039949548896,3.237724376958795e-05,0.0867155864834785,0,0,0
14367,485496.8124466516,2010-09-20 04:49:39,3301.6703640429378,2,42,0.5501165986061096,3.9623286724090576,42.59959255427928,42.244618745393765,169.5179285984053,154.74039949548896,3.237724376958795e-05,0.0867155864834785,0,0,0
14368,485526.827751455,2010-09-20 04:50:09,3331.685668931679,2,42,0.5501165986061096,3.964109420776367,42.6041792699941,42.244618745393765,169.5361069821234,154.74039949548896,3.237724376958795e-05,0.0867155864834785,0,0,0
14369,485556.8432934357,2010-09-20 04:50:39,3361.7012109322886,2,42,0.5501165986061096,3.9662139415740967,42.60876604901424,42.244618745393765,169.5542938975613,154.74039949548896,9.713172767078504e-05,0.0867155864834785,0,0,0
14370,485586.8583307265,2010-09-20 04:51:09,3391.7162481077767,2,42,0.550297200679779,3.967832803726196,42.61335277214332,42.244618745393765,169.57248892511873,154.74039949548896,6.47544875391759e-05,0.0867155864834785,0,0,0
14371,485616.8736320112,2010-09-20 04:51:39,3421.7315493975348,2,42,0.5499359965324402,3.969613552093506,42.61793949618859,42.244618745393765,169.5906924149599,154.74039949548896,3.237724376958795e-05,0.0867155864834785,0,0,0
14372,485646.8889157872,2010-09-20 04:52:09,3451.746833168563,2,42,0.5499359965324402,3.971394300460816,42.62252625095994,42.244618745393765,169.60890456642008,154.74039949548896,0.0,0.0867155864834785,0,0,0
14373,485676.9042160544,2010-09-20 04:52:39,3481.7621334357686,2,42,0.5501165986061096,3.973498821258545,42.62711303727056,42.244618745393765,169.62712545177982,154.74039949548896,6.47544875391759e-05,0.0867155864834785,0,0,0
14374,485706.9195179557,2010-09-20 04:53:09,3511.777435337053,2,42,0.550297200679779,3.9752795696258554,42.63169975929728,42.244618745393765,169.6453547497448,154.74039949548896,3.237724376958795e-05,0.0867155864834785,0,0,0
14375,485736.9350300115,2010-09-20 04:53:39,3541.7929474229904,2,42,0.5499359965324402,3.977222204208374,42.636286564131325,42.244618745393765,169.66359324221264,154.74039949548896,6.47544875391759e-05,0.0867155864834785,0,0,0
14376,485766.9507488336,2010-09-20 04:54:09,3571.8086662349483,2,42,0.550297200679779,3.9791648387908936,42.64087335419452,42.244618745393765,169.68184012111425,154.74039949548896,6.47544875391759e-05,0.0867155864834785,0,0,0
14377,485796.9654112435,2010-09-20 04:54:39,3601.8233286249138,2,42,0.550297200679779,3.981269359588623,42.64545990783037,42.244618745393765,169.70009548247884,154.74039949548896,6.47544875391759e-05,0.0867155864834785,0,0,0
14378,485826.98069212737,2010-09-20 04:55:09,3631.8386095087353,2,42,0.5504778623580933,3.983211994171143,42.65004655844094,42.244618745393765,169.71836040467298,154.74039949548896,6.47544875391759e-05,0.0867155864834785,0,0,0
14379,485856.9961524491,2010-09-20 04:55:39,3661.8540698404863,2,42,0.5499359965324402,3.984992742538452,42.65463323506378,42.244618745393765,169.73663460625147,154.74039949548896,3.237724376958795e-05,0.0867155864834785,0,0,0
14380,485887.0116758182,2010-09-20 04:56:09,3691.8695933048266,2,42,0.5501165986061096,3.987259149551392,42.65921978240945,42.244618745393765,169.7549175351104,154.74039949548896,6.47544875391759e-05,0.0867155864834785,0,0,0
14381,485917.0265863325,2010-09-20 04:56:39,3721.8845037539854,2,42,0.5501165986061096,3.989363670349121,42.6638062082475,42.244618745393765,169.77320936779938,154.74039949548896,3.237724376958795e-05,0.0867155864834785,0,0,0
14382,485947.0418808655,2010-09-20 04:57:09,3751.8997982467777,2,42,0.5501165986061096,3.9914681911468506,42.66839274157538,42.244618745393765,169.79151122309617,154.74039949548896,6.47544875391759e-05,0.0867155864834785,0,0,0
14383,485977.0572147766,2010-09-20 04:57:39,3781.915132188039,2,42,0.5501165986061096,3.99341082572937,42.67297933025879,42.244618745393765,169.80982303520892,154.74039949548896,3.237724376958795e-05,0.0867155864834785,0,0,0
14384,486007.0724753196,2010-09-20 04:58:09,3811.930392701011,2,42,0.5501165986061096,3.995515108108521,42.677565920905,42.244618745393765,169.82814460751231,154.74039949548896,3.237724376958795e-05,0.0867155864834785,0,0,0
14385,486037.0877722635,2010-09-20 04:58:39,3841.9456896449215,2,42,0.5501165986061096,3.99794340133667,42.68215252908498,42.244618745393765,169.84647605032907,154.74039949548896,9.713172767078504e-05,0.0867155864834785,0,0,0
14386,486067.1030569619,2010-09-20 04:59:09,3871.960974343264,2,42,0.5499359965324402,4.0000481605529785,42.68673917315292,42.244618745393765,169.864817419882,154.74039949548896,6.480216688942164e-05,0.0867155864834785,0,0,0
14387,486097.1183703519,2010-09-20 04:59:39,3901.9762877332255,2,42,0.5501165986061096,4.002152442932129,42.69132577462416,42.244618745393765,169.88316865087415,154.74039949548896,3.23295607813634e-05,0.0867155864834785,0,0,0
14388,486127.1337784934,2010-09-20 05:00:09,3931.9916958997646,2,42,0.550297200679779,4.004580974578857,42.69591239993316,42.244618745393765,169.901529931186,154.74039949548896,9.71794142969884e-05,0.0867155864834785,0,0,0
14389,486157.1489393225,2010-09-20 05:00:39,3962.006856703849,2,42,0.5501165986061096,4.006523609161377,42.70049890020284,42.244618745393765,169.9199007448628,154.74039949548896,3.24249267578125e-05,0.0867155864834785,0,0,0
14390,486187.16424953454,2010-09-20 05:01:09,3992.022166915878,2,42,0.5501165986061096,4.008790016174316,42.70508551424915,42.244618745393765,169.9382822234383,154.74039949548896,6.47544875391759e-05,0.0867155864834785,0,0,0
14391,486217.1795384935,2010-09-20 05:01:39,4022.0374558748576,2,42,0.5501165986061096,4.010894298553467,42.70967209981735,42.244618745393765,169.95667374389546,154.74039949548896,3.23295607813634e-05,0.0867155864834785,0,0,0
14392,486247.19481918187,2010-09-20 05:02:09,4052.052736563191,2,42,0.5501165986061096,4.013160705566406,42.7142587093797,42.244618745393765,169.97507569849088,154.74039949548896,0.0,0.0867155864834785,0,0,0
14393,486277.2101163964,2010-09-20 05:02:39,4082.068033777776,2,42,0.5501165986061096,4.015265464782715,42.71884527536845,42.244618745393765,169.9934878267901,154.74039949548896,0.0,0.0867155864834785,0,0,0
14394,486307.2254101975,2010-09-20 05:03:09,4112.083327578841,2,42,0.5501165986061096,4.017693519592285,42.723431985063485,42.244618745393765,170.01191102725394,154.74039949548896,3.23295607813634e-05,0.0867155864834785,0,0,0
14395,486337.2407307102,2010-09-20 05:03:39,4142.098648091583,2,42,0.5501165986061096,4.019959926605225,42.7280186782883,42.244618745393765,170.03034462588496,154.74039949548896,3.23295607813634e-05,0.0867155864834785,0,0,0
14396,486367.25600247626,2010-09-20 05:04:09,4172.113919857645,2,42,0.5501165986061096,4.022388458251953,42.73260523380108,42.244618745393765,170.04878832602154,154.74039949548896,6.47544875391759e-05,0.0867155864834785,0,0,0
14397,486397.271308543,2010-09-20 05:04:39,4202.129225924326,2,42,0.5501165986061096,4.024654865264893,42.737191810606525,42.244618745393765,170.0672427698164,154.74039949548896,3.24249267578125e-05,0.0867155864834785,0,0,0
14398,486427.2866206497,2010-09-20 05:05:09,4232.14453812131,2,42,0.5501165986061096,4.027082920074463,42.74177844607871,42.244618745393765,170.08570820877085,154.74039949548896,6.47544875391759e-05,0.0867155864834785,0,0,0
14399,486457.3018859196,2010-09-20 05:05:39,4262.159803310957,2,42,0.550297200679779,4.029511451721191,42.746365070781394,42.244618745393765,170.10418448919214,154.74039949548896,9.71794142969884e-05,0.0867155864834785,0,0,0
14400,486487.3171662069,2010-09-20 05:06:09,4292.175083588265,2,42,0.5501165986061096,4.031777858734131,42.75095169563442,42.244618745393765,170.12267163246108,154.74039949548896,3.24249267578125e-05,0.0867155864834785,0,0,0
14401,486517.3325880576,2010-09-20 05:06:39,4322.190505438961,2,42,0.5501165986061096,4.034367561340332,42.75553827650313,42.244618745393765,170.14116973692126,154.74039949548896,9.70840483205393e-05,0.0867155864834785,0,0,0
14402,486547.34774933785,2010-09-20 05:07:09,4352.205666719234,2,42,0.5501165986061096,4.036633968353272,42.76012482335292,42.244618745393765,170.15967889843137,154.74039949548896,3.23295607813634e-05,0.0867155864834785,0,0,0
14403,486577.3631936296,2010-09-20 05:07:39,4382.221111020972,2,42,0.5499359965324402,4.0390625,42.76471144084519,42.244618745393765,170.17819964068278,154.74039949548896,3.24249267578125e-05,0.0867155864834785,0,0,0
14404,486607.37835077953,2010-09-20 05:08:09,4412.236268185972,2,42,0.5499359965324402,4.041652679443359,42.76929804678593,42.244618745393765,170.1967315887603,154.74039949548896,3.24249267578125e-05,0.0867155864834785,0,0,0
14405,486637.3936305957,2010-09-20 05:08:39,4442.251548002128,2,42,0.5501165986061096,4.04440450668335,42.77388466129632,42.244618745393765,170.21527512825736,154.74039949548896,9.70840483205393e-05,0.0867155864834785,0,0,0
14406,486667.40893595567,2010-09-20 05:09:09,4472.266853336983,2,42,0.5501165986061096,4.046833038330078,42.778471354243344,42.244618745393765,170.23383057653544,154.74039949548896,6.47544875391759e-05,0.0867155864834785,0,0,0
14407,486697.42441407166,2010-09-20 05:09:39,4502.28233147819,2,42,0.550297200679779,4.0494232177734375,42.78305796864096,42.244618745393765,170.25239744980615,154.74039949548896,9.71794142969884e-05,0.0867155864834785,0,0,0
14408,486727.4395981339,2010-09-20 05:10:10,4532.297515610505,2,42,0.550297200679779,4.052013397216797,42.78764459769318,42.244618745393765,170.2709762096826,154.74039949548896,6.47544875391759e-05,0.0867155864834785,0,0,0
14409,486757.4548350129,2010-09-20 05:10:40,4562.312752419308,2,42,0.550297200679779,4.054441452026367,42.79223124086333,42.244618745393765,170.2895668826554,154.74039949548896,9.70840483205393e-05,0.0867155864834785,0,0,0
14410,486787.4702166432,2010-09-20 05:11:10,4592.328134029559,2,42,0.5501165986061096,4.057031631469727,42.79681785269708,42.244618745393765,170.30816930164048,154.74039949548896,6.47544875391759e-05,0.0867155864834785,0,0,0
14411,486817.48550703074,2010-09-20 05:11:40,4622.343424407078,2,42,0.5501165986061096,4.059621810913086,42.80140452167723,42.244618745393765,170.3267840585071,154.74039949548896,6.47544875391759e-05,0.0867155864834785,0,0,0
14412,486847.5006551632,2010-09-20 05:12:10,4652.358572539531,2,42,0.5501165986061096,4.062374114990234,42.80599110229578,42.244618745393765,170.3454103092077,154.74039949548896,6.47544875391759e-05,0.0867155864834785,0,0,0
14413,486877.5159494054,2010-09-20 05:12:40,4682.37386678671,2,42,0.550297200679779,4.065125942230225,42.81057771165684,42.244618745393765,170.36404898495616,154.74039949548896,0.0001295089750783,0.0867155864834785,0,0,0
14414,486907.5312345147,2010-09-20 05:13:10,4712.389151911117,2,42,0.5501165986061096,4.068039894104004,42.81516433183817,42.244618745393765,170.3827002079192,154.74039949548896,9.70840483205393e-05,0.0867155864834785,0,0,0
14415,486937.5465548069,2010-09-20 05:13:40,4742.404472213332,2,42,0.5501165986061096,4.070630073547363,42.81975098571426,42.244618745393765,170.4013642427237,154.74039949548896,6.47544875391759e-05,0.0867155864834785,0,0,0
14416,486967.5618278411,2010-09-20 05:14:10,4772.419745222498,2,42,0.5499359965324402,4.073382377624512,42.82433760467397,42.244618745393765,170.42004079556466,154.74039949548896,6.47544875391759e-05,0.0867155864834785,0,0,0
14417,486997.5771104091,2010-09-20 05:14:40,4802.435027790523,2,42,0.5501165986061096,4.076134204864502,42.82892421814032,42.244618745393765,170.4387301616124,154.74039949548896,6.47544875391759e-05,0.0867155864834785,0,0,0
14418,487027.5924229921,2010-09-20 05:15:10,4832.450340373471,2,42,0.550297200679779,4.079048156738281,42.83351087683037,42.244618745393765,170.45743267654777,154.74039949548896,6.47544875391759e-05,0.0867155864834785,0,0,0
14419,487057.6077028484,2010-09-20 05:15:40,4862.465620229727,2,42,0.5501165986061096,4.0819621086120605,42.83809752348499,42.244618745393765,170.47614818761028,154.74039949548896,0.0001295089750783,0.0867155864834785,0,0,0
14420,487087.6231117768,2010-09-20 05:16:10,4892.48102918323,2,42,0.5499359965324402,4.084714412689209,42.84268415901702,42.244618745393765,170.49487675897714,154.74039949548896,9.71794142969884e-05,0.0867155864834785,0,0,0
14421,487117.6384011368,2010-09-20 05:16:40,4922.496318518147,2,42,0.5501165986061096,4.087466239929199,42.84727074481256,42.244618745393765,170.51361838604225,154.74039949548896,0.0,0.0867155864834785,0,0,0
14422,487147.65357506863,2010-09-20 05:17:10,4952.511492449999,2,42,0.550297200679779,4.090542316436768,42.85185732270607,42.244618745393765,170.53237334751938,154.74039949548896,6.47544875391759e-05,0.0867155864834785,0,0,0
14423,487177.6690042275,2010-09-20 05:17:40,4982.526921608939,2,42,0.550297200679779,4.093617916107178,42.8564439909461,42.244618745393765,170.55114215741875,154.74039949548896,9.70840483205393e-05,0.0867155864834785,0,0,0
14424,487207.6841413125,2010-09-20 05:18:10,5012.542058698829,2,42,0.5499359965324402,4.096370220184326,42.86103058063348,42.244618745393765,170.5699242632272,154.74039949548896,6.47544875391759e-05,0.0867155864834785,0,0,0
14425,487237.6994586172,2010-09-20 05:18:40,5042.557376023613,2,42,0.5501165986061096,4.099607944488525,42.865617288281896,42.244618745393765,170.5887206472224,154.74039949548896,6.47544875391759e-05,0.0867155864834785,0,0,0
14426,487267.7147242078,2010-09-20 05:19:10,5072.572641589198,2,42,0.5501165986061096,4.102521896362305,42.87020396895997,42.244618745393765,170.60753075306692,154.74039949548896,9.71794142969884e-05,0.0867155864834785,0,0,0
14427,487297.73004170303,2010-09-20 05:19:40,5102.587959084406,2,42,0.5501165986061096,4.105759620666504,42.8747906992133,42.244618745393765,170.62635519302998,154.74039949548896,9.71794142969884e-05,0.0867155864834785,0,0,0
14428,487327.7453323513,2010-09-20 05:20:10,5132.603249827839,2,42,0.5501165986061096,4.108835220336914,42.87937730862421,42.244618745393765,170.64519322726056,154.74039949548896,6.47544875391759e-05,0.0867155864834785,0,0,0
14429,487357.76059913984,2010-09-20 05:20:40,5162.61851652124,2,42,0.550297200679779,4.111911296844482,42.88396396856561,42.244618745393765,170.6640457479654,154.74039949548896,6.47544875391759e-05,0.0867155864834785,0,0,0
14430,487387.7758838984,2010-09-20 05:21:10,5192.6338012847455,2,42,0.5501165986061096,4.114986896514893,42.888550586212354,42.244618745393765,170.68291236352857,154.74039949548896,6.47544875391759e-05,0.0867155864834785,0,0,0
14431,487417.7913176789,2010-09-20 05:21:40,5222.649235090283,2,42,0.550297200679779,4.118224620819092,42.89313722174782,42.244618745393765,170.70179351680545,154.74039949548896,0.0001295089750783,0.0867155864834785,0,0,0
14432,487447.8064806283,2010-09-20 05:22:10,5252.664398009648,2,42,0.5499359965324402,4.121300220489502,42.89772381515605,42.244618745393765,170.72068911979554,154.74039949548896,9.70840483205393e-05,0.0867155864834785,0,0,0
14433,487477.821710184,2010-09-20 05:22:40,5282.679627585396,2,42,0.5499359965324402,4.124537944793701,42.902309730448735,42.244618745393765,170.73959644834883,154.74039949548896,9.70840483205393e-05,0.0867155864834785,0,0,0
14434,487507.8369962808,2010-09-20 05:23:10,5312.6949136822295,2,42,0.5497553944587708,4.1277756690979,42.90689546101683,42.244618745393765,170.7585178833906,154.74039949548896,9.70840483205393e-05,0.0867155864834785,0,0,0
14435,487537.85232362064,2010-09-20 05:23:40,5342.710241027025,2,42,0.5499359965324402,4.1310133934021,42.91148142585753,42.244618745393765,170.77745534138276,154.74039949548896,6.47544875391759e-05,0.0867155864834785,0,0,0
14436,487567.867601497,2010-09-20 05:24:10,5372.725518873264,2,42,0.5497553944587708,4.134413242340088,42.91606719512821,42.244618745393765,170.79640706988857,154.74039949548896,9.71794142969884e-05,0.0867155864834785,0,0,0
14437,487597.882893303,2010-09-20 05:24:40,5402.7408106994,2,42,0.5501165986061096,4.137812614440918,42.92065291716699,42.244618745393765,170.81537378236948,154.74039949548896,9.70840483205393e-05,0.0867155864834785,0,0,0
14438,487627.8981822119,2010-09-20 05:25:10,5432.756099613265,2,42,0.5497553944587708,4.141050338745117,42.92523865692548,42.244618745393765,170.83435594822436,154.74039949548896,6.47544875391759e-05,0.0867155864834785,0,0,0
14439,487657.9136933505,2010-09-20 05:25:40,5462.77161075685,2,42,0.5501165986061096,4.1444501876831055,42.92982505168898,42.244618745393765,170.85335647193693,154.74039949548896,6.47544875391759e-05,0.0867155864834785,0,0,0
14440,487687.9289049112,2010-09-20 05:26:10,5492.786822292569,2,42,0.5501165986061096,4.148173332214356,42.93441171006997,42.244618745393765,170.87237416072009,154.74039949548896,9.70840483205393e-05,0.0867155864834785,0,0,0
14441,487717.9440610336,2010-09-20 05:26:40,5522.801978414967,2,42,0.5501165986061096,4.151411056518555,42.93899835295798,42.244618745393765,170.89140754983546,154.74039949548896,6.47544875391759e-05,0.0867155864834785,0,0,0
14442,487747.9593664136,2010-09-20 05:27:10,5552.817283814984,2,42,0.5499359965324402,4.154972553253174,42.94358502930017,42.244618745393765,170.9104569975057,154.74039949548896,9.70840483205393e-05,0.0867155864834785,0,0,0
14443,487777.9746640894,2010-09-20 05:27:40,5582.832581470671,2,42,0.5499359965324402,4.158534049987793,42.948171674936525,42.244618745393765,170.92952234904308,154.74039949548896,9.70840483205393e-05,0.0867155864834785,0,0,0
14444,487807.9903520543,2010-09-20 05:28:10,5612.84826953588,2,42,0.5501165986061096,4.161933898925781,42.952758409753336,42.244618745393765,170.94860417929382,154.74039949548896,6.47544875391759e-05,0.0867155864834785,0,0,0
14445,487838.0052035964,2010-09-20 05:28:40,5642.863120977749,2,42,0.5501165986061096,4.165657043457031,42.95734504055276,42.244618745393765,170.96770178946522,154.74039949548896,0.0001295089750783,0.0867155864834785,0,0,0
14446,487868.0205238886,2010-09-20 05:29:10,5672.8784412899895,2,42,0.5501165986061096,4.16905689239502,42.96193174779592,42.244618745393765,170.98681605503194,154.74039949548896,6.47544875391759e-05,0.0867155864834785,0,0,0
14447,487898.03579206567,2010-09-20 05:29:40,5702.893709447043,2,42,0.5501165986061096,4.1727800369262695,42.96651836312333,42.244618745393765,171.0059464238422,154.74039949548896,6.47544875391759e-05,0.0867155864834785,0,0,0
14448,487928.0510676814,2010-09-20 05:30:10,5732.908985062714,2,42,0.5501165986061096,4.176179885864258,42.97110504228999,42.244618745393765,171.0250936930945,154.74039949548896,6.47544875391759e-05,0.0867155864834785,0,0,0
14449,487958.0663621541,2010-09-20 05:30:40,5762.924279540468,2,42,0.5501165986061096,4.179903030395508,42.975691728453015,42.244618745393765,171.04425776378153,154.74039949548896,6.47544875391759e-05,0.0867155864834785,0,0,0
14450,487988.08164169954,2010-09-20 05:31:10,5792.939559080937,2,42,0.550297200679779,4.183788299560547,42.980278381294674,42.244618745393765,171.0634386108061,154.74039949548896,0.0001295089750783,0.0867155864834785,0,0,0
14451,488018.09686912,2010-09-20 05:31:40,5822.954786526368,2,42,0.550297200679779,4.187349796295166,42.98486513526972,42.244618745393765,171.08263691226938,154.74039949548896,6.47544875391759e-05,0.0867155864834785,0,0,0
14452,488048.1123493714,2010-09-20 05:32:10,5852.97026675278,2,42,0.5501165986061096,4.191073417663574,42.98945178893784,42.244618745393765,171.1018517461302,154.74039949548896,9.71794142969884e-05,0.0867155864834785,0,0,0
14453,488078.1275218196,2010-09-20 05:32:40,5882.985439220979,2,42,0.5501165986061096,4.195120334625244,42.99403849254882,42.244618745393765,171.12108404507342,154.74039949548896,0.0001295089750783,0.0867155864834785,0,0,0
14454,488108.14281349536,2010-09-20 05:33:10,5913.000730976938,2,42,0.5501165986061096,4.198681831359863,42.99862515175709,42.244618745393765,171.1403335287249,154.74039949548896,6.47544875391759e-05,0.0867155864834785,0,0,0
14455,488117.28336420615,2010-09-20 05:33:19,5922.141281777977,2,42,0.550297200679779,4.200138568878174,43.00002192333702,42.244618745393765,171.1461990698188,154.74039949548896,0.0001618385285837,0.0867155864834785,0,0,0
14456,488147.2988515986,2010-09-20 05:33:50,30.014368927438102,3,42,0.0,4.118872165679932,43.00002192333702,42.244618745393765,171.1461990698188,154.74039949548896,-0.0003561019839253,0.0867155864834785,0,0,0
14457,488177.3141141216,2010-09-20 05:34:20,60.02963139027804,3,42,0.0,4.108511447906494,43.00002192333702,42.244618745393765,171.1461990698188,154.74039949548896,-0.0001942634553415,0.0867155864834785,0,0,0
14458,488207.32937271474,2010-09-20 05:34:50,90.04488995839614,3,42,0.0,4.102683544158936,43.00002192333702,42.244618745393765,171.1461990698188,154.74039949548896,-0.0001295089750783,0.0867155864834785,0,0,0
14459,488237.2978375635,2010-09-20 05:35:20,120.01335490242953,3,42,0.0,4.0987982749938965,43.00002192333702,42.244618745393765,171.1461990698188,154.74039949548896,-6.47544875391759e-05,0.0867155864834785,0,0,0
14460,488237.3003300573,2010-09-20 05:35:20,0.015650922109419,4,42,0.9942348003387452,4.199653148651123,43.00002626145788,42.244618745393765,171.14621728842172,154.74039949548896,0.0,0.0867155864834785,0,0,0
14461,488238.3628330682,2010-09-20 05:35:21,1.078154023312037,4,42,0.9438448548316956,4.199814796447754,43.00031084602214,42.244618745393765,171.14741246223613,154.74039949548896,3.23295607813634e-05,0.0867155864834785,0,0,0
14462,488240.53465004254,2010-09-20 05:35:23,3.249970907380346,4,42,0.8938160538673401,4.199814796447754,43.00086406711616,42.244618745393765,171.14973583996496,154.74039949548896,3.23295607813634e-05,0.0867155864834785,0,0,0
14463,488243.7377446194,2010-09-20 05:35:26,6.453065484227938,4,42,0.8437873125076294,4.199653148651123,43.001636090359526,42.244618745393765,171.15297813473956,154.74039949548896,-3.23295607813634e-05,0.0867155864834785,0,0,0
14464,488248.0658336003,2010-09-20 05:35:30,10.781154465184247,4,42,0.7937585115432739,4.199814796447754,43.00261925786212,42.244618745393765,171.15710718416688,154.74039949548896,0.0,0.0867155864834785,0,0,0
14465,488253.62824853376,2010-09-20 05:35:36,16.343569398614232,4,42,0.7437297701835632,4.199653148651123,43.003805500891175,42.244618745393765,171.16208910995422,154.74039949548896,0.0,0.0867155864834785,0,0,0
14466,488260.6910344641,2010-09-20 05:35:43,23.40635533890365,4,42,0.6937009692192078,4.199653148651123,43.00521413458237,42.244618745393765,171.16800503967593,154.74039949548896,0.0,0.0867155864834785,0,0,0
14467,488270.2999412988,2010-09-20 05:35:53,33.015262163631526,4,42,0.6434916257858276,4.199653148651123,43.00699642610964,42.244618745393765,171.17549022575278,154.74039949548896,0.0,0.0867155864834785,0,0,0
14468,488283.3935564516,2010-09-20 05:36:06,46.108877316455306,4,42,0.5934628248214722,4.199653148651123,43.00924107878458,42.244618745393765,171.1849172157328,154.74039949548896,-3.23295607813634e-05,0.0867155864834785,0,0,0
14469,488302.7840672398,2010-09-20 05:36:25,65.49938810453787,4,42,0.5434340834617615,4.199653148651123,43.01229430460861,42.244618745393765,171.19774002663618,154.74039949548896,0.0,0.0867155864834785,0,0,0
14470,488335.1898811367,2010-09-20 05:36:58,97.90520202158464,4,42,0.4934053122997284,4.199653148651123,43.01694231961485,42.244618745393765,171.2172605663382,154.74039949548896,0.0,0.0867155864834785,0,0,0
14471,488391.9393126635,2010-09-20 05:37:54,154.6546335283072,4,42,0.4433765411376953,4.199814796447754,43.02429255124642,42.244618745393765,171.248129816133,154.74039949548896,0.0,0.0867155864834785,0,0,0
14472,488480.344466383,2010-09-20 05:39:23,243.05978724778387,4,42,0.3933477699756622,4.199814796447754,43.03453660798273,42.244618745393765,171.29115241258026,154.74039949548896,3.23295607813634e-05,0.0867155864834785,0,0,0
14473,488594.48379751336,2010-09-20 05:41:17,357.19911837818245,4,42,0.3433189988136291,4.199653148651123,43.04619470308316,42.244618745393765,171.34011372960748,154.74039949548896,-3.23295607813634e-05,0.0867155864834785,0,0,0
14474,488731.4822521879,2010-09-20 05:43:34,494.1975730527355,4,42,0.293290227651596,4.199814796447754,43.05829213225336,42.244618745393765,171.39092012244407,154.74039949548896,0.0,0.0867155864834785,0,0,0
14475,488898.0742277334,2010-09-20 05:46:20,660.7895486082567,4,42,0.243261456489563,4.199814796447754,43.07068914500665,42.244618745393765,171.44298467219008,154.74039949548896,0.0,0.0867155864834785,0,0,0
14476,489107.6186150668,2010-09-20 05:49:50,870.3339359266014,4,42,0.1930520683526992,4.199653148651123,43.08335786918405,42.244618745393765,171.496190370966,154.74039949548896,-3.23295607813634e-05,0.0867155864834785,0,0,0
14477,489387.6467120381,2010-09-20 05:54:30,1150.3620329029,4,42,0.1430232971906662,4.199814796447754,43.096358677786505,42.244618745393765,171.55079073164362,154.74039949548896,0.0,0.0867155864834785,0,0,0
14478,489806.3138501902,2010-09-20 06:01:29,1569.0291710550566,4,42,0.0928139239549636,4.199653148651123,43.109887141003135,42.244618745393765,171.60760710398648,154.74039949548896,-3.23295607813634e-05,0.0867155864834785,0,0,0
14479,490460.3064394122,2010-09-20 06:12:23,2223.021760276999,4,42,0.0498289167881011,4.199653148651123,43.12245644264728,42.244618745393765,171.6603952569402,154.74039949548896,-3.23295607813634e-05,0.0867155864834785,0,0,0
14480,490490.3181185732,2010-09-20 06:12:53,30.01529551033156,5,42,0.0,4.192044734954834,43.12245644264728,42.244618745393765,171.6603952569402,154.74039949548896,-3.23295607813634e-05,0.0867155864834785,0,0,0
14481,490520.3177743192,2010-09-20 06:13:23,60.01495135164314,5,42,0.0,4.190911293029785,43.12245644264728,42.244618745393765,171.6603952569402,154.74039949548896,-6.47544875391759e-05,0.0867155864834785,0,0,0
14482,490520.5179355012,2010-09-20 06:13:23,0.187495016406337,6,42,-1.9243103452026844e-05,4.191073417663574,43.12245644264728,42.24461874639599,171.6603952569402,154.74039949968932,0.0,0.0915781408548355,0,0,0
14483,490525.34612214286,2010-09-20 06:13:28,5.015681668086879,6,42,0.0005225847125984,4.190911293029785,43.12245733884332,42.24461874656305,171.66039901295952,154.74039950038951,-6.47544875391759e-05,0.0915781408548355,0,0,0
14484,490555.37453116354,2010-09-20 06:13:58,30.01579074651727,7,42,-1.0997490882873535,4.020931243896484,43.12245733884332,42.25378703346538,171.66039901295952,154.7774596047013,-0.0009389877086505,0.0915781408548355,0,0,0
14485,490585.3893014829,2010-09-20 06:14:28,60.0305610658914,7,42,-1.099568486213684,3.994705677032471,43.12245733884332,42.26295497028077,171.66039901295952,154.81419425373457,-0.0005827903514727,0.0915781408548355,0,0,0
14486,490615.4045755848,2010-09-20 06:14:58,90.0458351677842,7,42,-1.0993878841400146,3.976736545562744,43.12245733884332,42.27212302284854,171.66039901295952,154.85073037594398,-0.0004209041653666,0.0915781408548355,0,0,0
14487,490645.4199025987,2010-09-20 06:15:28,120.06116217674118,7,42,-1.099568486213684,3.9626524448394775,43.12245733884332,42.28129103058019,171.66039901295952,154.88712159691707,-0.0003237724304199,0.0915781408548355,0,0,0
14488,490675.43514565815,2010-09-20 06:15:58,150.07640523614714,7,42,-1.099568486213684,3.95099663734436,43.12245733884332,42.29045899694764,171.66039901295952,154.9233960755426,-0.0002913951757363,0.0915781408548355,0,0,0
14489,490705.4504240909,2010-09-20 06:16:28,180.09168366885032,7,42,-1.099568486213684,3.940474033355713,43.12245733884332,42.299627076910646,171.66039901295952,154.95957000319245,-0.0002590179501567,0.0915781408548355,0,0,0
14490,490735.4656999472,2010-09-20 06:16:58,210.1069595251223,7,42,-1.0997490882873535,3.9307608604431152,43.12245733884332,42.30879515130479,171.66039901295952,154.9956519798262,-0.0002590179501567,0.0915781408548355,0,0,0
14491,490765.48100141226,2010-09-20 06:17:28,240.12226099031813,7,42,-1.0993878841400146,3.921695232391357,43.12245733884332,42.317963232703576,171.66039901295952,155.0316477982602,-0.0002590179501567,0.0915781408548355,0,0,0
14492,490795.4963913433,2010-09-20 06:17:58,270.13765092133826,7,42,-1.0997490882873535,3.9127917289733887,43.12245733884332,42.3271313402927,171.66039901295952,155.0675614698115,-0.0002589702489785,0.0915781408548355,0,0,0
14493,490825.5116328639,2010-09-20 06:18:28,300.1528925371408,7,42,-1.099568486213684,3.9042117595672607,43.12245733884332,42.33629938357428,171.66039901295952,155.1033955278407,-0.0002590179501567,0.0915781408548355,0,0,0
14494,490855.5268827002,2010-09-20 06:18:58,330.1681423032878,7,42,-1.099568486213684,3.8961174488067623,43.12245733884332,42.34546740030673,171.66039901295952,155.13915251680555,-0.0002266406954731,0.0915781408548355,0,0,0
14495,490885.5421152584,2010-09-20 06:19:28,360.1833748263936,7,42,-1.0997490882873535,3.887861251831055,43.12245733884332,42.35463539441934,171.66039901295952,155.1748342954107,-0.0002590179501567,0.0915781408548355,0,0,0
14496,490915.5573919818,2010-09-20 06:19:58,390.19865167514286,7,42,-1.0997490882873535,3.879928827285767,43.12245733884332,42.363803454953285,171.66039901295952,155.2104420647192,-0.0002266406954731,0.0915781408548355,0,0,0
14497,490945.5726647604,2010-09-20 06:20:28,420.2139243384448,7,42,-1.099568486213684,3.872158288955689,43.12245733884332,42.37297152180231,171.66039901295952,155.24597681084333,-0.0001618862152099,0.0915781408548355,0,0,0
14498,490975.5879540051,2010-09-20 06:20:58,450.2292135831363,7,42,-1.099568486213684,3.8640639781951904,43.12245733884332,42.382139549179634,171.66039901295952,155.28143979127273,-0.0002266406954731,0.0915781408548355,0,0,0
14499,491005.6032856256,2010-09-20 06:21:28,480.2445452036044,7,42,-1.099568486213684,3.856617212295532,43.12245733884332,42.39130761305634,171.66039901295952,155.31683260394198,-0.0001942634553415,0.0915781408548355,0,0,0
14500,491035.6185247752,2010-09-20 06:21:58,510.2597843532511,7,42,-1.0993878841400146,3.849170446395874,43.12245733884332,42.40047566416385,171.66039901295952,155.35215571417433,-0.0001618862152099,0.0915781408548355,0,0,0
14501,491065.63383041584,2010-09-20 06:22:28,540.2750899938693,7,42,-1.099568486213684,3.841561794281006,43.12245733884332,42.40964367707446,171.66039901295952,155.3874101893295,-0.0001942634553415,0.0915781408548355,0,0,0
14502,491095.6490694402,2010-09-20 06:22:58,570.2903290182031,7,42,-1.099929690361023,3.8342769145965576,43.12245733884332,42.418811707112745,171.66039901295952,155.42259697206143,-0.0001942634553415,0.0915781408548355,0,0,0
14503,491125.66436386784,2010-09-20 06:23:28,600.305623445832,7,42,-1.099568486213684,3.8271541595458975,43.12245733884332,42.42797975499111,171.66039901295952,155.45771743895085,-0.0001942634553415,0.0915781408548355,0,0,0
14504,491155.6796326364,2010-09-20 06:23:58,630.3208922144121,7,42,-1.0993878841400146,3.82019305229187,43.12245733884332,42.437147738974815,171.66039901295952,155.4927725360112,-0.0001618862152099,0.0915781408548355,0,0,0
14505,491185.6949128235,2010-09-20 06:24:28,660.3361724014944,7,42,-1.0997490882873535,3.813070058822632,43.12245733884332,42.44631578198,171.66039901295952,155.5277635203031,-0.0001942634553415,0.0915781408548355,0,0,0
14506,491215.7101952962,2010-09-20 06:24:58,690.3514548742824,7,42,-1.0993878841400146,3.8062708377838135,43.12245733884332,42.45548375558947,171.66039901295952,155.56269028342,-0.0001618862152099,0.0915781408548355,0,0,0
14507,491245.7254839795,2010-09-20 06:25:28,720.3667435575726,7,42,-1.099568486213684,3.799471616744995,43.12245733884332,42.46465177526736,171.66039901295952,155.59755512287666,-0.0001942634553415,0.0915781408548355,0,0,0
14508,491275.7408450937,2010-09-20 06:25:58,750.3821048170241,7,42,-1.0997490882873535,3.7929961681365967,43.12245733884332,42.47381978268792,171.66039901295952,155.63235919793743,-0.0001942634553415,0.0915781408548355,0,0,0
14509,491305.75634424726,2010-09-20 06:26:28,780.3976039406056,7,42,-1.099568486213684,3.7865207195281982,43.12245733884332,42.48298784486986,171.66039901295952,155.66710379495677,-0.0001618862152099,0.0915781408548355,0,0,0
14510,491335.771339057,2010-09-20 06:26:58,810.4125986350545,7,42,-1.0997490882873535,3.7800452709198,43.12245733884332,42.49215577884237,171.66039901295952,155.70178909290485,-0.0001942634553415,0.0915781408548355,0,0,0
14511,491365.786602778,2010-09-20 06:27:28,840.4278623660598,7,42,-1.099568486213684,3.773893594741821,43.12245733884332,42.50132386611972,171.66039901295952,155.73641744949165,-0.0001942634553415,0.0915781408548355,0,0,0
14512,491395.801895732,2010-09-20 06:27:59,870.4431555004608,7,42,-1.099568486213684,3.7679038047790527,43.12245733884332,42.5104918845677,171.66039901295952,155.7709889723316,-0.0001618862152099,0.0915781408548355,0,0,0
14513,491425.8171852624,2010-09-20 06:28:29,900.45844484039,7,42,-1.0997490882873535,3.761914014816284,43.12245733884332,42.51965999053478,171.66039901295952,155.8055056401819,-0.0001942634553415,0.0915781408548355,0,0,0
14514,491455.8324594144,2010-09-20 06:28:59,930.473718992408,7,42,-1.099568486213684,3.7560861110687256,43.12245733884332,42.52882805900311,171.66039901295952,155.83996762537436,-0.0001295089750783,0.0915781408548355,0,0,0
14515,491485.8477715863,2010-09-20 06:29:29,960.489031189392,7,42,-1.0993878841400146,3.750258445739746,43.12245733884332,42.5379961001391,171.66039901295952,155.874376487584,-0.0001295089750783,0.0915781408548355,0,0,0
14516,491515.8630120794,2010-09-20 06:29:59,990.5042716573292,7,42,-1.099568486213684,3.7445924282073975,43.12245733884332,42.54716411217991,171.66039901295952,155.90873298002813,-0.0001295089750783,0.0915781408548355,0,0,0
14517,491545.8784518096,2010-09-20 06:30:29,1020.5197123099584,7,42,-1.099568486213684,3.739088296890259,43.12245733884332,42.55633218544204,171.66039901295952,155.9430381866066,-0.0001295089750783,0.0915781408548355,0,0,0
14518,491575.89358241326,2010-09-20 06:30:59,1050.5348419913555,7,42,-1.0993878841400146,3.73358416557312,43.12245733884332,42.565499654724455,171.66039901295952,155.97729042532515,-0.0001618862152099,0.0915781408548355,0,0,0
14519,491605.9088872972,2010-09-20 06:31:29,1080.5501468750845,7,42,-1.099568486213684,3.728080034255981,43.12245733884332,42.57466696103333,171.66039901295952,156.01149218146176,-0.0001618862152099,0.0915781408548355,0,0,0
14520,491635.924257564,2010-09-20 06:31:59,1110.56551714202,7,42,-1.099568486213684,3.722899675369263,43.12245733884332,42.58383424119164,171.66039901295952,156.04564561822343,-0.0001618862152099,0.0915781408548355,0,0,0
14521,491665.9395205031,2010-09-20 06:32:29,1140.5807801111237,7,42,-1.099568486213684,3.717719316482544,43.12245733884332,42.593001529040166,171.66039901295952,156.079751005933,-0.0001295089750783,0.0915781408548355,0,0,0
14522,491695.9547058384,2010-09-20 06:32:59,1170.5959654414287,7,42,-1.0993878841400146,3.712700843811035,43.12245733884332,42.60216927438365,171.66039901295952,156.11381131935838,-0.0001295089750783,0.0915781408548355,0,0,0
14523,491725.96997944906,2010-09-20 06:33:29,1200.6112390320454,7,42,-1.099568486213684,3.707844257354736,43.12245733884332,42.61133732811896,171.66039901295952,156.14782634574533,-9.713172767078504e-05,0.0915781408548355,0,0,0
14524,491755.98538280354,2010-09-20 06:33:59,1230.62664238156,7,42,-1.0993878841400146,3.702825784683228,43.12245733884332,42.62050542412634,171.66039901295952,156.18179604150382,-9.713172767078504e-05,0.0915781408548355,0,0,0
14525,491786.0005290714,2010-09-20 06:34:29,1260.6417886493591,7,42,-1.099568486213684,3.6979691982269287,43.12245733884332,42.62967344005288,171.66039901295952,156.21572066429837,-9.713172767078504e-05,0.0915781408548355,0,0,0
14526,491816.01583230594,2010-09-20 06:34:59,1290.6570918839718,7,42,-1.099568486213684,3.69327449798584,43.12245733884332,42.63884148979128,171.66039901295952,156.249601791096,-9.713172767078504e-05,0.0915781408548355,0,0,0
14527,491846.0311199316,2010-09-20 06:35:29,1320.672379509622,7,42,-1.0997490882873535,3.688417911529541,43.12245733884332,42.64800953430967,171.66039901295952,156.2834397531526,-0.0001618862152099,0.0915781408548355,0,0,0
14528,491876.04636268027,2010-09-20 06:35:59,1350.6876222582523,7,42,-1.0997490882873535,3.684046983718872,43.12245733884332,42.65717755937909,171.66039901295952,156.3172351334391,-9.713172767078504e-05,0.0915781408548355,0,0,0
14529,491906.0616629024,2010-09-20 06:36:29,1380.7029225054075,7,42,-1.099568486213684,3.679514169692993,43.12245733884332,42.66634555492083,171.66039901295952,156.3509885011453,-9.713172767078504e-05,0.0915781408548355,0,0,0
14530,491936.0769192549,2010-09-20 06:36:59,1410.7181788329333,7,42,-1.099568486213684,3.674819469451904,43.12245733884332,42.67551357691658,171.66039901295952,156.38470057838487,-0.0001295089750783,0.0915781408548355,0,0,0
14531,491966.0922049507,2010-09-20 06:37:29,1440.733464528766,7,42,-1.099568486213684,3.670610666275024,43.12245733884332,42.68468159998026,171.66039901295952,156.41837188293334,-9.713172767078504e-05,0.0915781408548355,0,0,0
14532,491996.1075869569,2010-09-20 06:37:59,1470.7488465650797,7,42,-1.099568486213684,3.6660778522491455,43.12245733884332,42.69384965959033,171.66039901295952,156.45200291137206,-0.0001295089750783,0.0915781408548355,0,0,0
14533,492026.1227544026,2010-09-20 06:38:29,1500.7640140107424,7,42,-1.099568486213684,3.6621925830841056,43.12245733884332,42.70301769517207,171.66039901295952,156.4855947931351,-9.713172767078504e-05,0.0915781408548355,0,0,0
14534,492056.1380331261,2010-09-20 06:38:59,1530.779292704096,7,42,-1.099568486213684,3.657659769058228,43.12245733884332,42.71218572012388,171.66039901295952,156.5191478166735,-9.713172767078504e-05,0.0915781408548355,0,0,0
14535,492086.1533185362,2010-09-20 06:39:29,1560.794578114216,7,42,-1.099568486213684,3.6536126136779785,43.12245733884332,42.7213537115817,171.66039901295952,156.55266244355695,-0.0001295089750783,0.0915781408548355,0,0,0
14536,492116.1686011845,2010-09-20 06:39:59,1590.809860787504,7,42,-1.099568486213684,3.64972734451294,43.12245733884332,42.73052173245778,171.66039901295952,156.58613959310864,-6.47544875391759e-05,0.0915781408548355,0,0,0
14537,492146.18385964725,2010-09-20 06:40:29,1620.8251192252967,7,42,-1.099568486213684,3.645518302917481,43.12245733884332,42.73968972329253,171.66039901295952,156.6195792921351,-9.713172767078504e-05,0.0915781408548355,0,0,0
14538,492176.1991333983,2010-09-20 06:40:59,1650.8403930013765,7,42,-1.099568486213684,3.641471147537232,43.12245733884332,42.7488576801464,171.66039901295952,156.6529822866208,-9.713172767078504e-05,0.0915781408548355,0,0,0
14539,492206.2145556701,2010-09-20 06:41:29,1680.8558152781366,7,42,-1.099568486213684,3.637585878372192,43.12245733884332,42.75802574990203,171.66039901295952,156.6863497339128,-0.0001295089750783,0.0915781408548355,0,0,0
14540,492236.2298195264,2010-09-20 06:41:59,1710.871079114405,7,42,-1.099568486213684,3.6338624954223633,43.12245733884332,42.767193762209175,171.66039901295952,156.71968186520422,-9.713172767078504e-05,0.0915781408548355,0,0,0
14541,492266.24497417005,2010-09-20 06:42:29,1740.8862337480864,7,42,-1.0997490882873535,3.630139112472534,43.12245733884332,42.77636176450728,171.66039901295952,156.752979964931,-6.47544875391759e-05,0.0915781408548355,0,0,0
14542,492296.2602756302,2010-09-20 06:42:59,1770.9015353235577,7,42,-1.0997490882873535,3.626415729522705,43.12245733884332,42.78552978012698,171.66039901295952,156.78624468409154,-0.0001618862152099,0.0915781408548355,0,0,0
14543,492326.2757529043,2010-09-20 06:43:29,1800.9170125073742,7,42,-1.0997490882873535,3.622854232788086,43.12245733884332,42.79469780708741,171.66039901295952,156.81947655165848,-0.0001295089750783,0.0915781408548355,0,0,0
14544,492356.29081726266,2010-09-20 06:43:59,1830.9320769208523,7,42,-1.0997490882873535,3.6194546222686768,43.12245733884332,42.8038657650502,171.66039901295952,156.8526761938425,-9.713172767078504e-05,0.0915781408548355,0,0,0
14545,492386.3060498559,2010-09-20 06:44:29,1860.9473094589955,7,42,-1.0993878841400146,3.616378784179688,43.12245733884332,42.81303379009782,171.66039901295952,156.88584507476426,-6.47544875391759e-05,0.0915781408548355,0,0,0
14546,492416.3213517622,2010-09-20 06:44:59,1890.962611350255,7,42,-1.0997490882873535,3.613141059875488,43.12245733884332,42.8222017508458,171.66039901295952,156.91898376159648,-6.47544875391759e-05,0.0915781408548355,0,0,0
14547,492446.3366528615,2010-09-20 06:45:29,1920.9779124645752,7,42,-1.099568486213684,3.609741449356079,43.12245733884332,42.8313696851141,171.66039901295952,156.95209240939317,-6.47544875391759e-05,0.0915781408548355,0,0,0
14548,492476.35230818496,2010-09-20 06:45:59,1950.9935677680053,7,42,-1.099568486213684,3.60666561126709,43.12245733884332,42.84053774479534,171.66039901295952,156.98517249016678,-6.47544875391759e-05,0.0915781408548355,0,0,0
14549,492506.36728632805,2010-09-20 06:46:29,1981.008545916152,7,42,-1.0993878841400146,3.603751659393311,43.12245733884332,42.84970560599725,171.66039901295952,157.01822330679823,-3.237724376958795e-05,0.0915781408548355,0,0,0
14550,492536.3825323749,2010-09-20 06:46:59,2011.023791968028,7,42,-1.099568486213684,3.6005139350891118,43.12245733884332,42.85887360587878,171.66039901295952,157.05124606512922,-6.47544875391759e-05,0.0915781408548355,0,0,0
14551,492566.3977593191,2010-09-20 06:47:29,2041.039018892158,7,42,-1.099568486213684,3.597276210784912,43.12245733884332,42.86804166039495,171.66039901295952,157.08424073497048,-9.713172767078504e-05,0.0915781408548355,0,0,0
14552,492596.4130347594,2010-09-20 06:47:59,2071.0542944226163,7,42,-1.099568486213684,3.594362258911133,43.12245733884332,42.87720970954192,171.66039901295952,157.11720751992323,-6.47544875391759e-05,0.0915781408548355,0,0,0
14553,492626.4282970218,2010-09-20 06:48:29,2101.069556604756,7,42,-1.0997490882873535,3.5912866592407227,43.12245733884332,42.88637774662156,171.66039901295952,157.15014671751874,-9.713172767078504e-05,0.0915781408548355,0,0,0
14554,492656.443556457,2010-09-20 06:48:59,2131.0848160350256,7,42,-1.099568486213684,3.5882108211517334,43.12245733884332,42.89554581148594,171.66039901295952,157.18305843060153,-9.713172767078504e-05,0.0915781408548355,0,0,0
14555,492686.4588465488,2010-09-20 06:49:29,2161.100106126832,7,42,-1.0997490882873535,3.585296869277954,43.12245733884332,42.904713946092535,171.66039901295952,157.2159425514755,-6.47544875391759e-05,0.0915781408548355,0,0,0
14556,492716.47435341176,2010-09-20 06:49:59,2191.1156129947444,7,42,-1.0997490882873535,3.582382917404175,43.12245733884332,42.913882016195245,171.66039901295952,157.24879928513863,-6.47544875391759e-05,0.0915781408548355,0,0,0
14557,492746.4895277045,2010-09-20 06:50:29,2221.1307873075484,7,42,-1.0997490882873535,3.579307079315185,43.12245733884332,42.9230500400875,171.66039901295952,157.28162901015645,-9.713172767078504e-05,0.0915781408548355,0,0,0
14558,492776.5047380322,2010-09-20 06:50:59,2251.145997730489,7,42,-1.099568486213684,3.5763931274414062,43.12245733884332,42.93221804703131,171.66039901295952,157.31443156230412,-0.0001295089750783,0.0915781408548355,0,0,0
14559,492806.5199688009,2010-09-20 06:51:29,2281.161228398965,7,42,-1.099568486213684,3.573479175567627,43.12245733884332,42.941385949256485,171.66039901295952,157.34720595384812,-6.47544875391759e-05,0.0915781408548355,0,0,0
14560,492836.5352394893,2010-09-20 06:51:59,2311.1764990622746,7,42,-1.099568486213684,3.5704033374786377,43.12245733884332,42.95055387139249,171.66039901295952,157.37995266078266,-6.47544875391759e-05,0.0915781408548355,0,0,0
14561,492866.55048528046,2010-09-20 06:52:29,2341.191744878562,7,42,-1.099568486213684,3.5671656131744385,43.12245733884332,42.95972175124415,171.66039901295952,157.41267065997494,-9.713172767078504e-05,0.0915781408548355,0,0,0
14562,492896.5657636931,2010-09-20 06:52:59,2371.207023291215,7,42,-1.099568486213684,3.564089775085449,43.12245733884332,42.96888971417646,171.66039901295952,157.44536000482003,-6.47544875391759e-05,0.0915781408548355,0,0,0
14563,492926.58103964967,2010-09-20 06:53:29,2401.2222992226752,7,42,-1.099568486213684,3.56101393699646,43.12245733884332,42.978057562120206,171.66039901295952,157.4780205040776,-9.713172767078504e-05,0.0915781408548355,0,0,0
14564,492956.5964379666,2010-09-20 06:53:59,2431.2376976649407,7,42,-1.0997490882873535,3.557614326477051,43.12245733884332,42.98722550401348,171.66039901295952,157.51065185605898,-9.713172767078504e-05,0.0915781408548355,0,0,0
14565,492986.61160626943,2010-09-20 06:54:29,2461.252865872505,7,42,-1.099568486213684,3.5542147159576416,43.12245733884332,42.996393413192855,171.66039901295952,157.54325251667342,-9.713172767078504e-05,0.0915781408548355,0,0,0
14566,493016.6270124861,2010-09-20 06:54:59,2491.2682720641146,7,42,-1.099568486213684,3.5509769916534424,43.12245733884332,43.00556138625204,171.66039901295952,157.57582239430363,-9.713172767078504e-05,0.0915781408548355,0,0,0
14567,493046.64217769617,2010-09-20 06:55:29,2521.283437304271,7,42,-1.099568486213684,3.5474154949188232,43.12245733884332,43.01472929454696,171.66039901295952,157.60836051913125,-9.713172767078504e-05,0.0915781408548355,0,0,0
14568,493076.6574388557,2010-09-20 06:55:59,2551.298698458845,7,42,-1.099568486213684,3.544015884399414,43.12245733884332,43.02389722248193,171.66039901295952,157.64086651752248,-6.47544875391759e-05,0.0915781408548355,0,0,0
14569,493106.6727181105,2010-09-20 06:56:29,2581.313977698563,7,42,-1.0997490882873535,3.540292501449585,43.12245733884332,43.03306511709526,171.66039901295952,157.67333971491163,-9.713172767078504e-05,0.0915781408548355,0,0,0
14570,493136.6881134652,2010-09-20 06:56:59,2611.3293730681585,7,42,-1.099568486213684,3.536569118499756,43.12245733884332,43.04223306454186,171.66039901295952,157.70577957448384,-9.713172767078504e-05,0.0915781408548355,0,0,0
14571,493166.70328523655,2010-09-20 06:57:29,2641.3445448396187,7,42,-1.0997490882873535,3.532521963119507,43.12245733884332,43.05140094989304,171.66039901295952,157.73818438126338,-0.0001295089750783,0.0915781408548355,0,0,0
14572,493196.71866498713,2010-09-20 06:57:59,2671.359924570177,7,42,-1.0993878841400146,3.528636693954468,43.12245733884332,43.06056893143517,171.66039901295952,157.77055343838092,-0.0001295089750783,0.0915781408548355,0,0,0
14573,493226.7338214504,2010-09-20 06:58:29,2701.3750810584884,7,42,-1.099568486213684,3.524427652359009,43.12245733884332,43.0697368208287,171.66039901295952,157.80288512470725,-0.0001295089750783,0.0915781408548355,0,0,0
14574,493256.7491169256,2010-09-20 06:58:59,2731.390376493632,7,42,-1.0997490882873535,3.52005672454834,43.12245733884332,43.078904715608445,171.66039901295952,157.8351775055687,-0.0001295089750783,0.0915781408548355,0,0,0
14575,493286.76459334255,2010-09-20 06:59:29,2761.405852920559,7,42,-1.099568486213684,3.515362024307251,43.12245733884332,43.08807270488124,171.66039901295952,157.86742859590342,-0.0001295089750783,0.0915781408548355,0,0,0
14576,493316.7796970942,2010-09-20 07:00:00,2791.42095686772,7,42,-1.099568486213684,3.5105056762695312,43.12245733884332,43.09724061396713,171.66039901295952,157.8996351083596,-9.713172767078504e-05,0.0915781408548355,0,0,0
14577,493346.794917903,2010-09-20 07:00:30,2821.4361774810973,7,42,-1.099568486213684,3.5051634311676025,43.12245733884332,43.10640848651724,171.66039901295952,157.9317943601886,-0.0001618862152099,0.0915781408548355,0,0,0
14578,493376.8102164109,2010-09-20 07:01:00,2851.451476013973,7,42,-1.099568486213684,3.499335527420044,43.12245733884332,43.11557644013311,171.66039901295952,157.96390332027187,-0.0001618862152099,0.0915781408548355,0,0,0
14579,493406.82548425713,2010-09-20 07:01:30,2881.4667438351885,7,42,-1.0997490882873535,3.4930219650268555,43.12245733884332,43.12474437241279,171.66039901295952,157.9959565310852,-0.0001618862152099,0.0915781408548355,0,0,0
14580,493436.8255480919,2010-09-20 07:02:00,2911.466807694977,7,42,-1.0997490882873535,3.486060857772827,43.12245733884332,43.13390767729192,171.66039901295952,158.0279338105838,-0.0002266406954731,0.0915781408548355,0,0,0
14581,493466.84039041103,2010-09-20 07:02:30,2941.481650019086,7,42,-1.099568486213684,3.478452205657959,43.12245733884332,43.14307551753355,171.66039901295952,158.05986065770966,-0.0002266406954731,0.0915781408548355,0,0,0
14582,493496.8556615154,2010-09-20 07:03:00,2971.4969211034468,7,42,-1.0993878841400146,3.470034122467041,43.12245733884332,43.15224340629689,171.66039901295952,158.09171329766934,-0.0002266406954731,0.0915781408548355,0,0,0
14583,493526.8709661285,2010-09-20 07:03:30,3001.512225711488,7,42,-1.0997490882873535,3.4601590633392334,43.12245733884332,43.16141135445725,171.66039901295952,158.12348245506345,-0.0003237724304199,0.0915781408548355,0,0,0
14584,493556.8862307216,2010-09-20 07:04:00,3031.527490299633,7,42,-1.099568486213684,3.448988914489746,43.12245733884332,43.17057923612799,171.66039901295952,158.15515426975315,-0.0002913951757363,0.0915781408548355,0,0,0
14585,493586.9014949288,2010-09-20 07:04:30,3061.5427545318894,7,42,-1.0993878841400146,3.4353904724121094,43.12245733884332,43.17974717909395,171.66039901295952,158.18671275074226,-0.0003561496851034,0.0915781408548355,0,0,0
14586,493616.9167726247,2010-09-20 07:05:00,3091.5580322277533,7,42,-1.099568486213684,3.4188783168792725,43.12245733884332,43.188915175237845,171.66039901295952,158.2181344943109,-0.0004209041653666,0.0915781408548355,0,0,0
14587,493646.93204376416,2010-09-20 07:05:30,3121.573303342189,7,42,-1.099568486213684,3.397671222686768,43.12245733884332,43.198083112482685,171.66039901295952,158.24938524597906,-0.0006475448608398,0.0915781408548355,0,0,0
14588,493676.94734535966,2010-09-20 07:06:00,3151.58860493771,7,42,-1.099568486213684,3.3695030212402344,43.12245733884332,43.207251046314994,171.66039901295952,158.28041176398364,-0.0008094310760498,0.0915781408548355,0,0,0
14589,493706.96272919554,2010-09-20 07:06:30,3181.6039887735155,7,42,-1.099568486213684,3.330003023147583,43.12245733884332,43.21641905350888,171.66039901295952,158.31113234001205,-0.0012303352123126,0.0915781408548355,0,0,0
14590,493736.9780216933,2010-09-20 07:07:00,3211.619281371577,7,42,-1.099568486213684,3.2739903926849365,43.12245733884332,43.225586919231645,171.66039901295952,158.34141962146748,-0.0017159938579425,0.0915781408548355,0,0,0
14591,493766.9931485176,2010-09-20 07:07:30,3241.634408095593,7,42,-1.0997490882873535,3.1920762062072754,43.12245733884332,43.23475477107467,171.66039901295952,158.37108366023327,-0.0025578022468835,0.0915781408548355,0,0,0
14592,493797.0085599172,2010-09-20 07:08:00,3271.6498195052263,7,42,-1.0997490882873535,3.0641865730285645,43.12245733884332,43.2439227710732,171.66039901295952,158.39981096377272,-0.0042414190247654,0.0915781408548355,0,0,0
14593,493820.8050167043,2010-09-20 07:08:24,3295.446276287348,7,42,-1.0997490882873535,2.86393404006958,43.12245733884332,43.25119121965084,171.66039901295952,158.42145959361594,-0.0095512391999363,0.0915781408548355,0,0,0
14594,493831.71113552473,2010-09-20 07:08:34,3306.3523951027755,7,42,-1.099568486213684,2.699943780899048,43.12245733884332,43.2545224100859,171.66039901295952,158.43073811005928,-0.0128860948607325,0.0915781408548355,0,0,0
14595,493891.71450576925,2010-09-20 07:09:35,60.014902344313306,8,42,0.0,3.4054417610168457,43.12245733884332,43.2545224100859,171.66039901295952,158.43073811005928,0.0014245987404137,0.0915781408548355,0,0,0
14596,493891.8912942798,2010-09-20 07:09:35,0.187619151266045,9,42,-1.9243103452026844e-05,3.405603647232056,43.12245733884332,43.25452241108878,171.66039901295952,158.43073811347472,0.0,0.0875260159373283,0,0,0
14597,493896.7192791177,2010-09-20 07:09:40,5.01560396913835,9,42,0.0008838032954372,3.414183616638184,43.12245827064909,43.25452241117202,171.66040219105315,158.4307381137582,0.0012303352123126,0.0875260159373283,0,0,0
