Data_Point,Test_Time(s),Date_Time,Step_Time(s),Step_Index,Cycle_Index,Current(A),Voltage(V),Charge_Capacity(Ah),Discharge_Capacity(Ah),Charge_Energy(Wh),Discharge_Energy(Wh),dV/dt(V/s),Internal_Resistance(Ohm),Is_FC_Data,AC_Impedance(Ohm),ACI_Phase_Angle(Deg)
14598,493926.7550669004,2010-09-20 07:10:10,30.015350457488115,1,43,0.0,3.451255321502685,43.12245827064909,43.25452241117202,171.66040219105315,158.4307381137582,0.0007446765666827,0.0875260159373283,0,0,0
14599,493956.77023996506,2010-09-20 07:10:40,60.03052351215148,1,43,0.0,3.4760239124298096,43.12245827064909,43.25452241117202,171.66040219105315,158.4307381137582,0.0005827903514727,0.0875260159373283,0,0,0
14600,493986.78549289407,2010-09-20 07:11:10,90.04577642615607,1,43,0.0,3.494155168533325,43.12245827064909,43.25452241117202,171.66040219105315,158.4307381137582,0.0004209041653666,0.0875260159373283,0,0,0
14601,494016.7538989512,2010-09-20 07:11:40,120.01418250324848,1,43,0.0,3.508239269256592,43.12245827064909,43.25452241117202,171.66040219105315,158.4307381137582,0.0003561496851034,0.0875260159373283,0,0,0
14602,494046.759571862,2010-09-20 07:12:10,30.01504196744952,2,43,0.5501165986061096,3.642928123474121,43.12704404026746,43.25452241117202,171.67697579984528,158.4307381137582,0.0013274669181555,0.0875260159373283,0,0,0
14603,494076.77482325217,2010-09-20 07:12:40,60.03029335765044,2,43,0.5501165986061096,3.680971145629883,43.13163059098233,43.25452241117202,171.69377686000755,158.4307381137582,0.0009065627818927,0.0875260159373283,0,0,0
14604,494106.7900957952,2010-09-20 07:13:10,90.045565900652,2,43,0.5501165986061096,3.708168029785156,43.136217125540085,43.25452241117202,171.71072462517924,158.4307381137582,0.0006151676061563,0.0875260159373283,0,0,0
14605,494136.80538523535,2010-09-20 07:13:40,120.06085534083154,2,43,0.550297200679779,3.729213237762451,43.14080372032803,43.25452241117202,171.7277827382397,158.4307381137582,0.0005180359003134,0.0875260159373283,0,0,0
14606,494166.82117157086,2010-09-20 07:14:10,150.07664168135076,2,43,0.5501165986061096,3.745887517929077,43.14539030942207,43.25452241117202,171.74492669202803,158.4307381137582,0.0004209041653666,0.0875260159373283,0,0,0
14607,494196.83593243663,2010-09-20 07:14:40,180.09140254211476,2,43,0.5501165986061096,3.758028745651245,43.14997663655977,43.25452241117202,171.7621356428657,158.4307381137582,0.0002913951757363,0.0875260159373283,0,0,0
14608,494226.8511982829,2010-09-20 07:15:10,210.1066683884003,2,43,0.550297200679779,3.7654755115509033,43.154563131082725,43.25452241117202,171.77938977919098,158.4307381137582,0.0001618862152099,0.0875260159373283,0,0,0
14609,494256.8665156479,2010-09-20 07:15:40,240.12198577834675,2,43,0.550297200679779,3.770170211791992,43.15914968529404,43.25452241117202,171.7966708641437,158.4307381137582,0.0001295089750783,0.0875260159373283,0,0,0
14610,494286.8817520306,2010-09-20 07:16:10,270.1372221360241,2,43,0.5501165986061096,3.773569822311402,43.16373620903963,43.25452241117202,171.8139701527902,158.4307381137582,6.47544875391759e-05,0.0875260159373283,0,0,0
14611,494316.89703113993,2010-09-20 07:16:40,300.152501270479,2,43,0.550297200679779,3.7769694328308105,43.16832304251419,43.25452241117202,171.8312867862889,158.4307381137582,9.713172767078504e-05,0.0875260159373283,0,0,0
14612,494346.9123146954,2010-09-20 07:17:10,330.1677848009069,2,43,0.5499359965324402,3.7802071571350098,43.17291044892232,43.25452241117202,171.84862117279607,158.4307381137582,9.713172767078504e-05,0.0875260159373283,0,0,0
14613,494376.92762557406,2010-09-20 07:17:40,360.1830957046628,2,43,0.5501165986061096,3.783606767654419,43.17749746174948,43.25452241117202,171.8659692944211,158.4307381137582,9.713172767078504e-05,0.0875260159373283,0,0,0
14614,494406.9430101768,2010-09-20 07:18:10,390.1984802923451,2,43,0.5501165986061096,3.787168264389038,43.18208400561328,43.25452241117202,171.8833309671773,158.4307381137582,0.0001295089750783,0.0875260159373283,0,0,0
14615,494436.9582797775,2010-09-20 07:18:40,420.21374987796463,2,43,0.5499359965324402,3.7900822162628174,43.18667048104414,43.25452241117202,171.90070752887317,158.4307381137582,6.47544875391759e-05,0.0875260159373283,0,0,0
14616,494466.9735739846,2010-09-20 07:19:10,450.2290441151181,2,43,0.5501165986061096,3.793643712997437,43.19125692683707,43.25452241117202,171.91809883491382,158.4307381137582,0.0001295089750783,0.0875260159373283,0,0,0
14617,494496.9887173601,2010-09-20 07:19:40,480.2441874656354,2,43,0.550297200679779,3.796881437301636,43.19584337633004,43.25452241117202,171.9355050337692,158.4307381137582,0.0001295089750783,0.0875260159373283,0,0,0
14618,494527.0041096019,2010-09-20 07:20:10,510.25957970742354,2,43,0.5501165986061096,3.799957275390625,43.200429871865126,43.25452241117202,171.95292599085928,158.4307381137582,9.713172767078504e-05,0.0875260159373283,0,0,0
14619,494557.0192589274,2010-09-20 07:20:40,540.2747290328551,2,43,0.5501165986061096,3.803194999694824,43.20501633399678,43.25452241117202,171.97036128791478,158.4307381137582,0.0001295089750783,0.0875260159373283,0,0,0
14620,494587.034536513,2010-09-20 07:21:10,570.2900066184437,2,43,0.5501165986061096,3.806108951568604,43.209602780045394,43.25452241117202,171.98781090812793,158.4307381137582,6.47544875391759e-05,0.0875260159373283,0,0,0
14621,494617.0498600783,2010-09-20 07:21:40,600.30533019383,2,43,0.5501165986061096,3.8093466758728023,43.21418930525027,43.25452241117202,172.00527517516554,158.4307381137582,6.47544875391759e-05,0.0875260159373283,0,0,0
14622,494647.0650836442,2010-09-20 07:22:10,630.3205537495518,2,43,0.550297200679779,3.812584400177002,43.21877583587914,43.25452241117202,172.02275374344268,158.4307381137582,0.0001295089750783,0.0875260159373283,0,0,0
14623,494677.08036436746,2010-09-20 07:22:40,660.335834503048,2,43,0.550297200679779,3.815498352050781,43.22336225876049,43.25452241117202,172.04024664174298,158.4307381137582,3.237724376958795e-05,0.0875260159373283,0,0,0
14624,494707.0956430458,2010-09-20 07:23:10,690.3511131512892,2,43,0.5499359965324402,3.818736076354981,43.22794868179688,43.25452241117202,172.05775412671278,158.4307381137582,3.237724376958795e-05,0.0875260159373283,0,0,0
14625,494737.1109426064,2010-09-20 07:23:40,720.3664128069682,2,43,0.5501165986061096,3.8221356868743896,43.23253510703952,43.25452241117202,172.07527653541408,158.4307381137582,6.47544875391759e-05,0.0875260159373283,0,0,0
14626,494767.1261528938,2010-09-20 07:24:10,750.381622999333,2,43,0.5501165986061096,3.825373411178589,43.23712146795419,43.25452241117202,172.09281364263836,158.4307381137582,9.713172767078504e-05,0.0875260159373283,0,0,0
14627,494797.14143161225,2010-09-20 07:24:40,780.3969017177493,2,43,0.5501165986061096,3.828773021697998,43.24170790230908,43.25452241117202,172.110366467451,158.4307381137582,6.47544875391759e-05,0.0875260159373283,0,0,0
14628,494827.1567023759,2010-09-20 07:25:10,810.4121724913341,2,43,0.5499359965324402,3.832334518432617,43.24629434131528,43.25452241117202,172.12793502149822,158.4307381137582,9.713172767078504e-05,0.0875260159373283,0,0,0
14629,494857.1719864927,2010-09-20 07:25:40,840.4274566232633,2,43,0.5501165986061096,3.835572004318237,43.25088076288402,43.25452241117202,172.14551917963917,158.4307381137582,9.713172767078504e-05,0.0875260159373283,0,0,0
14630,494887.18727394793,2010-09-20 07:26:10,870.4427440734756,2,43,0.550297200679779,3.839133501052856,43.2554672609352,43.25452241117202,172.16311950836524,158.4307381137582,6.47544875391759e-05,0.0875260159373283,0,0,0
14631,494917.2025338193,2010-09-20 07:26:40,900.4580039247969,2,43,0.5499359965324402,3.8425331115722656,43.26005371399681,43.25452241117202,172.18073525884617,158.4307381137582,6.47544875391759e-05,0.0875260159373283,0,0,0
14632,494947.2178237357,2010-09-20 07:27:10,930.4732938411652,2,43,0.5501165986061096,3.845770835876465,43.264640151620384,43.25452241117202,172.19836624077487,158.4307381137582,6.47544875391759e-05,0.0875260159373283,0,0,0
14633,494977.23310227867,2010-09-20 07:27:40,960.4885723841436,2,43,0.5499359965324402,3.848846673965454,43.2692266552723,43.25452241117202,172.21601253025767,158.4307381137582,0.0,0.0875260159373283,0,0,0
14634,495007.2484063804,2010-09-20 07:28:11,990.5038765811584,2,43,0.5499359965324402,3.8522462844848633,43.27381320019197,43.25452241117202,172.23367367454128,158.4307381137582,9.713172767078504e-05,0.0875260159373283,0,0,0
14635,495037.2636317006,2010-09-20 07:28:41,1020.5191018361218,2,43,0.5501165986061096,3.855322122573853,43.27839972837146,43.25452241117202,172.25134901655423,158.4307381137582,9.713172767078504e-05,0.0875260159373283,0,0,0
14636,495067.2789025644,2010-09-20 07:29:11,1050.5343726698568,2,43,0.5499359965324402,3.858236074447632,43.28298618221778,43.25452241117202,172.26903805408338,158.4307381137582,6.47544875391759e-05,0.0875260159373283,0,0,0
14637,495097.29429035,2010-09-20 07:29:41,1080.5497604755717,2,43,0.550297200679779,3.861150026321411,43.287572619795455,43.25452241117202,172.2867405136722,158.4307381137582,3.237724376958795e-05,0.0875260159373283,0,0,0
14638,495127.3094537807,2010-09-20 07:30:11,1110.564923886162,2,43,0.5501165986061096,3.863902091979981,43.29215915211594,43.25452241117202,172.3044563841699,158.4307381137582,6.47544875391759e-05,0.0875260159373283,0,0,0
14639,495157.3247259628,2010-09-20 07:30:41,1140.5801960682627,2,43,0.550297200679779,3.86665415763855,43.29674564876425,43.25452241117202,172.3221845900285,158.4307381137582,6.47544875391759e-05,0.0875260159373283,0,0,0
14640,495187.3399908567,2010-09-20 07:31:11,1170.595460962171,2,43,0.5501165986061096,3.869244337081909,43.30133210955701,43.25452241117202,172.33992463886142,158.4307381137582,6.47544875391759e-05,0.0875260159373283,0,0,0
14641,495217.3552813445,2010-09-20 07:31:41,1200.6107514499654,2,43,0.5501165986061096,3.8716726303100586,43.30591857621364,43.25452241117202,172.35767601975314,158.4307381137582,6.47544875391759e-05,0.0875260159373283,0,0,0
14642,495247.37053886,2010-09-20 07:32:11,1230.6260089704683,2,43,0.5499359965324402,3.873777151107788,43.31050506097246,43.25452241117202,172.37543814158116,158.4307381137582,9.713172767078504e-05,0.0875260159373283,0,0,0
14643,495277.3859682345,2010-09-20 07:32:41,1260.6414383349206,2,43,0.5499359965324402,3.8758816719055176,43.31509160134737,43.25452241117202,172.39321038905342,158.4307381137582,3.237724376958795e-05,0.0875260159373283,0,0,0
14644,495307.4011290586,2010-09-20 07:33:11,1290.656599259305,2,43,0.5501165986061096,3.877824306488037,43.31967805094499,43.25452241117202,172.41099168285757,158.4307381137582,6.47544875391759e-05,0.0875260159373283,0,0,0
14645,495337.4163892408,2010-09-20 07:33:41,1320.6718593462142,2,43,0.5501165986061096,3.8796050548553462,43.32426454035976,43.25452241117202,172.4287817898122,158.4307381137582,3.237724376958795e-05,0.0875260159373283,0,0,0
14646,495367.431756029,2010-09-20 07:34:11,1350.687226159529,2,43,0.5501165986061096,3.881385803222656,43.32885106502704,43.25452241117202,172.44658006962493,158.4307381137582,3.237724376958795e-05,0.0875260159373283,0,0,0
14647,495397.4469008431,2010-09-20 07:34:41,1380.7023709486373,2,43,0.5499359965324402,3.882842779159546,43.3334374569156,43.25452241117202,172.4643852529021,158.4307381137582,3.237724376958795e-05,0.0875260159373283,0,0,0
14648,495427.46217200265,2010-09-20 07:35:11,1410.7176421081854,2,43,0.550297200679779,3.8844616413116455,43.338024019993945,43.25452241117202,172.48219812500875,158.4307381137582,3.237724376958795e-05,0.0875260159373283,0,0,0
14649,495457.477555227,2010-09-20 07:35:41,1440.7330254277022,2,43,0.5499359965324402,3.885756731033325,43.34261052111325,43.25452241117202,172.50001706048047,158.4307381137582,0.0,0.0875260159373283,0,0,0
14650,495487.4927192541,2010-09-20 07:36:11,1470.7481893595937,2,43,0.5501165986061096,3.887051820755005,43.34719703236082,43.25452241117202,172.51784217823496,158.4307381137582,3.237724376958795e-05,0.0875260159373283,0,0,0
14651,495517.50802127074,2010-09-20 07:36:41,1500.763491406241,2,43,0.550297200679779,3.888346910476685,43.351783524059165,43.25452241117202,172.5356729485337,158.4307381137582,6.47544875391759e-05,0.0875260159373283,0,0,0
14652,495547.52327111707,2010-09-20 07:37:11,1530.7787412275254,2,43,0.5499359965324402,3.889318227767944,43.35637004027313,43.25452241117202,172.55350940616586,158.4307381137582,0.0,0.0875260159373283,0,0,0
14653,495577.5385487076,2010-09-20 07:37:41,1560.7940188431894,2,43,0.5501165986061096,3.890613317489624,43.36095652656602,43.25452241117202,172.57135101413044,158.4307381137582,3.237724376958795e-05,0.0875260159373283,0,0,0
14654,495607.5538459423,2010-09-20 07:38:11,1590.8093161429877,2,43,0.5501165986061096,3.8917465209960938,43.36554301159262,43.25452241117202,172.5891978958914,158.4307381137582,3.237724376958795e-05,0.0875260159373283,0,0,0
14655,495637.5690844503,2010-09-20 07:38:41,1620.8245545557952,2,43,0.550297200679779,3.892879724502564,43.37012948532653,43.25452241117202,172.60704991134867,158.4307381137582,3.237724376958795e-05,0.0875260159373283,0,0,0
14656,495667.5843579908,2010-09-20 07:39:11,1650.8398280962865,2,43,0.5501165986061096,3.894012928009033,43.37471596318174,43.25452241117202,172.6249071109564,158.4307381137582,3.237724376958795e-05,0.0875260159373283,0,0,0
14657,495697.5996577768,2010-09-20 07:39:41,1680.8551278822908,2,43,0.5501165986061096,3.894984245300293,43.37930251124612,43.25452241117202,172.64276963041297,158.4307381137582,3.237724376958795e-05,0.0875260159373283,0,0,0
14658,495727.61498488096,2010-09-20 07:40:11,1710.8704551017734,2,43,0.5501165986061096,3.8961174488067623,43.38388907770886,43.25452241117202,172.66063689392428,158.4307381137582,3.237724376958795e-05,0.0875260159373283,0,0,0
14659,495757.6301723717,2010-09-20 07:40:41,1740.8856424771834,2,43,0.5501165986061096,3.897250652313232,43.388475545570245,43.25452241117202,172.67850908733925,158.4307381137582,0.0,0.0875260159373283,0,0,0
14660,495787.6455943327,2010-09-20 07:41:11,1770.9010644381551,2,43,0.5501165986061096,3.898383855819702,43.39306206131709,43.25452241117202,172.6963865671984,158.4307381137582,3.237724376958795e-05,0.0875260159373283,0,0,0
14661,495817.6607329063,2010-09-20 07:41:41,1800.9162030117486,2,43,0.5499359965324402,3.899517059326172,43.397648561127774,43.25452241117202,172.7142692390968,158.4307381137582,3.237724376958795e-05,0.0875260159373283,0,0,0
14662,495847.67608750914,2010-09-20 07:42:11,1830.931557614584,2,43,0.5501165986061096,3.9006502628326416,43.402235079789975,43.25452241117202,172.732157126068,158.4307381137582,0.0,0.0875260159373283,0,0,0
14663,495877.69125348114,2010-09-20 07:42:41,1860.946723586568,2,43,0.5501165986061096,3.901945352554321,43.40682156214854,43.25452241117202,172.75005010195494,158.4307381137582,3.237724376958795e-05,0.0875260159373283,0,0,0
14664,495907.70664246974,2010-09-20 07:43:11,1890.9621126053107,2,43,0.5499359965324402,3.903078556060791,43.41140804729928,43.25452241117202,172.76794837410853,158.4307381137582,6.47544875391759e-05,0.0875260159373283,0,0,0
14665,495937.7220640548,2010-09-20 07:43:41,1920.977534185332,2,43,0.5501165986061096,3.9042117595672607,43.41599450810541,43.25452241117202,172.78585189582333,158.4307381137582,3.237724376958795e-05,0.0875260159373283,0,0,0
14666,495967.7373408934,2010-09-20 07:44:11,1950.992811094232,2,43,0.5501165986061096,3.9053449630737305,43.42058104813007,43.25452241117202,172.80376113178485,158.4307381137582,3.237724376958795e-05,0.0875260159373283,0,0,0
14667,495997.7523800038,2010-09-20 07:44:41,1981.0078501293613,2,43,0.5499359965324402,3.9063162803649902,43.42516756234557,43.25452241117202,172.8216755384831,158.4307381137582,-3.237724376958795e-05,0.0875260159373283,0,0,0
14668,496027.76765581,2010-09-20 07:45:11,2011.0231259154584,2,43,0.5501165986061096,3.90761137008667,43.42975396427936,43.25452241117202,172.83959506647557,158.4307381137582,3.237724376958795e-05,0.0875260159373283,0,0,0
14669,496057.7829410346,2010-09-20 07:45:41,2041.0384111401152,2,43,0.5499359965324402,3.90874457359314,43.434340398435936,43.25452241117202,172.8575202228333,158.4307381137582,3.237724376958795e-05,0.0875260159373283,0,0,0
14670,496087.79860316514,2010-09-20 07:46:11,2071.0540733758494,2,43,0.5501165986061096,3.9100396633148193,43.438926864182505,43.25452241117202,172.87545117140067,158.4307381137582,3.237724376958795e-05,0.0875260159373283,0,0,0
14671,496117.81347252167,2010-09-20 07:46:41,2101.0689426271733,2,43,0.5499359965324402,3.911334753036499,43.443513238021374,43.25452241117202,172.8933873229237,158.4307381137582,0.0,0.0875260159373283,0,0,0
14672,496147.8287660621,2010-09-20 07:47:11,2131.08423619265,2,43,0.5499359965324402,3.9126298427581783,43.448099692761765,43.25452241117202,172.91132950518062,158.4307381137582,6.47544875391759e-05,0.0875260159373283,0,0,0
14673,496177.8440278984,2010-09-20 07:47:41,2161.099498003863,2,43,0.550297200679779,3.9139246940612793,43.45268620138028,43.25452241117202,172.92927765596573,158.4307381137582,6.470680091297254e-05,0.0875260159373283,0,0,0
14674,496207.8592887672,2010-09-20 07:48:11,2191.1147588727245,2,43,0.5501165986061096,3.915219783782959,43.45727263202544,43.25452241117202,172.94723134424004,158.4307381137582,3.237724376958795e-05,0.0875260159373283,0,0,0
14675,496237.8745628791,2010-09-20 07:48:41,2221.1300329946675,2,43,0.5501165986061096,3.9163529872894287,43.46185914163651,43.25452241117202,172.96519108270067,158.4307381137582,0.0,0.0875260159373283,0,0,0
14676,496267.8899588553,2010-09-20 07:49:11,2251.1454289858148,2,43,0.5499359965324402,3.917648077011109,43.46644564849397,43.25452241117202,172.98315683760472,158.4307381137582,3.237724376958795e-05,0.0875260159373283,0,0,0
14677,496297.9051048022,2010-09-20 07:49:41,2281.160574902738,2,43,0.5501165986061096,3.919105052947998,43.47103213975526,43.25452241117202,173.00112852192862,158.4307381137582,3.237724376958795e-05,0.0875260159373283,0,0,0
14678,496327.9205938908,2010-09-20 07:50:11,2311.176064091521,2,43,0.5499359965324402,3.920238256454468,43.47561796243959,43.25452241117202,173.01910355541568,158.4307381137582,0.0,0.0875260159373283,0,0,0
14679,496357.93564547726,2010-09-20 07:50:41,2341.19111557773,2,43,0.5499359965324402,3.921533346176148,43.48020344527202,43.25452241117202,173.03708328215905,158.4307381137582,0.0,0.0875260159373283,0,0,0
14680,496387.95092939865,2010-09-20 07:51:11,2371.206399504147,2,43,0.5501165986061096,3.922990322113037,43.48478952882448,43.25452241117202,173.05507176334612,158.4307381137582,3.237724376958795e-05,0.0875260159373283,0,0,0
14681,496417.96621585137,2010-09-20 07:51:41,2401.22168595687,2,43,0.5501165986061096,3.9246091842651367,43.489375978198,43.25452241117202,173.0730680092703,158.4307381137582,6.47544875391759e-05,0.0875260159373283,0,0,0
14682,496447.9814761438,2010-09-20 07:52:11,2431.236946339517,2,43,0.5497553944587708,3.9257423877716064,43.49396246781509,43.25452241117202,173.0910707424194,158.4307381137582,0.0,0.0875260159373283,0,0,0
14683,496477.99675052136,2010-09-20 07:52:41,2461.2522206268727,2,43,0.5501165986061096,3.927199363708496,43.49854899797392,43.25452241117202,173.10907985177906,158.4307381137582,3.237724376958795e-05,0.0875260159373283,0,0,0
14684,496508.012026127,2010-09-20 07:53:11,2491.267496232519,2,43,0.5501165986061096,3.9286563396453857,43.50313549632035,43.25452241117202,173.1270953363292,158.4307381137582,6.47544875391759e-05,0.0875260159373283,0,0,0
14685,496538.0273262237,2010-09-20 07:53:41,2521.282796329299,2,43,0.5501165986061096,3.9299514293670654,43.50772201659096,43.25452241117202,173.14511735947923,158.4307381137582,0.0,0.0875260159373283,0,0,0
14686,496568.0427800142,2010-09-20 07:54:11,2551.2982502249847,2,43,0.5501165986061096,3.931408405303955,43.5123086000834,43.25452241117202,173.16314621956334,158.4307381137582,3.237724376958795e-05,0.0875260159373283,0,0,0
14687,496598.0579766578,2010-09-20 07:54:41,2581.313446773292,2,43,0.5499359965324402,3.933027267456055,43.51689510550788,43.25452241117202,173.181181446987,158.4307381137582,6.47544875391759e-05,0.0875260159373283,0,0,0
14688,496628.073244459,2010-09-20 07:55:11,2611.328714564432,2,43,0.5501165986061096,3.934484243392944,43.52148165662342,43.25452241117202,173.19922356172813,158.4307381137582,6.47544875391759e-05,0.0875260159373283,0,0,0
14689,496658.0884002856,2010-09-20 07:55:41,2641.343870416154,2,43,0.5499359965324402,3.935779333114624,43.52606820272856,43.25452241117202,173.21727238707686,158.4307381137582,0.0,0.0875260159373283,0,0,0
14690,496688.10380393086,2010-09-20 07:56:11,2671.3592740513823,2,43,0.5499359965324402,3.9372363090515137,43.530654843476384,43.25452241117202,173.23532825833172,158.4307381137582,0.0,0.0875260159373283,0,0,0
14691,496718.1189669203,2010-09-20 07:56:41,2701.374437126134,2,43,0.5501165986061096,3.938855171203613,43.53524137266516,43.25452241117202,173.25339061719947,158.4307381137582,0.0,0.0875260159373283,0,0,0
14692,496748.1343365257,2010-09-20 07:57:11,2731.3898066361803,2,43,0.5501165986061096,3.940474033355713,43.53982794227941,43.25452241117202,173.27145999545164,158.4307381137582,6.47544875391759e-05,0.0875260159373283,0,0,0
14693,496778.14950709406,2010-09-20 07:57:41,2761.4049772196754,2,43,0.5501165986061096,3.9419310092926025,43.5444144673017,43.25452241117202,173.28953619019842,158.4307381137582,6.47544875391759e-05,0.0875260159373283,0,0,0
14694,496808.1648856418,2010-09-20 07:58:11,2791.4203557773058,2,43,0.5499359965324402,3.943387985229492,43.54900103083238,43.25452241117202,173.30761957020945,158.4307381137582,0.0,0.0875260159373283,0,0,0
14695,496838.1801577787,2010-09-20 07:58:41,2821.435627894244,2,43,0.5501165986061096,3.945006847381592,43.55358758368089,43.25452241117202,173.32571001273328,158.4307381137582,3.237724376958795e-05,0.0875260159373283,0,0,0
14696,496868.1954456099,2010-09-20 07:59:11,2851.4509157254065,2,43,0.550297200679779,3.9466257095336914,43.55817405593114,43.25452241117202,173.3438073354009,158.4307381137582,6.47544875391759e-05,0.0875260159373283,0,0,0
14697,496898.2132097724,2010-09-20 07:59:41,2881.468679973086,2,43,0.5501165986061096,3.948244571685791,43.56276097606633,43.25452241117202,173.36191358883843,158.4307381137582,6.47544875391759e-05,0.0875260159373283,0,0,0
14698,496928.2260462946,2010-09-20 08:00:12,2911.4815164954057,2,43,0.550297200679779,3.94986343383789,43.56734710969072,43.25452241117202,173.38002410363472,158.4307381137582,6.47544875391759e-05,0.0875260159373283,0,0,0
14699,496958.2411326078,2010-09-20 08:00:42,2941.496602713311,2,43,0.5499359965324402,3.9514822959899902,43.57193360308937,43.25452241117202,173.39814343387533,158.4307381137582,6.47544875391759e-05,0.0875260159373283,0,0,0
14700,496988.2564305342,2010-09-20 08:01:12,2971.511900659724,2,43,0.5501165986061096,3.95293927192688,43.57652012490194,43.25452241117202,173.4162703051132,158.4307381137582,0.0,0.0875260159373283,0,0,0
14701,497018.2717027413,2010-09-20 08:01:42,3001.527172846837,2,43,0.5499359965324402,3.9547200202941895,43.58110658777733,43.25452241117202,173.4344044757081,158.4307381137582,3.237724376958795e-05,0.0875260159373283,0,0,0
14702,497048.28695830697,2010-09-20 08:02:12,3031.54242841246,2,43,0.5501165986061096,3.956338882446289,43.5856931070438,43.25452241117202,173.4525465061955,158.4307381137582,0.0,0.0875260159373283,0,0,0
14703,497078.3023296115,2010-09-20 08:02:42,3061.5577997169858,2,43,0.5499359965324402,3.9579577445983887,43.59027965776514,43.25452241117202,173.4706961991222,158.4307381137582,3.237724376958795e-05,0.0875260159373283,0,0,0
14704,497108.3174742152,2010-09-20 08:03:12,3091.572944345693,2,43,0.5501165986061096,3.959576606750488,43.59486607136742,43.25452241117202,173.48885295173812,158.4307381137582,3.237724376958795e-05,0.0875260159373283,0,0,0
14705,497138.3327655551,2010-09-20 08:03:42,3121.5882356605525,2,43,0.5499359965324402,3.961195468902588,43.59945255204863,43.25452241117202,173.50701774892093,158.4307381137582,3.237724376958795e-05,0.0875260159373283,0,0,0
14706,497168.3480231959,2010-09-20 08:04:12,3151.6034933214064,2,43,0.550297200679779,3.9631381034851074,43.60403906456883,43.25452241117202,173.525190528424,158.4307381137582,6.47544875391759e-05,0.0875260159373283,0,0,0
14707,497198.3633347412,2010-09-20 08:04:42,3181.6188048767885,2,43,0.5501165986061096,3.964918851852417,43.608625588250106,43.25452241117202,173.5433713879937,158.4307381137582,6.47544875391759e-05,0.0875260159373283,0,0,0
14708,497228.378698913,2010-09-20 08:05:12,3211.6341690184345,2,43,0.5499359965324402,3.9665377140045166,43.61321211601511,43.25452241117202,173.5615603924062,158.4307381137582,3.237724376958795e-05,0.0875260159373283,0,0,0
14709,497258.3938576469,2010-09-20 08:05:42,3241.649327752351,2,43,0.5501165986061096,3.968480348587036,43.617798729122605,43.25452241117202,173.57975780465128,158.4307381137582,3.237724376958795e-05,0.0875260159373283,0,0,0
14710,497288.40936151234,2010-09-20 08:06:12,3271.6648316277942,2,43,0.5501165986061096,3.9702610969543457,43.62238530286023,43.25452241117202,173.59796323438292,158.4307381137582,6.47544875391759e-05,0.0875260159373283,0,0,0
14711,497318.4244041714,2010-09-20 08:06:42,3301.679874276945,2,43,0.5501165986061096,3.971879959106445,43.62697178420791,43.25452241117202,173.61617659719283,158.4307381137582,3.237724376958795e-05,0.0875260159373283,0,0,0
14712,497348.4396904788,2010-09-20 08:07:12,3331.6951605843046,2,43,0.5501165986061096,3.973822593688965,43.631558341909525,43.25452241117202,173.6343986060055,158.4307381137582,0.0,0.0875260159373283,0,0,0
14713,497378.4549604754,2010-09-20 08:07:42,3361.7104305809503,2,43,0.5501165986061096,3.975765228271485,43.63614490889135,43.25452241117202,173.65262911184473,158.4307381137582,6.47544875391759e-05,0.0875260159373283,0,0,0
14714,497408.4702381664,2010-09-20 08:08:12,3391.7257083018767,2,43,0.5501165986061096,3.977545976638794,43.64073151954573,43.25452241117202,173.67086843408453,158.4307381137582,3.237724376958795e-05,0.0875260159373283,0,0,0
14715,497438.48548933095,2010-09-20 08:08:42,3421.7409594364394,2,43,0.5501165986061096,3.979326725006104,43.64531802779796,43.25452241117202,173.68911556607662,158.4307381137582,0.0,0.0875260159373283,0,0,0
14716,497468.5007693777,2010-09-20 08:09:12,3451.756239483172,2,43,0.5501165986061096,3.981593132019043,43.649904473269245,43.25452241117202,173.70737169807026,158.4307381137582,9.713172767078504e-05,0.0875260159373283,0,0,0
14717,497498.5160487326,2010-09-20 08:09:42,3481.771518838177,2,43,0.5499359965324402,3.983211994171143,43.65449089400828,43.25452241117202,173.72563660805392,158.4307381137582,6.47544875391759e-05,0.0875260159373283,0,0,0
14718,497528.53138729546,2010-09-20 08:10:12,3511.786857496212,2,43,0.5499359965324402,3.985316514968872,43.65907737660053,43.25452241117202,173.74391076331196,158.4307381137582,6.47544875391759e-05,0.0875260159373283,0,0,0
14719,497558.5465932874,2010-09-20 08:10:42,3541.802063392854,2,43,0.550297200679779,3.9874210357666016,43.6636638738954,43.25452241117202,173.76219412316777,158.4307381137582,6.47544875391759e-05,0.0875260159373283,0,0,0
14720,497588.56185462745,2010-09-20 08:11:12,3571.817324732891,2,43,0.5501165986061096,3.989363670349121,43.66825037980755,43.25452241117202,173.78048667880122,158.4307381137582,6.47544875391759e-05,0.0875260159373283,0,0,0
14721,497618.577169441,2010-09-20 08:11:42,3601.832639571469,2,43,0.5499359965324402,3.9913063049316406,43.67283685464546,43.25452241117202,173.7987884682836,158.4307381137582,0.0,0.0875260159373283,0,0,0
14722,497648.5924015831,2010-09-20 08:12:12,3631.8478716885606,2,43,0.550297200679779,3.99341082572937,43.67742327794031,43.25452241117202,173.81709947715356,158.4307381137582,3.237724376958795e-05,0.0875260159373283,0,0,0
14723,497678.6076845921,2010-09-20 08:12:42,3661.863154697688,2,43,0.5501165986061096,3.9956769943237305,43.6820097298834,43.25452241117202,173.83542012991816,158.4307381137582,6.47544875391759e-05,0.0875260159373283,0,0,0
14724,497708.6229759472,2010-09-20 08:13:12,3691.8784460526463,2,43,0.5499359965324402,3.99761962890625,43.6865961982886,43.25452241117202,173.85375047466633,158.4307381137582,3.237724376958795e-05,0.0875260159373283,0,0,0
14725,497738.6382763547,2010-09-20 08:13:42,3721.893746490277,2,43,0.550297200679779,3.9998860359191895,43.69118263146926,43.25452241117202,173.87209030771373,158.4307381137582,6.47544875391759e-05,0.0875260159373283,0,0,0
14726,497768.6535000608,2010-09-20 08:14:12,3751.9089701663,2,43,0.550297200679779,4.002152442932129,43.69576916114474,43.25452241117202,173.89044035465074,158.4307381137582,9.70840483205393e-05,0.0875260159373283,0,0,0
14727,497798.6687752404,2010-09-20 08:14:42,3781.9242453458833,2,43,0.5501165986061096,4.004095077514648,43.70035565938118,43.25452241117202,173.90880014840153,158.4307381137582,6.47544875391759e-05,0.0875260159373283,0,0,0
14728,497828.6840750465,2010-09-20 08:15:12,3811.939545177,2,43,0.5501165986061096,4.006199836730957,43.70494213947878,43.25452241117202,173.9271697993709,158.4307381137582,6.47544875391759e-05,0.0875260159373283,0,0,0
14729,497858.699543303,2010-09-20 08:15:42,3841.9550134084698,2,43,0.5501165986061096,4.0084662437438965,43.70952867865889,43.25452241117202,173.94554971716894,158.4307381137582,6.47544875391759e-05,0.0875260159373283,0,0,0
14730,497888.714604318,2010-09-20 08:16:12,3871.9700745187024,2,43,0.5499359965324402,4.010570526123047,43.71411512563366,43.25452241117202,173.9639392978522,158.4307381137582,3.23295607813634e-05,0.0875260159373283,0,0,0
14731,497918.7299506702,2010-09-20 08:16:42,3901.985420870943,2,43,0.5501165986061096,4.012999057769775,43.71870158521353,43.25452241117202,173.98233906508625,158.4307381137582,9.71794142969884e-05,0.0875260159373283,0,0,0
14732,497948.7452106669,2010-09-20 08:17:12,3932.0006808926896,2,43,0.5501165986061096,4.015103340148926,43.72328800272765,43.25452241117202,174.00074883820147,158.4307381137582,3.23295607813634e-05,0.0875260159373283,0,0,0
14733,497978.7604275108,2010-09-20 08:17:42,3962.0158976163575,2,43,0.5501165986061096,4.017369747161865,43.727874480936805,43.25452241117202,174.0191691092446,158.4307381137582,9.70840483205393e-05,0.0875260159373283,0,0,0
14734,498008.776142373,2010-09-20 08:18:12,3992.03161258372,2,43,0.5499359965324402,4.019636154174805,43.73246101090168,43.25452241117202,174.03759989018292,158.4307381137582,9.70840483205393e-05,0.0875260159373283,0,0,0
14735,498038.7909810379,2010-09-20 08:18:42,4022.0464511684954,2,43,0.5501165986061096,4.021902561187744,43.73704734471863,43.25452241117202,174.0560403809621,158.4307381137582,6.47544875391759e-05,0.0875260159373283,0,0,0
14736,498068.8063546032,2010-09-20 08:19:12,4052.061824738674,2,43,0.5501165986061096,4.024168968200684,43.74163377853894,43.25452241117202,174.0744918364551,158.4307381137582,3.23295607813634e-05,0.0875260159373283,0,0,0
14737,498098.8215106704,2010-09-20 08:19:42,4082.07698077586,2,43,0.5501165986061096,4.026597499847412,43.74622016892654,43.25452241117202,174.09295371839437,158.4307381137582,6.47544875391759e-05,0.0875260159373283,0,0,0
14738,498128.836899674,2010-09-20 08:20:12,4112.092369804628,2,43,0.5501165986061096,4.028863906860352,43.75080666765294,43.25452241117202,174.1114267550292,158.4307381137582,6.47544875391759e-05,0.0875260159373283,0,0,0
14739,498158.8520486687,2010-09-20 08:20:42,4142.107518774171,2,43,0.5501165986061096,4.031291961669922,43.755393144491855,43.25452241117202,174.12991050478578,158.4307381137582,6.47544875391759e-05,0.0875260159373283,0,0,0
14740,498188.86731850496,2010-09-20 08:21:12,4172.122788610416,2,43,0.550297200679779,4.03372049331665,43.75997956998207,43.25452241117202,174.14840496484646,158.4307381137582,6.47544875391759e-05,0.0875260159373283,0,0,0
14741,498218.88260337873,2010-09-20 08:21:42,4202.138073484197,2,43,0.5501165986061096,4.035986423492432,43.76456600163456,43.25452241117202,174.16691047024383,158.4307381137582,9.70840483205393e-05,0.0875260159373283,0,0,0
14742,498248.8980127884,2010-09-20 08:22:12,4232.153482893838,2,43,0.5501165986061096,4.03841495513916,43.7691525077631,43.25452241117202,174.18542738537917,158.4307381137582,6.47544875391759e-05,0.0875260159373283,0,0,0
14743,498278.9131393971,2010-09-20 08:22:42,4262.168609502566,2,43,0.5501165986061096,4.04100513458252,43.773738968275794,43.25452241117202,174.20395526043671,158.4307381137582,6.47544875391759e-05,0.0875260159373283,0,0,0
14744,498308.9284163962,2010-09-20 08:23:12,4292.183886501691,2,43,0.5499359965324402,4.043271541595459,43.77832539738235,43.25452241117202,174.2224943344391,158.4307381137582,6.47544875391759e-05,0.0875260159373283,0,0,0
14745,498338.9436949091,2010-09-20 08:23:42,4322.199165014594,2,43,0.5501165986061096,4.045861721038818,43.78291167843059,43.25452241117202,174.24104413073243,158.4307381137582,6.47544875391759e-05,0.0875260159373283,0,0,0
14746,498368.959422508,2010-09-20 08:24:12,4352.214892613485,2,43,0.5501165986061096,4.048451900482178,43.787498065859936,43.25452241117202,174.25960589622522,158.4307381137582,6.47544875391759e-05,0.0875260159373283,0,0,0
14747,498398.9742362858,2010-09-20 08:24:42,4382.229706416401,2,43,0.5501165986061096,4.050879955291748,43.79208436997193,43.25452241117202,174.2781789266291,158.4307381137582,6.47544875391759e-05,0.0875260159373283,0,0,0
14748,498428.98950308457,2010-09-20 08:25:12,4412.244973220077,2,43,0.550297200679779,4.053793907165527,43.79667074425634,43.25452241117202,174.29676398967203,158.4307381137582,0.0001295089750783,0.0875260159373283,0,0,0
14749,498459.00480810856,2010-09-20 08:25:42,4442.260278239143,2,43,0.550297200679779,4.056060314178467,43.80125721015202,43.25452241117202,174.31536135052573,158.4307381137582,3.23295607813634e-05,0.0875260159373283,0,0,0
14750,498489.0200501204,2010-09-20 08:26:12,4472.275520225871,2,43,0.5501165986061096,4.058812618255615,43.80584371701454,43.25452241117202,174.33397088389825,158.4307381137582,6.47544875391759e-05,0.0875260159373283,0,0,0
14751,498519.0353283576,2010-09-20 08:26:42,4502.290798463087,2,43,0.550297200679779,4.061402797698975,43.810430216978354,43.25452241117202,174.35259229835958,158.4307381137582,9.71794142969884e-05,0.0875260159373283,0,0,0
14752,498549.0506219432,2010-09-20 08:27:12,4532.306092068664,2,43,0.5501165986061096,4.064154624938965,43.815016589301045,43.25452241117202,174.37122525431536,158.4307381137582,9.70840483205393e-05,0.0875260159373283,0,0,0
14753,498579.0658909624,2010-09-20 08:27:42,4562.321361092882,2,43,0.5501165986061096,4.066744804382324,43.81960304508437,43.25452241117202,174.3898708432881,158.4307381137582,0.0001295089750783,0.0875260159373283,0,0,0
14754,498609.0811487134,2010-09-20 08:28:12,4592.336618914136,2,43,0.5501165986061096,4.069497108459473,43.82418947955447,43.25452241117202,174.40852876528658,158.4307381137582,9.71794142969884e-05,0.0875260159373283,0,0,0
14755,498639.09642311104,2010-09-20 08:28:42,4622.351893216529,2,43,0.550297200679779,4.072411060333252,43.82877593937733,43.25452241117202,174.42719935243312,158.4307381137582,0.0001295089750783,0.0875260159373283,0,0,0
14756,498669.1117251326,2010-09-20 08:29:12,4652.367195258164,2,43,0.5501165986061096,4.074839115142822,43.83336238407641,43.25452241117202,174.44588255434877,158.4307381137582,6.47544875391759e-05,0.0875260159373283,0,0,0
14757,498699.1270000967,2010-09-20 08:29:42,4682.382470202158,2,43,0.5501165986061096,4.077591419219971,43.83794882105143,43.25452241117202,174.46457852195573,158.4307381137582,0.0,0.0875260159373283,0,0,0
14758,498729.1422449305,2010-09-20 08:30:12,4712.3977150410055,2,43,0.5499359965324402,4.08050537109375,43.84253526169607,43.25452241117202,174.48328744741417,158.4307381137582,6.47544875391759e-05,0.0875260159373283,0,0,0
14759,498759.1575118445,2010-09-20 08:30:42,4742.412981949944,2,43,0.5501165986061096,4.083419322967529,43.84712168819606,43.25452241117202,174.50200927280744,158.4307381137582,6.47544875391759e-05,0.0875260159373283,0,0,0
14760,498789.17279683845,2010-09-20 08:31:12,4772.428266944025,2,43,0.5501165986061096,4.08649492263794,43.85170807805996,43.25452241117202,174.52074418078726,158.4307381137582,0.0001295089750783,0.0875260159373283,0,0,0
14761,498819.1906981032,2010-09-20 08:31:42,4802.446168303959,2,43,0.550297200679779,4.089408874511719,43.85629488330135,43.25452241117202,174.5394940681548,158.4307381137582,0.0001295089750783,0.0875260159373283,0,0,0
14762,498849.2034204005,2010-09-20 08:32:13,4832.458890601154,2,43,0.5499359965324402,4.092161178588867,43.860880957064616,43.25452241117202,174.5582543653329,158.4307381137582,9.71794142969884e-05,0.0875260159373283,0,0,0
14763,498879.21863523946,2010-09-20 08:32:43,4862.474105369943,2,43,0.5501165986061096,4.095075130462647,43.86546730648145,43.25452241117202,174.57702921418698,158.4307381137582,6.47544875391759e-05,0.0875260159373283,0,0,0
14764,498909.23388852936,2010-09-20 08:33:13,4892.489358634823,2,43,0.5499359965324402,4.098150730133057,43.87005370368065,43.25452241117202,174.59581788683818,158.4307381137582,9.70840483205393e-05,0.0875260159373283,0,0,0
14765,498939.2491864958,2010-09-20 08:33:43,4922.504656601285,2,43,0.5497553944587708,4.100903034210205,43.874640169688185,43.25452241117202,174.61462062721262,158.4307381137582,6.47544875391759e-05,0.0875260159373283,0,0,0
14766,498969.2648987113,2010-09-20 08:34:13,4952.520368816777,2,43,0.5499359965324402,4.104140758514404,43.87922669330992,43.25452241117202,174.63343745838702,158.4307381137582,0.0001295089750783,0.0875260159373283,0,0,0
14767,498999.2797153413,2010-09-20 08:34:43,4982.535185451762,2,43,0.5501165986061096,4.107216358184815,43.88381303864288,43.25452241117202,174.65226763684407,158.4307381137582,0.0001295089750783,0.0875260159373283,0,0,0
14768,499029.2949797239,2010-09-20 08:35:13,5012.550449829382,2,43,0.5497553944587708,4.110292434692383,43.88839945857917,43.25452241117202,174.6711122085905,158.4307381137582,6.47544875391759e-05,0.0875260159373283,0,0,0
14769,499059.31026518415,2010-09-20 08:35:43,5042.565735289627,2,43,0.5501165986061096,4.113530158996582,43.89298590085542,43.25452241117202,174.6899710744412,158.4307381137582,9.71794142969884e-05,0.0875260159373283,0,0,0
14770,499089.3255463386,2010-09-20 08:36:13,5072.5810164441245,2,43,0.5501165986061096,4.116605758666992,43.89757233793426,43.25452241117202,174.70884426022096,158.4307381137582,6.47544875391759e-05,0.0875260159373283,0,0,0
14771,499119.34079660097,2010-09-20 08:36:43,5102.59626670651,2,43,0.5501165986061096,4.119843482971191,43.90215877115923,43.25452241117202,174.72773192779496,158.4307381137582,9.71794142969884e-05,0.0875260159373283,0,0,0
14772,499149.356073124,2010-09-20 08:37:13,5132.611543234459,2,43,0.5501165986061096,4.122919082641602,43.90674517842805,43.25452241117202,174.74663408964614,158.4307381137582,6.47544875391759e-05,0.0875260159373283,0,0,0
14773,499179.371331241,2010-09-20 08:37:43,5162.626801371501,2,43,0.5501165986061096,4.126156806945801,43.91133161663171,43.25452241117202,174.7655510258517,158.4307381137582,6.47544875391759e-05,0.0875260159373283,0,0,0
14774,499209.3868430412,2010-09-20 08:38:13,5192.642313156688,2,43,0.5499359965324402,4.129232883453369,43.91591805964475,43.25452241117202,174.78448287711555,158.4307381137582,6.47544875391759e-05,0.0875260159373283,0,0,0
14775,499239.40187467285,2010-09-20 08:38:43,5222.657344778312,2,43,0.5501165986061096,4.132632255554199,43.920504517446645,43.25452241117202,174.80342978760672,158.4307381137582,6.47544875391759e-05,0.0875260159373283,0,0,0
14776,499269.41714058426,2010-09-20 08:39:13,5252.67261068976,2,43,0.550297200679779,4.136032104492188,43.92509098002236,43.25452241117202,174.82239179488155,158.4307381137582,9.71794142969884e-05,0.0875260159373283,0,0,0
14777,499299.4324666509,2010-09-20 08:39:43,5282.687936781428,2,43,0.5501165986061096,4.139431476593018,43.92967751369536,43.25452241117202,174.84136945948453,158.4307381137582,9.70840483205393e-05,0.0875260159373283,0,0,0
14778,499329.4476858056,2010-09-20 08:40:13,5312.703155911101,2,43,0.5499359965324402,4.142831325531006,43.93426401933385,43.25452241117202,174.86036244059306,158.4307381137582,9.71794142969884e-05,0.0875260159373283,0,0,0
14779,499359.4630901576,2010-09-20 08:40:43,5342.718560273143,2,43,0.5499359965324402,4.146069049835205,43.938850373939125,43.25452241117202,174.8793703904991,158.4307381137582,6.47544875391759e-05,0.0875260159373283,0,0,0
14780,499389.4782323653,2010-09-20 08:41:13,5372.733702485821,2,43,0.5501165986061096,4.149630546569824,43.94343677465477,43.25452241117202,174.89839439696095,158.4307381137582,6.47544875391759e-05,0.0875260159373283,0,0,0
14781,499419.4936602862,2010-09-20 08:41:43,5402.7491304217065,2,43,0.550297200679779,4.153192043304443,43.948023245441306,43.25452241117202,174.9174344636858,158.4307381137582,9.71794142969884e-05,0.0875260159373283,0,0,0
14782,499449.50879538106,2010-09-20 08:42:13,5432.764265496567,2,43,0.5501165986061096,4.156591415405273,43.95260962297156,43.25452241117202,174.93648997495217,158.4307381137582,9.70840483205393e-05,0.0875260159373283,0,0,0
14783,499479.5241816981,2010-09-20 08:42:43,5462.779651828603,2,43,0.5499359965324402,4.159991264343262,43.95719604173418,43.25452241117202,174.9555616406362,158.4307381137582,9.71794142969884e-05,0.0875260159373283,0,0,0
14784,499509.53950871713,2010-09-20 08:43:13,5492.794978822522,2,43,0.5501165986061096,4.163714408874512,43.961782508889,43.25452241117202,174.9746497028616,158.4307381137582,0.0001295089750783,0.0875260159373283,0,0,0
14785,499539.5546251704,2010-09-20 08:43:43,5522.8100952759005,2,43,0.5501165986061096,4.1671142578125,43.96636885112479,43.25452241117202,174.99375341326603,158.4307381137582,9.71794142969884e-05,0.0875260159373283,0,0,0
14786,499569.56988109695,2010-09-20 08:44:13,5552.8253512325,2,43,0.5501165986061096,4.170675754547119,43.97095524977989,43.25452241117202,175.01287380185354,158.4307381137582,9.71794142969884e-05,0.0875260159373283,0,0,0
14787,499599.5851515597,2010-09-20 08:44:43,5582.840621665234,2,43,0.550297200679779,4.174398899078369,43.9755416941256,43.25452241117202,175.03201090633183,158.4307381137582,0.0001295089750783,0.0875260159373283,0,0,0
14788,499629.6005484281,2010-09-20 08:45:13,5612.856018538583,2,43,0.5501165986061096,4.178122520446777,43.98012811864636,43.25452241117202,175.05116445574944,158.4307381137582,9.71794142969884e-05,0.0875260159373283,0,0,0
14789,499659.6157232973,2010-09-20 08:45:43,5642.871193402763,2,43,0.5501165986061096,4.1816840171813965,43.984714552766405,43.25452241117202,175.07033478484416,158.4307381137582,0.0001295089750783,0.0875260159373283,0,0,0
14790,499689.6311278698,2010-09-20 08:46:13,5672.886597985356,2,43,0.5501165986061096,4.185245513916016,43.98930111372658,43.25452241117202,175.0895225369972,158.4307381137582,6.47544875391759e-05,0.0875260159373283,0,0,0
14791,499719.6463914505,2010-09-20 08:46:43,5702.901861555961,2,43,0.5499359965324402,4.189130783081055,43.9938875691498,43.25452241117202,175.10872681982354,158.4307381137582,0.0001295089750783,0.0875260159373283,0,0,0
14792,499749.66152049525,2010-09-20 08:47:13,5732.916990600768,2,43,0.5501165986061096,4.192853927612305,43.99847400063123,43.25452241117202,175.12794820408166,158.4307381137582,0.0001295089750783,0.0875260159373283,0,0,0
14793,499779.67714576377,2010-09-20 08:47:43,5762.932615869227,2,43,0.550297200679779,4.196577072143555,44.003060506995126,43.25452241117202,175.1471872530443,158.4307381137582,0.0001295089750783,0.0875260159373283,0,0,0
14794,499805.6141437861,2010-09-20 08:48:09,5788.869613891598,2,43,0.5501165986061096,4.200138568878174,44.00702378660521,43.25452241117202,175.1638260921413,158.4307381137582,0.0001618385285837,0.0875260159373283,0,0,0
14795,499835.6407982114,2010-09-20 08:48:39,30.01525908941936,3,43,0.0,4.117738723754883,44.00702378660521,43.25452241117202,175.1638260921413,158.4307381137582,-0.0003885269106831,0.0875260159373283,0,0,0
14796,499865.6564557052,2010-09-20 08:49:09,60.030916673542805,3,43,0.0,4.107540130615234,44.00702378660521,43.25452241117202,175.1638260921413,158.4307381137582,-0.0002266883820993,0.0875260159373283,0,0,0
14797,499895.67134434485,2010-09-20 08:49:39,90.04580519296243,3,43,0.0,4.101550579071045,44.00702378660521,43.25452241117202,175.1638260921413,158.4307381137582,-9.70840483205393e-05,0.0875260159373283,0,0,0
14798,499925.6397440461,2010-09-20 08:50:09,120.0142048941396,3,43,0.0,4.097665309906006,44.00702378660521,43.25452241117202,175.1638260921413,158.4307381137582,-6.47544875391759e-05,0.0875260159373283,0,0,0
14799,499925.6526910653,2010-09-20 08:50:09,2.621543777e-06,4,43,1.0001949071884155,4.199653148651123,44.00702378733356,43.25452241117202,175.16382609520014,158.4307381137582,0.0,0.0875260159373283,0,0,0
14800,499926.5745486286,2010-09-20 08:50:10,0.921860214921091,4,43,0.9499855637550354,4.199653148651123,44.007272018630005,43.25452241117202,175.1648686029974,158.4307381137582,0.0,0.0875260159373283,0,0,0
14801,499928.6995226707,2010-09-20 08:50:12,3.046834257049327,4,43,0.8997761607170105,4.199653148651123,44.00781679196271,43.25452241117202,175.16715649572896,158.4307381137582,0.0,0.0875260159373283,0,0,0
14802,499931.8244907768,2010-09-20 08:50:15,6.17180236320662,4,43,0.8493862152099609,4.199814796447754,44.00857481461748,43.25452241117202,175.1703399778859,158.4307381137582,0.0,0.0875260159373283,0,0,0
14803,499936.05882652535,2010-09-20 08:50:20,10.406138126708592,4,43,0.7993574142456055,4.199814796447754,44.00954331298875,43.25452241117202,175.17440739619397,158.4307381137582,3.23295607813634e-05,0.0875260159373283,0,0,0
14804,499941.52751665725,2010-09-20 08:50:25,15.874828268639796,4,43,0.7493286728858948,4.199653148651123,44.010718000619946,43.25452241117202,175.1793407792868,158.4307381137582,-3.23295607813634e-05,0.0875260159373283,0,0,0
14805,499948.5586622082,2010-09-20 08:50:32,22.905973794587258,4,43,0.6991192698478699,4.199653148651123,44.01213044648964,43.25452241117202,175.18527269439426,158.4307381137582,0.0,0.0875260159373283,0,0,0
14806,499957.8398094898,2010-09-20 08:50:41,32.18712107607065,4,43,0.6490904688835144,4.199814796447754,44.01386551173537,43.25452241117202,175.19255953703177,158.4307381137582,3.23295607813634e-05,0.0875260159373283,0,0,0
14807,499970.6053075368,2010-09-20 08:50:54,44.95261912311887,4,43,0.5990617275238037,4.199653148651123,44.01607369047382,43.25452241117202,175.20183337819807,158.4307381137582,-6.47544875391759e-05,0.0875260159373283,0,0,0
14808,499989.4019500783,2010-09-20 08:51:13,63.74926167471882,4,43,0.549032986164093,4.199814796447754,44.01906176303044,43.25452241117202,175.21438256331103,158.4307381137582,0.0,0.0875260159373283,0,0,0
14809,500020.1828262708,2010-09-20 08:51:44,94.5301379524274,4,43,0.4990041851997375,4.199653148651123,44.0235238870258,43.25452241117202,175.23312243251507,158.4307381137582,0.0,0.0875260159373283,0,0,0
14810,500074.8073113393,2010-09-20 08:52:38,149.15462295075014,4,43,0.4489754140377044,4.199814796447754,44.03068253333167,43.25452241117202,175.26318703345908,158.4307381137582,0.0,0.0875260159373283,0,0,0
14811,500161.4941985512,2010-09-20 08:54:05,235.84151023786296,4,43,0.3987660408020019,4.199653148651123,44.04086240217836,43.25452241117202,175.30594004461636,158.4307381137582,-3.23295607813634e-05,0.0875260159373283,0,0,0
14812,500276.117568497,2010-09-20 08:56:00,350.46488008336195,4,43,0.3487372696399688,4.199653148651123,44.052745927992405,43.25452241117202,175.3558480101767,158.4307381137582,0.0,0.0875260159373283,0,0,0
14813,500413.4282239427,2010-09-20 08:58:17,487.7755356243084,4,43,0.2987084984779358,4.199814796447754,44.06507165480026,43.25452241117202,175.4076131878112,158.4307381137582,3.23295607813634e-05,0.0875260159373283,0,0,0
14814,500576.2232089607,2010-09-20 09:01:00,650.5705205470579,4,43,0.2486797273159027,4.199653148651123,44.07743196267244,43.25452241117202,175.45952355502246,158.4307381137582,0.0,0.0875260159373283,0,0,0
14815,500782.11153276206,2010-09-20 09:04:26,856.4588443784678,4,43,0.1986509561538696,4.199653148651123,44.09019392636386,43.25452241117202,175.51312073899717,158.4307381137582,0.0,0.0875260159373283,0,0,0
14816,501054.2644855669,2010-09-20 09:08:58,1128.6117971532788,4,43,0.1486221849918365,4.199814796447754,44.10324616938112,43.25452241117202,175.56793698846815,158.4307381137582,3.23295607813634e-05,0.0875260159373283,0,0,0
14817,501451.8066933279,2010-09-20 09:15:35,1526.1540049141895,4,43,0.098412811756134,4.199653148651123,44.11671876094304,43.25452241117202,175.62451860169296,158.4307381137582,0.0,0.0875260159373283,0,0,0
14818,502163.8764680748,2010-09-20 09:27:27,2238.223779691229,4,43,0.0498289167881011,4.199653148651123,44.13084564908528,43.25452241117202,175.68384838070736,158.4307381137582,0.0,0.0875260159373283,0,0,0
14819,502193.88416534703,2010-09-20 09:27:58,30.01539680317408,5,43,0.0,4.192044734954834,44.13084564908528,43.25452241117202,175.68384838070736,158.4307381137582,-3.23295607813634e-05,0.0875260159373283,0,0,0
14820,502223.8836869482,2010-09-20 09:28:28,60.01491840941427,5,43,0.0,4.190911293029785,44.13084564908528,43.25452241117202,175.68384838070736,158.4307381137582,-3.24249267578125e-05,0.0875260159373283,0,0,0
14821,502224.0643242469,2010-09-20 09:28:28,0.187625482068702,6,43,-1.9243103452026844e-05,4.190911293029785,44.13084564908528,43.254522412174936,175.68384838070736,158.4307381179613,0.0,0.0923051163554191,0,0,0
14822,502228.8922467944,2010-09-20 09:28:33,5.015548019479393,6,43,0.0007031940040178,4.190749645233154,44.13084656784631,43.25452241225805,175.683852231239,158.43073811830965,-6.47544875391759e-05,0.0923051163554191,0,0,0
14823,502258.9006089568,2010-09-20 09:29:03,30.01528619708426,7,43,-1.0993878841400146,4.019312381744385,44.13084656784631,43.26369046067884,175.683852231239,158.4677846130992,-0.0009065627818927,0.0923051163554191,0,0,0
14824,502288.91588223167,2010-09-20 09:29:33,60.03055947191258,7,43,-1.099568486213684,3.9927632808685294,44.13084656784631,43.27285842803984,175.683852231239,158.50450345184427,-0.0006474971887655,0.0923051163554191,0,0,0
14825,502318.93122449366,2010-09-20 09:30:03,90.04590183419383,7,43,-1.099568486213684,3.9744701385498047,44.13084656784631,43.28202641851827,175.683852231239,158.5410209041445,-0.0004532813909463,0.0923051163554191,0,0,0
14826,502348.94641191926,2010-09-20 09:30:33,120.06108915947884,7,43,-1.099568486213684,3.960547924041748,44.13084656784631,43.29119428365901,175.683852231239,158.57739165775715,-0.0002913951757363,0.0923051163554191,0,0,0
14827,502378.96168306377,2010-09-20 09:31:03,150.0763603039896,7,43,-1.0993878841400146,3.948568344116211,44.13084656784631,43.30036219983224,175.683852231239,158.61364534490508,-0.0003237724304199,0.0923051163554191,0,0,0
14828,502408.97698187234,2010-09-20 09:31:33,180.0916591376166,7,43,-1.0997490882873535,3.938207626342773,44.13084656784631,43.30953012612635,175.683852231239,158.64979793037307,-0.0002913951757363,0.0923051163554191,0,0,0
14829,502438.9922397286,2010-09-20 09:32:03,210.10691696889543,7,43,-1.099568486213684,3.9286563396453857,44.13084656784631,43.31869801738935,175.683852231239,158.68585866499208,-0.0002590179501567,0.0923051163554191,0,0,0
14830,502469.0074984572,2010-09-20 09:32:33,240.12217570743897,7,43,-1.0997490882873535,3.919428825378418,44.13084656784631,43.32786597161306,175.683852231239,158.7218337208801,-0.0002590179501567,0.0923051163554191,0,0,0
14831,502499.0229454707,2010-09-20 09:33:03,270.1376227159333,7,43,-1.099568486213684,3.910849094390869,44.13084656784631,43.33703387989727,175.683852231239,158.7577264663727,-0.0001942634553415,0.0923051163554191,0,0,0
14832,502529.0382727002,2010-09-20 09:33:33,300.1529499404282,7,43,-1.099568486213684,3.9021072387695312,44.13084656784631,43.34620181185929,175.683852231239,158.79354015974448,-0.0002266406954731,0.0923051163554191,0,0,0
14833,502559.0533303518,2010-09-20 09:34:03,330.1680075920278,7,43,-1.0997490882873535,3.8938510417938232,44.13084656784631,43.3553696829534,175.683852231239,158.82927653059247,-0.0002266406954731,0.0923051163554191,0,0,0
14834,502589.0687177214,2010-09-20 09:34:33,360.1833949716793,7,43,-1.099568486213684,3.885756731033325,44.13084656784631,43.36453761418639,175.683852231239,158.86493811536465,-0.0002266406954731,0.0923051163554191,0,0,0
14835,502619.0842762984,2010-09-20 09:35:03,390.19895362886587,7,43,-1.099568486213684,3.877824306488037,44.13084656784631,43.37370561889737,175.683852231239,158.90052575521105,-0.0001942634553415,0.0923051163554191,0,0,0
14836,502649.09914798586,2010-09-20 09:35:33,420.21382522604506,7,43,-1.0997490882873535,3.869891881942749,44.13084656784631,43.38287337104662,175.683852231239,158.93603992855884,-0.0001942634553415,0.0923051163554191,0,0,0
14837,502679.1148040361,2010-09-20 09:36:03,450.22948137659006,7,43,-1.0997490882873535,3.862121343612671,44.13084656784631,43.39204143615974,175.683852231239,158.97148412633902,-0.0002266406954731,0.0923051163554191,0,0,0
14838,502709.12968433497,2010-09-20 09:36:33,480.2443615752397,7,43,-1.0993878841400146,3.8546745777130127,44.13084656784631,43.40120927771223,175.683852231239,159.0068572376831,-0.0002266406954731,0.0923051163554191,0,0,0
14839,502739.1449505872,2010-09-20 09:37:03,510.2596278325513,7,43,-1.0997490882873535,3.8472278118133545,44.13084656784631,43.41037717516773,175.683852231239,159.0421616487755,-0.0001618862152099,0.0923051163554191,0,0,0
14840,502769.1602445487,2010-09-20 09:37:33,540.2749217890041,7,43,-1.099568486213684,3.8396191596984863,44.13084656784631,43.4195451817033,175.683852231239,159.0773980539091,-0.0002266406954731,0.0923051163554191,0,0,0
14841,502799.1755244402,2010-09-20 09:38:03,570.2902016753358,7,43,-1.099568486213684,3.832496404647827,44.13084656784631,43.42871312053451,175.683852231239,159.11256711464966,-0.0001942157687153,0.0923051163554191,0,0,0
14842,502829.1908164918,2010-09-20 09:38:33,600.305493757109,7,43,-1.0993878841400146,3.825373411178589,44.13084656784631,43.43788107277526,175.683852231239,159.1476701544138,-0.0001942634553415,0.0923051163554191,0,0,0
14843,502859.2060446139,2010-09-20 09:39:03,630.3207218541667,7,43,-1.0993878841400146,3.818250417709351,44.13084656784631,43.44704905788307,175.683852231239,159.18270830316126,-0.0001942634553415,0.0923051163554191,0,0,0
14844,502889.22145863005,2010-09-20 09:39:33,660.3361358753195,7,43,-1.0997490882873535,3.811127424240112,44.13084656784631,43.456217051041,175.683852231239,159.2176821396118,-0.0001942634553415,0.0923051163554191,0,0,0
14845,502919.2367156844,2010-09-20 09:40:03,690.3513929246465,7,43,-1.0997490882873535,3.804490089416504,44.13084656784631,43.465384934727325,175.683852231239,159.25259193684366,-0.0001618862152099,0.0923051163554191,0,0,0
14846,502949.25185840833,2010-09-20 09:40:33,720.3665356485998,7,43,-1.0997490882873535,3.797852754592896,44.13084656784631,43.4745528550304,175.683852231239,159.28744023308772,-0.0001618862152099,0.0923051163554191,0,0,0
14847,502979.2672544296,2010-09-20 09:41:03,750.3819316648095,7,43,-1.099568486213684,3.791215419769287,44.13084656784631,43.48372079865803,175.683852231239,159.32222824033292,-0.0001942634553415,0.0923051163554191,0,0,0
14848,503009.28241791535,2010-09-20 09:41:33,780.3970951806625,7,43,-1.099568486213684,3.784901857376098,44.13084656784631,43.49288873926827,175.683852231239,159.35695699117352,-0.0001618862152099,0.0923051163554191,0,0,0
14849,503039.29783401167,2010-09-20 09:42:03,810.4125112619575,7,43,-1.099568486213684,3.77858829498291,44.13084656784631,43.50205680259889,175.683852231239,159.39162821293195,-0.0001942634553415,0.0923051163554191,0,0,0
14850,503069.3130368257,2010-09-20 09:42:33,840.4277141761551,7,43,-1.0993878841400146,3.772760391235352,44.13084656784631,43.511224748552685,175.683852231239,159.42624220271998,-9.713172767078504e-05,0.0923051163554191,0,0,0
14851,503099.32826252165,2010-09-20 09:43:03,870.4429397569319,7,43,-1.0997490882873535,3.766608715057373,44.13084656784631,43.52039269029649,175.683852231239,159.46080105898798,-0.0001295089750783,0.0923051163554191,0,0,0
14852,503129.3435089896,2010-09-20 09:43:33,900.4581862298586,7,43,-1.099568486213684,3.760942697525024,44.13084656784631,43.52956062983803,175.683852231239,159.49530630183563,-0.0001295089750783,0.0923051163554191,0,0,0
14853,503159.358764505,2010-09-20 09:44:03,930.4734417453568,7,43,-1.0997490882873535,3.755114793777466,44.13084656784631,43.53872867932546,175.683852231239,159.52975905838173,-0.0001295089750783,0.0923051163554191,0,0,0
14854,503189.37403735385,2010-09-20 09:44:33,960.4887145941216,7,43,-1.0997490882873535,3.749449014663696,44.13084656784631,43.54789664947267,175.683852231239,159.5641597037342,-0.0001295089750783,0.0923051163554191,0,0,0
14855,503219.389314714,2010-09-20 09:45:03,990.5039919541472,7,43,-1.0997490882873535,3.7439448833465576,44.13084656784631,43.55706467707178,175.683852231239,159.5985094699478,-0.0001618862152099,0.0923051163554191,0,0,0
14856,503249.4046130212,2010-09-20 09:45:33,1020.5192902614604,7,43,-1.099568486213684,3.738440752029419,44.13084656784631,43.56623271489073,175.683852231239,159.63280878219396,-0.0001942634553415,0.0923051163554191,0,0,0
14857,503279.4198628625,2010-09-20 09:46:03,1050.5345401027953,7,43,-1.0997490882873535,3.73309850692749,44.13084656784631,43.57540070567952,175.683852231239,159.66705826128174,-0.0001295089750783,0.0923051163554191,0,0,0
14858,503309.4351472451,2010-09-20 09:46:33,1080.5498244903629,7,43,-1.099568486213684,3.727918148040772,44.13084656784631,43.58456870496977,175.683852231239,159.701259238332,-0.0001618862152099,0.0923051163554191,0,0,0
14859,503339.4504110864,2010-09-20 09:47:03,1110.5650883266308,7,43,-1.0997490882873535,3.7227377891540527,44.13084656784631,43.59373669455096,175.683852231239,159.7354131469693,-0.0001618862152099,0.0923051163554191,0,0,0
14860,503369.4656961958,2010-09-20 09:47:33,1140.580373436,7,43,-1.0997490882873535,3.717719316482544,44.13084656784631,43.60290472863664,175.683852231239,159.7695202919678,-0.0001618862152099,0.0923051163554191,0,0,0
14861,503399.4809629042,2010-09-20 09:48:03,1170.5956401444375,7,43,-1.0997490882873535,3.712700843811035,44.13084656784631,43.61207276157896,175.683852231239,159.80358183046417,-0.0001295089750783,0.0923051163554191,0,0,0
14862,503429.49623027927,2010-09-20 09:48:33,1200.6109075295642,7,43,-1.099568486213684,3.7080061435699454,44.13084656784631,43.62124081642166,175.683852231239,159.83759850250283,-9.713172767078504e-05,0.0923051163554191,0,0,0
14863,503459.5115328072,2010-09-20 09:49:03,1230.62621007245,7,43,-1.099568486213684,3.703149557113648,44.13084656784631,43.63040892866478,175.683852231239,159.8715704790053,-9.713172767078504e-05,0.0923051163554191,0,0,0
14864,503489.5269653796,2010-09-20 09:49:33,1260.6416426198473,7,43,-1.0997490882873535,3.6981310844421382,44.13084656784631,43.6395777732252,175.683852231239,159.9055008295061,-0.0001618862152099,0.0923051163554191,0,0,0
14865,503519.5420668506,2010-09-20 09:50:04,1290.6567442061144,7,43,-1.099568486213684,3.69343638420105,44.13084656784631,43.64874665922781,175.683852231239,159.93938769261206,-0.0001295089750783,0.0923051163554191,0,0,0
14866,503549.5573179701,2010-09-20 09:50:34,1320.671995210352,7,43,-1.0997490882873535,3.688903570175171,44.13084656784631,43.65791536028871,175.683852231239,159.97323128199372,-0.0001295089750783,0.0923051163554191,0,0,0
14867,503579.5725850194,2010-09-20 09:51:04,1350.687262284703,7,43,-1.099568486213684,3.684370756149292,44.13084656784631,43.66708422786048,175.683852231239,160.00703349267158,-0.0001295089750783,0.0923051163554191,0,0,0
14868,503609.5878897077,2010-09-20 09:51:34,1380.702566972944,7,43,-1.099568486213684,3.679837942123413,44.13084656784631,43.67625311829367,175.683852231239,160.0407947653319,-0.0001295089750783,0.0923051163554191,0,0,0
14869,503639.6031586918,2010-09-20 09:52:04,1410.717836022225,7,43,-1.0997490882873535,3.675467014312744,44.13084656784631,43.68542200616415,175.683852231239,160.07451478727947,-0.0001295089750783,0.0923051163554191,0,0,0
14870,503669.6184398863,2010-09-20 09:52:34,1440.7331171466467,7,43,-1.0997490882873535,3.671258211135864,44.13084656784631,43.694590275631576,175.683852231239,160.10819261837386,-9.713172767078504e-05,0.0923051163554191,0,0,0
14871,503699.6337125196,2010-09-20 09:53:04,1470.7483898500489,7,43,-1.099568486213684,3.6668872833251953,44.13084656784631,43.70375832302233,175.683852231239,160.14183059060835,-9.713172767078504e-05,0.0923051163554191,0,0,0
14872,503729.6491159994,2010-09-20 09:53:34,1500.7637932346513,7,43,-1.099568486213684,3.662678241729736,44.13084656784631,43.7129264162125,175.683852231239,160.17543021380462,-9.713172767078504e-05,0.0923051163554191,0,0,0
14873,503759.6642471846,2010-09-20 09:54:04,1530.7789244248142,7,43,-1.099568486213684,3.6586310863494873,44.13084656784631,43.72209442285238,175.683852231239,160.20899156827318,-0.0001295089750783,0.0923051163554191,0,0,0
14874,503789.6796316871,2010-09-20 09:54:34,1560.7943089322964,7,43,-1.099568486213684,3.6545839309692383,44.13084656784631,43.73126252753807,175.683852231239,160.24251589413515,-0.0001295089750783,0.0923051163554191,0,0,0
14875,503819.6948023608,2010-09-20 09:55:04,1590.809479601004,7,43,-1.0997490882873535,3.650698661804199,44.13084656784631,43.740430611766975,175.683852231239,160.27600337301087,-9.713172767078504e-05,0.0923051163554191,0,0,0
14876,503849.7102494244,2010-09-20 09:55:34,1620.824926664636,7,43,-1.0997490882873535,3.6463277339935294,44.13084656784631,43.74959872586241,175.683852231239,160.30945504992673,-0.0001942634553415,0.0923051163554191,0,0,0
14877,503879.7255307142,2010-09-20 09:56:04,1650.8402080497087,7,43,-1.0997490882873535,3.642928123474121,44.13084656784631,43.75876673512085,175.683852231239,160.3428708203453,-0.0001295089750783,0.0923051163554191,0,0,0
14878,503909.74066076655,2010-09-20 09:56:34,1680.855338006794,7,43,-1.0997490882873535,3.639204740524292,44.13084656784631,43.76793466667095,175.683852231239,160.37625189445083,-9.713172767078504e-05,0.0923051163554191,0,0,0
14879,503939.7561465869,2010-09-20 09:57:04,1710.8708238371937,7,43,-1.0993878841400146,3.635643243789673,44.13084656784631,43.77710269606816,175.683852231239,160.40959930896994,-9.713172767078504e-05,0.0923051163554191,0,0,0
14880,503969.77122288506,2010-09-20 09:57:34,1740.885900125313,7,43,-1.099568486213684,3.631919860839844,44.13084656784631,43.7862706533817,175.683852231239,160.44291282325304,-9.713172767078504e-05,0.0923051163554191,0,0,0
14881,503999.7866156281,2010-09-20 09:58:04,1770.9012928683524,7,43,-1.099568486213684,3.6283583641052246,44.13084656784631,43.79543868952811,175.683852231239,160.4761934789599,-3.237724376958795e-05,0.0923051163554191,0,0,0
14882,504029.80181383056,2010-09-20 09:58:34,1800.9164910707882,7,43,-1.0997490882873535,3.6247968673706055,44.13084656784631,43.80460670173031,175.683852231239,160.50944198989538,-0.0001295089750783,0.0923051163554191,0,0,0
14883,504059.8170618623,2010-09-20 09:59:04,1830.931739102606,7,43,-1.099568486213684,3.621721029281616,44.13084656784631,43.81377465517232,175.683852231239,160.54265948393044,-6.47544875391759e-05,0.0923051163554191,0,0,0
14884,504089.83238978864,2010-09-20 09:59:34,1860.947067119078,7,43,-1.099568486213684,3.618321418762207,44.13084656784631,43.82294267096268,175.683852231239,160.57584663170246,-6.47544875391759e-05,0.0923051163554191,0,0,0
14885,504119.8476397402,2010-09-20 10:00:04,1890.962316990488,7,43,-1.0993878841400146,3.615083694458008,44.13084656784631,43.83211065969985,175.683852231239,160.6090033169867,-6.47544875391759e-05,0.0923051163554191,0,0,0
14886,504149.86290276446,2010-09-20 10:00:34,1920.977580004704,7,43,-1.099568486213684,3.6118459701538086,44.13084656784631,43.84127855865418,175.683852231239,160.6421305547589,-6.47544875391759e-05,0.0923051163554191,0,0,0
14887,504179.8781852623,2010-09-20 10:01:04,1950.9928625025543,7,43,-1.0997490882873535,3.6087701320648193,44.13084656784631,43.8504464932366,175.683852231239,160.67522917186523,-3.237724376958795e-05,0.0923051163554191,0,0,0
14888,504209.8935375594,2010-09-20 10:01:34,1981.0082148948725,7,43,-1.0997490882873535,3.60553240776062,44.13084656784631,43.85961451115976,175.683852231239,160.70829988058395,-0.0001295089750783,0.0923051163554191,0,0,0
14889,504239.9087205639,2010-09-20 10:02:04,2011.023397804134,7,43,-1.0997490882873535,3.602618455886841,44.13084656784631,43.86878241120159,175.683852231239,160.74134241175275,-0.0001295089750783,0.0923051163554191,0,0,0
14890,504269.9239980442,2010-09-20 10:02:34,2041.03867528446,7,43,-1.099568486213684,3.599704504013061,44.13084656784631,43.87795047374573,175.683852231239,160.77435823987062,-9.713172767078504e-05,0.0923051163554191,0,0,0
14891,504299.93931467726,2010-09-20 10:03:04,2071.0539919375674,7,43,-1.099929690361023,3.5966286659240723,44.13084656784631,43.887118477651335,175.683852231239,160.80734705406584,-0.0001295089750783,0.0923051163554191,0,0,0
14892,504329.9545617066,2010-09-20 10:03:34,2101.0692389468327,7,43,-1.0997490882873535,3.593876600265503,44.13084656784631,43.89628647313887,175.683852231239,160.84030882701092,-3.237724376958795e-05,0.0923051163554191,0,0,0
14893,504359.969831628,2010-09-20 10:04:04,2131.084508963528,7,43,-1.099568486213684,3.5909628868103027,44.13084656784631,43.90545452650936,175.683852231239,160.87324373811214,-9.713172767078504e-05,0.0923051163554191,0,0,0
14894,504389.9851074944,2010-09-20 10:04:34,2161.0997847345875,7,43,-1.099568486213684,3.5880489349365234,44.13084656784631,43.91462253830078,175.683852231239,160.90615176907076,-6.47544875391759e-05,0.0923051163554191,0,0,0
14895,504420.00039257365,2010-09-20 10:05:04,2191.1150698138817,7,43,-1.0993878841400146,3.585134983062744,44.13084656784631,43.92379056324417,175.683852231239,160.93903313270425,-9.713172767078504e-05,0.0923051163554191,0,0,0
14896,504450.0159030405,2010-09-20 10:05:34,2221.1305803058403,7,43,-1.099568486213684,3.582221031188965,44.13084656784631,43.93295859207383,175.683852231239,160.97188787368236,-6.47544875391759e-05,0.0923051163554191,0,0,0
14897,504480.03094536887,2010-09-20 10:06:04,2251.145622609128,7,43,-1.099568486213684,3.579307079315185,44.13084656784631,43.942126462644055,175.683852231239,161.00471508922178,-6.47544875391759e-05,0.0923051163554191,0,0,0
14898,504510.0462398767,2010-09-20 10:06:34,2281.16091714202,7,43,-1.0997490882873535,3.5760693550109863,44.13084656784631,43.95129438595468,175.683852231239,161.0375147491529,-9.713172767078504e-05,0.0923051163554191,0,0,0
14899,504540.0614995476,2010-09-20 10:07:04,2311.176176787828,7,43,-1.0997490882873535,3.572993516921997,44.13084656784631,43.960462343169176,175.683852231239,161.07028679895166,-9.713172767078504e-05,0.0923051163554191,0,0,0
14900,504570.07679847645,2010-09-20 10:07:34,2341.1914758119306,7,43,-1.0997490882873535,3.5700795650482178,44.13084656784631,43.969630350905526,175.683852231239,161.1030315132521,-9.713172767078504e-05,0.0923051163554191,0,0,0
14901,504600.092392522,2010-09-20 10:08:04,2371.2070697672266,7,43,-1.0997490882873535,3.5670037269592285,44.13084656784631,43.97879840974654,175.683852231239,161.13574850374417,-0.0001295089750783,0.0923051163554191,0,0,0
14902,504630.1073490962,2010-09-20 10:08:34,2401.2220263365093,7,43,-1.099568486213684,3.5637660026550293,44.13084656784631,43.98796630233651,175.683852231239,161.16843637131274,-0.0001295089750783,0.0923051163554191,0,0,0
14903,504660.1226116443,2010-09-20 10:09:04,2431.237288884562,7,43,-1.099568486213684,3.56085205078125,44.13084656784631,43.99713420329432,175.683852231239,161.20109570026375,-9.713172767078504e-05,0.0923051163554191,0,0,0
14904,504690.1379871042,2010-09-20 10:09:34,2461.25266434446,7,43,-1.099568486213684,3.557614326477051,44.13084656784631,44.00630222662188,175.683852231239,161.23372618575848,-3.237724376958795e-05,0.0923051163554191,0,0,0
14905,504720.1531750762,2010-09-20 10:10:04,2491.2678523464338,7,43,-1.099568486213684,3.5542147159576416,44.13084656784631,44.01547010172113,175.683852231239,161.26632628407646,-0.0001295089750783,0.0923051163554191,0,0,0
14906,504750.1684555489,2010-09-20 10:10:34,2521.2831328192296,7,43,-1.099568486213684,3.5509769916534424,44.13084656784631,44.02463791563135,175.683852231239,161.29889602035985,-6.47544875391759e-05,0.0923051163554191,0,0,0
14907,504780.1837375055,2010-09-20 10:11:04,2551.2984147556786,7,43,-1.099568486213684,3.547577381134033,44.13084656784631,44.03380585163322,175.683852231239,161.3314355131805,-9.713172767078504e-05,0.0923051163554191,0,0,0
14908,504810.19897612376,2010-09-20 10:11:34,2581.313653363974,7,43,-1.0997490882873535,3.544015884399414,44.13084656784631,44.04297375568336,175.683852231239,161.36394311460148,-0.0001295089750783,0.0923051163554191,0,0,0
14909,504840.2144190971,2010-09-20 10:12:04,2611.329096347421,7,43,-1.099568486213684,3.540292501449585,44.13084656784631,44.05214176070003,175.683852231239,161.39641819981043,-0.0001295089750783,0.0923051163554191,0,0,0
14910,504870.2295572648,2010-09-20 10:12:34,2641.344234504976,7,43,-1.099568486213684,3.536731004714966,44.13084656784631,44.06130967456328,175.683852231239,161.4288592160607,-6.47544875391759e-05,0.0923051163554191,0,0,0
14911,504900.2448340333,2010-09-20 10:13:04,2671.359511273525,7,43,-1.0993878841400146,3.5328457355499268,44.13084656784631,44.07047768125542,175.683852231239,161.46126552268734,-6.47544875391759e-05,0.0923051163554191,0,0,0
14912,504930.2601430523,2010-09-20 10:13:34,2701.3748203126265,7,43,-1.0997490882873535,3.5287985801696777,44.13084656784631,44.07964568119188,175.683852231239,161.49363577771078,-9.713172767078504e-05,0.0923051163554191,0,0,0
14913,504960.2753876355,2010-09-20 10:14:04,2731.390064870774,7,43,-1.0997490882873535,3.524427652359009,44.13084656784631,44.088813708166526,175.683852231239,161.5259680899578,-9.713172767078504e-05,0.0923051163554191,0,0,0
14914,504990.29078896507,2010-09-20 10:14:34,2761.4054662152835,7,43,-1.099568486213684,3.52005672454834,44.13084656784631,44.09798171550262,175.683852231239,161.55826020374332,-0.0001295089750783,0.0923051163554191,0,0,0
14915,505020.30607296166,2010-09-20 10:15:04,2791.4207502018503,7,43,-1.0993878841400146,3.515362024307251,44.13084656784631,44.107149757373904,175.683852231239,161.59051003593373,-6.47544875391759e-05,0.0923051163554191,0,0,0
14916,505050.3212630338,2010-09-20 10:15:34,2821.435940273992,7,43,-1.0997490882873535,3.5101819038391118,44.13084656784631,44.11631778032124,175.683852231239,161.6227149368489,-0.0001942634553415,0.0923051163554191,0,0,0
14917,505080.336650624,2010-09-20 10:16:04,2851.451327859156,7,43,-1.099568486213684,3.5048396587371826,44.13084656784631,44.12548579132697,175.683852231239,161.6548717446559,-9.713172767078504e-05,0.0923051163554191,0,0,0
14918,505110.3517739495,2010-09-20 10:16:34,2881.4664511897004,7,43,-1.099568486213684,3.498849868774414,44.13084656784631,44.1346537330422,175.683852231239,161.68697583665863,-0.0001295089750783,0.0923051163554191,0,0,0
14919,505140.3670842317,2010-09-20 10:17:04,2911.481761491955,7,43,-1.0997490882873535,3.4922125339508057,44.13084656784631,44.14382182393267,175.683852231239,161.71902305539896,-0.0001942634553415,0.0923051163554191,0,0,0
14920,505170.3823508147,2010-09-20 10:17:34,2941.497028050017,7,43,-1.099568486213684,3.4850895404815674,44.13084656784631,44.15298983092136,175.683852231239,161.75100701695524,-0.0001618862152099,0.0923051163554191,0,0,0
14921,505200.397711999,2010-09-20 10:18:04,2971.5123892342813,7,43,-1.099568486213684,3.47683334350586,44.13084656784631,44.16215781381708,175.683852231239,161.78292020543088,-0.0001942634553415,0.0923051163554191,0,0,0
14922,505230.4129958602,2010-09-20 10:18:34,3001.527673120597,7,43,-1.0997490882873535,3.4674439430236816,44.13084656784631,44.171325828260215,175.683852231239,161.8147535632248,-0.0002590179501567,0.0923051163554191,0,0,0
14923,505260.4282676765,2010-09-20 10:19:04,3031.5429449117223,7,43,-1.0997490882873535,3.4565975666046143,44.13084656784631,44.18049382650328,175.683852231239,161.846495177162,-0.0003237724304199,0.0923051163554191,0,0,0
14924,505290.4434384705,2010-09-20 10:19:34,3061.5581157308047,7,43,-1.099568486213684,3.4439704418182373,44.13084656784631,44.18966184070305,175.683852231239,161.87812954217435,-0.0003561496851034,0.0923051163554191,0,0,0
14925,505320.4586810437,2010-09-20 10:20:04,3091.5733583039973,7,43,-1.099568486213684,3.42859148979187,44.13084656784631,44.19882987054868,175.683852231239,161.90963481873712,-0.0004209041653666,0.0923051163554191,0,0,0
14926,505350.4739871656,2010-09-20 10:20:34,3121.5886644007546,7,43,-1.0997490882873535,3.408355712890625,44.13084656784631,44.20799784030681,175.683852231239,161.9409792805369,-0.0006475448608398,0.0923051163554191,0,0,0
14927,505380.4894162092,2010-09-20 10:21:04,3151.604093449418,7,43,-1.0997490882873535,3.3818063735961914,44.13084656784631,44.21716571135137,175.683852231239,161.97211255620894,-0.0008094310760498,0.0923051163554191,0,0,0
14928,505410.5050453624,2010-09-20 10:21:34,3181.6197226125983,7,43,-1.0997490882873535,3.344734668731689,44.13084656784631,44.2263337446131,175.683852231239,162.00295847354323,-0.0011979580158367,0.0923051163554191,0,0,0
14929,505440.52002268337,2010-09-20 10:22:05,3211.634700048968,7,43,-1.0997490882873535,3.291797876358032,44.13084656784631,44.23550152645279,175.683852231239,162.03339561631722,-0.0016512393485754,0.0923051163554191,0,0,0
14930,505470.53524664015,2010-09-20 10:22:35,3241.649923890403,7,43,-1.099568486213684,3.21474027633667,44.13084656784631,44.24466942118059,175.683852231239,162.0632434695357,-0.0023959160316735,0.0923051163554191,0,0,0
14931,505500.550745077,2010-09-20 10:23:05,3271.665422417496,7,43,-1.0997490882873535,3.0960781574249268,44.13084656784631,44.25383738972173,175.683852231239,162.09221584625408,-0.0039175986312329,0.0923051163554191,0,0,0
14932,505526.8626249973,2010-09-20 10:23:31,3297.9773022375084,7,43,-1.099568486213684,2.8956634998321533,44.13084656784631,44.2618741689737,175.683852231239,162.11641591018355,-0.0089361192658543,0.0923051163554191,0,0,0
14933,505539.7532341359,2010-09-20 10:23:44,3310.867911376089,7,43,-1.099568486213684,2.699943780899048,44.13084656784631,44.265811493915095,175.683852231239,162.1274539406128,-0.0134365083649754,0.0923051163554191,0,0,0
14934,505599.78394514986,2010-09-20 10:24:44,60.01492706100999,8,43,0.0,3.392328977584839,44.13084656784631,44.265811493915095,175.683852231239,162.1274539406128,0.0014569759368896,0.0923051163554191,0,0,0
14935,505599.9715622796,2010-09-20 10:24:44,0.202229270371042,9,43,-1.9243103452026844e-05,3.392652750015259,44.13084656784631,44.26581149399789,175.683852231239,162.12745394089373,0.0,0.0884163826704025,0,0,0
14936,505604.7846810746,2010-09-20 10:24:49,5.015348075388181,9,43,0.0007031940040178,3.4012327194213867,44.13084748512826,44.26581149508366,175.68385534777187,162.12745394457738,0.0012303352123126,0.0884163826704025,0,0,0
