Data_Point,Test_Time(s),Date_Time,Step_Time(s),Step_Index,Cycle_Index,Current(A),Voltage(V),Charge_Capacity(Ah),Discharge_Capacity(Ah),Charge_Energy(Wh),Discharge_Energy(Wh),dV/dt(V/s),Internal_Resistance(Ohm),Is_FC_Data,AC_Impedance(Ohm),ACI_Phase_Angle(Deg)
13240,449218.1413547166,2010-09-19 18:44:57,30.01520666856885,1,39,0.0,3.38731050491333,39.12474187828498,39.26697267775782,155.78155144794437,143.82697183969472,0.0008094310760498,0.0873680263757705,0,0,0
13241,449248.1566653949,2010-09-19 18:45:27,60.030517156286265,1,39,0.0,3.411917209625244,39.12474187828498,39.26697267775782,155.78155144794437,143.82697183969472,0.0005827903514727,0.0873680263757705,0,0,0
13242,449278.1720347395,2010-09-19 18:45:57,90.0458864959071,1,39,0.0,3.42972469329834,39.12474187828498,39.26697267775782,155.78155144794437,143.82697183969472,0.0004209041653666,0.0873680263757705,0,0,0
13243,449308.1276750112,2010-09-19 18:46:26,120.00152695806068,1,39,0.0,3.443808555603028,39.12474187828498,39.26697267775782,155.78155144794437,143.82697183969472,0.0003237724304199,0.0873680263757705,0,0,0
13244,449338.152612944,2010-09-19 18:46:57,30.01537016167279,2,39,0.5501165986061096,3.5831923484802246,39.12932870722496,39.26697267775782,155.79783518137972,143.82697183969472,0.0014569759368896,0.0873680263757705,0,0,0
13245,449368.16797921096,2010-09-19 18:47:27,60.03073642862376,2,39,0.550297200679779,3.628682136535645,39.133915554182,39.26697267775782,155.81438103136142,143.82697183969472,0.0010684489971026,0.0873680263757705,0,0,0
13246,449398.1833869615,2010-09-19 18:47:57,90.04614417912407,2,39,0.550297200679779,3.6621925830841056,39.13850240181465,39.26697267775782,155.83110509737725,143.82697183969472,0.0008094310760498,0.0873680263757705,0,0,0
13247,449428.1988544261,2010-09-19 18:48:27,120.06161166874236,2,39,0.550297200679779,3.688903570175171,39.14308918249046,39.26697267775782,155.84796595094147,143.82697183969472,0.0006475448608398,0.0873680263757705,0,0,0
13248,449458.21412331495,2010-09-19 18:48:57,150.07688053256012,2,39,0.5501165986061096,3.7109200954437256,39.147675914131085,39.26697267775782,155.8649376528734,143.82697183969472,0.0005180359003134,0.0873680263757705,0,0,0
13249,449488.2294521885,2010-09-19 18:49:27,180.09220940617155,2,39,0.5501165986061096,3.729051351547241,39.1522626360073,39.26697267775782,155.88200115409123,143.82697183969472,0.0004532813909463,0.0873680263757705,0,0,0
13250,449518.24483036017,2010-09-19 18:49:57,210.10758757783853,2,39,0.5499359965324402,3.7432973384857178,39.15684936185718,39.26697267775782,155.89913936680304,143.82697183969472,0.0002913951757363,0.0873680263757705,0,0,0
13251,449548.26019734895,2010-09-19 18:50:27,240.1229545665912,2,39,0.550297200679779,3.753334045410156,39.16143611310104,39.26697267775782,155.91633396403515,143.82697183969472,0.0001942157687153,0.0873680263757705,0,0,0
13252,449578.275578493,2010-09-19 18:50:57,270.1383357106778,2,39,0.550297200679779,3.758838176727295,39.16602287195308,39.26697267775782,155.93356304239626,143.82697183969472,0.0001295089750783,0.0873680263757705,0,0,0
13253,449608.2909356222,2010-09-19 18:51:27,300.1536928648819,2,39,0.5501165986061096,3.762561559677124,39.17060967362653,39.26697267775782,155.95081269060566,143.82697183969472,6.47544875391759e-05,0.0873680263757705,0,0,0
13254,449638.30630726257,2010-09-19 18:51:57,330.1690644902082,2,39,0.5501165986061096,3.7657992839813232,39.17519645759068,39.26697267775782,155.96807773322766,143.82697183969472,0.0001295089750783,0.0873680263757705,0,0,0
13255,449668.3218240803,2010-09-19 18:52:27,360.18458130294465,2,39,0.550297200679779,3.768713235855103,39.17978329538772,39.26697267775782,155.9853572554291,143.82697183969472,9.713172767078504e-05,0.0873680263757705,0,0,0
13256,449698.33703587664,2010-09-19 18:52:57,390.1997930943008,2,39,0.5501165986061096,3.771627187728882,39.1843700201424,39.26697267775782,156.00265027424956,143.82697183969472,6.47544875391759e-05,0.0873680263757705,0,0,0
13257,449728.3523969456,2010-09-19 18:53:27,420.2151541682893,2,39,0.5501165986061096,3.774703025817871,39.18895680496714,39.26697267775782,156.01995733367758,143.82697183969472,9.713172767078504e-05,0.0873680263757705,0,0,0
13258,449758.36777214985,2010-09-19 18:53:57,450.23052936753663,2,39,0.5501165986061096,3.777778863906861,39.19354355494446,39.26697267775782,156.0372779533345,143.82697183969472,9.713172767078504e-05,0.0873680263757705,0,0,0
13259,449788.38313521387,2010-09-19 18:54:27,480.2458924314925,2,39,0.5499359965324402,3.7805309295654297,39.19813038125461,39.26697267775782,156.05461235246085,143.82697183969472,6.47544875391759e-05,0.0873680263757705,0,0,0
13260,449818.3985381423,2010-09-19 18:54:57,510.261295475244,2,39,0.5499359965324402,3.783444881439209,39.20271707067855,39.26697267775782,156.0719594377739,143.82697183969472,6.47544875391759e-05,0.0873680263757705,0,0,0
13261,449848.4138685948,2010-09-19 18:55:27,540.2766258125089,2,39,0.5501165986061096,3.786358833312988,39.20730379920078,39.26697267775782,156.08931987025971,143.82697183969472,6.47544875391759e-05,0.0873680263757705,0,0,0
13262,449878.4292464106,2010-09-19 18:55:57,570.2920036282876,2,39,0.5501165986061096,3.7891108989715576,39.21189054407814,39.26697267775782,156.10669342963433,143.82697183969472,3.237724376958795e-05,0.0873680263757705,0,0,0
13263,449908.4446620558,2010-09-19 18:56:27,600.3074193937945,2,39,0.5499359965324402,3.791862964630127,39.2164773139788,39.26697267775782,156.1240799892921,143.82697183969472,6.47544875391759e-05,0.0873680263757705,0,0,0
13264,449938.4599436013,2010-09-19 18:56:57,630.3227008390174,2,39,0.5499359965324402,3.794776916503906,39.2210640060754,39.26697267775782,156.14147907329993,143.82697183969472,6.47544875391759e-05,0.0873680263757705,0,0,0
13265,449968.47532480553,2010-09-19 18:57:27,660.338082033229,2,39,0.5499359965324402,3.7976908683776855,39.22565078127111,39.26697267775782,156.15889141527342,143.82697183969472,9.713172767078504e-05,0.0873680263757705,0,0,0
13266,449998.4908909715,2010-09-19 18:57:57,690.3536482192087,2,39,0.5501165986061096,3.800442934036255,39.23023760794592,39.26697267775782,156.1763170520134,143.82697183969472,6.47544875391759e-05,0.0873680263757705,0,0,0
13267,450028.5060679359,2010-09-19 18:58:27,720.3688251635814,2,39,0.5501165986061096,3.803518772125244,39.23482436359063,39.26697267775782,156.19375570830948,143.82697183969472,9.713172767078504e-05,0.0873680263757705,0,0,0
13268,450058.5215417414,2010-09-19 18:58:57,750.3842989890148,2,39,0.550297200679779,3.806432723999024,39.239411153438205,39.26697267775782,156.2112082018334,143.82697183969472,9.713172767078504e-05,0.0873680263757705,0,0,0
13269,450088.536780515,2010-09-19 18:59:27,780.3995377426729,2,39,0.550297200679779,3.8098323345184326,39.24399788357528,39.26697267775782,156.2286746203949,143.82697183969472,0.0001295089750783,0.0873680263757705,0,0,0
13270,450118.55230205954,2010-09-19 18:59:57,810.4150592771957,2,39,0.550297200679779,3.812908172607422,39.24858472031405,39.26697267775782,156.24615615547924,143.82697183969472,3.237724376958795e-05,0.0873680263757705,0,0,0
13271,450148.55231354863,2010-09-19 19:00:27,840.4150708113714,2,39,0.550297200679779,3.816631555557251,39.25316908159874,39.26697267775782,156.26364377966448,143.82697183969472,0.0001295089750783,0.0873680263757705,0,0,0
13272,450178.5676858055,2010-09-19 19:00:57,870.4304430482241,2,39,0.5501165986061096,3.8195455074310303,39.25775580119944,39.26697267775782,156.281155977553,143.82697183969472,6.47544875391759e-05,0.0873680263757705,0,0,0
13273,450208.5826360791,2010-09-19 19:01:27,900.4453933017415,2,39,0.5501165986061096,3.8231070041656494,39.26234250431549,39.26697267775782,156.2986838360584,143.82697183969472,3.237724376958795e-05,0.0873680263757705,0,0,0
13274,450238.59800604027,2010-09-19 19:01:57,930.460763262914,2,39,0.5499359965324402,3.8265066146850586,39.26692922110487,39.26697267775782,156.31622755342028,143.82697183969472,6.47544875391759e-05,0.0873680263757705,0,0,0
13275,450268.6135101112,2010-09-19 19:02:27,960.4762673538949,2,39,0.5501165986061096,3.8300681114196777,39.27151599369845,39.26697267775782,156.33378712259616,143.82697183969472,9.713172767078504e-05,0.0873680263757705,0,0,0
13276,450298.6288652804,2010-09-19 19:02:57,990.4916224980816,2,39,0.5501165986061096,3.833305597305298,39.276102747223625,39.26697267775782,156.35136199138873,143.82697183969472,9.70840483205393e-05,0.0873680263757705,0,0,0
13277,450328.64411074086,2010-09-19 19:03:27,1020.5068679584808,2,39,0.5501165986061096,3.836543321609497,39.28068953240952,39.26697267775782,156.36895209471993,143.82697183969472,9.713172767078504e-05,0.0873680263757705,0,0,0
13278,450358.65947967954,2010-09-19 19:03:57,1050.5222368820632,2,39,0.5499359965324402,3.8396191596984863,39.285276256067,39.26697267775782,156.38655673955384,143.82697183969472,6.47544875391759e-05,0.0873680263757705,0,0,0
13279,450388.6748664576,2010-09-19 19:04:27,1080.5376237053258,2,39,0.550297200679779,3.843018770217896,39.28986301121862,39.26697267775782,156.40417605199684,143.82697183969472,9.713172767078504e-05,0.0873680263757705,0,0,0
13280,450418.6903361076,2010-09-19 19:04:57,1110.553093345312,2,39,0.5501165986061096,3.845932722091675,39.29444982928125,39.26697267775782,156.42180972895852,143.82697183969472,9.713172767078504e-05,0.0873680263757705,0,0,0
13281,450448.7055774527,2010-09-19 19:05:27,1140.5683346703888,2,39,0.5499359965324402,3.848846673965454,39.29903657814355,39.26697267775782,156.43945710611845,143.82697183969472,3.237724376958795e-05,0.0873680263757705,0,0,0
13282,450478.7209612734,2010-09-19 19:05:57,1170.5837184961692,2,39,0.5501165986061096,3.8519225120544434,39.3036233157925,39.26697267775782,156.45711797359192,143.82697183969472,9.713172767078504e-05,0.0873680263757705,0,0,0
13283,450508.7363324427,2010-09-19 19:06:27,1200.5990896603444,2,39,0.5501165986061096,3.8545126914978023,39.30821010433668,39.26697267775782,156.4747919821595,143.82697183969472,3.237724376958795e-05,0.0873680263757705,0,0,0
13284,450538.7516850004,2010-09-19 19:06:57,1230.6144422180753,2,39,0.5501165986061096,3.857264757156372,39.31279682731218,39.26697267775782,156.49247818669275,143.82697183969472,6.47544875391759e-05,0.0873680263757705,0,0,0
13285,450568.76704964833,2010-09-19 19:07:27,1260.629806891047,2,39,0.5501165986061096,3.859854936599731,39.31738361830448,39.26697267775782,156.51017647449424,143.82697183969472,6.47544875391759e-05,0.0873680263757705,0,0,0
13286,450598.78243710817,2010-09-19 19:07:57,1290.6451943508987,2,39,0.5501165986061096,3.862121343612671,39.321970448920425,39.26697267775782,156.5278860387787,143.82697183969472,6.47544875391759e-05,0.0873680263757705,0,0,0
13287,450628.7978069139,2010-09-19 19:08:27,1320.6605642218462,2,39,0.550297200679779,3.8643877506256095,39.32655720244224,39.26697267775782,156.54560579592533,143.82697183969472,9.713172767078504e-05,0.0873680263757705,0,0,0
13288,450658.8132787244,2010-09-19 19:08:57,1350.676035947037,2,39,0.5501165986061096,3.86633038520813,39.33114391630142,39.26697267775782,156.5633351990683,143.82697183969472,6.47544875391759e-05,0.0873680263757705,0,0,0
13289,450688.82851798926,2010-09-19 19:09:27,1380.6912752320216,2,39,0.5501165986061096,3.8682730197906494,39.33573069774723,39.26697267775782,156.58107401331367,143.82697183969472,0.0,0.0873680263757705,0,0,0
13290,450718.8440188923,2010-09-19 19:09:57,1410.7067761200074,2,39,0.5501165986061096,3.870053768157959,39.34031752678934,39.26697267775782,156.59882151137978,143.82697183969472,3.237724376958795e-05,0.0873680263757705,0,0,0
13291,450748.8594096805,2010-09-19 19:10:27,1440.7221669081669,2,39,0.5501165986061096,3.8716726303100586,39.34490429995126,39.26697267775782,156.61657666792308,143.82697183969472,3.237724376958795e-05,0.0873680263757705,0,0,0
13292,450778.8747009052,2010-09-19 19:10:57,1470.7374581227757,2,39,0.5501165986061096,3.873453378677368,39.34949108018843,39.26697267775782,156.63433919302224,143.82697183969472,6.47544875391759e-05,0.0873680263757705,0,0,0
13293,450808.89017054514,2010-09-19 19:11:27,1500.7529277978492,2,39,0.5501165986061096,3.874748468399048,39.35407794570183,39.26697267775782,156.65210875622975,143.82697183969472,3.237724376958795e-05,0.0873680263757705,0,0,0
13294,450838.90536344936,2010-09-19 19:11:57,1530.7681206769976,2,39,0.5501165986061096,3.876043558120728,39.35866472444285,39.26697267775782,156.66988436273496,143.82697183969472,3.237724376958795e-05,0.0873680263757705,0,0,0
13295,450868.92079962575,2010-09-19 19:12:27,1560.7835568434284,2,39,0.5501165986061096,3.8773386478424072,39.36325147646806,39.26697267775782,156.68766589002544,143.82697183969472,3.237724376958795e-05,0.0873680263757705,0,0,0
13296,450898.9361032163,2010-09-19 19:12:57,1590.7988604339291,2,39,0.5501165986061096,3.878633737564087,39.36783831917263,39.26697267775782,156.7054535668059,143.82697183969472,6.47544875391759e-05,0.0873680263757705,0,0,0
13297,450928.9514733328,2010-09-19 19:13:27,1620.8142305504894,2,39,0.5501165986061096,3.8797669410705566,39.3724250942129,39.26697267775782,156.72324646624932,143.82697183969472,3.237724376958795e-05,0.0873680263757705,0,0,0
13298,450958.9668635295,2010-09-19 19:13:57,1650.8296207471728,2,39,0.5501165986061096,3.881062030792236,39.3770118991967,39.26697267775782,156.74104488983517,143.82697183969472,6.47544875391759e-05,0.0873680263757705,0,0,0
13299,450988.9822715056,2010-09-19 19:14:27,1680.8450287232365,2,39,0.550297200679779,3.882033348083496,39.38159872442089,39.26697267775782,156.7588486911628,143.82697183969472,3.237724376958795e-05,0.0873680263757705,0,0,0
13300,451018.99764722615,2010-09-19 19:14:58,1710.8604045690977,2,39,0.550297200679779,3.883166551589966,39.386185563150406,39.26697267775782,156.77665777241438,143.82697183969472,0.0,0.0873680263757705,0,0,0
13301,451049.0130195282,2010-09-19 19:15:28,1740.875776931263,2,39,0.5501165986061096,3.884299755096436,39.39077241113292,39.26697267775782,156.7944721126294,143.82697183969472,0.0,0.0873680263757705,0,0,0
13302,451079.02831119386,2010-09-19 19:15:58,1770.891068411535,2,39,0.5499359965324402,3.885432958602905,39.39535924684574,39.26697267775782,156.8122914214207,143.82697183969472,3.237724376958795e-05,0.0873680263757705,0,0,0
13303,451109.0437303078,2010-09-19 19:16:28,1800.9064875504623,2,39,0.5501165986061096,3.886566162109375,39.3999460195777,39.26697267775782,156.83011561140856,143.82697183969472,6.47544875391759e-05,0.0873680263757705,0,0,0
13304,451139.0590763843,2010-09-19 19:16:58,1830.921833606965,2,39,0.5501165986061096,3.8876993656158447,39.40453274887926,39.26697267775782,156.84794474334362,143.82697183969472,6.47544875391759e-05,0.0873680263757705,0,0,0
13305,451169.0743947768,2010-09-19 19:17:28,1860.937152029489,2,39,0.5499359965324402,3.8888325691223145,39.40911938490392,39.26697267775782,156.86577867817144,143.82697183969472,0.0,0.0873680263757705,0,0,0
13306,451199.0902743851,2010-09-19 19:17:58,1890.9530316328064,2,39,0.5499359965324402,3.889803886413574,39.41370526430973,39.26697267775782,156.8836146596313,143.82697183969472,3.237724376958795e-05,0.0873680263757705,0,0,0
13307,451229.1053128839,2010-09-19 19:18:28,1920.9680701165605,2,39,0.5501165986061096,3.890937089920044,39.41829110897759,39.26697267775782,156.9014556083612,143.82697183969472,3.237724376958795e-05,0.0873680263757705,0,0,0
13308,451259.12067605805,2010-09-19 19:18:58,1950.9834332807663,2,39,0.5501165986061096,3.892232179641724,39.42287785247569,39.26697267775782,156.91930556290717,143.82697183969472,0.0,0.0873680263757705,0,0,0
13309,451289.1359090774,2010-09-19 19:19:28,1980.9986663251727,2,39,0.550297200679779,3.893365383148194,39.427464683602615,39.26697267775782,156.9371611302889,143.82697183969472,3.237724376958795e-05,0.0873680263757705,0,0,0
13310,451319.1514053189,2010-09-19 19:19:58,2011.0141625414976,2,39,0.550297200679779,3.894498586654663,39.43205152202752,39.26697267775782,156.95502206616362,143.82697183969472,3.237724376958795e-05,0.0873680263757705,0,0,0
13311,451349.16666773154,2010-09-19 19:20:28,2041.0294249542128,2,39,0.5501165986061096,3.895631790161133,39.436638288939335,39.26697267775782,156.97288754009875,143.82697183969472,3.237724376958795e-05,0.0873680263757705,0,0,0
13312,451379.1821514517,2010-09-19 19:20:58,2071.0449086743447,2,39,0.5501165986061096,3.8967649936676025,39.441225056373696,39.26697267775782,156.99075852039215,143.82697183969472,3.237724376958795e-05,0.0873680263757705,0,0,0
13313,451409.19739043096,2010-09-19 19:21:28,2101.060147653566,2,39,0.5501165986061096,3.898060083389282,39.44581179188837,39.26697267775782,157.00863477669532,143.82697183969472,6.47544875391759e-05,0.0873680263757705,0,0,0
13314,451439.21278001607,2010-09-19 19:21:58,2131.075537258773,2,39,0.5501165986061096,3.899193286895752,39.450398574694745,39.26697267775782,157.02651675818308,143.82697183969472,3.237724376958795e-05,0.0873680263757705,0,0,0
13315,451469.2281434359,2010-09-19 19:22:28,2161.090900658567,2,39,0.5501165986061096,3.9003264904022217,39.45498536880937,39.26697267775782,157.04440428472498,143.82697183969472,3.237724376958795e-05,0.0873680263757705,0,0,0
13316,451499.2434911716,2010-09-19 19:22:58,2191.1062483992737,2,39,0.5499359965324402,3.9014596939086914,39.45957212684774,39.26697267775782,157.06229728144967,143.82697183969472,-3.237724376958795e-05,0.0873680263757705,0,0,0
13317,451529.25886368414,2010-09-19 19:23:28,2221.121620906802,2,39,0.5501165986061096,3.902754783630371,39.4641588744899,39.26697267775782,157.0801958714735,143.82697183969472,3.237724376958795e-05,0.0873680263757705,0,0,0
13318,451559.27422713407,2010-09-19 19:23:58,2251.1369843567213,2,39,0.5501165986061096,3.904049873352051,39.46874564641112,39.26697267775782,157.09810027076543,143.82697183969472,0.0,0.0873680263757705,0,0,0
13319,451589.2896123332,2010-09-19 19:24:28,2281.1523695559304,2,39,0.5501165986061096,3.9053449630737305,39.473332401001365,39.26697267775782,157.11601038659532,143.82697183969472,6.47544875391759e-05,0.0873680263757705,0,0,0
13320,451619.30511804833,2010-09-19 19:24:58,2311.167875270965,2,39,0.5501165986061096,3.90664005279541,39.47791916735526,39.26697267775782,157.1339262878944,143.82697183969472,3.237724376958795e-05,0.0873680263757705,0,0,0
13321,451649.32035827066,2010-09-19 19:25:28,2341.183115518352,2,39,0.550297200679779,3.90793514251709,39.48250590784733,39.26697267775782,157.15184801097732,143.82697183969472,6.47544875391759e-05,0.0873680263757705,0,0,0
13322,451679.3358032992,2010-09-19 19:25:58,2371.1985605318664,2,39,0.550297200679779,3.90906834602356,39.48709264662182,39.26697267775782,157.1697756689405,143.82697183969472,0.0,0.0873680263757705,0,0,0
13323,451709.3510677319,2010-09-19 19:26:28,2401.213824984673,2,39,0.5501165986061096,3.910525321960449,39.491679315641846,39.26697267775782,157.18770905150313,143.82697183969472,3.237724376958795e-05,0.0873680263757705,0,0,0
13324,451739.3663806407,2010-09-19 19:26:58,2431.229137863359,2,39,0.550297200679779,3.911982297897339,39.49626605975836,39.26697267775782,157.20564876543875,143.82697183969472,6.47544875391759e-05,0.0873680263757705,0,0,0
13325,451769.3818280802,2010-09-19 19:27:28,2461.2445853079416,2,39,0.5501165986061096,3.9131155014038086,39.50085283643119,39.26697267775782,157.22359484313736,143.82697183969472,0.0,0.0873680263757705,0,0,0
13326,451799.3972002169,2010-09-19 19:27:58,2491.2599574495566,2,39,0.550297200679779,3.914572238922119,39.50543957784655,39.26697267775782,157.24154701462737,143.82697183969472,3.237724376958795e-05,0.0873680263757705,0,0,0
13327,451829.4125790502,2010-09-19 19:28:28,2521.2753362728504,2,39,0.5499359965324402,3.915867328643799,39.51002633349835,39.26697267775782,157.25950542464696,143.82697183969472,3.237724376958795e-05,0.0873680263757705,0,0,0
13328,451859.42795345245,2010-09-19 19:28:58,2551.2907107051838,2,39,0.5501165986061096,3.917324304580689,39.51461304469822,39.26697267775782,157.27746997363982,143.82697183969472,3.237724376958795e-05,0.0873680263757705,0,0,0
13329,451889.44330563926,2010-09-19 19:29:28,2581.306062861913,2,39,0.550297200679779,3.918943166732788,39.519199765813845,39.26697267775782,157.2954409345326,143.82697183969472,9.713172767078504e-05,0.0873680263757705,0,0,0
13330,451919.4586781869,2010-09-19 19:29:58,2611.3214354095417,2,39,0.5499359965324402,3.920076370239258,39.52378649363709,39.26697267775782,157.313418387809,143.82697183969472,3.237724376958795e-05,0.0873680263757705,0,0,0
13331,451949.4743905577,2010-09-19 19:30:28,2641.337147780421,2,39,0.5501165986061096,3.921695232391357,39.52837325313118,39.26697267775782,157.3314024395594,143.82697183969472,6.47544875391759e-05,0.0873680263757705,0,0,0
13332,451979.489431608,2010-09-19 19:30:58,2671.352188855644,2,39,0.5499359965324402,3.922828435897827,39.53295989604322,39.26697267775782,157.34939261445226,143.82697183969472,3.237724376958795e-05,0.0873680263757705,0,0,0
13333,452009.5049340197,2010-09-19 19:31:28,2701.3676912724454,2,39,0.5499359965324402,3.9246091842651367,39.53754660137178,39.26697267775782,157.36738959598384,143.82697183969472,9.713172767078504e-05,0.0873680263757705,0,0,0
13334,452039.520147776,2010-09-19 19:31:58,2731.3829050036434,2,39,0.550297200679779,3.925904273986816,39.54213328885111,39.26697267775782,157.38539324069984,143.82697183969472,3.237724376958795e-05,0.0873680263757705,0,0,0
13335,452069.5355508748,2010-09-19 19:32:28,2761.398308132608,2,39,0.5501165986061096,3.927361249923706,39.546720064051215,39.26697267775782,157.40340384877268,143.82697183969472,3.237724376958795e-05,0.0873680263757705,0,0,0
13336,452099.5512880276,2010-09-19 19:32:58,2791.4140453505097,2,39,0.550297200679779,3.928818225860596,39.55130680957424,39.26697267775782,157.4214211557439,143.82697183969472,0.0,0.0873680263757705,0,0,0
13337,452129.5662571632,2010-09-19 19:33:28,2821.429014390922,2,39,0.5501165986061096,3.930275201797485,39.55589350341429,39.26697267775782,157.43944506303353,143.82697183969472,3.237724376958795e-05,0.0873680263757705,0,0,0
13338,452159.581608152,2010-09-19 19:33:58,2851.4443653997864,2,39,0.5501165986061096,3.931894063949585,39.5604802263812,39.26697267775782,157.45747589938122,143.82697183969472,6.47544875391759e-05,0.0873680263757705,0,0,0
13339,452189.5969809051,2010-09-19 19:34:28,2881.4597381479152,2,39,0.5501165986061096,3.9333510398864746,39.56506688979668,39.26697267775782,157.47551344378667,143.82697183969472,0.0,0.0873680263757705,0,0,0
13340,452219.61233522726,2010-09-19 19:34:58,2911.47509247005,2,39,0.5501165986061096,3.934969902038574,39.5696535781463,39.26697267775782,157.49355811634177,143.82697183969472,6.47544875391759e-05,0.0873680263757705,0,0,0
13341,452249.6277064868,2010-09-19 19:35:28,2941.490463709413,2,39,0.5501165986061096,3.936264991760254,39.57424033789171,39.26697267775782,157.51161022602446,143.82697183969472,0.0,0.0873680263757705,0,0,0
13342,452279.6431049541,2010-09-19 19:35:58,2971.505862196791,2,39,0.5501165986061096,3.938045740127564,39.578827174096645,39.26697267775782,157.5296698608953,143.82697183969472,3.237724376958795e-05,0.0873680263757705,0,0,0
13343,452309.6584540231,2010-09-19 19:36:28,3001.521211275838,2,39,0.550297200679779,3.939664602279663,39.583413959631656,39.26697267775782,157.54773663635652,143.82697183969472,3.237724376958795e-05,0.0873680263757705,0,0,0
13344,452339.6739478585,2010-09-19 19:36:58,3031.5367050811446,2,39,0.5501165986061096,3.9412834644317623,39.58800071172308,39.26697267775782,157.56581061748517,143.82697183969472,6.47544875391759e-05,0.0873680263757705,0,0,0
13345,452369.6891798152,2010-09-19 19:37:28,3061.551937037837,2,39,0.5501165986061096,3.9429023265838623,39.59258742190094,39.26697267775782,157.58389174657214,143.82697183969472,6.47544875391759e-05,0.0873680263757705,0,0,0
13346,452399.70455042296,2010-09-19 19:37:58,3091.5673076456237,2,39,0.5501165986061096,3.944521188735962,39.597174143790674,39.26697267775782,157.60198042084727,143.82697183969472,3.237724376958795e-05,0.0873680263757705,0,0,0
13347,452429.7199388903,2010-09-19 19:38:28,3121.58269611299,2,39,0.5501165986061096,3.9464638233184814,39.60176083320718,39.26697267775782,157.62007654338322,143.82697183969472,9.713172767078504e-05,0.0873680263757705,0,0,0
13348,452459.7352838341,2010-09-19 19:38:58,3151.5980410567145,2,39,0.5501165986061096,3.947758913040161,39.60634757548412,39.26697267775782,157.63818035811894,143.82697183969472,3.237724376958795e-05,0.0873680263757705,0,0,0
13349,452489.7506735796,2010-09-19 19:39:28,3181.613430822322,2,39,0.5499359965324402,3.949539661407471,39.61093431805469,39.26697267775782,157.65629188802467,143.82697183969472,6.47544875391759e-05,0.0873680263757705,0,0,0
13350,452519.766020348,2010-09-19 19:39:58,3211.6287775705514,2,39,0.5501165986061096,3.95132040977478,39.61552104786099,39.26697267775782,157.6744111235334,143.82697183969472,6.47544875391759e-05,0.0873680263757705,0,0,0
13351,452549.781427156,2010-09-19 19:40:28,3241.644184378699,2,39,0.5501165986061096,3.95293927192688,39.62010782360091,39.26697267775782,157.69253836271542,143.82697183969472,6.47544875391759e-05,0.0873680263757705,0,0,0
13352,452579.7968957183,2010-09-19 19:40:58,3271.6596530312204,2,39,0.550297200679779,3.95455813407898,39.62469456261484,39.26697267775782,157.71067336137176,143.82697183969472,3.237724376958795e-05,0.0873680263757705,0,0,0
13353,452609.8121238354,2010-09-19 19:41:28,3301.674881058103,2,39,0.5501165986061096,3.956338882446289,39.6292812691699,39.26697267775782,157.72881626043284,143.82697183969472,3.237724376958795e-05,0.0873680263757705,0,0,0
13354,452639.8274966587,2010-09-19 19:41:58,3331.690253901469,2,39,0.5499359965324402,3.958119630813599,39.633867915025824,39.26697267775782,157.7469669749541,143.82697183969472,6.47544875391759e-05,0.0873680263757705,0,0,0
13355,452669.84287625394,2010-09-19 19:42:28,3361.70563347664,2,39,0.5501165986061096,3.959900379180908,39.63845453752278,39.26697267775782,157.76512585856074,143.82697183969472,3.237724376958795e-05,0.0873680263757705,0,0,0
13356,452699.8582494081,2010-09-19 19:42:58,3391.7210066508324,2,39,0.550297200679779,3.961843013763428,39.643041134765085,39.26697267775782,157.7832929344448,143.82697183969472,6.47544875391759e-05,0.0873680263757705,0,0,0
13357,452729.8736093694,2010-09-19 19:43:28,3421.7363665919934,2,39,0.5499359965324402,3.963623762130737,39.64762776358313,39.26697267775782,157.80146844361406,143.82697183969472,6.47544875391759e-05,0.0873680263757705,0,0,0
13358,452759.8890066287,2010-09-19 19:43:58,3451.751763851306,2,39,0.5501165986061096,3.965404510498047,39.6522144396972,39.26697267775782,157.81965262588028,143.82697183969472,3.237724376958795e-05,0.0873680263757705,0,0,0
13359,452789.904352645,2010-09-19 19:44:28,3481.7671098677083,2,39,0.550297200679779,3.9673471450805664,39.656801174110086,39.26697267775782,157.83784559242793,143.82697183969472,6.47544875391759e-05,0.0873680263757705,0,0,0
13360,452819.91971380427,2010-09-19 19:44:58,3511.782471142197,2,39,0.5501165986061096,3.969289779663086,39.66138795856825,39.26697267775782,157.8560473377668,143.82697183969472,6.47544875391759e-05,0.0873680263757705,0,0,0
13361,452849.9350357957,2010-09-19 19:45:28,3541.797793018342,2,39,0.5501165986061096,3.9712324142456055,39.66597526343462,39.26697267775782,157.87425995050924,143.82697183969472,6.47544875391759e-05,0.0873680263757705,0,0,0
13362,452879.9504190752,2010-09-19 19:45:58,3571.8131763278334,2,39,0.5501165986061096,3.973013162612915,39.670562817183175,39.26697267775782,157.8924824006176,143.82697183969472,6.47544875391759e-05,0.0873680263757705,0,0,0
13363,452909.9661555512,2010-09-19 19:46:28,3601.8289127738085,2,39,0.550297200679779,3.975117683410645,39.67515028605426,39.26697267775782,157.91071354504874,143.82697183969472,6.47544875391759e-05,0.0873680263757705,0,0,0
13364,452939.9812149371,2010-09-19 19:46:59,3631.8439722549742,2,39,0.550297200679779,3.977222204208374,39.679737799180174,39.26697267775782,157.9289539848078,143.82697183969472,6.47544875391759e-05,0.0873680263757705,0,0,0
13365,452969.9966595596,2010-09-19 19:47:29,3661.859416782276,2,39,0.550297200679779,3.979002952575684,39.68432541583326,39.26697267775782,157.9472036869966,143.82697183969472,0.0,0.0873680263757705,0,0,0
13366,453000.0118929148,2010-09-19 19:47:59,3691.8746501374585,2,39,0.550297200679779,3.981269359588623,39.68891291945583,39.26697267775782,157.96546265646757,143.82697183969472,9.713172767078504e-05,0.0873680263757705,0,0,0
13367,453030.0274086448,2010-09-19 19:48:29,3721.890165867492,2,39,0.5501165986061096,3.983211994171143,39.693500038738826,39.26697267775782,157.98372952384793,143.82697183969472,3.237724376958795e-05,0.0873680263757705,0,0,0
13368,453060.0426393383,2010-09-19 19:48:59,3751.905396561031,2,39,0.550297200679779,3.985316514968872,39.6980868263407,39.26697267775782,158.0020045530028,143.82697183969472,3.237724376958795e-05,0.0873680263757705,0,0,0
13369,453090.0580205576,2010-09-19 19:49:29,3781.920777780306,2,39,0.550297200679779,3.987582921981812,39.702673630791686,39.26697267775782,158.02028922328878,143.82697183969472,6.47544875391759e-05,0.0873680263757705,0,0,0
13370,453120.0734249698,2010-09-19 19:49:59,3811.9361823077606,2,39,0.5501165986061096,3.989363670349121,39.7072604657089,39.26697267775782,158.0385835983315,143.82697183969472,3.237724376958795e-05,0.0873680263757705,0,0,0
13371,453150.0887558184,2010-09-19 19:50:29,3841.9515130410136,2,39,0.5501165986061096,3.991630077362061,39.711847254869205,39.26697267775782,158.05688750634778,143.82697183969472,6.47544875391759e-05,0.0873680263757705,0,0,0
13372,453180.1041086668,2010-09-19 19:50:59,3871.9668658894702,2,39,0.5501165986061096,3.99373459815979,39.71643408884039,39.26697267775782,158.07520137318417,143.82697183969472,6.47544875391759e-05,0.0873680263757705,0,0,0
13373,453210.1194803322,2010-09-19 19:51:29,3901.982237554897,2,39,0.5499359965324402,3.995838880538941,39.72102091050455,39.26697267775782,158.09352503723778,143.82697183969472,3.237724376958795e-05,0.0873680263757705,0,0,0
13374,453240.1348470703,2010-09-19 19:51:59,3931.997604293024,2,39,0.550297200679779,3.99826717376709,39.72560765625883,39.26697267775782,158.1118583223302,143.82697183969472,9.713172767078504e-05,0.0873680263757705,0,0,0
13375,453270.15023436974,2010-09-19 19:52:29,3962.0129915924754,2,39,0.5499359965324402,4.0000481605529785,39.73019447257104,39.26697267775782,158.13020174222405,143.82697183969472,3.24249267578125e-05,0.0873680263757705,0,0,0
13376,453300.1657419696,2010-09-19 19:52:59,3992.0284991922144,2,39,0.5501165986061096,4.002476215362549,39.73478123199823,39.26697267775782,158.14855505445098,143.82697183969472,3.23295607813634e-05,0.0873680263757705,0,0,0
13377,453330.18099346507,2010-09-19 19:53:29,4022.043750687677,2,39,0.550297200679779,4.004742622375488,39.739368054259465,39.26697267775782,158.16691876803682,143.82697183969472,3.23295607813634e-05,0.0873680263757705,0,0,0
13378,453360.1963286744,2010-09-19 19:53:59,4052.059085897105,2,39,0.5499359965324402,4.006685256958008,39.743954841458034,39.26697267775782,158.18529253703886,143.82697183969472,3.23295607813634e-05,0.0873680263757705,0,0,0
13379,453390.2117140891,2010-09-19 19:54:29,4082.074471311851,2,39,0.5501165986061096,4.009113788604736,39.74854164610074,39.26697267775782,158.20367663874882,143.82697183969472,6.47544875391759e-05,0.0873680263757705,0,0,0
13380,453420.2270631181,2010-09-19 19:54:59,4112.089820340773,2,39,0.5501165986061096,4.011541843414307,39.75312840876108,39.26697267775782,158.22207086696142,143.82697183969472,9.70840483205393e-05,0.0873680263757705,0,0,0
13381,453450.2424456356,2010-09-19 19:55:29,4142.105202858289,2,39,0.5501165986061096,4.013646602630615,39.75771519440947,39.26697267775782,158.24047561003002,143.82697183969472,6.47544875391759e-05,0.0873680263757705,0,0,0
13382,453480.2578060229,2010-09-19 19:55:59,4172.120563245563,2,39,0.5501165986061096,4.015913009643555,39.76230198454624,39.26697267775782,158.2588908308882,143.82697183969472,3.24249267578125e-05,0.0873680263757705,0,0,0
13383,453510.27318027976,2010-09-19 19:56:29,4202.135937502458,2,39,0.5499359965324402,4.018179416656494,39.76688880362448,39.26697267775782,158.27731678469846,143.82697183969472,0.0,0.0873680263757705,0,0,0
13384,453540.2893748895,2010-09-19 19:56:59,4232.15213213213,2,39,0.5501165986061096,4.0206074714660645,39.77147573185412,39.26697267775782,158.29575375732108,143.82697183969472,6.47544875391759e-05,0.0873680263757705,0,0,0
13385,453570.30391089886,2010-09-19 19:57:29,4262.166668126593,2,39,0.5501165986061096,4.023036003112793,39.77606230169182,39.26697267775782,158.3142000868606,143.82697183969472,6.47544875391759e-05,0.0873680263757705,0,0,0
13386,453600.31940979697,2010-09-19 19:57:59,4292.182167029624,2,39,0.5501165986061096,4.025464057922363,39.78064913815857,39.26697267775782,158.33265843035142,143.82697183969472,6.47544875391759e-05,0.0873680263757705,0,0,0
13387,453630.3347919334,2010-09-19 19:58:29,4322.197549161176,2,39,0.5501165986061096,4.027730464935303,39.78523593268648,39.26697267775782,158.35112751896185,143.82697183969472,3.23295607813634e-05,0.0873680263757705,0,0,0
13388,453660.3500141509,2010-09-19 19:58:59,4352.212771373544,2,39,0.550297200679779,4.030320644378662,39.78982274586427,39.26697267775782,158.36960776930167,143.82697183969472,9.70840483205393e-05,0.0873680263757705,0,0,0
13389,453690.3655176404,2010-09-19 19:59:29,4382.228274963274,2,39,0.550297200679779,4.032749176025391,39.794409564206696,39.26697267775782,158.3880991580323,143.82697183969472,9.71794142969884e-05,0.0873680263757705,0,0,0
13390,453720.3808903584,2010-09-19 19:59:59,4412.2436475860895,2,39,0.550297200679779,4.035177230834961,39.79899636056008,39.26697267775782,158.4066017634591,143.82697183969472,6.47544875391759e-05,0.0873680263757705,0,0,0
13391,453750.3961484804,2010-09-19 20:00:29,4442.258905703082,2,39,0.5501165986061096,4.037605285644531,39.80358309279983,39.26697267775782,158.42511553022268,143.82697183969472,6.47544875391759e-05,0.0873680263757705,0,0,0
13392,453780.41161990986,2010-09-19 20:00:59,4472.274377232785,2,39,0.5501165986061096,4.040195465087891,39.80816991122806,39.26697267775782,158.44364114496338,143.82697183969472,9.70840483205393e-05,0.0873680263757705,0,0,0
13393,453810.42686294427,2010-09-19 20:01:29,4502.289620166878,2,39,0.5499359965324402,4.04246187210083,39.81275667312514,39.26697267775782,158.46217809645898,143.82697183969472,3.23295607813634e-05,0.0873680263757705,0,0,0
13394,453840.44236881466,2010-09-19 20:01:59,4532.305126047327,2,39,0.550297200679779,4.045375823974609,39.81734354036583,39.26697267775782,158.48072727253836,143.82697183969472,9.70840483205393e-05,0.0873680263757705,0,0,0
13395,453870.4578184246,2010-09-19 20:02:29,4562.320575647289,2,39,0.5501165986061096,4.047804355621338,39.82193036619432,39.26697267775782,158.4992881015521,143.82697183969472,6.47544875391759e-05,0.0873680263757705,0,0,0
13396,453900.4729810933,2010-09-19 20:02:59,4592.335738316027,2,39,0.5501165986061096,4.050394535064697,39.82651716386101,39.26697267775782,158.5178608070061,143.82697183969472,3.24249267578125e-05,0.0873680263757705,0,0,0
13397,453930.48835152574,2010-09-19 20:03:29,4622.351108748376,2,39,0.5501165986061096,4.052984714508057,39.83110399068768,39.26697267775782,158.53644565303614,143.82697183969472,6.47544875391759e-05,0.0873680263757705,0,0,0
13398,453960.5037307,2010-09-19 20:03:59,4652.366487922545,2,39,0.550297200679779,4.055898666381836,39.8356908163224,39.26697267775782,158.55504278628734,143.82697183969472,9.71794142969884e-05,0.0873680263757705,0,0,0
13399,453990.519095042,2010-09-19 20:04:29,4682.381852264692,2,39,0.550297200679779,4.058650493621826,39.840277655732166,39.26697267775782,158.57365228273977,143.82697183969472,9.70840483205393e-05,0.0873680263757705,0,0,0
13400,454020.5349748909,2010-09-19 20:04:59,4712.397732118635,2,39,0.5501165986061096,4.061079025268555,39.84486453822109,39.26697267775782,158.59227424745197,143.82697183969472,9.71794142969884e-05,0.0873680263757705,0,0,0
13401,454050.54981854337,2010-09-19 20:05:29,4742.412575766047,2,39,0.5501165986061096,4.063830852508545,39.849451300507056,39.26697267775782,158.61090810393634,143.82697183969472,6.47544875391759e-05,0.0873680263757705,0,0,0
13402,454080.5653264489,2010-09-19 20:05:59,4772.42808367155,2,39,0.550297200679779,4.066906929016113,39.85403811832939,39.26697267775782,158.62955490383536,143.82697183969472,9.71794142969884e-05,0.0873680263757705,0,0,0
13403,454110.58072703646,2010-09-19 20:06:29,4802.44348425917,2,39,0.5501165986061096,4.069497108459473,39.858624968614855,39.26697267775782,158.64821462302046,143.82697183969472,6.47544875391759e-05,0.0873680263757705,0,0,0
13404,454140.59594698827,2010-09-19 20:06:59,4832.458704210896,2,39,0.5501165986061096,4.072248935699463,39.86321172877712,39.26697267775782,158.66688683163576,143.82697183969472,6.47544875391759e-05,0.0873680263757705,0,0,0
13405,454170.61132764607,2010-09-19 20:07:29,4862.474084868768,2,39,0.5499359965324402,4.075162887573242,39.86779852075996,39.26697267775782,158.68557215333234,143.82697183969472,6.47544875391759e-05,0.0873680263757705,0,0,0
13406,454200.62666726153,2010-09-19 20:07:59,4892.4894244841935,2,39,0.5501165986061096,4.0780768394470215,39.87238539792658,39.26697267775782,158.7042709819988,143.82697183969472,9.70840483205393e-05,0.0873680263757705,0,0,0
13407,454230.64215248544,2010-09-19 20:08:29,4922.504909713091,2,39,0.550297200679779,4.080990791320801,39.876972286166925,39.26697267775782,158.72298313344876,143.82697183969472,9.70840483205393e-05,0.0873680263757705,0,0,0
13408,454260.65754396527,2010-09-19 20:08:59,4952.520301283204,2,39,0.5501165986061096,4.083743095397949,39.88155907685229,39.26697267775782,158.74170814339118,143.82697183969472,6.47544875391759e-05,0.0873680263757705,0,0,0
13409,454290.67288927495,2010-09-19 20:09:29,4982.535646592842,2,39,0.550297200679779,4.086980819702148,39.886145851658426,39.26697267775782,158.7604466626101,143.82697183969472,9.71794142969884e-05,0.0873680263757705,0,0,0
13410,454320.688156675,2010-09-19 20:09:59,5012.550913892756,2,39,0.5501165986061096,4.089894771575928,39.89073260207233,39.26697267775782,158.77919865850544,143.82697183969472,9.71794142969884e-05,0.0873680263757705,0,0,0
13411,454350.70353076654,2010-09-19 20:10:29,5042.566288019326,2,39,0.5501165986061096,4.092808723449707,39.89531933396539,39.26697267775782,158.79796422326942,143.82697183969472,9.71794142969884e-05,0.0873680263757705,0,0,0
13412,454380.7189158204,2010-09-19 20:10:59,5072.581673068158,2,39,0.550297200679779,4.095722675323486,39.8999060670898,39.26697267775782,158.81674364598544,143.82697183969472,3.24249267578125e-05,0.0873680263757705,0,0,0
13413,454410.73424491467,2010-09-19 20:11:29,5102.597002162321,2,39,0.5501165986061096,4.0989603996276855,39.904492840360106,39.26697267775782,158.83553718577738,143.82697183969472,6.47544875391759e-05,0.0873680263757705,0,0,0
13414,454440.74962335685,2010-09-19 20:11:59,5132.612380579601,2,39,0.550297200679779,4.102035999298096,39.90907964533733,39.26697267775782,158.8543449961808,143.82697183969472,0.0001295089750783,0.0873680263757705,0,0,0
13415,454470.7650101552,2010-09-19 20:12:29,5162.6277673778,2,39,0.5501165986061096,4.105112075805664,39.91366651928293,39.26697267775782,158.87316724932086,143.82697183969472,9.71794142969884e-05,0.0873680263757705,0,0,0
13416,454500.78042195074,2010-09-19 20:12:59,5192.643179173398,2,39,0.5501165986061096,4.108187675476074,39.91825337053927,39.26697267775782,158.8920038317118,143.82697183969472,9.70840483205393e-05,0.0873680263757705,0,0,0
13417,454530.7957340174,2010-09-19 20:13:29,5222.658491240057,2,39,0.5501165986061096,4.111425399780273,39.92284014163629,39.26697267775782,158.91085460544775,143.82697183969472,6.47544875391759e-05,0.0873680263757705,0,0,0
13418,454560.8110930263,2010-09-19 20:13:59,5252.673850248891,2,39,0.5499359965324402,4.114501476287842,39.92742698852354,39.26697267775782,158.92972024070144,143.82697183969472,6.47544875391759e-05,0.0873680263757705,0,0,0
13419,454590.8265031226,2010-09-19 20:14:29,5282.689260370308,2,39,0.5501165986061096,4.117900848388672,39.9320137861164,39.26697267775782,158.94860039066953,143.82697183969472,9.71794142969884e-05,0.0873680263757705,0,0,0
13420,454620.8418340162,2010-09-19 20:14:59,5312.7045912389,2,39,0.5501165986061096,4.120976448059082,39.93660063694425,39.26697267775782,158.96749560644858,143.82697183969472,6.47544875391759e-05,0.0873680263757705,0,0,0
13421,454650.8572170049,2010-09-19 20:15:29,5342.719974227592,2,39,0.5501165986061096,4.12437629699707,39.94118747452645,39.26697267775782,158.98640569390506,143.82697183969472,0.0001295089750783,0.0873680263757705,0,0,0
13422,454680.87257156766,2010-09-19 20:15:59,5372.735328790327,2,39,0.5501165986061096,4.1274518966674805,39.94577432662406,39.26697267775782,159.00533087697195,143.82697183969472,6.47544875391759e-05,0.0873680263757705,0,0,0
13423,454710.8879717943,2010-09-19 20:16:29,5402.750729017046,2,39,0.5501165986061096,4.130851745605469,39.95036119940323,39.26697267775782,159.02427129756052,143.82697183969472,6.47544875391759e-05,0.0873680263757705,0,0,0
13424,454740.9034669029,2010-09-19 20:16:59,5432.7662241205935,2,39,0.550297200679779,4.134413242340088,39.954948083559785,39.26697267775782,159.04322706287675,143.82697183969472,9.71794142969884e-05,0.0873680263757705,0,0,0
13425,454770.9186816116,2010-09-19 20:17:29,5462.781438854294,2,39,0.5501165986061096,4.137812614440918,39.95953491697102,39.26697267775782,159.0621980250881,143.82697183969472,0.0001295089750783,0.0873680263757705,0,0,0
13426,454800.9342067952,2010-09-19 20:17:59,5492.796964037925,2,39,0.5501165986061096,4.141050338745117,39.964121817749934,39.26697267775782,159.08118485659625,143.82697183969472,9.70840483205393e-05,0.0873680263757705,0,0,0
13427,454830.9496519741,2010-09-19 20:18:29,5522.812409201816,2,39,0.5501165986061096,4.1444501876831055,39.96870876360057,39.26697267775782,159.1001875262892,143.82697183969472,9.71794142969884e-05,0.0873680263757705,0,0,0
13428,454860.9517898009,2010-09-19 20:18:59,5552.814547143832,2,39,0.550297200679779,4.148011684417725,39.97329358085005,39.26697267775782,159.11919747771444,143.82697183969472,9.71794142969884e-05,0.0873680263757705,0,0,0
13429,454890.9646018421,2010-09-19 20:19:30,5582.82735915998,2,39,0.5501165986061096,4.151411056518555,39.97788008001999,39.26697267775782,159.13823027952793,143.82697183969472,6.47544875391759e-05,0.0873680263757705,0,0,0
13430,454920.9799066807,2010-09-19 20:20:00,5612.842663903359,2,39,0.5499359965324402,4.154972553253174,39.98246688724884,39.26697267775782,159.15728034841425,143.82697183969472,6.47544875391759e-05,0.0873680263757705,0,0,0
13431,454950.99529589486,2010-09-19 20:20:30,5642.8580531226025,2,39,0.550297200679779,4.158534049987793,39.98705370413773,39.26697267775782,159.1763465432368,143.82697183969472,9.70840483205393e-05,0.0873680263757705,0,0,0
13432,454981.0110626015,2010-09-19 20:21:00,5672.873819854175,2,39,0.5501165986061096,4.161933898925781,39.99164061166205,39.26697267775782,159.1954293266543,143.82697183969472,3.24249267578125e-05,0.0873680263757705,0,0,0
13433,455011.02601009805,2010-09-19 20:21:30,5702.888767320736,2,39,0.5499359965324402,4.1654953956604,39.996227387770446,39.26697267775782,159.21452792326102,143.82697183969472,6.47544875391759e-05,0.0873680263757705,0,0,0
13434,455041.0413814928,2010-09-19 20:22:00,5732.904138715486,2,39,0.550297200679779,4.16938066482544,40.00081424964749,39.26697267775782,159.23364334908132,143.82697183969472,0.0001295089750783,0.0873680263757705,0,0,0
13435,455071.0567240706,2010-09-19 20:22:30,5762.919481293305,2,39,0.5501165986061096,4.1727800369262695,40.00540103399128,39.26697267775782,159.25277503771238,143.82697183969472,6.47544875391759e-05,0.0873680263757705,0,0,0
13436,455101.07211008185,2010-09-19 20:23:00,5792.934867319578,2,39,0.550297200679779,4.176503658294678,40.009987790135575,39.26697267775782,159.27192322982714,143.82697183969472,9.71794142969884e-05,0.0873680263757705,0,0,0
13437,455131.0874614717,2010-09-19 20:23:30,5822.950218689344,2,39,0.5501165986061096,4.180226802825928,40.01457458168366,39.26697267775782,159.29108835891105,143.82697183969472,0.0001295089750783,0.0873680263757705,0,0,0
13438,455161.1029004101,2010-09-19 20:24:00,5852.965657747995,2,39,0.5501165986061096,4.183950424194336,40.01916139484832,39.26697267775782,159.31027058873838,143.82697183969472,0.0001295089750783,0.0873680263757705,0,0,0
13439,455191.1183277444,2010-09-19 20:24:30,5882.981084967091,2,39,0.5499359965324402,4.187673568725586,40.02374828259219,39.26697267775782,159.32947025711198,143.82697183969472,9.70840483205393e-05,0.0873680263757705,0,0,0
13440,455221.13358030753,2010-09-19 20:25:00,5912.99633753022,2,39,0.5501165986061096,4.191397190093994,40.028335200133725,39.26697267775782,159.34868740626888,143.82697183969472,6.47544875391759e-05,0.0873680263757705,0,0,0
13441,455251.1491969595,2010-09-19 20:25:30,5943.0119541821705,2,39,0.5501165986061096,4.195281982421875,40.03292213059928,39.26697267775782,159.36792205314904,143.82697183969472,9.70840483205393e-05,0.0873680263757705,0,0,0
13442,455281.16431261087,2010-09-19 20:26:00,5973.027069833546,2,39,0.5501165986061096,4.199167251586914,40.037508995306254,39.26697267775782,159.38717393950677,143.82697183969472,0.0001295089750783,0.0873680263757705,0,0,0
13443,455287.33626276295,2010-09-19 20:26:06,5979.199019985656,2,39,0.5501165986061096,4.200138568878174,40.038452183728346,39.26697267775782,159.39113487489453,143.82697183969472,0.0001295089750783,0.0873680263757705,0,0,0
13444,455317.3366111607,2010-09-19 20:26:36,30.015146383087018,3,39,0.0,4.123081207275391,40.038452183728346,39.26697267775782,159.39113487489453,143.82697183969472,-0.0003237724304199,0.0873680263757705,0,0,0
13445,455347.35199756286,2010-09-19 20:27:06,60.03053278529869,3,39,0.0,4.113691806793213,40.038452183728346,39.26697267775782,159.39113487489453,143.82697183969472,-0.0001619339018361,0.0873680263757705,0,0,0
13446,455377.3673455442,2010-09-19 20:27:36,90.04588076660588,3,39,0.0,4.108187675476074,40.038452183728346,39.26697267775782,159.39113487489453,143.82697183969472,-6.47544875391759e-05,0.0873680263757705,0,0,0
13447,455407.3358478014,2010-09-19 20:28:06,120.0143830237786,3,39,0.0,4.104626178741455,40.038452183728346,39.26697267775782,159.39113487489453,143.82697183969472,-6.47544875391759e-05,0.0873680263757705,0,0,0
13448,455407.3377953356,2010-09-19 20:28:06,0.015604691711233,4,39,0.9929705858230592,4.199653148651123,40.03845648789503,39.26697267775782,159.39115295090173,143.82697183969472,0.0,0.0873680263757705,0,0,0
13449,455408.290839751,2010-09-19 20:28:07,0.968648921731553,4,39,0.9427611827850342,4.199653148651123,40.03871114264181,39.26697267775782,159.392222402503,143.82697183969472,0.0,0.0873680263757705,0,0,0
13450,455410.3689441093,2010-09-19 20:28:09,3.046753254855389,4,39,0.8927324414253235,4.199653148651123,40.03923967657294,39.26697267775782,159.39444205071044,143.82697183969472,0.0,0.0873680263757705,0,0,0
13451,455413.462724892,2010-09-19 20:28:12,6.140534037655533,4,39,0.8423424363136292,4.199653148651123,40.03998407479894,39.26697267775782,159.397568253528,143.82697183969472,3.24249267578125e-05,0.0873680263757705,0,0,0
13452,455417.69701367326,2010-09-19 20:28:17,10.374822934170291,4,39,0.7923136353492737,4.199653148651123,40.040944273394565,39.26697267775782,159.40160075312588,143.82697183969472,0.0,0.0873680263757705,0,0,0
13453,455423.1344677101,2010-09-19 20:28:22,15.812276860702292,4,39,0.742284893989563,4.199814796447754,40.042101626340354,39.26697267775782,159.40646123792413,143.82697183969472,6.47544875391759e-05,0.0873680263757705,0,0,0
13454,455430.13441556186,2010-09-19 20:28:29,22.81222470744281,4,39,0.6922560930252075,4.199653148651123,40.04349429026152,39.26697267775782,159.4123099444053,143.82697183969472,0.0,0.0873680263757705,0,0,0
13455,455439.4780950683,2010-09-19 20:28:38,32.1559043042055,4,39,0.6420467495918274,4.199653148651123,40.04522274763,39.26697267775782,159.41956887811185,143.82697183969472,0.0,0.0873680263757705,0,0,0
13456,455452.2592126642,2010-09-19 20:28:51,44.937021809825296,4,39,0.5920179486274719,4.199491024017334,40.04740834022518,39.26697267775782,159.42874764180183,143.82697183969472,0.0,0.0873680263757705,0,0,0
13457,455471.1340634807,2010-09-19 20:29:10,63.81187262628639,4,39,0.5418086051940918,4.199653148651123,40.05037224040232,39.26697267775782,159.44119505455907,143.82697183969472,0.0,0.0873680263757705,0,0,0
13458,455501.6962939248,2010-09-19 20:29:41,94.37410307035638,4,39,0.4917798042297363,4.199653148651123,40.05474345309156,39.26697267775782,159.45955272619173,143.82697183969472,0.0,0.0873680263757705,0,0,0
13459,455554.5239818912,2010-09-19 20:30:33,147.20179103685737,4,39,0.4415704309940338,4.199653148651123,40.06156233464744,39.26697267775782,159.48818972365356,143.82697183969472,0.0,0.0873680263757705,0,0,0
13460,455635.8357886905,2010-09-19 20:31:55,228.51359786119968,4,39,0.3915416598320007,4.199491024017334,40.0709430428422,39.26697267775782,159.52758562646463,143.82697183969472,-3.24249267578125e-05,0.0873680263757705,0,0,0
13461,455741.47552004224,2010-09-19 20:33:40,334.1533292129199,4,39,0.3415128886699676,4.199653148651123,40.08168160525117,39.26697267775782,159.5726840874998,143.82697183969472,0.0,0.0873680263757705,0,0,0
13462,455868.5839126804,2010-09-19 20:35:47,461.2617218460696,4,39,0.2914841175079345,4.199491024017334,40.092842930832354,39.26697267775782,159.6195579689274,143.82697183969472,-6.47544875391759e-05,0.0873680263757705,0,0,0
13463,456024.223517684,2010-09-19 20:38:23,616.9013268346757,4,39,0.2414553612470626,4.199653148651123,40.10434460764814,39.26697267775782,159.66786131003033,143.82697183969472,0.0,0.0873680263757705,0,0,0
13464,456218.3152230008,2010-09-19 20:41:37,810.9930321413837,4,39,0.1914265900850296,4.199653148651123,40.115970383155904,39.26697267775782,159.71668574330556,143.82697183969472,0.0,0.0873680263757705,0,0,0
13465,456477.0005403356,2010-09-19 20:45:56,1069.6783495764428,4,39,0.1413978189229965,4.199491024017334,40.12784930882272,39.26697267775782,159.7665733874976,143.82697183969472,-6.47544875391759e-05,0.0873680263757705,0,0,0
13466,456866.85657164257,2010-09-19 20:52:26,1459.5343807932109,4,39,0.0913690477609634,4.199653148651123,40.140262038985455,39.26697267775782,159.81870277558045,143.82697183969472,3.24249267578125e-05,0.0873680263757705,0,0,0
13467,457445.8985207359,2010-09-19 21:02:05,2038.576329881512,4,39,0.0498289167881011,4.199653148651123,40.15130663379146,39.26697267775782,159.86508636274505,143.82697183969472,-3.23295607813634e-05,0.0873680263757705,0,0,0
13468,457475.91754844686,2010-09-19 21:02:35,30.01535102390197,5,39,0.0,4.192206382751465,40.15130663379146,39.26697267775782,159.86508636274505,143.82697183969472,-9.71794142969884e-05,0.0873680263757705,0,0,0
13469,457505.9173007339,2010-09-19 21:03:05,60.015103386144645,5,39,0.0,4.191397190093994,40.15130663379146,39.26697267775782,159.86508636274505,143.82697183969472,-3.23295607813634e-05,0.0873680263757705,0,0,0
13470,457506.1091531227,2010-09-19 21:03:05,0.18767797810689,6,39,-1.9243103452026844e-05,4.191235065460205,40.15130663379146,39.26697267876102,159.86508636274505,143.82697184389934,0.0,0.0883364379405975,0,0,0
13471,457510.9371718502,2010-09-19 21:03:10,5.015696705622881,6,39,0.0007031940040178,4.191397190093994,40.15130749480248,39.26697267901123,159.86508997165407,143.82697184494808,-3.23295607813634e-05,0.0883364379405975,0,0,0
13472,457540.9411868212,2010-09-19 21:03:40,30.01554414095184,7,39,-1.099929690361023,4.032101631164551,40.15130749480248,39.27614218135779,159.86508997165407,143.8641258724676,-0.0008741378551349,0.0883364379405975,0,0,0
13473,457570.9564843816,2010-09-19 21:04:10,60.0308417014008,7,39,-1.0997490882873535,4.008142471313477,40.15130749480248,39.2853116789199,159.86508997165407,143.90098048281135,-0.0005503654247149,0.0883364379405975,0,0,0
13474,457600.9717834959,2010-09-19 21:04:40,90.04614081572849,7,39,-1.0997490882873535,3.9917919635772714,40.15130749480248,39.29448112702944,159.86508997165407,143.93765424695624,-0.0003885269106831,0.0883364379405975,0,0,0
13475,457630.9872717273,2010-09-19 21:05:10,120.06162903709644,7,39,-1.099929690361023,3.9788410663604736,40.15130749480248,39.30365057484775,159.86508997165407,143.97419543262612,-0.0002913951757363,0.0883364379405975,0,0,0
13476,457661.0026128114,2010-09-19 21:05:40,150.07697024649994,7,39,-1.0997490882873535,3.9676709175109854,40.15130749480248,39.312819916335805,159.86508997165407,144.01062720224053,-0.0003237724304199,0.0883364379405975,0,0,0
13477,457691.018128376,2010-09-19 21:06:10,180.09248569082055,7,39,-1.0997490882873535,3.9579577445983887,40.15130749480248,39.32198927313529,159.86508997165407,144.04696355845658,-0.0002266406954731,0.0883364379405975,0,0,0
13478,457721.0332656564,2010-09-19 21:06:40,210.10762297619823,7,39,-1.0997490882873535,3.948730230331421,40.15130749480248,39.33115852873768,159.86508997165407,144.08321149606726,-0.0002266406954731,0.0883364379405975,0,0,0
13479,457751.0486339182,2010-09-19 21:07:10,240.12299123812903,7,39,-1.0997490882873535,3.939826488494873,40.15130749480248,39.34032784370712,159.86508997165407,144.1193767419704,-0.0001942634553415,0.0883364379405975,0,0,0
13480,457781.0640216138,2010-09-19 21:07:40,270.1383789335688,7,39,-1.099929690361023,3.931246519088745,40.15130749480248,39.34949725219183,159.86508997165407,144.1554627784511,-0.0002266406954731,0.0883364379405975,0,0,0
13481,457811.079377184,2010-09-19 21:08:10,300.1537345038191,7,39,-1.1001102924346924,3.922828435897827,40.15130749480248,39.35866659677564,159.86508997165407,144.19147170850223,-0.0002590179501567,0.0883364379405975,0,0,0
13482,457841.0947496565,2010-09-19 21:08:40,330.1691069812725,7,39,-1.0997490882873535,3.914896011352539,40.15130749480248,39.36783598097757,159.86508997165407,144.22740572305696,-0.0002266406954731,0.0883364379405975,0,0,0
13483,457871.1101404897,2010-09-19 21:09:10,360.1844978295823,7,39,-1.099929690361023,3.90680193901062,40.15130749480248,39.37700531836718,159.86508997165407,144.26326600017146,-0.0002266406954731,0.0883364379405975,0,0,0
13484,457901.125552957,2010-09-19 21:09:40,390.1999102768063,7,39,-1.099568486213684,3.899193286895752,40.15130749480248,39.3861747151927,159.86508997165407,144.2990540005778,-0.0001618862152099,0.0883364379405975,0,0,0
13485,457931.140986156,2010-09-19 21:10:10,420.21534347583,7,39,-1.099929690361023,3.891422748565674,40.15130749480248,39.39534414504848,159.86508997165407,144.33477108874013,-0.0002266406954731,0.0883364379405975,0,0,0
13486,457961.1562377968,2010-09-19 21:10:40,450.23059511665656,7,39,-1.099929690361023,3.883652210235596,40.15130749480248,39.404513543822446,159.86508997165407,144.37041802198473,-0.0002590179501567,0.0883364379405975,0,0,0
13487,457991.1716391314,2010-09-19 21:11:10,480.2459964762041,7,39,-1.0997490882873535,3.8762054443359375,40.15130749480248,39.4136829424237,159.86508997165407,144.40599561191272,-0.0002266406954731,0.0883364379405975,0,0,0
13488,458021.18699965393,2010-09-19 21:11:40,510.26135697876623,7,39,-1.0997490882873535,3.8687586784362793,40.15130749480248,39.42285234076039,159.86508997165407,144.44150446562713,-0.0002266406954731,0.0883364379405975,0,0,0
13489,458051.2023340664,2010-09-19 21:12:10,540.2766913861909,7,39,-1.0997490882873535,3.861473798751831,40.15130749480248,39.4320217944836,159.86508997165407,144.47694600357812,-0.0001942634553415,0.0883364379405975,0,0,0
13490,458081.2177327643,2010-09-19 21:12:40,570.2920900840945,7,39,-1.099929690361023,3.8543508052825928,40.15130749480248,39.44119126356679,159.86508997165407,144.51232101939868,-0.0001618862152099,0.0883364379405975,0,0,0
13491,458111.23312157247,2010-09-19 21:13:10,600.3074788923119,7,39,-1.099929690361023,3.847065925598145,40.15130749480248,39.45036065948005,159.86508997165407,144.5476300652298,-0.0001942634553415,0.0883364379405975,0,0,0
13492,458141.24850443087,2010-09-19 21:13:40,630.3228617506777,7,39,-1.0997490882873535,3.840266704559326,40.15130749480248,39.45953012545636,159.86508997165407,144.58287486697918,-0.0001618862152099,0.0883364379405975,0,0,0
13493,458171.2639917099,2010-09-19 21:14:10,660.3383490347059,7,39,-1.0997490882873535,3.833305597305298,40.15130749480248,39.46869958527021,159.86508997165407,144.6180558258406,-0.0001942634553415,0.0883364379405975,0,0,0
13494,458201.2792529046,2010-09-19 21:14:40,690.3536102243677,7,39,-1.0997490882873535,3.8265066146850586,40.15130749480248,39.477868977514426,159.86508997165407,144.65317382014018,-0.0001618862152099,0.0883364379405975,0,0,0
13495,458231.2946308807,2010-09-19 21:15:10,720.3689882005467,7,39,-1.0997490882873535,3.81986927986145,40.15130749480248,39.487038447750585,159.86508997165407,144.6882305173273,-0.0001942634553415,0.0883364379405975,0,0,0
13496,458261.3126332779,2010-09-19 21:15:40,750.3869906929219,7,39,-1.099929690361023,3.813231945037842,40.15130749480248,39.49620869355117,159.86508997165407,144.72322956846293,-0.0001618862152099,0.0883364379405975,0,0,0
13497,458291.32543477777,2010-09-19 21:16:11,780.3997922128699,7,39,-1.0997490882873535,3.8067564964294434,40.15130749480248,39.50537728780195,159.86508997165407,144.75816202930486,-0.0002266406954731,0.0883364379405975,0,0,0
13498,458321.3407381378,2010-09-19 21:16:41,810.4150954575074,7,39,-1.0997490882873535,3.800442934036255,40.15130749480248,39.514546729009645,159.86508997165407,144.79303909797326,-0.0001942634553415,0.0883364379405975,0,0,0
13499,458351.3561234472,2010-09-19 21:17:11,840.430480772004,7,39,-1.0997490882873535,3.7941293716430655,40.15130749480248,39.52371621253159,159.86508997165407,144.82785896934345,-0.0001942634553415,0.0883364379405975,0,0,0
13500,458381.3714771227,2010-09-19 21:17:41,870.4458344475247,7,39,-1.0997490882873535,3.788301467895508,40.15130749480248,39.53288617487792,159.86508997165407,144.86262423050616,-0.0001295089750783,0.0883364379405975,0,0,0
13501,458411.3869398104,2010-09-19 21:18:11,900.4612972504444,7,39,-1.099929690361023,3.782149791717529,40.15130749480248,39.54205655941146,159.86508997165407,144.89733567345934,-0.0001618862152099,0.0883364379405975,0,0,0
13502,458441.40221661393,2010-09-19 21:18:41,930.4765739387934,7,39,-1.099929690361023,3.7761600017547607,40.15130749480248,39.55122673553197,159.86508997165407,144.93199204887324,-0.0001618862152099,0.0883364379405975,0,0,0
13503,458471.4175795727,2010-09-19 21:19:11,960.491936892474,7,39,-1.099929690361023,3.770493984222412,40.15130749480248,39.56039706164805,159.86508997165407,144.96659576368256,-0.0001618862152099,0.0883364379405975,0,0,0
13504,458501.4329840499,2010-09-19 21:19:41,990.5073413948664,7,39,-1.099929690361023,3.7649898529052734,40.15130749480248,39.56956734333495,159.86508997165407,145.0011473778943,-0.0001618862152099,0.0883364379405975,0,0,0
13505,458531.4483339562,2010-09-19 21:20:11,1020.5226913861908,7,39,-1.1001102924346924,3.759161949157715,40.15130749480248,39.57873759398295,159.86508997165407,145.0356477239349,-0.0001942634553415,0.0883364379405975,0,0,0
13506,458561.46373797226,2010-09-19 21:20:41,1050.5380952920943,7,39,-1.099568486213684,3.754143476486206,40.15130749480248,39.58790748978031,159.86508997165407,145.07009664316885,-9.713172767078504e-05,0.0883364379405975,0,0,0
13507,458591.4792168202,2010-09-19 21:21:11,1080.5535741400652,7,39,-1.099568486213684,3.748801469802856,40.15130749480248,39.597076930468745,159.86508997165407,145.10449482563922,-9.713172767078504e-05,0.0883364379405975,0,0,0
13508,458621.4944725864,2010-09-19 21:21:41,1110.568829906189,7,39,-1.0997490882873535,3.743459224700928,40.15130749480248,39.606246324089845,159.86508997165407,145.13884439114028,-0.0001295089750783,0.0883364379405975,0,0,0
13509,458651.51007250656,2010-09-19 21:22:11,1140.5844298313868,7,39,-1.099929690361023,3.738278865814209,40.15130749480248,39.61541583229802,159.86508997165407,145.17314681171803,-0.0001618862152099,0.0883364379405975,0,0,0
13510,458681.5252044286,2010-09-19 21:22:41,1170.5995617483643,7,39,-1.099929690361023,3.7332603931427,40.15130749480248,39.62458513176456,159.86508997165407,145.20740187880773,-0.0001295089750783,0.0883364379405975,0,0,0
13511,458711.540597332,2010-09-19 21:23:11,1200.6149546768663,7,39,-1.099929690361023,3.728403806686402,40.15130749480248,39.63375454378793,159.86508997165407,145.24161148180767,-0.0001295089750783,0.0883364379405975,0,0,0
13512,458741.55615000427,2010-09-19 21:23:41,1230.630507334076,7,39,-1.099568486213684,3.723547220230103,40.15130749480248,39.64292392366948,159.86508997165407,145.27577634035094,-0.0001295089750783,0.0883364379405975,0,0,0
13513,458771.5713238559,2010-09-19 21:24:11,1260.645681175704,7,39,-1.0997490882873535,3.718690633773804,40.15130749480248,39.65209329267319,159.86508997165407,145.3098968995196,-0.0001618862152099,0.0883364379405975,0,0,0
13514,458801.5867079523,2010-09-19 21:24:41,1290.6610652721602,7,39,-1.0997490882873535,3.713995933532715,40.15130749480248,39.661262688844936,159.86508997165407,145.3439739114051,-9.713172767078504e-05,0.0883364379405975,0,0,0
13515,458831.6022437575,2010-09-19 21:25:11,1320.6766010873291,7,39,-1.0997490882873535,3.709301233291626,40.15130749480248,39.67043213827787,159.86508997165407,145.37800822490107,-0.0001295089750783,0.0883364379405975,0,0,0
13516,458861.6174753182,2010-09-19 21:25:41,1350.691832658058,7,39,-1.099929690361023,3.704768419265747,40.15130749480248,39.67960149533085,159.86508997165407,145.4119996798373,-0.0001295089750783,0.0883364379405975,0,0,0
13517,458891.6328423169,2010-09-19 21:26:11,1380.707199661848,7,39,-1.099929690361023,3.700235605239868,40.15130749480248,39.688770882299394,159.86508997165407,145.44594950524177,-0.0001618862152099,0.0883364379405975,0,0,0
13518,458921.6482111052,2010-09-19 21:26:41,1410.7225685353053,7,39,-1.0997490882873535,3.695864677429199,40.15130749480248,39.69794017782326,159.86508997165407,145.47985783838843,-0.0001295089750783,0.0883364379405975,0,0,0
13519,458951.6635433171,2010-09-19 21:27:11,1440.7379006469996,7,39,-1.1001102924346924,3.6914937496185294,40.15130749480248,39.707109430228925,159.86508997165407,145.51372542737076,-9.713172767078504e-05,0.0883364379405975,0,0,0
13520,458981.679007694,2010-09-19 21:27:41,1470.753365013823,7,39,-1.0997490882873535,3.6872847080230713,40.15130749480248,39.71627889153973,159.86508997165407,145.54755369367928,-6.47544875391759e-05,0.0883364379405975,0,0,0
13521,459011.6943552794,2010-09-19 21:28:11,1500.7687125991415,7,39,-1.0997490882873535,3.682751893997192,40.15130749480248,39.72544820489739,159.86508997165407,145.58134227829797,-0.0001295089750783,0.0883364379405975,0,0,0
13522,459041.7097247994,2010-09-19 21:28:41,1530.7840821192133,7,39,-1.0997490882873535,3.678542852401733,40.15130749480248,39.73461755021817,159.86508997165407,145.61509245305598,-0.0001295089750783,0.0883364379405975,0,0,0
13523,459071.7251376677,2010-09-19 21:29:11,1560.799494987488,7,39,-1.0993878841400146,3.674819469451904,40.15130749480248,39.74378696523395,159.86508997165407,145.64880484952764,-6.47544875391759e-05,0.0883364379405975,0,0,0
13524,459101.7404943507,2010-09-19 21:29:41,1590.8148516805409,7,39,-1.099929690361023,3.6704487800598153,40.15130749480248,39.75295638701657,159.86508997165407,145.68247996096778,-0.0001295089750783,0.0883364379405975,0,0,0
13525,459131.7558750837,2010-09-19 21:30:11,1620.830232433652,7,39,-1.0997490882873535,3.666725397109986,40.15130749480248,39.762125882000745,159.86508997165407,145.7161186432,-6.47544875391759e-05,0.0883364379405975,0,0,0
13526,459161.77125946095,2010-09-19 21:30:41,1650.845617687998,7,39,-1.0997490882873535,3.662678241729736,40.15130749480248,39.77129531387647,159.86508997165407,145.74972120459117,-0.0001295089750783,0.0883364379405975,0,0,0
13527,459191.7866220236,2010-09-19 21:31:11,1680.860979363488,7,39,-1.0997490882873535,3.658792972564697,40.15130749480248,39.78046472046204,159.86508997165407,145.78328812373067,-9.713172767078504e-05,0.0883364379405975,0,0,0
13528,459221.8019942404,2010-09-19 21:31:41,1710.8763515802907,7,39,-1.0997490882873535,3.655069589614868,40.15130749480248,39.78963411756455,159.86508997165407,145.81682029400892,-9.713172767078504e-05,0.0883364379405975,0,0,0
13529,459251.817333921,2010-09-19 21:32:11,1740.891691260878,7,39,-1.0997490882873535,3.651508092880249,40.15130749480248,39.7988035109759,159.86508997165407,145.8503185003233,-6.47544875391759e-05,0.0883364379405975,0,0,0
13530,459281.8326278524,2010-09-19 21:32:41,1770.9069851972813,7,39,-1.0997490882873535,3.64778470993042,40.15130749480248,39.80797287324874,159.86508997165407,145.8837833512718,-0.0001295089750783,0.0883364379405975,0,0,0
13531,459311.8480791968,2010-09-19 21:33:11,1800.922436521548,7,39,-1.0997490882873535,3.644223213195801,40.15130749480248,39.81714159322605,159.86508997165407,145.91721269046374,-0.0001295089750783,0.0883364379405975,0,0,0
13532,459341.86349005497,2010-09-19 21:33:41,1830.9378473798056,7,39,-1.099568486213684,3.640823602676392,40.15130749480248,39.82631025895508,159.86508997165407,145.95061026804325,-9.713172767078504e-05,0.0883364379405975,0,0,0
13533,459371.87925630034,2010-09-19 21:34:11,1860.953613620152,7,39,-1.0997490882873535,3.6374239921569824,40.15130749480248,39.8354790784542,159.86508997165407,145.98397701447342,-9.713172767078504e-05,0.0883364379405975,0,0,0
13534,459401.89414160175,2010-09-19 21:34:41,1890.9684989466016,7,39,-1.099929690361023,3.634186267852783,40.15130749480248,39.8446477038241,159.86508997165407,146.0173124560594,-9.713172767078504e-05,0.0883364379405975,0,0,0
13535,459431.9095842343,2010-09-19 21:35:11,1920.9839415791728,7,39,-1.0997490882873535,3.631110429763794,40.15130749480248,39.853817148972034,159.86508997165407,146.0506212641585,-6.47544875391759e-05,0.0883364379405975,0,0,0
13536,459461.9249787167,2010-09-19 21:35:41,1950.999336061553,7,39,-1.099929690361023,3.6277108192443848,40.15130749480248,39.86298657045314,159.86508997165407,146.08390084903658,-6.47544875391759e-05,0.0883364379405975,0,0,0
13537,459491.94034121424,2010-09-19 21:36:11,1981.0146985390456,7,39,-1.099568486213684,3.6247968673706055,40.15130749480248,39.87215603859596,159.86508997165407,146.11715212595473,-9.713172767078504e-05,0.0883364379405975,0,0,0
13538,459521.9557092806,2010-09-19 21:36:41,2011.0300666004755,7,39,-1.0997490882873535,3.621882915496826,40.15130749480248,39.881325491568525,159.86508997165407,146.15037595677035,-9.713172767078504e-05,0.0883364379405975,0,0,0
13539,459551.97123729135,2010-09-19 21:37:11,2041.045594611164,7,39,-1.0997490882873535,3.618968963623047,40.15130749480248,39.89049496764732,159.86508997165407,146.18357285459518,-9.713172767078504e-05,0.0883364379405975,0,0,0
13540,459581.9864775688,2010-09-19 21:37:41,2071.060834888626,7,39,-1.099929690361023,3.616055011749268,40.15130749480248,39.89966442440403,159.86508997165407,146.21674295972633,-6.47544875391759e-05,0.0883364379405975,0,0,0
13541,459612.0022436337,2010-09-19 21:38:11,2101.076600963559,7,39,-1.0997490882873535,3.613141059875488,40.15130749480248,39.90883400899893,159.86508997165407,146.24988708892246,-6.47544875391759e-05,0.0883364379405975,0,0,0
13542,459642.0172203382,2010-09-19 21:38:41,2131.0915776881525,7,39,-1.099568486213684,3.610550880432129,40.15130749480248,39.91800334571603,159.86508997165407,146.28300458837847,-3.237724376958795e-05,0.0883364379405975,0,0,0
13543,459672.0325933671,2010-09-19 21:39:11,2161.1069507019447,7,39,-1.0997490882873535,3.6076369285583496,40.15130749480248,39.9271727631368,159.86508997165407,146.31609688096333,-6.47544875391759e-05,0.0883364379405975,0,0,0
13544,459702.04798761394,2010-09-19 21:39:41,2191.1223449337,7,39,-1.099929690361023,3.6047229766845694,40.15130749480248,39.93634224255048,159.86508997165407,146.34916406884247,-9.713172767078504e-05,0.0883364379405975,0,0,0
13545,459732.06333816657,2010-09-19 21:40:11,2221.137695486426,7,39,-1.099929690361023,3.602132797241211,40.15130749480248,39.94551166674784,159.86508997165407,146.38220622188683,-6.47544875391759e-05,0.0883364379405975,0,0,0
13546,459762.07873733074,2010-09-19 21:40:41,2251.153094675555,7,39,-1.0997490882873535,3.599542617797852,40.15130749480248,39.95468110122172,159.86508997165407,146.41522328860412,-3.237724376958795e-05,0.0883364379405975,0,0,0
13547,459792.0941007807,2010-09-19 21:41:11,2281.1684581104373,7,39,-1.099929690361023,3.5967905521392822,40.15130749480248,39.96385064677818,159.86508997165407,146.4482156958306,-3.237724376958795e-05,0.0883364379405975,0,0,0
13548,459822.1094931528,2010-09-19 21:41:41,2311.1838504725256,7,39,-1.099568486213684,3.594038486480713,40.15130749480248,39.97302017160824,159.86508997165407,146.48118278478637,-3.237724376958795e-05,0.0883364379405975,0,0,0
13549,459852.12485124427,2010-09-19 21:42:11,2341.199208589132,7,39,-1.0997490882873535,3.5911247730255127,40.15130749480248,39.98218964396704,159.86508997165407,146.51412441743747,-6.47544875391759e-05,0.0883364379405975,0,0,0
13550,459882.1402253959,2010-09-19 21:42:41,2371.214582745777,7,39,-1.0997490882873535,3.588372707366944,40.15130749480248,39.9913591427212,159.86508997165407,146.5470405548413,-6.47544875391759e-05,0.0883364379405975,0,0,0
13551,459912.1556173169,2010-09-19 21:43:11,2401.2299746667645,7,39,-1.0997490882873535,3.585458755493164,40.15130749480248,40.000528580483326,159.86508997165407,146.57993054620283,-9.713172767078504e-05,0.0883364379405975,0,0,0
13552,459942.17099846096,2010-09-19 21:43:41,2431.2453557908007,7,39,-1.099929690361023,3.5827066898345947,40.15130749480248,40.00969805044393,159.86508997165407,146.61279428258078,-6.47544875391759e-05,0.0883364379405975,0,0,0
13553,459972.18637575547,2010-09-19 21:44:11,2461.260733105328,7,39,-1.0997490882873535,3.579630851745605,40.15130749480248,40.01886747772343,159.86508997165407,146.64563112491666,-6.47544875391759e-05,0.0883364379405975,0,0,0
13554,460002.201731446,2010-09-19 21:44:41,2491.276088775829,7,39,-1.0997490882873535,3.576555013656616,40.15130749480248,40.02803691431547,159.86508997165407,146.67844028298208,-6.47544875391759e-05,0.0883364379405975,0,0,0
13555,460032.2171221289,2010-09-19 21:45:11,2521.291479468751,7,39,-1.0997490882873535,3.573479175567627,40.15130749480248,40.03720632255449,159.86508997165407,146.71122100779397,-6.47544875391759e-05,0.0883364379405975,0,0,0
13556,460062.23249561386,2010-09-19 21:45:41,2551.3068529637444,7,39,-1.0997490882873535,3.570241451263428,40.15130749480248,40.04637578143952,159.86508997165407,146.7439731543847,-0.0001295089750783,0.0883364379405975,0,0,0
13557,460092.24785304366,2010-09-19 21:46:11,2581.322210363561,7,39,-1.099929690361023,3.5670037269592285,40.15130749480248,40.05554530229189,159.86508997165407,146.77669554665147,-6.47544875391759e-05,0.0883364379405975,0,0,0
13558,460122.2632304736,2010-09-19 21:46:41,2611.337587808414,7,39,-1.0997490882873535,3.5632803440093994,40.15130749480248,40.064714755209714,159.86508997165407,146.80938667388585,-0.0001618862152099,0.0883364379405975,0,0,0
13559,460152.2786135224,2010-09-19 21:47:11,2641.3529708722926,7,39,-1.099929690361023,3.5598807334899902,40.15130749480248,40.07388416607692,159.86508997165407,146.84204624510795,-0.0001618862152099,0.0883364379405975,0,0,0
13560,460182.2942135077,2010-09-19 21:47:41,2671.3685708526286,7,39,-1.0997490882873535,3.556319236755371,40.15130749480248,40.08305368660593,159.86508997165407,146.87467259998505,-6.47544875391759e-05,0.0883364379405975,0,0,0
13561,460212.30940866255,2010-09-19 21:48:12,2701.3837661077077,7,39,-1.0997490882873535,3.552433967590332,40.15130749480248,40.09222314970352,159.86508997165407,146.9072635374473,-6.47544875391759e-05,0.0883364379405975,0,0,0
13562,460242.324731862,2010-09-19 21:48:42,2731.39908919688,7,39,-1.0997490882873535,3.548386812210083,40.15130749480248,40.10139265038082,159.86508997165407,146.93981879189397,-9.713172767078504e-05,0.0883364379405975,0,0,0
13563,460272.34010794846,2010-09-19 21:49:12,2761.414465298379,7,39,-1.099929690361023,3.544177770614624,40.15130749480248,40.11056211963287,159.86508997165407,146.9723363368859,-0.0001295089750783,0.0883364379405975,0,0,0
13564,460302.3555002855,2010-09-19 21:49:42,2791.4298576103424,7,39,-1.0997490882873535,3.539968729019165,40.15130749480248,40.11973158588034,159.86508997165407,147.00481502154193,-6.47544875391759e-05,0.0883364379405975,0,0,0
13565,460332.3709986172,2010-09-19 21:50:12,2821.445355941948,7,39,-1.0997490882873535,3.535274028778076,40.15130749480248,40.12890115875248,159.86508997165407,147.03725373194013,-0.0001295089750783,0.0883364379405975,0,0,0
13566,460362.3863873151,2010-09-19 21:50:42,2851.460744634877,7,39,-1.0997490882873535,3.5305793285369877,40.15130749480248,40.13807067890748,159.86508997165407,147.0696500633731,-0.0001942634553415,0.0883364379405975,0,0,0
13567,460392.4016303795,2010-09-19 21:51:12,2881.4759877293704,7,39,-1.0997490882873535,3.5257227420806885,40.15130749480248,40.1472401148471,159.86508997165407,147.1020020252393,-0.0001295089750783,0.0883364379405975,0,0,0
13568,460422.4171271021,2010-09-19 21:51:42,2911.491484421884,7,39,-1.099929690361023,3.52038049697876,40.15130749480248,40.1564096782155,159.86508997165407,147.13430732011412,-0.0001618862152099,0.0883364379405975,0,0,0
13569,460452.4324888528,2010-09-19 21:52:12,2941.5068461825867,7,39,-1.0997490882873535,3.514714479446411,40.15130749480248,40.16557920599264,159.86508997165407,147.16656227140862,-0.0001618862152099,0.0883364379405975,0,0,0
13570,460482.447740689,2010-09-19 21:52:42,2971.522098008876,7,39,-1.0997490882873535,3.508563041687012,40.15130749480248,40.174748678832174,159.86508997165407,147.19876268440294,-0.0001618862152099,0.0883364379405975,0,0,0
13571,460512.46312080056,2010-09-19 21:53:12,3001.537478120385,7,39,-1.099568486213684,3.5019257068634038,40.15130749480248,40.18391821919166,159.86508997165407,147.23090469332385,-0.0001942634553415,0.0883364379405975,0,0,0
13572,460542.478506466,2010-09-19 21:53:42,3031.5528637957823,7,39,-1.0997490882873535,3.494317054748535,40.15130749480248,40.19308771270204,159.86508997165407,147.26298139614656,-0.0002266406954731,0.0883364379405975,0,0,0
13573,460572.49400644674,2010-09-19 21:54:12,3061.5683637915413,7,39,-1.0997490882873535,3.485898971557617,40.15130749480248,40.20225718498852,159.86508997165407,147.2949847542335,-0.0001942634553415,0.0883364379405975,0,0,0
13574,460602.50939158566,2010-09-19 21:54:42,3091.583748935612,7,39,-1.0997490882873535,3.4757001399993896,40.15130749480248,40.21142667130222,159.86508997165407,147.32690293834457,-0.0002590179501567,0.0883364379405975,0,0,0
13575,460632.5248054915,2010-09-19 21:55:12,3121.5991628164147,7,39,-1.0997490882873535,3.4637205600738525,40.15130749480248,40.220596181714726,159.86508997165407,147.3587207828728,-0.0003561496851034,0.0883364379405975,0,0,0
13576,460662.540009694,2010-09-19 21:55:42,3151.614367028853,7,39,-1.0997490882873535,3.448827028274536,40.15130749480248,40.22976557150873,159.86508997165407,147.3904154831476,-0.0004209041653666,0.0883364379405975,0,0,0
13577,460692.5555295293,2010-09-19 21:56:12,3181.6298868791714,7,39,-1.0997490882873535,3.42875337600708,40.15130749480248,40.2389351329551,159.86508997165407,147.42195252785882,-0.0006474971887655,0.0883364379405975,0,0,0
13578,460722.57077550096,2010-09-19 21:56:42,3211.645132815759,7,39,-1.0997490882873535,3.4012327194213867,40.15130749480248,40.24810462217284,159.86508997165407,147.45327429399367,-0.0008418083307333,0.0883364379405975,0,0,0
13579,460752.5862786146,2010-09-19 21:57:12,3241.660635964388,7,39,-1.099929690361023,3.361732482910156,40.15130749480248,40.25727414598248,159.86508997165407,147.48429260777218,-0.0012303352123126,0.0883364379405975,0,0,0
13580,460782.6015232428,2010-09-19 21:57:42,3271.67588059271,7,39,-1.0997490882873535,3.304748773574829,40.15130749480248,40.26644363314092,159.86508997165407,147.51487340583512,-0.0017807483673095,0.0883364379405975,0,0,0
13581,460812.61701975,2010-09-19 21:58:12,3301.691377184973,7,39,-1.099929690361023,3.222510814666748,40.15130749480248,40.27561312984913,159.86508997165407,147.5448242200015,-0.0025901794433593,0.0883364379405975,0,0,0
13582,460842.632266293,2010-09-19 21:58:42,3331.706623612787,7,39,-1.0997490882873535,3.095916271209717,40.15130749480248,40.28478259625557,159.86508997165407,147.57384119001955,-0.0041766166687011,0.0883364379405975,0,0,0
13583,460866.4294497389,2010-09-19 21:59:06,3355.5038070587734,7,39,-1.099929690361023,2.895501613616944,40.15130749480248,40.29205248112331,159.86508997165407,147.59573863728394,-0.0101017002016305,0.0883364379405975,0,0,0
13584,460878.0226297549,2010-09-19 21:59:17,3367.0969870746594,7,39,-1.099929690361023,2.699781894683838,40.15130749480248,40.29559410961952,159.86508997165407,147.60566110934607,-0.0143754482269287,0.0883364379405975,0,0,0
13585,460938.0387320216,2010-09-19 22:00:17,60.01511062421198,8,39,0.0,3.3366403579711914,40.15130749480248,40.29559410961952,159.86508997165407,147.60566110934607,0.0013598442310467,0.0883364379405975,0,0,0
13586,460938.2276304512,2010-09-19 22:00:18,0.187395573180747,9,39,-1.9243103452026844e-05,3.3368022441864014,40.15130749480248,40.29559411062121,159.86508997165407,147.60566111268852,0.0,0.088097482919693,0,0,0
13587,460943.0556215446,2010-09-19 22:00:23,5.015386787018365,9,39,0.0007031940040178,3.34522032737732,40.15130827879046,40.295594110704926,159.8650925914391,147.60566111296788,0.0012303352123126,0.088097482919693,0,0,0
