Data_Point,Test_Time(s),Date_Time,Step_Time(s),Step_Index,Cycle_Index,Current(A),Voltage(V),Charge_Capacity(Ah),Discharge_Capacity(Ah),Charge_Energy(Wh),Discharge_Energy(Wh),dV/dt(V/s),Internal_Resistance(Ohm),Is_FC_Data,AC_Impedance(Ohm),ACI_Phase_Angle(Deg)
4923,167851.0519405058,2010-09-16 12:35:01,30.0153625627046,1,15,0.0,3.417421340942383,14.555097491382552,14.676533146435943,57.967456369180944,53.74381055796412,0.0006475448608398,0.0899572893977165,0,0,0
4924,167881.0671987331,2010-09-16 12:35:31,60.03062078997189,1,15,0.0,3.437009334564209,14.555097491382552,14.676533146435943,57.967456369180944,53.74381055796412,0.0004209041653666,0.0899572893977165,0,0,0
4925,167911.08236097574,2010-09-16 12:36:01,90.04578303264688,1,15,0.0,3.451579093933105,14.555097491382552,14.676533146435943,57.967456369180944,53.74381055796412,0.0003885269106831,0.0899572893977165,0,0,0
4926,167941.0507440855,2010-09-16 12:36:31,120.01416614240932,1,15,0.0,3.4627492427825928,14.555097491382552,14.676533146435943,57.967456369180944,53.74381055796412,0.0002913951757363,0.0899572893977165,0,0,0
4927,167971.0720728738,2010-09-16 12:37:01,30.01527304926528,2,15,0.550297200679779,3.60488486289978,14.559684130702284,14.676533146435943,57.983844878062406,53.74381055796412,0.0014569759368896,0.0899572893977165,0,0,0
4928,168001.08738321112,2010-09-16 12:37:31,60.03058338660734,2,15,0.5501165986061096,3.64875602722168,14.564270761922693,14.676533146435943,58.0004855099959,53.74381055796412,0.0010360718006268,0.0899572893977165,0,0,0
4929,168031.10259818545,2010-09-16 12:38:01,90.04579836090858,2,15,0.5499359965324402,3.6811330318450928,14.568857387097722,14.676533146435943,58.01729829443125,53.74381055796412,0.0007770538213662,0.0899572893977165,0,0,0
4930,168061.11785630745,2010-09-16 12:38:31,120.06105648291312,2,15,0.5501165986061096,3.706872940063477,14.573443929089818,14.676533146435943,58.03424286956254,53.74381055796412,0.0006151676061563,0.0899572893977165,0,0,0
4931,168091.13312371264,2010-09-16 12:39:01,150.0763238880899,2,15,0.5501165986061096,3.728080034255981,14.578030498025422,14.676533146435943,58.0512943603708,53.74381055796412,0.0005180359003134,0.0899572893977165,0,0,0
4932,168121.1484117493,2010-09-16 12:39:31,180.0916119498286,2,15,0.5501165986061096,3.745239973068237,14.582617068031633,14.676533146435943,58.06843345481467,53.74381055796412,0.0004532813909463,0.0899572893977165,0,0,0
4933,168151.16404561925,2010-09-16 12:40:01,210.1072458197578,2,15,0.5501165986061096,3.758190631866455,14.587203647122475,14.676533146435943,58.08564220332647,53.74381055796412,0.0002913951757363,0.0899572893977165,0,0,0
4934,168181.17907820825,2010-09-16 12:40:31,240.1222783887473,2,15,0.5501165986061096,3.765961170196533,14.59179014203444,14.676533146435943,58.10289817699677,53.74381055796412,0.0001618862152099,0.0899572893977165,0,0,0
4935,168211.19419122307,2010-09-16 12:41:01,270.1373913985294,2,15,0.5499359965324402,3.770332098007202,14.59637665162364,14.676533146435943,58.12018156191981,53.74381055796412,9.713172767078504e-05,0.0899572893977165,0,0,0
4936,168241.2094526433,2010-09-16 12:41:31,300.15265281876685,2,15,0.5501165986061096,3.773893594741821,14.600963258618403,14.676533146435943,58.13748298790792,53.74381055796412,6.47544875391759e-05,0.0899572893977165,0,0,0
4937,168271.22472211864,2010-09-16 12:42:01,330.1679223893488,2,15,0.5499359965324402,3.7768075466156006,14.6055498353567,14.676533146435943,58.15479889733444,53.74381055796412,6.47544875391759e-05,0.0899572893977165,0,0,0
4938,168301.23998872182,2010-09-16 12:42:31,360.1831888972859,2,15,0.5501165986061096,3.77988338470459,14.610136360474751,14.676533146435943,58.17212831519512,53.74381055796412,6.47544875391759e-05,0.0899572893977165,0,0,0
4939,168331.25530324463,2010-09-16 12:43:01,390.198503425088,2,15,0.5501165986061096,3.782959222793579,14.614722972392588,14.676533146435943,58.189471740297165,53.74381055796412,0.0001295089750783,0.0899572893977165,0,0,0
4940,168361.2705344845,2010-09-16 12:43:31,420.2137346599782,2,15,0.5501165986061096,3.7858731746673584,14.619309471080198,14.676533146435943,58.206828737309024,53.74381055796412,9.713172767078504e-05,0.0899572893977165,0,0,0
4941,168391.2863044642,2010-09-16 12:44:01,450.2295046597083,2,15,0.5501165986061096,3.7887871265411377,14.623896081646192,14.676533146435943,58.224199999543416,53.74381055796412,3.237724376958795e-05,0.0899572893977165,0,0,0
4942,168421.30107117957,2010-09-16 12:44:31,480.24427136506125,2,15,0.5499359965324402,3.791862964630127,14.628482657616564,14.676533146435943,58.241584914605546,53.74381055796412,0.0001295089750783,0.0899572893977165,0,0,0
4943,168451.3166955558,2010-09-16 12:45:01,510.2598957312677,2,15,0.5501165986061096,3.794776916503906,14.63306934409815,14.676533146435943,58.258983893515584,53.74381055796412,6.47544875391759e-05,0.0899572893977165,0,0,0
4944,168481.3315917995,2010-09-16 12:45:31,540.2747919749683,2,15,0.5501165986061096,3.7976908683776855,14.637655856728808,14.676533146435943,58.27639569450313,53.74381055796412,3.237724376958795e-05,0.0899572893977165,0,0,0
4945,168511.34699219666,2010-09-16 12:46:01,570.2901923721134,2,15,0.5501165986061096,3.800766706466675,14.642242458732484,14.676533146435943,58.29382121579194,53.74381055796412,9.713172767078504e-05,0.0899572893977165,0,0,0
4946,168541.362123071,2010-09-16 12:46:31,600.3053232464883,2,15,0.5501165986061096,3.803518772125244,14.646829080034871,14.676533146435943,58.31126003232277,53.74381055796412,6.47544875391759e-05,0.0899572893977165,0,0,0
4947,168571.37738391483,2010-09-16 12:47:01,630.3205840902868,2,15,0.5501165986061096,3.8062708377838135,14.651415679799202,14.676533146435943,58.32871201092512,53.74381055796412,6.47544875391759e-05,0.0899572893977165,0,0,0
4948,168601.39268415695,2010-09-16 12:47:31,660.3358844477176,2,15,0.550297200679779,3.8093466758728023,14.65600225298191,14.676533146435943,58.34617707466685,53.74381055796412,6.47544875391759e-05,0.0899572893977165,0,0,0
4949,168631.40791041942,2010-09-16 12:48:01,690.351110594908,2,15,0.5499359965324402,3.812260627746582,14.66058887824863,14.676533146435943,58.3636556640142,53.74381055796412,9.713172767078504e-05,0.0899572893977165,0,0,0
4950,168661.42267682403,2010-09-16 12:48:31,720.3658766887346,2,15,0.550297200679779,3.815498352050781,14.665175363685494,14.676533146435943,58.38114755305346,53.74381055796412,0.0001618862152099,0.0899572893977165,0,0,0
4951,168691.42280527504,2010-09-16 12:49:01,750.3660054705784,2,15,0.550297200679779,3.818412303924561,14.669759592586194,14.676533146435943,58.39864476579929,53.74381055796412,9.713172767078504e-05,0.0899572893977165,0,0,0
4952,168721.4380843744,2010-09-16 12:49:31,780.3812845599208,2,15,0.5501165986061096,3.82148814201355,14.674346131452346,14.676533146435943,58.41616506000631,53.74381055796412,6.47544875391759e-05,0.0899572893977165,0,0,0
4953,168751.45347237063,2010-09-16 12:50:01,810.3966725510987,2,15,0.5499359965324402,3.824725866317749,14.678932721159812,14.676533146435943,58.433700175818,53.74381055796412,0.0001295089750783,0.0899572893977165,0,0,0
4954,168781.4686097262,2010-09-16 12:50:31,840.4118099267017,2,15,0.5501165986061096,3.828125476837158,14.68351927164835,14.676533146435943,58.45125009968202,53.74381055796412,9.713172767078504e-05,0.0899572893977165,0,0,0
4955,168811.48399712087,2010-09-16 12:51:01,870.4271973013406,2,15,0.5501165986061096,3.831525087356568,14.688105929989838,14.676533146435943,58.468815781805866,53.74381055796412,0.0001295089750783,0.0899572893977165,0,0,0
4956,168841.5007406607,2010-09-16 12:51:31,900.4439409514519,2,15,0.5499359965324402,3.834762573242188,14.692692741483311,14.676533146435943,58.486397472328925,53.74381055796412,6.47544875391759e-05,0.0899572893977165,0,0,0
4957,168871.51443050805,2010-09-16 12:52:01,930.4576307085764,2,15,0.5499359965324402,3.8380002975463863,14.697279066277169,14.676533146435943,58.50399266661488,53.74381055796412,6.47544875391759e-05,0.0899572893977165,0,0,0
4958,168901.52972961235,2010-09-16 12:52:31,960.4729298178916,2,15,0.5499359965324402,3.841399908065796,14.701865668053507,14.676533146435943,58.52160412743096,53.74381055796412,6.47544875391759e-05,0.0899572893977165,0,0,0
4959,168931.54518455063,2010-09-16 12:53:01,990.4883847261048,2,15,0.5501165986061096,3.844637632369995,14.706452271481986,14.676533146435943,58.53923049230634,53.74381055796412,9.713172767078504e-05,0.0899572893977165,0,0,0
4960,168961.5603576805,2010-09-16 12:53:31,1020.503557876006,2,15,0.5501165986061096,3.847713470458984,14.71103879329596,14.676533146435943,58.55687118199696,53.74381055796412,9.713172767078504e-05,0.0899572893977165,0,0,0
4961,168991.57549255984,2010-09-16 12:54:01,1050.518692735328,2,15,0.5501165986061096,3.850951194763184,14.715625259434734,14.676533146435943,58.57452607317923,53.74381055796412,9.713172767078504e-05,0.0899572893977165,0,0,0
4962,169021.5907332233,2010-09-16 12:54:32,1080.5339333987529,2,15,0.5501165986061096,3.853865146636963,14.720211877633346,14.676533146435943,58.59219560156152,53.74381055796412,6.47544875391759e-05,0.0899572893977165,0,0,0
4963,169051.60599111975,2010-09-16 12:55:02,1110.5491912951943,2,15,0.5499359965324402,3.856940984725952,14.724798395679631,14.676533146435943,58.60987857189773,53.74381055796412,6.47544875391759e-05,0.0899572893977165,0,0,0
4964,169081.60769387046,2010-09-16 12:55:32,1140.5508942163324,2,15,0.5501165986061096,3.8596930503845215,14.7293828881032,14.676533146435943,58.627567251093794,53.74381055796412,3.237724376958795e-05,0.0899572893977165,0,0,0
4965,169111.62052058827,2010-09-16 12:56:02,1170.5637205381895,2,15,0.5501165986061096,3.862768888473511,14.733969047345989,14.676533146435943,58.64527556548232,53.74381055796412,9.713172767078504e-05,0.0899572893977165,0,0,0
4966,169141.62054274898,2010-09-16 12:56:32,1200.5637429244537,2,15,0.5501165986061096,3.86535906791687,14.7385533352194,14.676533146435943,58.66298934144681,53.74381055796412,9.713172767078504e-05,0.0899572893977165,0,0,0
4967,169171.63581407396,2010-09-16 12:57:02,1230.579014249415,2,15,0.5501165986061096,3.8679492473602295,14.743139878277558,14.676533146435943,58.680723907800086,53.74381055796412,6.47544875391759e-05,0.0899572893977165,0,0,0
4968,169201.65106034637,2010-09-16 12:57:32,1260.5942605268535,2,15,0.5499359965324402,3.870215654373169,14.747726418971798,14.676533146435943,58.69847003872525,53.74381055796412,3.237724376958795e-05,0.0899572893977165,0,0,0
4969,169231.67167289887,2010-09-16 12:58:02,1290.6148731695655,2,15,0.5501165986061096,3.872805833816528,14.75231385944896,14.676533146435943,58.71623055139169,53.74381055796412,6.47544875391759e-05,0.0899572893977165,0,0,0
4970,169261.6817168906,2010-09-16 12:58:32,1320.624917066061,2,15,0.5501165986061096,3.874748468399048,14.756899719705167,14.676533146435943,58.73399506358,53.74381055796412,0.0,0.0899572893977165,0,0,0
4971,169291.69688092274,2010-09-16 12:59:02,1350.6400810982027,2,15,0.5501165986061096,3.876691102981568,14.761486274054532,14.676533146435943,58.75177173398335,53.74381055796412,0.0,0.0899572893977165,0,0,0
4972,169321.71215617753,2010-09-16 12:59:32,1380.6553563529735,2,15,0.5501165986061096,3.878633737564087,14.766072898318033,14.676533146435943,58.76955739984725,53.74381055796412,3.237724376958795e-05,0.0899572893977165,0,0,0
4973,169351.72743014406,2010-09-16 13:00:02,1410.670630324541,2,15,0.5499359965324402,3.880090713500977,14.770659552671336,14.676533146435943,58.78735119322376,53.74381055796412,0.0,0.0899572893977165,0,0,0
4974,169381.74265380503,2010-09-16 13:00:32,1440.6858539805128,2,15,0.5499359965324402,3.881709575653076,14.775246135892,14.676533146435943,58.8051521995408,53.74381055796412,0.0,0.0899572893977165,0,0,0
4975,169411.75766171247,2010-09-16 13:01:02,1470.7008616623805,2,15,0.5501165986061096,3.883328437805176,14.779832683344992,14.676533146435943,58.822959850207326,53.74381055796412,3.237724376958795e-05,0.0899572893977165,0,0,0
4976,169441.7734353112,2010-09-16 13:01:32,1500.7166355818947,2,15,0.5501165986061096,3.8844616413116455,14.784419415878308,14.676533146435943,58.840774474053006,53.74381055796412,0.0,0.0899572893977165,0,0,0
4977,169471.78844759456,2010-09-16 13:02:02,1530.7316477700106,2,15,0.550297200679779,3.885756731033325,14.789006054748304,14.676533146435943,58.8585943410763,53.74381055796412,3.237724376958795e-05,0.0899572893977165,0,0,0
4978,169501.8038298063,2010-09-16 13:02:32,1560.7470301070748,2,15,0.5501165986061096,3.886889934539795,14.793592718641715,14.676533146435943,58.87641980327936,53.74381055796412,3.237724376958795e-05,0.0899572893977165,0,0,0
4979,169531.81894930228,2010-09-16 13:03:02,1590.7621494777347,2,15,0.5501165986061096,3.8880231380462646,14.798180016393427,14.676533146435943,58.89425274912179,53.74381055796412,3.237724376958795e-05,0.0899572893977165,0,0,0
4980,169561.83441942345,2010-09-16 13:03:32,1620.7776195838844,2,15,0.5501165986061096,3.888994455337525,14.802767335369577,14.676533146435943,58.91209069891504,53.74381055796412,0.0,0.0899572893977165,0,0,0
4981,169591.83675781585,2010-09-16 13:04:02,1650.7799580865317,2,15,0.550297200679779,3.890289545059204,14.807352722413992,14.676533146435943,58.92992597084266,53.74381055796412,6.47544875391759e-05,0.0899572893977165,0,0,0
4982,169621.84917052527,2010-09-16 13:04:32,1680.7923707007108,2,15,0.5501165986061096,3.891098976135254,14.811939645213911,14.676533146435943,58.9477719857367,53.74381055796412,3.237724376958795e-05,0.0899572893977165,0,0,0
4983,169651.86466501225,2010-09-16 13:05:02,1710.8078653130317,2,15,0.5501165986061096,3.892232179641724,14.816526321995603,14.676533146435943,58.96562185311616,53.74381055796412,0.0,0.0899572893977165,0,0,0
4984,169681.8797023331,2010-09-16 13:05:32,1740.822902513582,2,15,0.5501165986061096,3.893203496932984,14.821112952964125,14.676533146435943,58.98347624177801,53.74381055796412,3.237724376958795e-05,0.0899572893977165,0,0,0
4985,169711.89516362725,2010-09-16 13:06:02,1770.838363912998,2,15,0.5499359965324402,3.894012928009033,14.825699572004607,14.676533146435943,59.00133534866579,53.74381055796412,-3.237724376958795e-05,0.0899572893977165,0,0,0
4986,169741.9103457746,2010-09-16 13:06:32,1800.8535459550956,2,15,0.5501165986061096,3.894984245300293,14.830286204846235,14.676533146435943,59.0191989275754,53.74381055796412,0.0,0.0899572893977165,0,0,0
4987,169771.92550639325,2010-09-16 13:07:02,1830.8687065737165,2,15,0.5501165986061096,3.8961174488067623,14.83487279361066,14.676533146435943,59.037066839701325,53.74381055796412,-3.237724376958795e-05,0.0899572893977165,0,0,0
4988,169801.94076729217,2010-09-16 13:07:32,1860.8839674927028,2,15,0.5501165986061096,3.897250652313232,14.839459356380909,14.676533146435943,59.05493954068892,53.74381055796412,3.237724376958795e-05,0.0899572893977165,0,0,0
4989,169831.95601345433,2010-09-16 13:08:02,1890.8992136498407,2,15,0.5499359965324402,3.898221969604492,14.84404595577854,14.676533146435943,59.072817162722544,53.74381055796412,3.237724376958795e-05,0.0899572893977165,0,0,0
4990,169861.9714345281,2010-09-16 13:08:32,1920.914634728611,2,15,0.5501165986061096,3.899517059326172,14.848632467899703,14.676533146435943,59.09069939092306,53.74381055796412,3.237724376958795e-05,0.0899572893977165,0,0,0
4991,169891.98918082094,2010-09-16 13:09:02,1950.9323812019231,2,15,0.5499359965324402,3.900488376617432,14.853219411837006,14.676533146435943,59.10858819735997,53.74381055796412,3.237724376958795e-05,0.0899572893977165,0,0,0
4992,169922.0019697595,2010-09-16 13:09:32,1980.945169934953,2,15,0.550297200679779,3.901621580123901,14.857805570961965,14.676533146435943,59.12647893117382,53.74381055796412,6.47544875391759e-05,0.0899572893977165,0,0,0
4993,169952.01708436327,2010-09-16 13:10:02,2010.960284538714,2,15,0.5501165986061096,3.902754783630371,14.862392103927958,14.676533146435943,59.14437621116544,53.74381055796412,0.0,0.0899572893977165,0,0,0
4994,169982.03235661553,2010-09-16 13:10:32,2040.9755568160524,2,15,0.5501165986061096,3.903887987136841,14.8669786639868,14.676533146435943,59.16227869970436,53.74381055796412,3.237724376958795e-05,0.0899572893977165,0,0,0
4995,170012.04770894267,2010-09-16 13:11:02,2070.990909253482,2,15,0.5499359965324402,3.9048593044281006,14.871565238026296,14.676533146435943,59.1801864753024,53.74381055796412,0.0,0.0899572893977165,0,0,0
4996,170042.06288046352,2010-09-16 13:11:32,2101.006080669055,2,15,0.5501165986061096,3.90615439414978,14.876151787133963,14.676533146435943,59.198099224219085,53.74381055796412,3.237724376958795e-05,0.0899572893977165,0,0,0
4997,170072.07817702147,2010-09-16 13:12:02,2131.0213772270013,2,15,0.550297200679779,3.90728759765625,14.880738342891256,14.676533146435943,59.2160173136894,53.74381055796412,3.237724376958795e-05,0.0899572893977165,0,0,0
4998,170102.09341010096,2010-09-16 13:12:32,2161.036610276421,2,15,0.5501165986061096,3.90842080116272,14.885324858758969,14.676533146435943,59.23394055104094,53.74381055796412,3.237724376958795e-05,0.0899572893977165,0,0,0
4999,170132.10869404743,2010-09-16 13:13:02,2191.0518942228878,2,15,0.550297200679779,3.9095540046691895,14.889911339144428,14.676533146435943,59.25186907756542,53.74381055796412,3.237724376958795e-05,0.0899572893977165,0,0,0
5000,170162.12408952226,2010-09-16 13:13:32,2221.0672897077707,2,15,0.5499359965324402,3.910687208175659,14.894497832139184,14.676533146435943,59.26980311347954,53.74381055796412,3.237724376958795e-05,0.0899572893977165,0,0,0
5001,170192.13960907186,2010-09-16 13:14:02,2251.082809252326,2,15,0.5501165986061096,3.912144184112549,14.899084360215811,14.676533146435943,59.287742828791245,53.74381055796412,6.47544875391759e-05,0.0899572893977165,0,0,0
5002,170222.1544778871,2010-09-16 13:14:32,2281.0976780625483,2,15,0.550297200679779,3.9131155014038086,14.903670773421156,14.676533146435943,59.30568770216203,53.74381055796412,3.237724376958795e-05,0.0899572893977165,0,0,0
5003,170252.16977244,2010-09-16 13:15:02,2311.11297261549,2,15,0.5499359965324402,3.914410352706909,14.908257301895654,14.676533146435943,59.32363869867858,53.74381055796412,3.237724376958795e-05,0.0899572893977165,0,0,0
5004,170282.18502796555,2010-09-16 13:15:32,2341.128228166076,2,15,0.5501165986061096,3.915705442428589,14.91284385419713,14.676533146435943,59.34159552930368,53.74381055796412,3.237724376958795e-05,0.0899572893977165,0,0,0
5005,170312.2003125386,2010-09-16 13:16:02,2371.1435127190566,2,15,0.5501165986061096,3.917000532150269,14.917430396394446,14.676533146435943,59.35955804842926,53.74381055796412,3.237724376958795e-05,0.0899572893977165,0,0,0
5006,170342.21555911677,2010-09-16 13:16:32,2401.1587592922333,2,15,0.550297200679779,3.918295621871948,14.922016857400225,14.676533146435943,59.37752615682277,53.74381055796412,3.237724376958795e-05,0.0899572893977165,0,0,0
5007,170372.23081534402,2010-09-16 13:17:02,2431.174015519508,2,15,0.5501165986061096,3.919590711593628,14.926603398732016,14.676533146435943,59.39550049980669,53.74381055796412,3.237724376958795e-05,0.0899572893977165,0,0,0
5008,170402.24619461346,2010-09-16 13:17:32,2461.1893948189904,2,15,0.5501165986061096,3.920885801315308,14.931189956462054,14.676533146435943,59.41348094016523,53.74381055796412,3.237724376958795e-05,0.0899572893977165,0,0,0
5009,170432.26157920112,2010-09-16 13:18:02,2491.204779376598,2,15,0.5501165986061096,3.9221808910369873,14.935776474798717,14.676533146435943,59.43146719215512,53.74381055796412,3.237724376958795e-05,0.0899572893977165,0,0,0
5010,170462.2766084268,2010-09-16 13:18:32,2521.2198086122667,2,15,0.5501165986061096,3.923475980758667,14.940362977399532,14.676533146435943,59.44945959799187,53.74381055796412,3.237724376958795e-05,0.0899572893977165,0,0,0
5011,170492.29203805688,2010-09-16 13:19:02,2551.235238232357,2,15,0.5501165986061096,3.9249329566955566,14.94494950332945,14.676533146435943,59.46745830107837,53.74381055796412,3.237724376958795e-05,0.0899572893977165,0,0,0
5012,170522.30726558252,2010-09-16 13:19:32,2581.250465752976,2,15,0.5501165986061096,3.926228046417236,14.94953604253338,14.676533146435943,59.4854632871068,53.74381055796412,6.47544875391759e-05,0.0899572893977165,0,0,0
5013,170552.3224024569,2010-09-16 13:20:02,2611.26560263234,2,15,0.5501165986061096,3.927846908569336,14.9541225601107,14.676533146435943,59.50347447718367,53.74381055796412,9.713172767078504e-05,0.0899572893977165,0,0,0
5014,170582.33767453372,2010-09-16 13:20:32,2641.280874804416,2,15,0.5499359965324402,3.9289801120758057,14.958709110758242,14.676533146435943,59.52149223504587,53.74381055796412,3.237724376958795e-05,0.0899572893977165,0,0,0
5015,170612.35295032483,2010-09-16 13:21:02,2671.2961505002872,2,15,0.550297200679779,3.930598974227905,14.9632955776923,14.676533146435943,59.53951602124148,53.74381055796412,3.237724376958795e-05,0.0899572893977165,0,0,0
5016,170642.36825016097,2010-09-16 13:21:32,2701.311450366492,2,15,0.5501165986061096,3.931894063949585,14.967882120335393,14.676533146435943,59.55754652017215,53.74381055796412,3.237724376958795e-05,0.0899572893977165,0,0,0
5017,170672.3835897814,2010-09-16 13:22:02,2731.3267899819166,2,15,0.550297200679779,3.9333510398864746,14.972468581768092,14.676533146435943,59.5755832755845,53.74381055796412,3.237724376958795e-05,0.0899572893977165,0,0,0
5018,170702.39885284074,2010-09-16 13:22:32,2761.3420531364827,2,15,0.5501165986061096,3.934808015823364,14.97705516501918,14.676533146435943,59.59362713343755,53.74381055796412,3.237724376958795e-05,0.0899572893977165,0,0,0
5019,170732.41413626086,2010-09-16 13:23:02,2791.357336436336,2,15,0.550297200679779,3.936264991760254,14.981641674503404,14.676533146435943,59.6116774468005,53.74381055796412,3.237724376958795e-05,0.0899572893977165,0,0,0
5020,170762.42923815793,2010-09-16 13:23:32,2821.372438358441,2,15,0.5501165986061096,3.9378838539123535,14.986228201121865,14.676533146435943,59.629734503343215,53.74381055796412,6.47544875391759e-05,0.0899572893977165,0,0,0
5021,170792.44450566833,2010-09-16 13:24:02,2851.3877058688804,2,15,0.5501165986061096,3.9390170574188232,14.990814750800329,14.676533146435943,59.647798445550045,53.74381055796412,0.0,0.0899572893977165,0,0,0
5022,170822.45977101338,2010-09-16 13:24:32,2881.402971198878,2,15,0.5501165986061096,3.940635919570923,14.995401257514128,14.676533146435943,59.66586904170404,53.74381055796412,3.237724376958795e-05,0.0899572893977165,0,0,0
5023,170852.47526876855,2010-09-16 13:25:02,2911.4184689640683,2,15,0.5501165986061096,3.9422547817230233,14.999987859941324,14.676533146435943,59.68394686609935,53.74381055796412,3.237724376958795e-05,0.0899572893977165,0,0,0
5024,170882.49031094654,2010-09-16 13:25:32,2941.433511142043,2,15,0.5501165986061096,3.943711757659912,15.004574342072107,14.676533146435943,59.70203123312555,53.74381055796412,3.237724376958795e-05,0.0899572893977165,0,0,0
5025,170912.50561891796,2010-09-16 13:26:02,2971.448819118492,2,15,0.5501165986061096,3.945330619812012,15.009160889156917,14.676533146435943,59.72012300319642,53.74381055796412,6.47544875391759e-05,0.0899572893977165,0,0,0
5026,170942.52084611275,2010-09-16 13:26:32,3001.4640463132973,2,15,0.5499359965324402,3.946787595748901,15.013747505640612,14.676533146435943,59.7382221918681,53.74381055796412,3.237724376958795e-05,0.0899572893977165,0,0,0
5027,170972.5361354126,2010-09-16 13:27:02,3031.4793355880643,2,15,0.5501165986061096,3.948406457901001,15.01833401543686,14.676533146435943,59.756328061097776,53.74381055796412,3.237724376958795e-05,0.0899572893977165,0,0,0
5028,171002.55137473266,2010-09-16 13:27:32,3061.494574908136,2,15,0.5501165986061096,3.9500253200531006,15.022920565478591,14.676533146435943,59.774441336601214,53.74381055796412,3.237724376958795e-05,0.0899572893977165,0,0,0
5029,171032.56664326065,2010-09-16 13:28:03,3091.5098434461406,2,15,0.5499359965324402,3.9514822959899902,15.02750712237556,14.676533146435943,59.7925619638282,53.74381055796412,0.0,0.0899572893977165,0,0,0
5030,171062.58204168789,2010-09-16 13:28:33,3121.5252418683563,2,15,0.5501165986061096,3.95310115814209,15.032093781878723,14.676533146435943,59.81069030168607,53.74381055796412,0.0,0.0899572893977165,0,0,0
5031,171092.59719783033,2010-09-16 13:29:03,3151.5403980057918,2,15,0.5501165986061096,3.9548819065094,15.036680260152398,14.676533146435943,59.82882530996966,53.74381055796412,6.47544875391759e-05,0.0899572893977165,0,0,0
5032,171122.61245568667,2010-09-16 13:29:33,3181.5556558621324,2,15,0.5501165986061096,3.956500768661499,15.041266773781755,14.676533146435943,59.84696788970242,53.74381055796412,6.47544875391759e-05,0.0899572893977165,0,0,0
5033,171152.6278388207,2010-09-16 13:30:03,3211.5710390262616,2,15,0.5501165986061096,3.958119630813599,15.045853234573713,14.676533146435943,59.865117656867326,53.74381055796412,6.47544875391759e-05,0.0899572893977165,0,0,0
5034,171182.6429705823,2010-09-16 13:30:33,3241.5861707627887,2,15,0.550297200679779,3.959900379180908,15.050439701896195,14.676533146435943,59.88327509118181,53.74381055796412,6.47544875391759e-05,0.0899572893977165,0,0,0
5035,171212.65837892928,2010-09-16 13:31:03,3271.6015791047653,2,15,0.5501165986061096,3.961519241333008,15.05502622039304,14.676533146435943,59.901440416217525,53.74381055796412,3.237724376958795e-05,0.0899572893977165,0,0,0
5036,171242.6735114929,2010-09-16 13:31:33,3301.616711678382,2,15,0.5499359965324402,3.9631381034851074,15.059612828865058,14.676533146435943,59.91961392659833,53.74381055796412,3.237724376958795e-05,0.0899572893977165,0,0,0
5037,171272.6887944619,2010-09-16 13:32:03,3331.6319946373837,2,15,0.550297200679779,3.964918851852417,15.06419939431914,14.676533146435943,59.93779518288456,53.74381055796412,6.47544875391759e-05,0.0899572893977165,0,0,0
5038,171302.70410764136,2010-09-16 13:32:33,3361.64730781682,2,15,0.5501165986061096,3.966699600219727,15.068785965838249,14.676533146435943,59.955984519983176,53.74381055796412,6.47544875391759e-05,0.0899572893977165,0,0,0
5039,171332.71934039003,2010-09-16 13:33:03,3391.662540590551,2,15,0.5499359965324402,3.968318462371826,15.073372570225992,14.676533146435943,59.97418203626086,53.74381055796412,3.237724376958795e-05,0.0899572893977165,0,0,0
5040,171362.73457793563,2010-09-16 13:33:33,3421.6777781111314,2,15,0.5501165986061096,3.970099210739136,15.07795913006222,14.676533146435943,59.992387532896615,53.74381055796412,3.237724376958795e-05,0.0899572893977165,0,0,0
5041,171392.74997210226,2010-09-16 13:34:03,3451.693172277724,2,15,0.5499359965324402,3.971879959106445,15.08254573239731,14.676533146435943,60.01060153741751,53.74381055796412,3.237724376958795e-05,0.0899572893977165,0,0,0
5042,171422.7651152172,2010-09-16 13:34:33,3481.708315392653,2,15,0.5501165986061096,3.973822593688965,15.08713225535588,14.676533146435943,60.0288235792843,53.74381055796412,6.47544875391759e-05,0.0899572893977165,0,0,0
5043,171452.78039875763,2010-09-16 13:35:03,3511.723598933106,2,15,0.5499359965324402,3.9756033420562735,15.0917187930791,14.676533146435943,60.04705420557167,53.74381055796412,0.0,0.0899572893977165,0,0,0
5044,171482.7956506541,2010-09-16 13:35:33,3541.738850859646,2,15,0.5501165986061096,3.977707862854004,15.096305349406478,14.676533146435943,60.065293563031446,53.74381055796412,3.237724376958795e-05,0.0899572893977165,0,0,0
5045,171512.811033317,2010-09-16 13:36:03,3571.7542334924483,2,15,0.550297200679779,3.979650497436523,15.100891810017853,14.676533146435943,60.083540797065055,53.74381055796412,6.47544875391759e-05,0.0899572893977165,0,0,0
5046,171542.8262018303,2010-09-16 13:36:33,3601.7694020308386,2,15,0.5501165986061096,3.981431245803833,15.105478251976905,14.676533146435943,60.10179725149958,53.74381055796412,3.237724376958795e-05,0.0899572893977165,0,0,0
5047,171572.84145847862,2010-09-16 13:37:03,3631.784658684177,2,15,0.5501165986061096,3.983373880386353,15.110064742483864,14.676533146435943,60.12006289447953,53.74381055796412,3.237724376958795e-05,0.0899572893977165,0,0,0
5048,171602.85685051492,2010-09-16 13:37:33,3661.8000506953895,2,15,0.5499359965324402,3.985316514968872,15.114651175923855,14.676533146435943,60.13833728271219,53.74381055796412,6.47544875391759e-05,0.0899572893977165,0,0,0
5049,171632.87201034155,2010-09-16 13:38:03,3691.8152105470967,2,15,0.5499359965324402,3.9874210357666016,15.1192376815049,14.676533146435943,60.15662106174625,53.74381055796412,6.47544875391759e-05,0.0899572893977165,0,0,0
5050,171662.88724528573,2010-09-16 13:38:33,3721.83044546117,2,15,0.550297200679779,3.989525556564331,15.12382413800342,14.676533146435943,60.17491375436948,53.74381055796412,6.47544875391759e-05,0.0899572893977165,0,0,0
5051,171692.90252550287,2010-09-16 13:39:03,3751.845725678328,2,15,0.5501165986061096,3.9913063049316406,15.128410615805858,14.676533146435943,60.19321580159383,53.74381055796412,3.237724376958795e-05,0.0899572893977165,0,0,0
5052,171722.9177763016,2010-09-16 13:39:33,3781.860976482065,2,15,0.5501165986061096,3.99341082572937,15.132997113532753,14.676533146435943,60.2115273008688,53.74381055796412,3.237724376958795e-05,0.0899572893977165,0,0,0
5053,171752.9330606691,2010-09-16 13:40:03,3811.876260869633,2,15,0.5499359965324402,3.995515108108521,15.13758360678063,14.676533146435943,60.22984822890039,53.74381055796412,3.237724376958795e-05,0.0899572893977165,0,0,0
5054,171782.94843474554,2010-09-16 13:40:33,3841.891634946077,2,15,0.5501165986061096,3.99778151512146,15.142170137666916,14.676533146435943,60.24817892624295,53.74381055796412,6.47544875391759e-05,0.0899572893977165,0,0,0
5055,171812.9644546491,2010-09-16 13:41:03,3871.907654914768,2,15,0.5501165986061096,3.99972414970398,15.146756685056832,14.676533146435943,60.266519194871,53.74381055796412,6.47544875391759e-05,0.0899572893977165,0,0,0
5056,171842.96565085035,2010-09-16 13:41:33,3901.908851121067,2,15,0.5501165986061096,4.001990795135498,15.151341021572945,14.676533146435943,60.28486032647741,53.74381055796412,6.47544875391759e-05,0.0899572893977165,0,0,0
5057,171872.97849894658,2010-09-16 13:42:03,3931.921699122039,2,15,0.5499359965324402,4.003933429718018,15.155927090837825,14.676533146435943,60.303218113037374,53.74381055796412,3.24249267578125e-05,0.0899572893977165,0,0,0
5058,171902.99379588047,2010-09-16 13:42:33,3961.936996055924,2,15,0.5499359965324402,4.006037712097168,15.160513525195322,14.676533146435943,60.32158722349251,53.74381055796412,3.23295607813634e-05,0.0899572893977165,0,0,0
5059,171933.00901866428,2010-09-16 13:43:03,3991.952218839719,2,15,0.5499359965324402,4.008304119110107,15.165100024509394,14.676533146435943,60.33996658185557,53.74381055796412,3.23295607813634e-05,0.0899572893977165,0,0,0
5060,171963.02430329742,2010-09-16 13:43:33,4021.9675035681375,2,15,0.5501165986061096,4.010570526123047,15.169686446901242,14.676533146435943,60.35835564025128,53.74381055796412,6.47544875391759e-05,0.0899572893977165,0,0,0
5061,171993.03956451718,2010-09-16 13:44:03,4051.982764692637,2,15,0.550297200679779,4.012836933135986,15.174272859805,14.676533146435943,60.37675481960067,53.74381055796412,6.47544875391759e-05,0.0899572893977165,0,0,0
5062,172023.05482264922,2010-09-16 13:44:33,4081.9980228246654,2,15,0.5501165986061096,4.014941692352295,15.178859331069813,14.676533146435943,60.39516439789318,53.74381055796412,3.24249267578125e-05,0.0899572893977165,0,0,0
5063,172053.0702056329,2010-09-16 13:45:03,4112.013405828395,2,15,0.5499359965324402,4.017045974731445,15.183445794925987,14.676533146435943,60.41358417516093,53.74381055796412,3.23295607813634e-05,0.0899572893977165,0,0,0
5064,172083.08534771024,2010-09-16 13:45:33,4142.028547910747,2,15,0.5499359965324402,4.019312381744385,15.188032137633645,14.676533146435943,60.432013694519135,53.74381055796412,3.23295607813634e-05,0.0899572893977165,0,0,0
5065,172113.10061929084,2010-09-16 13:46:03,4172.043819486333,2,15,0.5499359965324402,4.021578788757324,15.192617604390891,14.676533146435943,60.450449786573536,53.74381055796412,3.23295607813634e-05,0.0899572893977165,0,0,0
5066,172143.11626147147,2010-09-16 13:46:33,4202.05946167202,2,15,0.5499359965324402,4.024007320404053,15.197203146417056,14.676533146435943,60.4688965607262,53.74381055796412,6.47544875391759e-05,0.0899572893977165,0,0,0
5067,172173.13114277288,2010-09-16 13:47:03,4232.074342943347,2,15,0.5501165986061096,4.026273727416992,15.20178856365149,14.676533146435943,60.48735320031353,53.74381055796412,9.71794142969884e-05,0.0899572893977165,0,0,0
5068,172203.14643889974,2010-09-16 13:47:33,4262.089639070217,2,15,0.550297200679779,4.0287017822265625,15.206374171762878,14.676533146435943,60.50582123260272,53.74381055796412,9.70840483205393e-05,0.0899572893977165,0,0,0
5069,172233.16180180834,2010-09-16 13:48:03,4292.105001993823,2,15,0.5501165986061096,4.030806541442871,15.210960688941077,14.676533146435943,60.52430373882447,53.74381055796412,3.24249267578125e-05,0.0899572893977165,0,0,0
5070,172263.17696373523,2010-09-16 13:48:33,4322.120163940759,2,15,0.5501165986061096,4.033234596252441,15.215547149882386,14.676533146435943,60.5427967471036,53.74381055796412,3.23295607813634e-05,0.0899572893977165,0,0,0
5071,172293.1921951155,2010-09-16 13:49:03,4352.1353952909385,2,15,0.5499359965324402,4.035662651062012,15.220133588373123,14.676533146435943,60.56130051084274,53.74381055796412,9.70840483205393e-05,0.0899572893977165,0,0,0
5072,172323.20740249584,2010-09-16 13:49:33,4382.150602696346,2,15,0.5501165986061096,4.03809118270874,15.224719957590311,14.676533146435943,60.57981492479843,53.74381055796412,6.47544875391759e-05,0.0899572893977165,0,0,0
5073,172353.2227233143,2010-09-16 13:50:03,4412.165923489788,2,15,0.5501165986061096,4.04035758972168,15.229307219336858,14.676533146435943,60.59834395354677,53.74381055796412,9.71794142969884e-05,0.0899572893977165,0,0,0
5074,172383.23817679397,2010-09-16 13:50:33,4442.181377059661,2,15,0.5501165986061096,4.04278564453125,15.233894465116007,14.676533146435943,60.616884045863706,53.74381055796412,3.23295607813634e-05,0.0899572893977165,0,0,0
5075,172413.25327705193,2010-09-16 13:51:03,4472.196477222375,2,15,0.5501165986061096,4.045375823974609,15.238480790261024,14.676533146435943,60.63543170750396,53.74381055796412,6.47544875391759e-05,0.0899572893977165,0,0,0
5076,172443.26867643153,2010-09-16 13:51:33,4502.2118766069925,2,15,0.5501165986061096,4.047966003417969,15.24306721516305,14.676533146435943,60.653991195149,53.74381055796412,9.70840483205393e-05,0.0899572893977165,0,0,0
5077,172473.2839365084,2010-09-16 13:52:03,4532.227136693901,2,15,0.5501165986061096,4.050394535064697,15.247653617656368,14.676533146435943,60.672562233645465,53.74381055796412,6.47544875391759e-05,0.0899572893977165,0,0,0
5078,172503.29906793917,2010-09-16 13:52:33,4562.24226811464,2,15,0.5501165986061096,4.052984714508057,15.252239981377222,14.676533146435943,60.691144740504434,53.74381055796412,6.47544875391759e-05,0.0899572893977165,0,0,0
5079,172533.31436191068,2010-09-16 13:53:03,4592.25756210618,2,15,0.5501165986061096,4.055574893951416,15.256826399415427,14.676533146435943,60.70973935051051,53.74381055796412,6.47544875391759e-05,0.0899572893977165,0,0,0
5080,172563.329765997,2010-09-16 13:53:33,4622.27296618251,2,15,0.5499359965324402,4.058165073394775,15.26141284857253,14.676533146435943,60.72834599916563,53.74381055796412,6.47544875391759e-05,0.0899572893977165,0,0,0
5081,172593.3448783201,2010-09-16 13:54:03,4652.288078585778,2,15,0.550297200679779,4.060593128204346,15.26599924947478,14.676533146435943,60.746964534920586,53.74381055796412,3.23295607813634e-05,0.0899572893977165,0,0,0
5082,172623.3601354045,2010-09-16 13:54:33,4682.303335589992,2,15,0.5501165986061096,4.063345432281494,15.27058559315616,14.676533146435943,60.76559451311868,53.74381055796412,9.71794142969884e-05,0.0899572893977165,0,0,0
5083,172653.3753982283,2010-09-16 13:55:03,4712.318598398695,2,15,0.5499359965324402,4.0659356117248535,15.275171952707003,14.676533146435943,60.78423693405591,53.74381055796412,6.47544875391759e-05,0.0899572893977165,0,0,0
5084,172683.3906739943,2010-09-16 13:55:33,4742.333874164742,2,15,0.5501165986061096,4.068849563598633,15.279758369995331,14.676533146435943,60.80289193058352,53.74381055796412,9.71794142969884e-05,0.0899572893977165,0,0,0
5085,172713.40605770476,2010-09-16 13:56:03,4772.349257895285,2,15,0.5501165986061096,4.071439743041992,15.284344827038124,14.676533146435943,60.82155952115509,53.74381055796412,9.71794142969884e-05,0.0899572893977165,0,0,0
5086,172743.42121106028,2010-09-16 13:56:33,4802.364411245763,2,15,0.5501165986061096,4.074353694915772,15.288931236742272,14.676533146435943,60.84023946738298,53.74381055796412,9.71794142969884e-05,0.0899572893977165,0,0,0
5087,172773.43658491617,2010-09-16 13:57:03,4832.379785101658,2,15,0.5501165986061096,4.076943874359131,15.293517545513811,14.676533146435943,60.85893169629946,53.74381055796412,6.47544875391759e-05,0.0899572893977165,0,0,0
5088,172803.45195288738,2010-09-16 13:57:33,4862.3951530879,2,15,0.5499359965324402,4.079695701599121,15.298103928333065,14.676533146435943,60.87763705185061,53.74381055796412,9.70840483205393e-05,0.0899572893977165,0,0,0
5089,172833.46699112048,2010-09-16 13:58:03,4892.410191290953,2,15,0.5501165986061096,4.0827717781066895,15.302690282348795,14.676533146435943,60.89635521287446,53.74381055796412,6.47544875391759e-05,0.0899572893977165,0,0,0
5090,172863.48238200392,2010-09-16 13:58:33,4922.4255821893885,2,15,0.5501165986061096,4.08552360534668,15.30727661074148,14.676533146435943,60.91508633204767,53.74381055796412,6.47544875391759e-05,0.0899572893977165,0,0,0
5091,172893.49752003112,2010-09-16 13:59:03,4952.44072020158,2,15,0.5499359965324402,4.088437557220459,15.311862910943963,14.676533146435943,60.93383051435304,53.74381055796412,6.47544875391759e-05,0.0899572893977165,0,0,0
5092,172923.51279859414,2010-09-16 13:59:33,4982.455998779647,2,15,0.5501165986061096,4.091351509094238,15.316449211665573,14.676533146435943,60.95258802458331,53.74381055796412,6.47544875391759e-05,0.0899572893977165,0,0,0
5093,172953.52804862597,2010-09-16 14:00:03,5012.471248796418,2,15,0.5501165986061096,4.094265460968018,15.321035413305552,14.676533146435943,60.97135844250624,53.74381055796412,9.70840483205393e-05,0.0899572893977165,0,0,0
5094,172983.5433714294,2010-09-16 14:00:34,5042.486571820428,2,15,0.5499359965324402,4.097179412841797,15.325621666093188,14.676533146435943,60.99014268697507,53.74381055796412,6.47544875391759e-05,0.0899572893977165,0,0,0
5095,173013.5585648399,2010-09-16 14:01:04,5072.50176502539,2,15,0.5499359965324402,4.100255489349365,15.330207940483303,14.676533146435943,61.008940671302,53.74381055796412,9.71794142969884e-05,0.0899572893977165,0,0,0
5096,173043.573966029,2010-09-16 14:01:34,5102.517166214513,2,15,0.5499359965324402,4.1031694412231445,15.33479430849768,14.676533146435943,61.02775271245417,53.74381055796412,6.47544875391759e-05,0.0899572893977165,0,0,0
5097,173073.5890916152,2010-09-16 14:02:04,5132.53229178565,2,15,0.5501165986061096,4.106568813323975,15.339380626220132,14.676533146435943,61.04657845108702,53.74381055796412,0.0001295089750783,0.0899572893977165,0,0,0
5098,173103.6043619577,2010-09-16 14:02:34,5162.547562128159,2,15,0.5501165986061096,4.109482765197754,15.343966975417468,14.676533146435943,61.06541831639266,53.74381055796412,9.70840483205393e-05,0.0899572893977165,0,0,0
5099,173133.61962711727,2010-09-16 14:03:04,5192.56282728773,2,15,0.5501165986061096,4.112396717071533,15.348553350473123,14.676533146435943,61.08427244061243,53.74381055796412,6.47544875391759e-05,0.0899572893977165,0,0,0
5100,173163.63492225166,2010-09-16 14:03:34,5222.578122447185,2,15,0.5501165986061096,4.115634441375732,15.353139699495532,14.676533146435943,61.10314060122522,53.74381055796412,9.71794142969884e-05,0.0899572893977165,0,0,0
5101,173193.6501840228,2010-09-16 14:04:04,5252.593384203261,2,15,0.5501165986061096,4.118710041046143,15.357726039898829,14.676533146435943,61.12202312437677,53.74381055796412,6.47544875391759e-05,0.0899572893977165,0,0,0
5102,173223.66542325763,2010-09-16 14:04:34,5282.608623453158,2,15,0.5501165986061096,4.121947765350342,15.362312461202448,14.676533146435943,61.14092051383927,53.74381055796412,9.70840483205393e-05,0.0899572893977165,0,0,0
5103,173253.68069171044,2010-09-16 14:05:04,5312.623891880888,2,15,0.5501165986061096,4.125185489654541,15.36689891204142,14.676533146435943,61.159832581707136,53.74381055796412,9.70840483205393e-05,0.0899572893977165,0,0,0
5104,173283.69599078968,2010-09-16 14:05:34,5342.639190970152,2,15,0.5499359965324402,4.128261566162109,15.371485339287917,14.676533146435943,61.178759337717565,53.74381055796412,9.71794142969884e-05,0.0899572893977165,0,0,0
5105,173313.71124039544,2010-09-16 14:06:04,5372.654440580912,2,15,0.5501165986061096,4.13166093826294,15.376071754330932,14.676533146435943,61.19770094993445,53.74381055796412,9.70840483205393e-05,0.0899572893977165,0,0,0
5106,173343.72663116353,2010-09-16 14:06:34,5402.669831429222,2,15,0.550297200679779,4.134898662567139,15.380658249935598,14.676533146435943,61.21665787562189,53.74381055796412,9.70840483205393e-05,0.0899572893977165,0,0,0
5107,173373.7418307845,2010-09-16 14:07:04,5432.685031085286,2,15,0.5499359965324402,4.137974739074707,15.385244709241691,14.676533146435943,61.2356297589624,53.74381055796412,3.24249267578125e-05,0.0899572893977165,0,0,0
5108,173403.75714024968,2010-09-16 14:07:34,5462.700340440176,2,15,0.5501165986061096,4.141697883605957,15.389831200030294,14.676533146435943,61.25461704287616,53.74381055796412,9.70840483205393e-05,0.0899572893977165,0,0,0
5109,173433.77230497354,2010-09-16 14:08:04,5492.715505143994,2,15,0.5501165986061096,4.144935607910156,15.394417699511743,14.676533146435943,61.27361978841318,53.74381055796412,6.47544875391759e-05,0.0899572893977165,0,0,0
5110,173463.78761537105,2010-09-16 14:08:34,5522.730815636724,2,15,0.5499359965324402,4.1483354568481445,15.399004035457688,14.676533146435943,61.29263771928201,53.74381055796412,9.71794142969884e-05,0.0899572893977165,0,0,0
5111,173493.802838631,2010-09-16 14:09:04,5552.74603880147,2,15,0.5501165986061096,4.151734828948975,15.403590428092809,14.676533146435943,61.31167149001429,53.74381055796412,9.70840483205393e-05,0.0899572893977165,0,0,0
5112,173523.81811286826,2010-09-16 14:09:34,5582.761313043713,2,15,0.5501165986061096,4.155134677886963,15.40817682575326,14.676533146435943,61.330720985296,53.74381055796412,6.47544875391759e-05,0.0899572893977165,0,0,0
5113,173553.8333599477,2010-09-16 14:10:04,5612.776560118141,2,15,0.5501165986061096,4.158696174621582,15.412763177318151,14.676533146435943,61.34978614389183,53.74381055796412,9.71794142969884e-05,0.0899572893977165,0,0,0
5114,173583.84878567306,2010-09-16 14:10:34,5642.791985848522,2,15,0.5499359965324402,4.162257671356201,15.41734955943394,14.676533146435943,61.36886735840737,53.74381055796412,9.71794142969884e-05,0.0899572893977165,0,0,0
5115,173613.86389178562,2010-09-16 14:11:04,5672.807091961087,2,15,0.5501165986061096,4.16581916809082,15.421935898782854,14.676533146435943,61.38796450394355,53.74381055796412,0.0001295089750783,0.0899572893977165,0,0,0
5116,173643.87929776672,2010-09-16 14:11:34,5702.822497972246,2,15,0.5499359965324402,4.16905689239502,15.426522293133027,14.676533146435943,61.407078126769775,53.74381055796412,3.24249267578125e-05,0.0899572893977165,0,0,0
5117,173673.89442524762,2010-09-16 14:12:04,5732.837625423075,2,15,0.550297200679779,4.172942161560059,15.4311086734701,14.676533146435943,61.42620796794031,53.74381055796412,9.71794142969884e-05,0.0899572893977165,0,0,0
5118,173703.90969853746,2010-09-16 14:12:34,5762.852898712941,2,15,0.550297200679779,4.176503658294678,15.43569506480424,14.676533146435943,61.44535430095744,53.74381055796412,9.71794142969884e-05,0.0899572893977165,0,0,0
5119,173733.92495698528,2010-09-16 14:13:04,5792.868157155746,2,15,0.5501165986061096,4.180065155029297,15.440281487909692,14.676533146435943,61.4645172812067,53.74381055796412,0.0001295089750783,0.0899572893977165,0,0,0
5120,173763.94281672133,2010-09-16 14:13:34,5822.88601699203,2,15,0.5501165986061096,4.183626651763916,15.444868271370172,14.676533146435943,61.483698434552856,53.74381055796412,9.71794142969884e-05,0.0899572893977165,0,0,0
5121,173793.9555281965,2010-09-16 14:14:04,5852.898728371975,2,15,0.5501165986061096,4.187349796295166,15.449454224953858,14.676533146435943,61.50289280658187,53.74381055796412,9.70840483205393e-05,0.0899572893977165,0,0,0
5122,173823.97075608303,2010-09-16 14:14:34,5882.913956253494,2,15,0.5501165986061096,4.190911293029785,15.454040662011044,14.676533146435943,61.52210620516585,53.74381055796412,6.47544875391759e-05,0.0899572893977165,0,0,0
5123,173853.98614713686,2010-09-16 14:15:04,5912.929347312329,2,15,0.5499359965324402,4.194796562194824,15.458627126336864,14.676533146435943,61.54133685602167,53.74381055796412,0.0001295089750783,0.0899572893977165,0,0,0
5124,173884.0013128031,2010-09-16 14:15:34,5942.944513008625,2,15,0.5501165986061096,4.198519706726074,15.46321351035353,14.676533146435943,61.560584360759776,53.74381055796412,0.0001295089750783,0.0899572893977165,0,0,0
5125,173894.7824353135,2010-09-16 14:15:45,5953.725635493984,2,15,0.550297200679779,4.200138568878174,15.464860890548715,14.676533146435943,61.56750212600281,53.74381055796412,0.0001295089750783,0.0899572893977165,0,0,0
5126,173924.79689433344,2010-09-16 14:16:15,30.01527536003331,3,15,0.0,4.117738723754883,15.464860890548715,14.676533146435943,61.56750212600281,53.74381055796412,-0.0004209518374409,0.0899572893977165,0,0,0
5127,173954.8122034979,2010-09-16 14:16:45,60.03058471993553,3,15,0.0,4.107540130615234,15.464860890548715,14.676533146435943,61.56750212600281,53.74381055796412,-0.0001942634553415,0.0899572893977165,0,0,0
5128,173984.827424818,2010-09-16 14:17:15,90.04580585962653,3,15,0.0,4.101550579071045,15.464860890548715,14.676533146435943,61.56750212600281,53.74381055796412,-9.70840483205393e-05,0.0899572893977165,0,0,0
5129,174014.79585067448,2010-09-16 14:17:45,120.01423171609132,3,15,0.0,4.097665309906006,15.464860890548715,14.676533146435943,61.56750212600281,53.74381055796412,-6.47544875391759e-05,0.0899572893977165,0,0,0
5130,174014.7964458479,2010-09-16 14:17:45,2.671668897e-06,4,15,0.995499074459076,4.199653148651123,15.464860891287508,14.676533146435943,61.56750212910547,53.74381055796412,0.0,0.0899572893977165,0,0,0
5131,174015.7964566036,2010-09-16 14:17:46,1.000013452425477,4,15,0.9452897310256958,4.199653148651123,15.465128932013148,14.676533146435943,61.5686278280798,53.74381055796412,0.0,0.0899572893977165,0,0,0
5132,174017.99952179825,2010-09-16 14:17:48,3.203078667134502,4,15,0.8948997259140015,4.199653148651123,15.46569084602788,14.676533146435943,61.57098770417785,53.74381055796412,0.0,0.0899572893977165,0,0,0
5133,174021.2963772667,2010-09-16 14:17:52,6.499934110529745,4,15,0.8441485166549683,4.199653148651123,15.466486162772652,14.676533146435943,61.57432782508323,53.74381055796412,-3.23295607813634e-05,0.0899572893977165,0,0,0
5134,174025.71818106424,2010-09-16 14:17:56,10.921737933148512,4,15,0.7939391136169434,4.199653148651123,15.467491036494128,14.676533146435943,61.57854804148709,53.74381055796412,-3.23295607813634e-05,0.0899572893977165,0,0,0
5135,174031.3747135596,2010-09-16 14:18:02,16.57827043350517,4,15,0.7439103722572327,4.199814796447754,15.468697765666915,14.676533146435943,61.58361600235754,53.74381055796412,3.23295607813634e-05,0.0899572893977165,0,0,0
5136,174038.67370240873,2010-09-16 14:18:09,23.877259352769027,4,15,0.6937009692192078,4.199814796447754,15.470153153950434,14.676533146435943,61.58972829751698,53.74381055796412,0.0,0.0899572893977165,0,0,0
5137,174048.31164774302,2010-09-16 14:18:19,33.515204601871595,4,15,0.6436722278594971,4.199814796447754,15.471940237408695,14.676533146435943,61.59723360555658,53.74381055796412,3.23295607813634e-05,0.0899572893977165,0,0,0
5138,174061.59273140607,2010-09-16 14:18:32,46.79628824990071,4,15,0.5936434268951416,4.199653148651123,15.474217720001686,14.676533146435943,61.606798478511294,53.74381055796412,-3.23295607813634e-05,0.0899572893977165,0,0,0
5139,174081.45201707337,2010-09-16 14:18:52,66.65557394226357,4,15,0.5436146855354309,4.199653148651123,15.477345661838722,14.676533146435943,61.61993511072987,53.74381055796412,-3.23295607813634e-05,0.0899572893977165,0,0,0
5140,174114.48278290153,2010-09-16 14:19:25,99.68633977042694,4,15,0.4932246804237366,4.199814796447754,15.482083689101346,14.676533146435943,61.639833691835626,53.74381055796412,3.23295607813634e-05,0.0899572893977165,0,0,0
5141,174173.71642491486,2010-09-16 14:20:24,158.91998175869767,4,15,0.4431959092617035,4.199653148651123,15.489754825537034,14.676533146435943,61.67205065018315,53.74381055796412,3.24249267578125e-05,0.0899572893977165,0,0,0
5142,174264.6997260419,2010-09-16 14:21:55,249.90328289576675,4,15,0.392986536026001,4.199491024017334,15.500295480892165,14.676533146435943,61.71631888475,53.74381055796412,-3.24249267578125e-05,0.0899572893977165,0,0,0
5143,174382.04219893695,2010-09-16 14:23:52,367.2457557807758,4,15,0.3429577648639679,4.199814796447754,15.512275908002698,14.676533146435943,61.7666338647495,53.74381055796412,-3.24249267578125e-05,0.0899572893977165,0,0,0
5144,174522.10293501703,2010-09-16 14:26:12,507.3064919661,4,15,0.2927483916282654,4.199653148651123,15.52463138770836,14.676533146435943,61.81852389620926,53.74381055796412,-3.23295607813634e-05,0.0899572893977165,0,0,0
5145,174692.6321538475,2010-09-16 14:29:03,677.8357107213776,4,15,0.2425390183925628,4.199653148651123,15.537296799406166,14.676533146435943,61.8717154210607,53.74381055796412,-3.23295607813634e-05,0.0899572893977165,0,0,0
5146,174903.9733870546,2010-09-16 14:32:34,889.1769439034358,4,15,0.1923296302556991,4.199653148651123,15.550035427858564,14.676533146435943,61.9252145894368,53.74381055796412,-3.23295607813634e-05,0.0899572893977165,0,0,0
5147,175186.93888794296,2010-09-16 14:37:17,1172.1424447918073,4,15,0.1421202570199966,4.199653148651123,15.56311648824626,14.676533146435943,61.98015198619712,53.74381055796412,-3.23295607813634e-05,0.0899572893977165,0,0,0
5148,175609.94937780418,2010-09-16 14:44:20,1595.1529346580503,4,15,0.0920914858579635,4.199653148651123,15.576699303338064,14.676533146435943,62.03719664765836,53.74381055796412,-3.23295607813634e-05,0.0899572893977165,0,0,0
5149,176248.582399678,2010-09-16 14:54:59,2233.7859565569443,4,15,0.0498289167881011,4.199653148651123,15.588943784883536,14.676533146435943,62.08862069087954,53.74381055796412,0.0,0.0899572893977165,0,0,0
5150,176278.59356421264,2010-09-16 14:55:29,30.01524300928086,5,15,0.0,4.192044734954834,15.588943784883536,14.676533146435943,62.08862069087954,53.74381055796412,-3.23295607813634e-05,0.0899572893977165,0,0,0
5151,176308.59333548206,2010-09-16 14:55:59,60.01501424864373,5,15,0.0,4.190911293029785,15.588943784883536,14.676533146435943,62.08862069087954,53.74381055796412,0.0,0.0899572893977165,0,0,0
5152,176308.77736011386,2010-09-16 14:55:59,0.187489542743232,6,15,-1.9243103452026844e-05,4.190911293029785,15.588943784883536,14.676533147438136,62.08862069087954,53.7438105621642,0.0,0.0915781408548355,0,0,0
5153,176313.60546559293,2010-09-16 14:56:04,5.015595137092203,6,15,0.0008838032954372,4.190911293029785,15.588944632676666,14.67653314760528,62.08862424395415,53.74381056286468,0.0,0.0915781408548355,0,0,0
5154,176343.6174113652,2010-09-16 14:56:34,30.015261405199904,7,15,-1.0993878841400146,4.020122051239014,15.588944632676666,14.68570100056614,62.08862424395415,53.78085981743892,-0.0009065627818927,0.0915781408548355,0,0,0
5155,176373.63267187818,2010-09-16 14:57:04,60.030521918172674,7,15,-1.099568486213684,3.994058132171631,15.588944632676666,14.694868809603577,62.08862424395415,53.81758744146556,-0.0005827903514727,0.0915781408548355,0,0,0
5156,176403.64796649126,2010-09-16 14:57:34,90.04581655131463,7,15,-1.099568486213684,3.976250886917114,15.588944632676666,14.704036620445484,62.08862424395415,53.85411803479048,-0.0003237724304199,0.0915781408548355,0,0,0
5157,176433.66322054813,2010-09-16 14:58:04,120.0610705931344,7,15,-1.0997490882873535,3.962490558624268,15.588944632676666,14.713204286873172,62.08862424395415,53.89050519001421,-0.0003237724304199,0.0915781408548355,0,0,0
5158,176463.67849066007,2010-09-16 14:58:34,150.0763407000551,7,15,-1.0993878841400146,3.9511585235595694,15.588944632676666,14.722371989359132,62.08862424395415,53.92677768905564,-0.0002590179501567,0.0915781408548355,0,0,0
5159,176493.69387064123,2010-09-16 14:59:04,180.09172068123894,7,15,-1.099568486213684,3.940797805786133,15.588944632676666,14.731539753067931,62.08862424395415,53.96295142711348,-0.0002590179501567,0.0915781408548355,0,0,0
5160,176523.70903367086,2010-09-16 14:59:34,210.10688370586576,7,15,-1.0993878841400146,3.931246519088745,15.588944632676666,14.740707413720644,62.08862424395415,53.999034963178055,-0.0002590179501567,0.0915781408548355,0,0,0
5161,176553.7243036475,2010-09-16 15:00:04,240.12215367744872,7,15,-1.099568486213684,3.922342777252197,15.588944632676666,14.74987509137352,62.08862424395415,54.03503409726087,-0.0002266406954731,0.0915781408548355,0,0,0
5162,176583.73956744865,2010-09-16 15:00:34,270.13741747862935,7,15,-1.099568486213684,3.913762807846069,15.588944632676666,14.759042834509524,62.08862424395415,54.070953457425055,-0.0002266406954731,0.0915781408548355,0,0,0
5163,176613.75483789144,2010-09-16 15:01:04,300.15268795146346,7,15,-1.099568486213684,3.9053449630737305,15.588944632676666,14.76821057109149,62.08862424395415,54.10679534895223,-0.0002590179501567,0.0915781408548355,0,0,0
5164,176643.77008096085,2010-09-16 15:01:34,330.1679309908194,7,15,-1.0993878841400146,3.897250652313232,15.588944632676666,14.777378320252176,62.08862424395415,54.14256164565442,-0.0002266406954731,0.0915781408548355,0,0,0
5165,176673.78533150893,2010-09-16 15:02:04,360.1831815589684,7,15,-1.099568486213684,3.8891563415527344,15.588944632676666,14.786546068504698,62.08862424395415,54.17825428680692,-0.0002266406954731,0.0915781408548355,0,0,0
5166,176703.8006267035,2010-09-16 15:02:34,390.1984767535116,7,15,-1.0993878841400146,3.881547689437866,15.588944632676666,14.795713855086646,62.08862424395415,54.21387445595549,-0.0001942634553415,0.0915781408548355,0,0,0
5167,176733.81598584764,2010-09-16 15:03:04,420.2138359026956,7,15,-1.099568486213684,3.873777151107788,15.588944632676666,14.804881599848883,62.08862424395415,54.24942300934113,-0.0001942634553415,0.0915781408548355,0,0,0
5168,176763.83112803526,2010-09-16 15:03:34,450.2289780953225,7,15,-1.099568486213684,3.86616849899292,15.588944632676666,14.81404922109304,62.08862424395415,54.28490081544276,-0.0002266406954731,0.0915781408548355,0,0,0
5169,176793.8464672898,2010-09-16 15:04:04,480.2443174601216,7,15,-1.099568486213684,3.858559846878052,15.588944632676666,14.823216962271808,62.08862424395415,54.32030990007612,-0.0001942634553415,0.0915781408548355,0,0,0
5170,176823.8618393412,2010-09-16 15:04:34,510.2596893962236,7,15,-1.0997490882873535,3.851274967193604,15.588944632676666,14.832384642568222,62.08862424395415,54.35565085401978,-0.0001942634553415,0.0915781408548355,0,0,0
5171,176853.87697462656,2010-09-16 15:05:05,540.274824661559,7,15,-1.099568486213684,3.8439900875091553,15.588944632676666,14.841552260228603,62.08862424395415,54.39092439923646,-0.0001942634553415,0.0915781408548355,0,0,0
5172,176883.89220642287,2010-09-16 15:05:35,570.290056452838,7,15,-1.099568486213684,3.836867094039917,15.588944632676666,14.850720049579632,62.08862424395415,54.42613261230443,-0.0001942634553415,0.0915781408548355,0,0,0
5173,176913.9075017778,2010-09-16 15:06:05,600.3053518077817,7,15,-1.099568486213684,3.829906225204468,15.588944632676666,14.85988779283922,62.08862424395415,54.46127518606176,-0.0001618862152099,0.0915781408548355,0,0,0
5174,176943.922741549,2010-09-16 15:06:35,630.3205915789798,7,15,-1.099568486213684,3.82262134552002,15.588944632676666,14.869055565337613,62.08862424395415,54.49635350788733,-0.0001942634553415,0.0915781408548355,0,0,0
5175,176973.9380149642,2010-09-16 15:07:05,660.3358649941586,7,15,-1.0997490882873535,3.815984010696411,15.588944632676666,14.878223337201629,62.08862424395415,54.53136881887723,-0.0001942634553415,0.0915781408548355,0,0,0
5176,177003.95327843455,2010-09-16 15:07:35,690.3511284645133,7,15,-1.099568486213684,3.8091847896575928,15.588944632676666,14.88739108613668,62.08862424395415,54.566321583698524,-0.0001942634553415,0.0915781408548355,0,0,0
5177,177033.9685704311,2010-09-16 15:08:05,720.366420461074,7,15,-1.099568486213684,3.802871227264404,15.588944632676666,14.896558824293198,62.08862424395415,54.60121328235343,-0.0001295089750783,0.0915781408548355,0,0,0
5178,177063.98381406194,2010-09-16 15:08:35,750.3816640919063,7,15,-1.0993878841400146,3.796233892440796,15.588944632676666,14.90572656056691,62.08862424395415,54.63604475240796,-0.0001295089750783,0.0915781408548355,0,0,0
5179,177093.99908127662,2010-09-16 15:09:05,780.3969313066077,7,15,-1.099568486213684,3.7897584438323975,15.588944632676666,14.914894344504823,62.08862424395415,54.67081716299143,-0.0001618862152099,0.0915781408548355,0,0,0
5180,177124.01435073695,2010-09-16 15:09:35,810.4122007669145,7,15,-1.099568486213684,3.783444881439209,15.588944632676666,14.924062134687246,62.08862424395415,54.705531771455846,-0.0001618862152099,0.0915781408548355,0,0,0
5181,177154.02975432706,2010-09-16 15:10:05,840.4276043570296,7,15,-1.099568486213684,3.77745509147644,15.588944632676666,14.933229999088852,62.08862424395415,54.74019022922558,-0.0001295089750783,0.0915781408548355,0,0,0
5182,177184.04497805322,2010-09-16 15:10:35,870.4428282937023,7,15,-1.0997490882873535,3.771303415298462,15.588944632676666,14.942397768429933,62.08862424395415,54.77479266809162,-0.0001295089750783,0.0915781408548355,0,0,0
5183,177214.06030016494,2010-09-16 15:11:05,900.4581502099472,7,15,-1.099568486213684,3.7654755115509033,15.588944632676666,14.951565537640509,62.08862424395415,54.80934033872238,-0.0001618862152099,0.0915781408548355,0,0,0
5184,177244.07544103923,2010-09-16 15:11:35,930.4732910943084,7,15,-1.099568486213684,3.7598094940185542,15.588944632676666,14.960733314542097,62.08862424395415,54.84383470157595,-0.0001295089750783,0.0915781408548355,0,0,0
5185,177274.0906991613,2010-09-16 15:12:05,960.4885491912504,7,15,-1.0997490882873535,3.753981590270996,15.588944632676666,14.969901105146604,62.08862424395415,54.87827679587206,-0.0001618862152099,0.0915781408548355,0,0,0
5186,177304.10596693738,2010-09-16 15:12:35,990.5038169673531,7,15,-1.0997490882873535,3.748477697372437,15.588944632676666,14.979068910220557,62.08862424395415,54.912667492002754,-0.0001618862152099,0.0915781408548355,0,0,0
5187,177334.1212467335,2010-09-16 15:13:05,1020.5190967634596,7,15,-1.099568486213684,3.743135452270508,15.588944632676666,14.9882367289649,62.08862424395415,54.947007640918805,-0.0001295089750783,0.0915781408548355,0,0,0
5188,177364.13648581295,2010-09-16 15:13:35,1050.534335842931,7,15,-1.099568486213684,3.737631320953369,15.588944632676666,14.997404522026407,62.08862424395415,54.98129810193634,-0.0001618862152099,0.0915781408548355,0,0,0
5189,177394.151770787,2010-09-16 15:14:05,1080.5496208169625,7,15,-1.0993878841400146,3.73228907585144,15.588944632676666,15.006572334208771,62.08862424395415,55.015539807521776,-0.0001295089750783,0.0915781408548355,0,0,0
5190,177424.167022899,2010-09-16 15:14:35,1110.5648729289649,7,15,-1.0993878841400146,3.7271087169647217,15.588944632676666,15.015740161760723,62.08862424395415,55.049733360888304,-0.0001295089750783,0.0915781408548355,0,0,0
5191,177454.1823127402,2010-09-16 15:15:05,1140.5801627901956,7,15,-1.099568486213684,3.722090244293213,15.588944632676666,15.024907935261911,62.08862424395415,55.0838799478999,-0.0001295089750783,0.0915781408548355,0,0,0
5192,177484.1975412232,2010-09-16 15:15:35,1170.5953912832415,7,15,-1.0997490882873535,3.717071771621704,15.588944632676666,15.034075626225087,62.08862424395415,55.11797945215606,-9.713172767078504e-05,0.0915781408548355,0,0,0
5193,177514.21281305442,2010-09-16 15:16:05,1200.6106630994288,7,15,-1.099568486213684,3.7120532989501953,15.588944632676666,15.04324342158436,62.08862424395415,55.1520331017948,-0.0001295089750783,0.0915781408548355,0,0,0
5194,177544.22813371752,2010-09-16 15:16:35,1230.6259837525208,7,15,-1.099568486213684,3.7070348262786874,15.588944632676666,15.052411286766066,62.08862424395415,55.18604173022782,-0.0001295089750783,0.0915781408548355,0,0,0
5195,177574.24336236596,2010-09-16 15:17:05,1260.6412124961923,7,15,-1.099568486213684,3.702178239822388,15.588944632676666,15.061579082016438,62.08862424395415,55.22000533923012,-0.0001295089750783,0.0915781408548355,0,0,0
5196,177604.2586074755,2010-09-16 15:17:35,1290.656457510478,7,15,-1.0993878841400146,3.697645425796509,15.588944632676666,15.070746942487508,62.08862424395415,55.25392512416057,-9.713172767078504e-05,0.0915781408548355,0,0,0
5197,177634.27565878356,2010-09-16 15:18:05,1320.6735088987512,7,15,-1.099568486213684,3.69278883934021,15.588944632676666,15.07991531503845,62.08862424395415,55.287803772188695,-0.0001295089750783,0.0915781408548355,0,0,0
5198,177664.2772290636,2010-09-16 15:18:35,1350.6750791888214,7,15,-1.099568486213684,3.688256025314331,15.588944632676666,15.08907893323978,62.08862424395415,55.321622489669565,-0.0001295089750783,0.0915781408548355,0,0,0
5199,177694.2889942868,2010-09-16 15:19:05,1380.6868445323132,7,15,-1.099568486213684,3.683885097503662,15.588944632676666,15.09824562094854,62.08862424395415,55.35541067320992,-9.713172767078504e-05,0.0915781408548355,0,0,0
5200,177724.30406051982,2010-09-16 15:19:35,1410.7019105497957,7,15,-1.0997490882873535,3.679190397262573,15.588944632676666,15.107413382159676,62.08862424395415,55.38916169042091,-0.0001295089750783,0.0915781408548355,0,0,0
5201,177754.3194547165,2010-09-16 15:20:05,1440.7173047615008,7,15,-1.099568486213684,3.6746575832366943,15.588944632676666,15.116581231384377,62.08862424395415,55.42287262181956,-0.0001618862152099,0.0915781408548355,0,0,0
5202,177784.334750688,2010-09-16 15:20:35,1470.732600727971,7,15,-1.099568486213684,3.670610666275024,15.588944632676666,15.125748986364622,62.08862424395415,55.45654311798308,-9.713172767078504e-05,0.0915781408548355,0,0,0
5203,177814.34987864507,2010-09-16 15:21:05,1500.747728705114,7,15,-1.099568486213684,3.666239738464356,15.588944632676666,15.134916705207509,62.08862424395415,55.490173764677294,-0.0001295089750783,0.0915781408548355,0,0,0
5204,177844.3651457946,2010-09-16 15:21:35,1530.7629958496402,7,15,-1.099568486213684,3.662030696868897,15.588944632676666,15.144084407634594,62.08862424395415,55.52376556056822,-9.713172767078504e-05,0.0915781408548355,0,0,0
5205,177874.38038934523,2010-09-16 15:22:05,1560.7782393852349,7,15,-1.099568486213684,3.6578216552734375,15.588944632676666,15.153252116731329,62.08862424395415,55.55731890971152,-0.0001295089750783,0.0915781408548355,0,0,0
5206,177904.39579661452,2010-09-16 15:22:35,1590.7936466445087,7,15,-1.0997490882873535,3.653774499893189,15.588944632676666,15.162419835627968,62.08862424395415,55.5908341244491,-9.713172767078504e-05,0.0915781408548355,0,0,0
5207,177934.41091879722,2010-09-16 15:23:05,1620.8087688271878,7,15,-1.099568486213684,3.64972734451294,15.588944632676666,15.171587525069066,62.08862424395415,55.62431230908892,-9.713172767078504e-05,0.0915781408548355,0,0,0
5208,177964.42659885742,2010-09-16 15:23:35,1650.82444889744,7,15,-1.099568486213684,3.645842075347901,15.588944632676666,15.18075531849478,62.08862424395415,55.65775430976567,-6.47544875391759e-05,0.0915781408548355,0,0,0
5209,177994.4414610762,2010-09-16 15:24:05,1680.8393111061844,7,15,-1.0993878841400146,3.641956806182861,15.588944632676666,15.18992291328038,62.08862424395415,55.69115985085693,-9.713172767078504e-05,0.0915781408548355,0,0,0
5210,178024.4567692782,2010-09-16 15:24:35,1710.854619328246,7,15,-1.099568486213684,3.6380715370178223,15.588944632676666,15.19909064466368,62.08862424395415,55.72453079188165,-9.713172767078504e-05,0.0915781408548355,0,0,0
5211,178054.47215581077,2010-09-16 15:25:05,1740.8700058407333,7,15,-1.099568486213684,3.634510040283203,15.588944632676666,15.208258370017129,62.08862424395415,55.75786735965647,-6.47544875391759e-05,0.0915781408548355,0,0,0
5212,178084.48725348225,2010-09-16 15:25:35,1770.8851035122286,7,15,-1.0997490882873535,3.630624771118164,15.588944632676666,15.217426015450611,62.08862424395415,55.79116947973337,-9.713172767078504e-05,0.0915781408548355,0,0,0
5213,178114.50251501278,2010-09-16 15:26:05,1800.9003650678037,7,15,-1.099568486213684,3.627225160598755,15.588944632676666,15.226593732036608,62.08862424395415,55.82443847316531,-6.47544875391759e-05,0.0915781408548355,0,0,0
5214,178144.51779042292,2010-09-16 15:26:35,1830.9156404529,7,15,-1.099568486213684,3.623663663864136,15.588944632676666,15.235761377844756,62.08862424395415,55.85767468861712,-9.713172767078504e-05,0.0915781408548355,0,0,0
5215,178174.53302709138,2010-09-16 15:27:05,1860.930877151428,7,15,-1.0997490882873535,3.620264053344727,15.588944632676666,15.244929093856468,62.08862424395415,55.89087949647324,-6.47544875391759e-05,0.0915781408548355,0,0,0
5216,178204.5484202705,2010-09-16 15:27:35,1890.9462703004808,7,15,-1.0993878841400146,3.6170263290405273,15.588944632676666,15.2540968451186,62.08862424395415,55.92405379759066,-9.713172767078504e-05,0.0915781408548355,0,0,0
5217,178234.56360478877,2010-09-16 15:28:05,1920.9614548438217,7,15,-1.099568486213684,3.613788604736328,15.588944632676666,15.26326445023254,62.08862424395415,55.95719755145352,-6.47544875391759e-05,0.0915781408548355,0,0,0
5218,178264.57883642468,2010-09-16 15:28:35,1950.9766864546505,7,15,-1.0993878841400146,3.610550880432129,15.588944632676666,15.272432073152912,62.08862424395415,55.99031209252089,-6.47544875391759e-05,0.0915781408548355,0,0,0
5219,178294.594097885,2010-09-16 15:29:05,1980.991947914988,7,15,-1.0993878841400146,3.60747504234314,15.588944632676666,15.281599655543648,62.08862424395415,56.0233976119807,-3.237724376958795e-05,0.0915781408548355,0,0,0
5220,178324.6093508391,2010-09-16 15:29:35,2011.0072008690925,7,15,-1.099568486213684,3.604237318038941,15.588944632676666,15.290767212492538,62.08862424395415,56.05645446764955,-6.47544875391759e-05,0.0915781408548355,0,0,0
5221,178354.62462233953,2010-09-16 15:30:05,2041.022472374504,7,15,-1.0997490882873535,3.601323366165161,15.588944632676666,15.299934736698685,62.08862424395415,56.08948356730022,-6.47544875391759e-05,0.0915781408548355,0,0,0
5222,178384.639894672,2010-09-16 15:30:35,2071.037744701968,7,15,-1.0993878841400146,3.598409414291382,15.588944632676666,15.309102300089068,62.08862424395415,56.1224852604496,-9.713172767078504e-05,0.0915781408548355,0,0,0
5223,178414.65523769092,2010-09-16 15:31:05,2101.053087941438,7,15,-1.099568486213684,3.5953335762023926,15.588944632676666,15.318269955932182,62.08862424395415,56.15545994963326,-9.713172767078504e-05,0.0915781408548355,0,0,0
5224,178444.67043316652,2010-09-16 15:31:35,2131.0682832215803,7,15,-1.0997490882873535,3.5924196243286133,15.588944632676666,15.327437481861937,62.08862424395415,56.188406903540205,-9.713172767078504e-05,0.0915781408548355,0,0,0
5225,178474.68567865703,2010-09-16 15:32:05,2161.083528686992,7,15,-1.099568486213684,3.589505910873413,15.588944632676666,15.336605071217944,62.08862424395415,56.22132765229692,-9.713172767078504e-05,0.0915781408548355,0,0,0
5226,178504.70097707963,2010-09-16 15:32:35,2191.098827109593,7,15,-1.099568486213684,3.586591958999634,15.588944632676666,15.345772674572403,62.08862424395415,56.254221843969454,-9.713172767078504e-05,0.0915781408548355,0,0,0
5227,178534.71621017414,2010-09-16 15:33:05,2221.114060204125,7,15,-1.099568486213684,3.5838398933410645,15.588944632676666,15.35494028510686,62.08862424395415,56.2870896152495,-6.47544875391759e-05,0.0915781408548355,0,0,0
5228,178564.73146657183,2010-09-16 15:33:35,2251.1293166018254,7,15,-1.099568486213684,3.580925941467285,15.588944632676666,15.36410785128894,62.08862424395415,56.31993107814972,-9.713172767078504e-05,0.0915781408548355,0,0,0
5229,178594.7467316011,2010-09-16 15:34:05,2281.144581631072,7,15,-1.099568486213684,3.578011989593506,15.588944632676666,15.37327545248004,62.08862424395415,56.35274584975733,-3.237724376958795e-05,0.0915781408548355,0,0,0
5230,178624.7622014366,2010-09-16 15:34:35,2311.1600514865954,7,15,-1.099568486213684,3.5750980377197266,15.588944632676666,15.382443158473762,62.08862424395415,56.38553408292907,-9.713172767078504e-05,0.0915781408548355,0,0,0
5231,178654.77728584997,2010-09-16 15:35:05,2341.1751358999963,7,15,-1.099568486213684,3.571860313415528,15.588944632676666,15.391610706429187,62.08862424395415,56.41829454598723,-9.713172767078504e-05,0.0915781408548355,0,0,0
5232,178684.79266241263,2010-09-16 15:35:35,2371.1905125428475,7,15,-1.099568486213684,3.568784475326538,15.588944632676666,15.40077832846888,62.08862424395415,56.451027428574335,-0.0001295089750783,0.0915781408548355,0,0,0
5233,178714.8078014574,2010-09-16 15:36:05,2401.2056515174413,7,15,-1.099568486213684,3.565870523452759,15.588944632676666,15.409945869782872,62.08862424395415,56.483731545777374,-6.47544875391759e-05,0.0915781408548355,0,0,0
5234,178744.82309389004,2010-09-16 15:36:35,2431.220943920016,7,15,-1.099568486213684,3.562794685363769,15.588944632676666,15.419113409041596,62.08862424395415,56.516407279382456,-9.713172767078504e-05,0.0915781408548355,0,0,0
5235,178774.83832131544,2010-09-16 15:37:05,2461.236171345397,7,15,-1.099568486213684,3.5595569610595703,15.588944632676666,15.428280989701308,62.08862424395415,56.54905468836978,-6.47544875391759e-05,0.0915781408548355,0,0,0
5236,178804.8536090062,2010-09-16 15:37:36,2491.25145903621,7,15,-1.099568486213684,3.556319236755371,15.588944632676666,15.437448646816044,62.08862424395415,56.5816729456262,-9.713172767078504e-05,0.0915781408548355,0,0,0
5237,178834.8689289626,2010-09-16 15:38:06,2521.266778992562,7,15,-1.0993878841400146,3.553081512451172,15.588944632676666,15.446616294152802,62.08862424395415,56.61426112881583,-9.713172767078504e-05,0.0915781408548355,0,0,0
5238,178864.88414163614,2010-09-16 15:38:36,2551.2819916911826,7,15,-1.0993878841400146,3.5498437881469727,15.588944632676666,15.455783890816557,62.08862424395415,56.64681965460505,-6.47544875391759e-05,0.0915781408548355,0,0,0
5239,178894.89937855524,2010-09-16 15:39:06,2581.297228585199,7,15,-1.099568486213684,3.5464441776275635,15.588944632676666,15.464951525206349,62.08862424395415,56.67934768421803,-9.713172767078504e-05,0.0915781408548355,0,0,0
5240,178924.9146433589,2010-09-16 15:39:36,2611.3124933888826,7,15,-1.099568486213684,3.5428826808929443,15.588944632676666,15.474119145801271,62.08862424395415,56.71184388350487,-9.713172767078504e-05,0.0915781408548355,0,0,0
5241,178954.92991435804,2010-09-16 15:40:06,2641.32776438803,7,15,-1.0997490882873535,3.539321184158325,15.588944632676666,15.48328677200093,62.08862424395415,56.74430789629603,-9.713172767078504e-05,0.0915781408548355,0,0,0
5242,178984.94518065045,2010-09-16 15:40:36,2671.34303068043,7,15,-1.099568486213684,3.535597801208496,15.588944632676666,15.49245440177393,62.08862424395415,56.776738843491,-9.713172767078504e-05,0.0915781408548355,0,0,0
5243,179014.96043801054,2010-09-16 15:41:06,2701.358288070607,7,15,-1.099568486213684,3.531874418258667,15.588944632676666,15.501622021090355,62.08862424395415,56.809135328184105,-9.713172767078504e-05,0.0915781408548355,0,0,0
5244,179044.97570445333,2010-09-16 15:41:36,2731.373554483306,7,15,-1.099568486213684,3.527989149093628,15.588944632676666,15.510789712345195,62.08862424395415,56.8414968235005,-9.713172767078504e-05,0.0915781408548355,0,0,0
5245,179074.9909874825,2010-09-16 15:42:06,2761.388837512483,7,15,-1.099568486213684,3.523941993713379,15.588944632676666,15.51995734204203,62.08862424395415,56.873821165233046,-9.713172767078504e-05,0.0915781408548355,0,0,0
5246,179105.0062517749,2010-09-16 15:42:36,2791.4041018048897,7,15,-1.099568486213684,3.51973295211792,15.588944632676666,15.529124896785952,62.08862424395415,56.90610713845779,-9.713172767078504e-05,0.0915781408548355,0,0,0
5247,179135.02152173646,2010-09-16 15:43:06,2821.4193717664475,7,15,-1.0993878841400146,3.515200138092041,15.588944632676666,15.538292521484554,62.08862424395415,56.938353804795824,-0.0001295089750783,0.0915781408548355,0,0,0
5248,179165.03688548715,2010-09-16 15:43:36,2851.4347355421805,7,15,-1.0997490882873535,3.510667562484741,15.588944632676666,15.547460143699656,62.08862424395415,56.970558948142376,-0.0001295089750783,0.0915781408548355,0,0,0
5249,179195.05202467227,2010-09-16 15:44:06,2881.4498747022376,7,15,-1.0993878841400146,3.5058109760284424,15.588944632676666,15.556627754783246,62.08862424395415,57.002720557436845,-9.713172767078504e-05,0.0915781408548355,0,0,0
5250,179225.06730638817,2010-09-16 15:44:36,2911.465156428161,7,15,-1.099568486213684,3.5004687309265137,15.588944632676666,15.565795429128112,62.08862424395415,57.03483552759166,-0.0001295089750783,0.0915781408548355,0,0,0
5251,179255.08267811878,2010-09-16 15:45:06,2941.4805281537374,7,15,-1.099568486213684,3.494802713394165,15.588944632676666,15.57496310906037,62.08862424395415,57.06690100093475,-0.0001618862152099,0.0915781408548355,0,0,0
5252,179285.097834582,2010-09-16 15:45:36,2971.495684637036,7,15,-1.099568486213684,3.4886510372161865,15.588944632676666,15.584130784536049,62.08862424395415,57.09891258731585,-0.0001618862152099,0.0915781408548355,0,0,0
5253,179315.11307518027,2010-09-16 15:46:06,3001.510925210236,7,15,-1.099568486213684,3.482013702392578,15.588944632676666,15.593298397501275,62.08862424395415,57.13086542709399,-0.0001618862152099,0.0915781408548355,0,0,0
5254,179345.12836186856,2010-09-16 15:46:36,3031.5262118985465,7,15,-1.099568486213684,3.4742431640625,15.588944632676666,15.602465994863955,62.08862424395415,57.16275243508833,-0.0002266406954731,0.0915781408548355,0,0,0
5255,179375.14360720367,2010-09-16 15:47:06,3061.541457233633,7,15,-1.099568486213684,3.465986967086792,15.588944632676666,15.611633596987746,62.08862424395415,57.19456617208687,-0.0002266406954731,0.0915781408548355,0,0,0
5256,179405.15887518527,2010-09-16 15:47:36,3091.5567252152487,7,15,-1.0997490882873535,3.4562737941741943,15.588944632676666,15.620801220393757,62.08862424395415,57.22629727049905,-0.0002590179501567,0.0915781408548355,0,0,0
5257,179435.1741341644,2010-09-16 15:48:06,3121.571984194393,7,15,-1.099568486213684,3.444779872894287,15.588944632676666,15.629968850321736,62.08862424395415,57.25793164948157,-0.0003237724304199,0.0915781408548355,0,0,0
5258,179465.1894110683,2010-09-16 15:48:36,3151.58726109828,7,15,-1.099568486213684,3.4306960105896,15.588944632676666,15.639136548988535,62.08862424395415,57.28944949953896,-0.0003884792386088,0.0915781408548355,0,0,0
5259,179495.20473377654,2010-09-16 15:49:06,3181.6025838365767,7,15,-1.099568486213684,3.413050413131714,15.588944632676666,15.648304200583253,62.08862424395415,57.32082312462106,-0.0005180359003134,0.0915781408548355,0,0,0
5260,179525.21988806938,2010-09-16 15:49:36,3211.6177380993327,7,15,-1.099568486213684,3.3897387981414795,15.588944632676666,15.657471700705916,62.08862424395415,57.35201097102637,-0.0007446765666827,0.0915781408548355,0,0,0
5261,179555.23518449196,2010-09-16 15:50:06,3241.633034521941,7,15,-1.0992072820663452,3.3576853275299072,15.588944632676666,15.666638577410716,62.08862424395415,57.382945637240326,-0.0010036944877356,0.0915781408548355,0,0,0
5262,179585.2530330451,2010-09-16 15:50:36,3271.650883175311,7,15,-1.099568486213684,3.3112242221832275,15.588944632676666,15.675806373283091,62.08862424395415,57.413528362478935,-0.0014245987404137,0.0915781408548355,0,0,0
5263,179615.2657165304,2010-09-16 15:51:06,3301.663566655613,7,15,-1.099568486213684,3.244041681289673,15.588944632676666,15.68497242871133,62.08862424395415,57.44359095288262,-0.0021045207977294,0.0915781408548355,0,0,0
5264,179645.28096866244,2010-09-16 15:51:36,3331.6788186924286,7,15,-1.0993878841400146,3.144643783569336,15.588944632676666,15.694139332467396,62.08862424395415,57.4729057483278,-0.0031405924819409,0.0915781408548355,0,0,0
5265,179675.29623677942,2010-09-16 15:52:06,3361.694086809382,7,15,-1.099568486213684,2.978549003601074,15.588944632676666,15.703306234959992,62.08862424395415,57.50105356434262,-0.0059250355698168,0.0915781408548355,0,0,0
5266,179693.06177192327,2010-09-16 15:52:24,3379.45962195326,7,15,-1.099568486213684,2.7784583568573,15.588944632676666,15.708731942608246,62.08862424395415,57.51673304182071,-0.0115262512117624,0.0915781408548355,0,0,0
5267,179697.92098956308,2010-09-16 15:52:29,3384.318839593061,7,15,-1.0993878841400146,2.699943780899048,15.588944632676666,15.710215985093734,62.08862424395415,57.520799430133664,-0.013080358505249,0.0915781408548355,0,0,0
5268,179757.94176472307,2010-09-16 15:53:29,60.01477982849497,8,15,0.0,3.382939577102661,15.588944632676666,15.710215985093734,62.08862424395415,57.520799430133664,0.0012303352123126,0.0915781408548355,0,0,0
5269,179758.1360006539,2010-09-16 15:53:29,0.187497748225378,9,15,-1.9243103452026844e-05,3.382939577102661,15.588944632676666,15.710215986095967,62.08862424395415,57.52079943352416,0.0,0.0890663415193557,0,0,0
5270,179762.96391646453,2010-09-16 15:53:34,5.015413558844963,9,15,0.0007031940040178,3.3902244567871094,15.588945554629186,15.710215986345924,62.08862736690056,57.52079943437009,0.0010036944877356,0.0890663415193557,0,0,0
