Data_Point,Test_Time(s),Date_Time,Step_Time(s),Step_Index,Cycle_Index,Current(A),Voltage(V),Charge_Capacity(Ah),Discharge_Capacity(Ah),Charge_Energy(Wh),Discharge_Energy(Wh),dV/dt(V/s),Internal_Resistance(Ohm),Is_FC_Data,AC_Impedance(Ohm),ACI_Phase_Angle(Deg)
6670,227408.9000765085,2010-09-17 05:07:45,30.015525188643963,1,20,0.0,3.43215274810791,19.73227838545916,19.85337712476218,78.59040698081587,72.68953719101934,0.000679874443449,0.0889859497547149,0,0,0
6671,227438.91521971364,2010-09-17 05:08:15,60.0306684088359,1,20,0.0,3.453197956085205,19.73227838545916,19.85337712476218,78.59040698081587,72.68953719101934,0.0004856586456298,0.0889859497547149,0,0,0
6672,227468.93036383105,2010-09-17 05:08:45,90.04581251624246,1,20,0.0,3.4682533740997314,19.73227838545916,19.85337712476218,78.59040698081587,72.68953719101934,0.0003561496851034,0.0889859497547149,0,0,0
6673,227498.89880632903,2010-09-17 05:09:15,120.0142550192596,1,20,0.0,3.4800710678100586,19.73227838545916,19.85337712476218,78.59040698081587,72.68953719101934,0.0002913951757363,0.0889859497547149,0,0,0
6674,227528.9124797903,2010-09-17 05:09:45,30.01525227240304,2,20,0.5499359965324402,3.617997646331787,19.736863676177823,19.85337712476218,78.60685840851066,72.68953719101934,0.0013274669181555,0.0889859497547149,0,0,0
6675,227558.92775743105,2010-09-17 05:10:15,60.03052988305424,2,20,0.5499359965324402,3.659602403640747,19.741449005762156,19.85337712476218,78.62354935351065,72.68953719101934,0.0009389400365762,0.0889859497547149,0,0,0
6676,227588.94339733603,2010-09-17 05:10:45,90.0461698882981,2,20,0.5499359965324402,3.6900367736816406,19.746034316348368,19.85337712476218,78.64040219297868,72.68953719101934,0.0007122993702068,0.0889859497547149,0,0,0
6677,227618.9583534191,2010-09-17 05:11:15,120.06112587111674,2,20,0.5499359965324402,3.714319705963135,19.75061949592891,19.85337712476218,78.6573789917008,72.68953719101934,0.0006151676061563,0.0889859497547149,0,0,0
6678,227648.9595241418,2010-09-17 05:11:45,150.06229678428076,2,20,0.5499359965324402,3.73390793800354,19.75520260025955,19.85337712476218,78.67444827953175,72.68953719101934,0.0004856586456298,0.0889859497547149,0,0,0
6679,227678.97340769268,2010-09-17 05:12:15,180.07618026496908,2,20,0.5499359965324402,3.749772787094116,19.75978764849154,19.85337712476218,78.69160607273471,72.68953719101934,0.0003885269106831,0.0889859497547149,0,0,0
6680,227708.98850741427,2010-09-17 05:12:45,210.09127987630663,2,20,0.5499359965324402,3.7604570388793945,19.764372887504315,19.85337712476218,78.70882623583493,72.68953719101934,0.0002266406954731,0.0889859497547149,0,0,0
6681,227739.0039055257,2010-09-17 05:13:15,240.1066779777213,2,20,0.5499359965324402,3.766932487487793,19.768958189290583,19.85337712476218,78.7260857753279,72.68953719101934,6.47544875391759e-05,0.0889859497547149,0,0,0
6682,227769.01904620457,2010-09-17 05:13:45,270.1218186565697,2,20,0.5499359965324402,3.770979642868042,19.773543390892435,19.85337712476218,78.74336790656305,72.68953719101934,9.713172767078504e-05,0.0889859497547149,0,0,0
6683,227799.0342802966,2010-09-17 05:14:15,300.13705275360417,2,20,0.5497553944587708,3.774217367172241,19.778128603211464,19.85337712476218,78.76066636241754,72.68953719101934,6.47544875391759e-05,0.0889859497547149,0,0,0
6684,227829.04955602752,2010-09-17 05:14:45,330.1523284895759,2,20,0.5499359965324402,3.7772932052612314,19.78271383179685,19.85337712476218,78.77797952993251,72.68953719101934,6.47544875391759e-05,0.0889859497547149,0,0,0
6685,227859.0648275129,2010-09-17 05:15:15,360.16759996992494,2,20,0.5499359965324402,3.7805309295654297,19.78729903122004,19.85337712476218,78.79530693180877,72.68953719101934,9.713172767078504e-05,0.0889859497547149,0,0,0
6686,227889.08010964483,2010-09-17 05:15:45,390.1828820968494,2,20,0.5499359965324402,3.783444881439209,19.791884241707567,19.85337712476218,78.81264850259076,72.68953719101934,6.47544875391759e-05,0.0889859497547149,0,0,0
6687,227919.09537916028,2010-09-17 05:16:15,420.19815161229377,2,20,0.5501165986061096,3.786682605743408,19.79646955045193,19.85337712476218,78.83000464126931,72.68953719101934,9.713172767078504e-05,0.0889859497547149,0,0,0
6688,227949.11104661404,2010-09-17 05:16:45,450.2138191863537,2,20,0.5499359965324402,3.7897584438323975,19.801054940245752,19.85337712476218,78.8473751118349,72.68953719101934,3.237724376958795e-05,0.0889859497547149,0,0,0
6689,227979.12595193545,2010-09-17 05:17:15,480.22872439242576,2,20,0.5501165986061096,3.7928342819213863,19.80564017098633,19.85337712476218,78.86475879880332,72.68953719101934,9.713172767078504e-05,0.0889859497547149,0,0,0
6690,228009.14120374163,2010-09-17 05:17:45,510.2439761936526,2,20,0.5499359965324402,3.795748233795166,19.810225451322395,19.85337712476218,78.88215645729892,72.68953719101934,6.47544875391759e-05,0.0889859497547149,0,0,0
6691,228039.15646715183,2010-09-17 05:18:15,540.2592396038573,2,20,0.5499359965324402,3.798662185668945,19.814810788259766,19.85337712476218,78.8995680288709,72.68953719101934,6.47544875391759e-05,0.0889859497547149,0,0,0
6692,228069.17174089284,2010-09-17 05:18:45,570.2745133448492,2,20,0.5501165986061096,3.8015761375427246,19.81939613905905,19.85337712476218,78.91699317878717,72.68953719101934,9.713172767078504e-05,0.0889859497547149,0,0,0
6693,228099.18701569145,2010-09-17 05:19:15,600.2897881685439,2,20,0.5501165986061096,3.804651975631714,19.823981499046308,19.85337712476218,78.93443184833401,72.68953719101934,9.713172767078504e-05,0.0889859497547149,0,0,0
6694,228129.202308866,2010-09-17 05:19:45,630.3050814082075,2,20,0.5501165986061096,3.807565927505493,19.82856676776895,19.85337712476218,78.95188377939608,72.68953719101934,0.0001295089750783,0.0889859497547149,0,0,0
6695,228159.21755519355,2010-09-17 05:20:15,660.320327645546,2,20,0.5501165986061096,3.810479879379273,19.83315211824503,19.85337712476218,78.96934966278299,72.68953719101934,3.237724376958795e-05,0.0889859497547149,0,0,0
6696,228189.23298306423,2010-09-17 05:20:45,690.3357555162695,2,20,0.5499359965324402,3.813717603683472,19.83773747366633,19.85337712476218,78.98682933231707,72.68953719101934,9.713172767078504e-05,0.0889859497547149,0,0,0
6697,228219.2481651966,2010-09-17 05:21:15,720.3509377388173,2,20,0.5499359965324402,3.816793441772461,19.842322762163946,19.85337712476218,79.00432301456844,72.68953719101934,9.713172767078504e-05,0.0889859497547149,0,0,0
6698,228249.2633830681,2010-09-17 05:21:45,750.3661555201253,2,20,0.5501165986061096,3.81986927986145,19.84690802191696,19.85337712476218,79.0218308405024,72.68953719101934,9.713172767078504e-05,0.0889859497547149,0,0,0
6699,228279.27864400213,2010-09-17 05:22:15,780.3814164541491,2,20,0.5497553944587708,3.8231070041656494,19.85149336503351,19.85337712476218,79.03935362663375,72.68953719101934,0.0001295089750783,0.0889859497547149,0,0,0
6700,228309.29392259524,2010-09-17 05:22:45,810.3966950472526,2,20,0.5499359965324402,3.8263447284698486,19.85607859178025,19.85337712476218,79.056890959788,72.68953719101934,6.47544875391759e-05,0.0889859497547149,0,0,0
6701,228339.3092063011,2010-09-17 05:23:15,840.4119787531184,2,20,0.5497553944587708,3.829582452774048,19.860663847518182,19.85337712476218,79.07444386317762,72.68953719101934,3.237724376958795e-05,0.0889859497547149,0,0,0
6702,228369.3246299012,2010-09-17 05:23:45,870.4274024584444,2,20,0.5501165986061096,3.833143949508667,19.86524918731412,19.85337712476218,79.09201265729332,72.68953719101934,6.47544875391759e-05,0.0889859497547149,0,0,0
6703,228399.3398850257,2010-09-17 05:24:15,900.4426575077792,2,20,0.5501165986061096,3.836705207824707,19.86983441456134,19.85337712476218,79.10959660105068,72.68953719101934,6.47544875391759e-05,0.0889859497547149,0,0,0
6704,228429.35500377984,2010-09-17 05:24:45,930.4577762368374,2,20,0.5499359965324402,3.839781045913696,19.87441965786016,19.85337712476218,79.12719608435464,72.68953719101934,3.237724376958795e-05,0.0889859497547149,0,0,0
6705,228459.3704090692,2010-09-17 05:25:15,960.4731815261944,2,20,0.5499359965324402,3.8431806564331055,19.87900490788103,19.85337712476218,79.14481083295227,72.68953719101934,9.713172767078504e-05,0.0889859497547149,0,0,0
6706,228489.38556841965,2010-09-17 05:25:45,990.4883408716372,2,20,0.5499359965324402,3.846580266952514,19.88359014917549,19.85337712476218,79.1624405363803,72.68953719101934,0.0001295089750783,0.0889859497547149,0,0,0
6707,228519.4008204314,2010-09-17 05:26:15,1020.5035928833896,2,20,0.5501165986061096,3.849817991256714,19.888175365853552,19.85337712476218,79.18008482340457,72.68953719101934,9.713172767078504e-05,0.0889859497547149,0,0,0
6708,228549.41604764623,2010-09-17 05:26:45,1050.5188200982452,2,20,0.550297200679779,3.852893829345703,19.892761432083145,19.85337712476218,79.19774683066721,72.68953719101934,9.713172767078504e-05,0.0889859497547149,0,0,0
6709,228579.4314472063,2010-09-17 05:27:15,1080.5342196633133,2,20,0.5499359965324402,3.8558077812194815,19.897347743030977,19.85337712476218,79.21542385857455,72.68953719101934,9.713172767078504e-05,0.0889859497547149,0,0,0
6710,228609.4468352275,2010-09-17 05:27:45,1110.549607679554,2,20,0.5501165986061096,3.858883619308472,19.90193383247716,19.85337712476218,79.23311391462029,72.68953719101934,9.713172767078504e-05,0.0889859497547149,0,0,0
6711,228639.4618881624,2010-09-17 05:28:15,1140.5646606143796,2,20,0.5501165986061096,3.861635684967041,19.906520056582785,19.85337712476218,79.2508179613656,72.68953719101934,6.47544875391759e-05,0.0889859497547149,0,0,0
6712,228669.4771939985,2010-09-17 05:28:45,1170.5799665407112,2,20,0.5501165986061096,3.8643877506256095,19.911106400355408,19.85337712476218,79.26853551446607,72.68953719101934,3.237724376958795e-05,0.0889859497547149,0,0,0
6713,228699.4924352684,2010-09-17 05:29:15,1200.5952077204252,2,20,0.5501165986061096,3.86713981628418,19.915692595420555,19.85337712476218,79.28626490006287,72.68953719101934,3.237724376958795e-05,0.0889859497547149,0,0,0
6714,228729.5077290394,2010-09-17 05:29:45,1230.6105014763775,2,20,0.5497553944587708,3.869568109512329,19.920278374479302,19.85337712476218,79.30400456131272,72.68953719101934,3.237724376958795e-05,0.0889859497547149,0,0,0
6715,228759.52294670543,2010-09-17 05:30:15,1260.625719162448,2,20,0.5499359965324402,3.8719964027404794,19.924863670042605,19.85337712476218,79.32175366605092,72.68953719101934,3.237724376958795e-05,0.0889859497547149,0,0,0
6716,228789.538346481,2010-09-17 05:30:46,1290.6411189380417,2,20,0.5499359965324402,3.874262809753418,19.929448970455223,19.85337712476218,79.33951335910845,72.68953719101934,6.47544875391759e-05,0.0889859497547149,0,0,0
6717,228819.5535233903,2010-09-17 05:31:16,1320.6562958473264,2,20,0.5499359965324402,3.876367330551148,19.93403425670206,19.85337712476218,79.35728277058398,72.68953719101934,6.47544875391759e-05,0.0889859497547149,0,0,0
6718,228849.56880757737,2010-09-17 05:31:46,1350.6715800293807,2,20,0.5499359965324402,3.878309965133667,19.9386194809151,19.85337712476218,79.37506122644572,72.68953719101934,3.237724376958795e-05,0.0889859497547149,0,0,0
6719,228879.58403271204,2010-09-17 05:32:16,1380.6868051690567,2,20,0.5499359965324402,3.880090713500977,19.94320487078753,19.85337712476218,79.392848630359,72.68953719101934,6.47544875391759e-05,0.0889859497547149,0,0,0
6720,228909.59930798184,2010-09-17 05:32:46,1410.7020804388646,2,20,0.5499359965324402,3.881547689437866,19.947790397108715,19.85337712476218,79.41064437696495,72.68953719101934,3.237724376958795e-05,0.0889859497547149,0,0,0
6721,228939.61458382307,2010-09-17 05:33:16,1440.7173562750868,2,20,0.5499359965324402,3.883004665374756,19.952375892637388,19.85337712476218,79.4284471637853,72.68953719101934,3.237724376958795e-05,0.0889859497547149,0,0,0
6722,228969.6299441903,2010-09-17 05:33:46,1470.732716662361,2,20,0.5499359965324402,3.8844616413116455,19.9569614920676,19.85337712476218,79.44625691818757,72.68953719101934,3.237724376958795e-05,0.0889859497547149,0,0,0
6723,228999.64513529,2010-09-17 05:34:16,1500.74790774703,2,20,0.5499359965324402,3.885756731033325,19.96154701715056,19.85337712476218,79.46407236174814,72.68953719101934,3.237724376958795e-05,0.0889859497547149,0,0,0
6724,229029.6604119032,2010-09-17 05:34:46,1530.7631843551787,2,20,0.5499359965324402,3.886889934539795,19.96613253640903,19.85337712476218,79.4818935784389,72.68953719101934,0.0,0.0889859497547149,0,0,0
6725,229059.6756587219,2010-09-17 05:35:16,1560.778431183994,2,20,0.5501165986061096,3.888346910476685,19.970718118293373,19.85337712476218,79.49972044674554,72.68953719101934,6.47544875391759e-05,0.0889859497547149,0,0,0
6726,229089.6909596308,2010-09-17 05:35:46,1590.7937320877884,2,20,0.5499359965324402,3.889318227767944,19.97530371653967,19.85337712476218,79.51755268366139,72.68953719101934,3.237724376958795e-05,0.0889859497547149,0,0,0
6727,229119.70620191324,2010-09-17 05:36:16,1620.8089743652424,2,20,0.5501165986061096,3.890289545059204,19.979889324266946,19.85337712476218,79.5353899060151,72.68953719101934,3.237724376958795e-05,0.0889859497547149,0,0,0
6728,229149.7216023605,2010-09-17 05:36:46,1650.8243748125126,2,20,0.5499359965324402,3.891422748565674,19.984474888747226,19.85337712476218,79.55323195070488,72.68953719101934,3.237724376958795e-05,0.0889859497547149,0,0,0
6729,229179.7367580268,2010-09-17 05:37:16,1680.839530478772,2,20,0.5501165986061096,3.8927178382873535,19.989060468091736,19.85337712476218,79.57107895529063,72.68953719101934,3.237724376958795e-05,0.0889859497547149,0,0,0
6730,229209.75206792803,2010-09-17 05:37:46,1710.8548403800255,2,20,0.5499359965324402,3.8935272693634033,19.993646089939357,19.85337712476218,79.58893100721592,72.68953719101934,3.237724376958795e-05,0.0889859497547149,0,0,0
6731,229239.7673485311,2010-09-17 05:38:16,1740.8701210833967,2,20,0.5499359965324402,3.894660472869873,19.99823176354757,19.85337712476218,79.6067881411458,72.68953719101934,6.47544875391759e-05,0.0889859497547149,0,0,0
6732,229269.78256062325,2010-09-17 05:38:46,1770.8853330752534,2,20,0.550297200679779,3.895793676376343,20.00281743278648,19.85337712476218,79.62464955917584,72.68953719101934,3.237724376958795e-05,0.0889859497547149,0,0,0
6733,229299.79783040937,2010-09-17 05:39:16,1800.9006028613733,2,20,0.5499359965324402,3.8967649936676025,20.00740303719403,19.85337712476218,79.64251574667719,72.68953719101934,3.237724376958795e-05,0.0889859497547149,0,0,0
6734,229329.81325094172,2010-09-17 05:39:46,1830.9160233937791,2,20,0.5501165986061096,3.8977363109588623,20.0119886348252,19.85337712476218,79.66038673483372,72.68953719101934,3.237724376958795e-05,0.0889859497547149,0,0,0
6735,229359.82849788087,2010-09-17 05:40:16,1860.9312703328696,2,20,0.5499359965324402,3.898707628250122,20.01657411984861,19.85337712476218,79.67826205806277,72.68953719101934,3.237724376958795e-05,0.0889859497547149,0,0,0
6736,229389.84361884047,2010-09-17 05:40:46,1890.946391287483,2,20,0.5497553944587708,3.899678945541382,20.02115969175379,19.85337712476218,79.69614267357872,72.68953719101934,-3.237724376958795e-05,0.0889859497547149,0,0,0
6737,229419.85894000487,2010-09-17 05:41:16,1920.961712456863,2,20,0.5501165986061096,3.901135921478272,20.02574530424613,19.85337712476218,79.71402840247475,72.68953719101934,9.713172767078504e-05,0.0889859497547149,0,0,0
6738,229449.8742395302,2010-09-17 05:41:46,1950.97701200728,2,20,0.5499359965324402,3.901945352554321,20.030330846180817,19.85337712476218,79.73191895020933,72.68953719101934,3.237724376958795e-05,0.0889859497547149,0,0,0
6739,229479.889476334,2010-09-17 05:42:16,1980.9922487860083,2,20,0.5497553944587708,3.903240442276001,20.03491644054329,19.85337712476218,79.74981471111978,72.68953719101934,6.47544875391759e-05,0.0889859497547149,0,0,0
6740,229509.9048737537,2010-09-17 05:42:46,2011.0076462157465,2,20,0.5499359965324402,3.904373645782471,20.0395020550908,19.85337712476218,79.7677157011252,72.68953719101934,3.237724376958795e-05,0.0889859497547149,0,0,0
6741,229539.9200120617,2010-09-17 05:43:16,2041.0227845236764,2,20,0.5501165986061096,3.9053449630737305,20.04408760366601,19.85337712476218,79.78562156054146,72.68953719101934,0.0,0.0889859497547149,0,0,0
6742,229569.9355384383,2010-09-17 05:43:46,2071.0383108902606,2,20,0.5501165986061096,3.90664005279541,20.048673202260755,19.85337712476218,79.8035327285919,72.68953719101934,6.47544875391759e-05,0.0889859497547149,0,0,0
6743,229599.9506092878,2010-09-17 05:44:16,2101.0533817698797,2,20,0.5501165986061096,3.90777325630188,20.053258735219785,19.85337712476218,79.8214490033593,72.68953719101934,9.713172767078504e-05,0.0889859497547149,0,0,0
6744,229629.9658343924,2010-09-17 05:44:46,2131.068606844392,2,20,0.5499359965324402,3.90906834602356,20.057844349783867,19.85337712476218,79.83937089718599,72.68953719101934,6.47544875391759e-05,0.0889859497547149,0,0,0
6745,229659.98112749672,2010-09-17 05:45:16,2161.083899948718,2,20,0.5501165986061096,3.910201549530029,20.06242997584681,19.85337712476218,79.8572982895603,72.68953719101934,6.47544875391759e-05,0.0889859497547149,0,0,0
6746,229689.996389328,2010-09-17 05:45:46,2191.099161784994,2,20,0.5499359965324402,3.911172866821289,20.06701562801149,19.85337712476218,79.8752312113163,72.68953719101934,0.0,0.0889859497547149,0,0,0
6747,229720.01163733972,2010-09-17 05:46:16,2221.114409791749,2,20,0.550297200679779,3.9124679565429688,20.071601264759835,19.85337712476218,79.89316962838248,72.68953719101934,3.237724376958795e-05,0.0889859497547149,0,0,0
6748,229750.0269154968,2010-09-17 05:46:46,2251.12968797884,2,20,0.5501165986061096,3.913762807846069,20.076186944597577,19.85337712476218,79.91111376864365,72.68953719101934,3.23295607813634e-05,0.0889859497547149,0,0,0
6749,229780.04219838057,2010-09-17 05:47:16,2281.1449708526284,2,20,0.5499359965324402,3.915057897567749,20.08077257017377,19.85337712476218,79.92906339668743,72.68953719101934,6.47544875391759e-05,0.0889859497547149,0,0,0
6750,229810.05746654765,2010-09-17 05:47:46,2311.160238999657,2,20,0.5501165986061096,3.9161911010742183,20.085358287289665,19.85337712476218,79.9470189554106,72.68953719101934,3.237724376958795e-05,0.0889859497547149,0,0,0
6751,229840.07274037885,2010-09-17 05:48:16,2341.175512840899,2,20,0.5499359965324402,3.917324304580689,20.089943914218463,19.85337712476218,79.96498005972296,72.68953719101934,0.0,0.0889859497547149,0,0,0
6752,229870.0884063339,2010-09-17 05:48:46,2371.191178795917,2,20,0.5499359965324402,3.918781280517578,20.094529647637124,19.85337712476218,79.98294747457047,72.68953719101934,3.237724376958795e-05,0.0889859497547149,0,0,0
6753,229900.10325824693,2010-09-17 05:49:16,2401.206030698937,2,20,0.5501165986061096,3.920076370239258,20.099115135214173,19.85337712476218,80.00091990630179,72.68953719101934,3.237724376958795e-05,0.0889859497547149,0,0,0
6754,229930.1185405142,2010-09-17 05:49:46,2431.221312966212,2,20,0.5499359965324402,3.9213714599609375,20.10370081015979,19.85337712476218,80.01889902340424,72.68953719101934,3.237724376958795e-05,0.0889859497547149,0,0,0
6755,229960.1338078492,2010-09-17 05:50:16,2461.2365803112384,2,20,0.5501165986061096,3.922828435897827,20.10828641296468,19.85337712476218,80.03688390405499,72.68953719101934,6.47544875391759e-05,0.0889859497547149,0,0,0
6756,229990.1490683421,2010-09-17 05:50:46,2491.251840794136,2,20,0.5499359965324402,3.924123525619507,20.11287199828224,19.85337712476218,80.0548748556981,72.68953719101934,9.713172767078504e-05,0.0889859497547149,0,0,0
6757,230020.1643371508,2010-09-17 05:51:16,2521.267109698054,2,20,0.5501165986061096,3.9254186153411865,20.11745754190217,19.85337712476218,80.07287191395385,72.68953719101934,3.237724376958795e-05,0.0889859497547149,0,0,0
6758,230050.17961323264,2010-09-17 05:51:46,2551.282385684651,2,20,0.5501165986061096,3.926713705062866,20.12204317449023,19.85337712476218,80.09087548168903,72.68953719101934,0.0,0.0889859497547149,0,0,0
6759,230080.19489141472,2010-09-17 05:52:16,2581.297663866729,2,20,0.5501165986061096,3.928170680999756,20.126628853785856,19.85337712476218,80.10888560975918,72.68953719101934,3.237724376958795e-05,0.0889859497547149,0,0,0
6760,230110.21027581196,2010-09-17 05:52:46,2611.313048268948,2,20,0.5501165986061096,3.9296276569366455,20.131214507259724,19.85337712476218,80.12690200682272,72.68953719101934,6.47544875391759e-05,0.0889859497547149,0,0,0
6761,230140.2254148016,2010-09-17 05:53:16,2641.328187253567,2,20,0.5497553944587708,3.930922746658325,20.13580009501659,19.85337712476218,80.14492471538581,72.68953719101934,3.237724376958795e-05,0.0889859497547149,0,0,0
6762,230170.2406950187,2010-09-17 05:53:46,2671.34346748075,2,20,0.5499359965324402,3.932379722595215,20.140385752701626,19.85337712476218,80.1629541265034,72.68953719101934,0.0,0.0889859497547149,0,0,0
6763,230200.25594621844,2010-09-17 05:54:16,2701.358718670451,2,20,0.5499359965324402,3.9336748123168954,20.144971357476297,19.85337712476218,80.18098994915417,72.68953719101934,0.0,0.0889859497547149,0,0,0
6764,230230.27134939257,2010-09-17 05:54:46,2731.37412184954,2,20,0.5499359965324402,3.935293674468994,20.14955709529913,19.85337712476218,80.199032912327,72.68953719101934,3.237724376958795e-05,0.0889859497547149,0,0,0
6765,230260.2865033445,2010-09-17 05:55:16,2761.3892757965077,2,20,0.5501165986061096,3.9369125366210938,20.154142740520328,19.85337712476218,80.21708212153354,72.68953719101934,6.47544875391759e-05,0.0889859497547149,0,0,0
6766,230290.30179353652,2010-09-17 05:55:46,2791.4045660888137,2,20,0.5499359965324402,3.938207626342773,20.15872834054452,19.85337712476218,80.23513797955606,72.68953719101934,3.237724376958795e-05,0.0889859497547149,0,0,0
6767,230320.3170834329,2010-09-17 05:56:16,2821.4198558848816,2,20,0.5499359965324402,3.939664602279663,20.163314003679933,19.85337712476218,80.25320092406427,72.68953719101934,3.237724376958795e-05,0.0889859497547149,0,0,0
6768,230350.33233449727,2010-09-17 05:56:46,2851.4351070445077,2,20,0.5501165986061096,3.9412834644317623,20.16789963553535,19.85337712476218,80.27127069909855,72.68953719101934,6.47544875391759e-05,0.0889859497547149,0,0,0
6769,230380.3475684941,2010-09-17 05:57:16,2881.450340946053,2,20,0.5501165986061096,3.942740440368652,20.17248520575669,19.85337712476218,80.2893470836797,72.68953719101934,3.237724376958795e-05,0.0889859497547149,0,0,0
6770,230410.36284672623,2010-09-17 05:57:46,2911.4656191782565,2,20,0.5499359965324402,3.944197416305542,20.17707080347441,19.85337712476218,80.30743061321904,72.68953719101934,3.237724376958795e-05,0.0889859497547149,0,0,0
6771,230440.3781029134,2010-09-17 05:58:16,2941.4808753654315,2,20,0.5499359965324402,3.945978164672852,20.181656437346305,19.85337712476218,80.32552132124833,72.68953719101934,0.0,0.0889859497547149,0,0,0
6772,230470.39337190252,2010-09-17 05:58:46,2971.4961443545617,2,20,0.5501165986061096,3.947435140609741,20.186242099711595,19.85337712476218,80.3436192254807,72.68953719101934,0.0,0.0889859497547149,0,0,0
6773,230500.40879287105,2010-09-17 05:59:16,3001.5115653130315,2,20,0.5497553944587708,3.949054002761841,20.19082775319785,19.85337712476218,80.36172429817533,72.68953719101934,3.237724376958795e-05,0.0889859497547149,0,0,0
6774,230530.42424700235,2010-09-17 05:59:46,3031.52701945433,2,20,0.5501165986061096,3.950672864913941,20.195413367106948,19.85337712476218,80.37983642941553,72.68953719101934,6.47544875391759e-05,0.0889859497547149,0,0,0
6775,230560.43932438816,2010-09-17 06:00:16,3061.54209684019,2,20,0.5499359965324402,3.95229172706604,20.19999898178193,19.85337712476218,80.39795592270065,72.68953719101934,9.713172767078504e-05,0.0889859497547149,0,0,0
6776,230590.45445028017,2010-09-17 06:00:46,3091.55722273714,2,20,0.5501165986061096,3.95391058921814,20.20458463558967,19.85337712476218,80.41608292264743,72.68953719101934,6.47544875391759e-05,0.0889859497547149,0,0,0
6777,230620.46984673743,2010-09-17 06:01:16,3121.572619194451,2,20,0.5501165986061096,3.9555294513702393,20.20917027252622,19.85337712476218,80.4342173107077,72.68953719101934,6.47544875391759e-05,0.0889859497547149,0,0,0
6778,230650.48501580217,2010-09-17 06:01:46,3151.587788254142,2,20,0.5499359965324402,3.956986427307129,20.213755916000988,19.85337712476218,80.45235927522867,72.68953719101934,3.237724376958795e-05,0.0889859497547149,0,0,0
6779,230680.50026364348,2010-09-17 06:02:16,3181.6030360954846,2,20,0.550297200679779,3.9587671756744394,20.21834156110154,19.85337712476218,80.47050874728755,72.68953719101934,6.47544875391759e-05,0.0889859497547149,0,0,0
6780,230710.5155718856,2010-09-17 06:02:47,3211.6183443476216,2,20,0.5499359965324402,3.960386037826538,20.22292720687461,19.85337712476218,80.4886659673037,72.68953719101934,3.237724376958795e-05,0.0889859497547149,0,0,0
6781,230740.5308003536,2010-09-17 06:03:17,3241.63357280558,2,20,0.5499359965324402,3.962166786193848,20.227512809580983,19.85337712476218,80.50683087639476,72.68953719101934,6.47544875391759e-05,0.0889859497547149,0,0,0
6782,230770.5460747913,2010-09-17 06:03:47,3271.648847243311,2,20,0.5499359965324402,3.963947534561157,20.23209847287825,19.85337712476218,80.5250038357266,72.68953719101934,6.47544875391759e-05,0.0889859497547149,0,0,0
6783,230800.5613408882,2010-09-17 06:04:17,3301.6641133402222,2,20,0.5499359965324402,3.965566396713257,20.2366840956123,19.85337712476218,80.54318459175748,72.68953719101934,3.237724376958795e-05,0.0889859497547149,0,0,0
6784,230830.57660815807,2010-09-17 06:04:47,3331.6793806150736,2,20,0.5501165986061096,3.9673471450805664,20.24126972025702,19.85337712476218,80.56137342578728,72.68953719101934,3.237724376958795e-05,0.0889859497547149,0,0,0
6785,230860.59188070608,2010-09-17 06:05:17,3361.694653158075,2,20,0.5499359965324402,3.969289779663086,20.245855419590907,19.85337712476218,80.57957063156675,72.68953719101934,6.47544875391759e-05,0.0889859497547149,0,0,0
6786,230890.60715577035,2010-09-17 06:05:47,3391.7099282223703,2,20,0.5501165986061096,3.971070528030396,20.250441037160417,19.85337712476218,80.59777576551356,72.68953719101934,9.713172767078504e-05,0.0889859497547149,0,0,0
6787,230920.6224325389,2010-09-17 06:06:17,3421.72520499092,2,20,0.5501165986061096,3.972851276397705,20.25502667761787,19.85337712476218,80.61598931522703,72.68953719101934,6.47544875391759e-05,0.0889859497547149,0,0,0
6788,230950.63782013912,2010-09-17 06:06:47,3451.7405926011465,2,20,0.5499359965324402,3.974632024765015,20.25961235132483,19.85337712476218,80.6342114177603,72.68953719101934,3.237724376958795e-05,0.0889859497547149,0,0,0
6789,230980.65295122904,2010-09-17 06:07:17,3481.7557236810344,2,20,0.5499359965324402,3.976412773132324,20.264197990408967,19.85337712476218,80.6524419544089,72.68953719101934,3.237724376958795e-05,0.0889859497547149,0,0,0
6790,231010.6682396667,2010-09-17 06:07:47,3511.771012133749,2,20,0.5497553944587708,3.978031635284424,20.26878374479923,19.85337712476218,80.67068120579731,72.68953719101934,3.237724376958795e-05,0.0889859497547149,0,0,0
6791,231040.6834993225,2010-09-17 06:08:17,3541.7862717795574,2,20,0.5501165986061096,3.980459928512573,20.273369262981173,19.85337712476218,80.68892858490243,72.68953719101934,9.713172767078504e-05,0.0889859497547149,0,0,0
6792,231070.6989312083,2010-09-17 06:08:47,3571.8017037655536,2,20,0.5501165986061096,3.982240676879883,20.277954868069365,19.85337712476218,80.70718526843402,72.68953719101934,6.47544875391759e-05,0.0889859497547149,0,0,0
6793,231100.7140339424,2010-09-17 06:09:17,3601.816806394423,2,20,0.5499359965324402,3.9841833114624015,20.2825404568984,19.85337712476218,80.72545085154606,72.68953719101934,6.47544875391759e-05,0.0889859497547149,0,0,0
6794,231130.72936460047,2010-09-17 06:09:47,3631.8321370524886,2,20,0.5501165986061096,3.986287832260132,20.28712608280836,19.85337712476218,80.7437256894223,72.68953719101934,6.47544875391759e-05,0.0889859497547149,0,0,0
6795,231160.744568046,2010-09-17 06:10:17,3661.847340498012,2,20,0.5499359965324402,3.9880685806274414,20.291711624235408,19.85337712476218,80.76200937790468,72.68953719101934,3.237724376958795e-05,0.0889859497547149,0,0,0
6796,231190.7598356517,2010-09-17 06:10:47,3691.8626081036896,2,20,0.5499359965324402,3.990334987640381,20.296297163984377,19.85337712476218,80.78030225731696,72.68953719101934,6.47544875391759e-05,0.0889859497547149,0,0,0
6797,231220.77510133252,2010-09-17 06:11:17,3721.8778737845614,2,20,0.5499359965324402,3.992277622222901,20.300882697165047,19.85337712476218,80.79860448814976,72.68953719101934,3.237724376958795e-05,0.0889859497547149,0,0,0
6798,231250.79037816625,2010-09-17 06:11:47,3751.8931506182735,2,20,0.5497553944587708,3.994381904602051,20.30546820681975,19.85337712476218,80.81691608398089,72.68953719101934,6.47544875391759e-05,0.0889859497547149,0,0,0
6799,231280.80563780208,2010-09-17 06:12:17,3781.908410264082,2,20,0.5499359965324402,3.9963245391845694,20.310053818454104,19.85337712476218,80.8352376512683,72.68953719101934,3.237724376958795e-05,0.0889859497547149,0,0,0
6800,231310.82091987884,2010-09-17 06:12:47,3811.9236923308567,2,20,0.5499359965324402,3.9985909461975098,20.31463938550316,19.85337712476218,80.85356866130329,72.68953719101934,9.713172767078504e-05,0.0889859497547149,0,0,0
6801,231340.83621498817,2010-09-17 06:13:17,3841.938987450212,2,20,0.5499359965324402,4.000695705413818,20.31922495914681,19.85337712476218,80.87190925693571,72.68953719101934,3.24249267578125e-05,0.0889859497547149,0,0,0
6802,231370.85145294984,2010-09-17 06:13:47,3871.954225401869,2,20,0.5499359965324402,4.002799987792969,20.323810477329072,19.85337712476218,80.89025943280883,72.68953719101934,9.70840483205393e-05,0.0889859497547149,0,0,0
6803,231400.8667109315,2010-09-17 06:14:17,3901.9694833835233,2,20,0.5501165986061096,4.004904747009277,20.32839599020804,19.85337712476218,80.90861944617609,72.68953719101934,3.24249267578125e-05,0.0889859497547149,0,0,0
6804,231430.88198337427,2010-09-17 06:14:47,3931.9847558262745,2,20,0.5499359965324402,4.007171154022217,20.332981584578096,19.85337712476218,80.92698975805195,72.68953719101934,3.24249267578125e-05,0.0889859497547149,0,0,0
6805,231460.8972515363,2010-09-17 06:15:17,3962.000024083578,2,20,0.5499359965324402,4.009275436401367,20.33756716389284,19.85337712476218,80.94536987661918,72.68953719101934,6.47544875391759e-05,0.0889859497547149,0,0,0
6806,231490.9126791263,2010-09-17 06:15:47,3992.0154516736006,2,20,0.5499359965324402,4.011380195617676,20.34215270193632,19.85337712476218,80.96375980018716,72.68953719101934,3.24249267578125e-05,0.0889859497547149,0,0,0
6807,231520.9278322312,2010-09-17 06:16:17,4022.030604683229,2,20,0.5497553944587708,4.013646602630615,20.34673826236522,19.85337712476218,80.98215997729726,72.68953719101934,3.24249267578125e-05,0.0889859497547149,0,0,0
6808,231550.94309625297,2010-09-17 06:16:47,4052.045868714984,2,20,0.5499359965324402,4.015913009643555,20.351323858385356,19.85337712476218,81.00057044031055,72.68953719101934,6.47544875391759e-05,0.0889859497547149,0,0,0
6809,231580.95832061063,2010-09-17 06:17:17,4082.061093072709,2,20,0.5499359965324402,4.018179416656494,20.355909478700124,19.85337712476218,81.018991255862,72.68953719101934,6.47544875391759e-05,0.0889859497547149,0,0,0
6810,231610.97361415107,2010-09-17 06:17:47,4112.0763866030975,2,20,0.5497553944587708,4.0202836990356445,20.360495112696373,19.85337712476218,81.03742241599059,72.68953719101934,0.0,0.0889859497547149,0,0,0
6811,231640.98885715532,2010-09-17 06:18:17,4142.091629607366,2,20,0.5499359965324402,4.022712230682373,20.36508072113737,19.85337712476218,81.05586401570713,72.68953719101934,6.47544875391759e-05,0.0889859497547149,0,0,0
6812,231671.00412701667,2010-09-17 06:18:47,4172.106899473686,2,20,0.5501165986061096,4.025302410125732,20.36966637080384,19.85337712476218,81.0743162814557,72.68953719101934,9.71794142969884e-05,0.0889859497547149,0,0,0
6813,231701.0193927477,2010-09-17 06:19:17,4202.122165204684,2,20,0.5501165986061096,4.027406692504883,20.37425195607916,19.85337712476218,81.09277885736299,72.68953719101934,3.23295607813634e-05,0.0889859497547149,0,0,0
6814,231731.034672218,2010-09-17 06:19:47,4232.137444679989,2,20,0.5499359965324402,4.029673099517822,20.378837574244617,19.85337712476218,81.1112522796088,72.68953719101934,3.23295607813634e-05,0.0889859497547149,0,0,0
6815,231761.05013593816,2010-09-17 06:20:17,4262.152908485412,2,20,0.5501165986061096,4.031939506530762,20.383423135104884,19.85337712476218,81.12973616724777,72.68953719101934,3.23295607813634e-05,0.0889859497547149,0,0,0
6816,231791.06559226493,2010-09-17 06:20:47,4292.168364721941,2,20,0.5501165986061096,4.034691333770752,20.38800876914874,19.85337712476218,81.14823130568364,72.68953719101934,9.70840483205393e-05,0.0889859497547149,0,0,0
6817,231821.0804909046,2010-09-17 06:21:17,4322.183263361621,2,20,0.5499359965324402,4.0367960929870605,20.39259428511236,19.85337712476218,81.16673696227608,72.68953719101934,3.24249267578125e-05,0.0889859497547149,0,0,0
6818,231851.095749984,2010-09-17 06:21:47,4352.198522436004,2,20,0.5501165986061096,4.039224147796631,20.39717985297409,19.85337712476218,81.18525394330224,72.68953719101934,3.23295607813634e-05,0.0889859497547149,0,0,0
6819,231881.11099820628,2010-09-17 06:22:17,4382.21377066331,2,20,0.5499359965324402,4.041652679443359,20.40176550149673,19.85337712476218,81.2037823578294,72.68953719101934,0.0,0.0889859497547149,0,0,0
6820,231911.1262691152,2010-09-17 06:22:47,4412.229041577245,2,20,0.5501165986061096,4.044242858886719,20.40635112208701,19.85337712476218,81.22232203807553,72.68953719101934,6.47544875391759e-05,0.0889859497547149,0,0,0
6821,231941.14154274596,2010-09-17 06:23:17,4442.244315222999,2,20,0.5497553944587708,4.046670913696289,20.410936729565623,19.85337712476218,81.24087303550385,72.68953719101934,6.47544875391759e-05,0.0889859497547149,0,0,0
6822,231971.1569079903,2010-09-17 06:23:47,4472.259680442335,2,20,0.5501165986061096,4.049261093139648,20.41552231316268,19.85337712476218,81.25943547562271,72.68953719101934,6.47544875391759e-05,0.0889859497547149,0,0,0
6823,232001.17207028312,2010-09-17 06:24:17,4502.274842740148,2,20,0.5497553944587708,4.051689624786377,20.42010793060481,19.85337712476218,81.27800963091948,72.68953719101934,3.24249267578125e-05,0.0889859497547149,0,0,0
6824,232031.1874694973,2010-09-17 06:24:47,4532.290241959352,2,20,0.5501165986061096,4.054603576660156,20.42469357967894,19.85337712476218,81.29659567097066,72.68953719101934,0.0001295089750783,0.0889859497547149,0,0,0
6825,232061.2026250834,2010-09-17 06:25:17,4562.305397540399,2,20,0.5499359965324402,4.056869983673096,20.4292791545844,19.85337712476218,81.31519325150941,72.68953719101934,6.47544875391759e-05,0.0889859497547149,0,0,0
6826,232091.2178869798,2010-09-17 06:25:47,4592.320659431813,2,20,0.5499359965324402,4.059621810913086,20.43386483688168,19.85337712476218,81.33380332800232,72.68953719101934,6.47544875391759e-05,0.0889859497547149,0,0,0
6827,232121.2331364803,2010-09-17 06:26:17,4622.335908932297,2,20,0.5499359965324402,4.062050342559815,20.438450472026272,19.85337712476218,81.35242498242589,72.68953719101934,3.24249267578125e-05,0.0889859497547149,0,0,0
6828,232151.2484147576,2010-09-17 06:26:47,4652.351187214625,2,20,0.5499359965324402,4.064802169799805,20.44303601136556,19.85337712476218,81.37105839733593,72.68953719101934,6.47544875391759e-05,0.0889859497547149,0,0,0
6829,232181.2637098519,2010-09-17 06:27:17,4682.3664823089175,2,20,0.5499359965324402,4.067716121673584,20.447621592234785,19.85337712476218,81.38970434663392,72.68953719101934,0.0001295089750783,0.0889859497547149,0,0,0
6830,232211.27896183857,2010-09-17 06:27:47,4712.381734290594,2,20,0.5501165986061096,4.070468425750732,20.452207205726484,19.85337712476218,81.40836288214011,72.68953719101934,9.71794142969884e-05,0.0889859497547149,0,0,0
6831,232241.29417121396,2010-09-17 06:28:17,4742.396943670932,2,20,0.5499359965324402,4.073058605194092,20.456792767752237,19.85337712476218,81.4270336830358,72.68953719101934,6.47544875391759e-05,0.0889859497547149,0,0,0
6832,232271.30948595225,2010-09-17 06:28:47,4772.41225840926,2,20,0.5497553944587708,4.075648784637451,20.46137829498863,19.85337712476218,81.44571715391044,72.68953719101934,3.24249267578125e-05,0.0889859497547149,0,0,0
6833,232301.3247198588,2010-09-17 06:29:17,4802.427492310806,2,20,0.5499359965324402,4.078724384307861,20.46596381602373,19.85337712476218,81.46441339210243,72.68953719101934,9.70840483205393e-05,0.0889859497547149,0,0,0
6834,232331.3400824666,2010-09-17 06:29:47,4832.442854933662,2,20,0.5501165986061096,4.08147668838501,20.470549413881823,19.85337712476218,81.48312281759165,72.68953719101934,6.47544875391759e-05,0.0889859497547149,0,0,0
6835,232361.35529083945,2010-09-17 06:30:17,4862.458063301472,2,20,0.5501165986061096,4.084390640258789,20.47513492209836,19.85337712476218,81.50184478772655,72.68953719101934,9.71794142969884e-05,0.0889859497547149,0,0,0
6836,232391.37072271013,2010-09-17 06:30:47,4892.473495257393,2,20,0.5499359965324402,4.087142467498779,20.479720460619227,19.85337712476218,81.52058002444176,72.68953719101934,9.70840483205393e-05,0.0889859497547149,0,0,0
6837,232421.3858234092,2010-09-17 06:31:17,4922.488595871232,2,20,0.5499359965324402,4.090056419372559,20.484305946103408,19.85337712476218,81.5393282659615,72.68953719101934,9.70840483205393e-05,0.0889859497547149,0,0,0
6838,232451.40131783104,2010-09-17 06:31:47,4952.504090303102,2,20,0.5499359965324402,4.092970371246338,20.48889152138455,19.85337712476218,81.55809024454406,72.68953719101934,6.47544875391759e-05,0.0889859497547149,0,0,0
6839,232481.4163635579,2010-09-17 06:32:17,4982.519136009886,2,20,0.5499359965324402,4.096046447753906,20.49347703354044,19.85337712476218,81.57686545935599,72.68953719101934,9.71794142969884e-05,0.0889859497547149,0,0,0
6840,232511.4316279305,2010-09-17 06:32:47,5012.534400382494,2,20,0.5499359965324402,4.0987982749938965,20.4980625821495,19.85337712476218,81.59565441346174,72.68953719101934,3.23295607813634e-05,0.0889859497547149,0,0,0
6841,232541.44702088909,2010-09-17 06:33:17,5042.549793366134,2,20,0.5501165986061096,4.101874351501465,20.502648181617943,19.85337712476218,81.61445735626657,72.68953719101934,6.47544875391759e-05,0.0889859497547149,0,0,0
6842,232571.4622683645,2010-09-17 06:33:47,5072.565040911738,2,20,0.5501165986061096,4.104949951171875,20.50723371777612,19.85337712476218,81.63327375639773,72.68953719101934,6.47544875391759e-05,0.0889859497547149,0,0,0
6843,232601.4774495795,2010-09-17 06:34:17,5102.580222031533,2,20,0.5499359965324402,4.107863903045654,20.51181927774828,19.85337712476218,81.65210430497807,72.68953719101934,6.47544875391759e-05,0.0889859497547149,0,0,0
6844,232631.4926946991,2010-09-17 06:34:48,5132.595467151081,2,20,0.5501165986061096,4.1111016273498535,20.51640488124836,19.85337712476218,81.67094913011375,72.68953719101934,9.70840483205393e-05,0.0889859497547149,0,0,0
6845,232661.5079570015,2010-09-17 06:35:18,5162.610729458534,2,20,0.5501165986061096,4.114177703857422,20.520990529224044,19.85337712476218,81.68980832047868,72.68953719101934,6.47544875391759e-05,0.0889859497547149,0,0,0
6846,232691.5232330884,2010-09-17 06:35:48,5192.626005540368,2,20,0.5501165986061096,4.117414951324463,20.52557607665704,19.85337712476218,81.70868142248092,72.68953719101934,6.47544875391759e-05,0.0889859497547149,0,0,0
6847,232721.53848863396,2010-09-17 06:36:18,5222.641261085942,2,20,0.5501165986061096,4.120652675628662,20.530161652481567,19.85337712476218,81.7275691018651,72.68953719101934,0.0001295089750783,0.0889859497547149,0,0,0
6848,232751.55375899147,2010-09-17 06:36:48,5252.656531443487,2,20,0.5501165986061096,4.123890399932861,20.534747358070923,19.85337712476218,81.74647189684761,72.68953719101934,0.0001295089750783,0.0889859497547149,0,0,0
6849,232781.56902791045,2010-09-17 06:37:18,5282.671800362444,2,20,0.5501165986061096,4.12696647644043,20.53933295057442,19.85337712476218,81.76538891665078,72.68953719101934,9.71794142969884e-05,0.0889859497547149,0,0,0
6850,232811.5843135511,2010-09-17 06:37:48,5312.687086003139,2,20,0.5499359965324402,4.13036584854126,20.54391863159598,19.85337712476218,81.78432116297344,72.68953719101934,0.0001295089750783,0.0889859497547149,0,0,0
6851,232841.5995594025,2010-09-17 06:38:18,5342.702331854513,2,20,0.5501165986061096,4.133603572845459,20.54850425566948,19.85337712476218,81.80326818684294,72.68953719101934,6.47544875391759e-05,0.0889859497547149,0,0,0
6852,232871.6148239355,2010-09-17 06:38:48,5372.717596387522,2,20,0.5501165986061096,4.136679649353027,20.553089786399266,19.85337712476218,81.82222991064407,72.68953719101934,9.71794142969884e-05,0.0889859497547149,0,0,0
6853,232901.63008868907,2010-09-17 06:39:18,5402.732861141079,2,20,0.5497553944587708,4.140079021453857,20.557675433766686,19.85337712476218,81.84120741945104,72.68953719101934,9.70840483205393e-05,0.0889859497547149,0,0,0
6854,232931.645369207,2010-09-17 06:39:48,5432.748141658987,2,20,0.5501165986061096,4.143478870391846,20.562261111000343,19.85337712476218,81.86020047332758,72.68953719101934,6.47544875391759e-05,0.0889859497547149,0,0,0
6855,232961.66062350944,2010-09-17 06:40:18,5462.763395961458,2,20,0.5501165986061096,4.147202014923096,20.56684674988874,19.85337712476218,81.87920904517593,72.68953719101934,9.70840483205393e-05,0.0889859497547149,0,0,0
6856,232991.6760165332,2010-09-17 06:40:48,5492.778788985197,2,20,0.5497553944587708,4.150278091430664,20.57143236041913,19.85337712476218,81.89823329157332,72.68953719101934,9.71794142969884e-05,0.0889859497547149,0,0,0
6857,233021.69116966316,2010-09-17 06:41:18,5522.793942115126,2,20,0.5495747923851013,4.153677463531494,20.576017959361863,19.85337712476218,81.91727331144311,72.68953719101934,3.23295607813634e-05,0.0889859497547149,0,0,0
6858,233051.7065913484,2010-09-17 06:41:48,5552.809363825472,2,20,0.5499359965324402,4.157401084899902,20.58060350705443,19.85337712476218,81.93632888814184,72.68953719101934,9.71794142969884e-05,0.0889859497547149,0,0,0
6859,233081.7218175908,2010-09-17 06:42:18,5582.824590052863,2,20,0.5501165986061096,4.1609625816345215,20.585189084761108,19.85337712476218,81.95540068439045,72.68953719101934,0.0001295089750783,0.0889859497547149,0,0,0
6860,233111.7369457484,2010-09-17 06:42:48,5612.839718225494,2,20,0.5501165986061096,4.164200305938721,20.58977466283317,19.85337712476218,81.97448863510877,72.68953719101934,6.47544875391759e-05,0.0889859497547149,0,0,0
6861,233141.75236748884,2010-09-17 06:43:18,5642.85514003609,2,20,0.5499359965324402,4.167923450469971,20.59436026797506,19.85337712476218,81.99359294289438,72.68953719101934,9.70840483205393e-05,0.0889859497547149,0,0,0
6862,233171.7675594958,2010-09-17 06:43:48,5672.870331947824,2,20,0.5499359965324402,4.17148494720459,20.598945839574,19.85337712476218,82.0127136097433,72.68953719101934,6.47544875391759e-05,0.0889859497547149,0,0,0
6863,233201.78274694132,2010-09-17 06:44:18,5702.885519393409,2,20,0.5499359965324402,4.175046443939209,20.60353134492572,19.85337712476218,82.03185051436006,72.68953719101934,9.70840483205393e-05,0.0889859497547149,0,0,0
6864,233231.79803092795,2010-09-17 06:44:48,5732.900803379976,2,20,0.5499359965324402,4.178770065307617,20.60811689443189,19.85337712476218,82.051004299148,72.68953719101934,9.71794142969884e-05,0.0889859497547149,0,0,0
6865,233261.8132770099,2010-09-17 06:45:18,5762.916049461926,2,20,0.5499359965324402,4.182493209838867,20.612702477013663,19.85337712476218,82.07017504287603,72.68953719101934,9.70840483205393e-05,0.0889859497547149,0,0,0
6866,233291.8285606857,2010-09-17 06:45:48,5792.9313331477415,2,20,0.5499359965324402,4.186216831207275,20.61728804254807,19.85337712476218,82.08936263810898,72.68953719101934,0.0001295089750783,0.0889859497547149,0,0,0
6867,233321.8438270984,2010-09-17 06:46:18,5822.946599550417,2,20,0.5497553944587708,4.189778327941895,20.621873623550417,19.85337712476218,82.10856738867649,72.68953719101934,6.47544875391759e-05,0.0889859497547149,0,0,0
6868,233351.85907303,2010-09-17 06:46:48,5852.961845481992,2,20,0.5499359965324402,4.1938252449035645,20.62645912062945,19.85337712476218,82.1277889660466,72.68953719101934,9.70840483205393e-05,0.0889859497547149,0,0,0
6869,233381.8743368362,2010-09-17 06:47:18,5882.97710929821,2,20,0.5501165986061096,4.197548389434815,20.63104466338974,19.85337712476218,82.14702808698517,72.68953719101934,9.70840483205393e-05,0.0889859497547149,0,0,0
6870,233400.82723932163,2010-09-17 06:47:37,5901.93001177362,2,20,0.5501165986061096,4.200138568878174,20.633940196529338,19.85337712476218,82.15918557325091,72.68953719101934,0.0001618385285837,0.0889859497547149,0,0,0
6871,233430.84841430956,2010-09-17 06:48:07,30.015252162127773,3,20,0.0,4.116767406463623,20.633940196529338,19.85337712476218,82.15918557325091,72.68953719101934,-0.0004209518374409,0.0889859497547149,0,0,0
6872,233460.86384742337,2010-09-17 06:48:37,60.03068527092628,3,20,0.0,4.106407165527344,20.633940196529338,19.85337712476218,82.15918557325091,72.68953719101934,-0.0002265930233988,0.0889859497547149,0,0,0
6873,233490.878970804,2010-09-17 06:49:07,90.04580866162074,3,20,0.0,4.100417137145996,20.633940196529338,19.85337712476218,82.15918557325091,72.68953719101934,-0.0001295089750783,0.0889859497547149,0,0,0
6874,233520.8474151867,2010-09-17 06:49:37,120.01425314458012,3,20,0.0,4.096370220184326,20.633940196529338,19.85337712476218,82.15918557325091,72.68953719101934,-9.70840483205393e-05,0.0889859497547149,0,0,0
6875,233520.85471374888,2010-09-17 06:49:37,2.711768993e-06,4,20,1.0036264657974243,4.199653148651123,20.633940197285337,19.85337712476218,82.15918557642586,72.68953719101934,0.0,0.0889859497547149,0,0,0
6876,233521.6358598497,2010-09-17 06:49:38,0.781148867750655,4,20,0.952875316143036,4.199653148651123,20.63415074340421,19.85337712476218,82.16006979773604,72.68953719101934,0.0,0.0889859497547149,0,0,0
6877,233523.68272097505,2010-09-17 06:49:40,2.828009962945969,4,20,0.902665913105011,4.199653148651123,20.634677233602464,19.85337712476218,82.16228087588294,72.68953719101934,0.0,0.0889859497547149,0,0,0
6878,233526.79205765272,2010-09-17 06:49:43,5.937346640653014,4,20,0.8524565696716309,4.199814796447754,20.63543429283702,19.85337712476218,82.1654602702506,72.68953719101934,3.23295607813634e-05,0.0889859497547149,0,0,0
6879,233531.01077678468,2010-09-17 06:49:47,10.156065772640169,4,20,0.802247166633606,4.199653148651123,20.636402771821803,19.85337712476218,82.16952758377114,72.68953719101934,-3.23295607813634e-05,0.0889859497547149,0,0,0
6880,233536.4638335032,2010-09-17 06:49:53,15.609122491141347,4,20,0.752037763595581,4.199976921081543,20.637578471748004,19.85337712476218,82.17446514975424,72.68953719101934,6.47544875391759e-05,0.0889859497547149,0,0,0
6881,233543.46376791137,2010-09-17 06:50:00,22.609056909362213,4,20,0.7016478180885315,4.199814796447754,20.638989944838887,19.85337712476218,82.18039289038394,72.68953719101934,3.23295607813634e-05,0.0889859497547149,0,0,0
6882,233552.68239903796,2010-09-17 06:50:09,31.82768803590501,4,20,0.651619017124176,4.199653148651123,20.6407199873778,19.85337712476218,82.18765854521682,72.68953719101934,0.0,0.0889859497547149,0,0,0
6883,233565.22909482085,2010-09-17 06:50:21,44.37438380881508,4,20,0.6015902757644653,4.199653148651123,20.642899486357468,19.85337712476218,82.19681177767823,72.68953719101934,0.0,0.0889859497547149,0,0,0
6884,233583.6819972192,2010-09-17 06:50:40,62.82728620710928,4,20,0.5515614748001099,4.199491024017334,20.64584727404416,19.85337712476218,82.20919159425004,72.68953719101934,-6.47544875391759e-05,0.0889859497547149,0,0,0
6885,233614.0878953788,2010-09-17 06:51:10,93.23318436674624,4,20,0.5015327334403992,4.199653148651123,20.65027761222569,19.85337712476218,82.2277976733353,72.68953719101934,0.0,0.0889859497547149,0,0,0
6886,233668.2278596589,2010-09-17 06:52:04,147.37314864681454,4,20,0.4515039622783661,4.199653148651123,20.65741042368398,19.85337712476218,82.257753342082,72.68953719101934,0.0,0.0889859497547149,0,0,0
6887,233754.5705711001,2010-09-17 06:53:31,233.715860088066,4,20,0.401475191116333,4.199653148651123,20.667611441395188,19.85337712476218,82.30059457552213,72.68953719101934,0.0,0.0889859497547149,0,0,0
6888,233869.92868720533,2010-09-17 06:55:26,349.07397629351726,4,20,0.3512657880783081,4.199653148651123,20.67965889792381,19.85337712476218,82.35119038368506,72.68953719101934,-6.47544875391759e-05,0.0889859497547149,0,0,0
6889,234007.56754620257,2010-09-17 06:57:44,486.7128351955458,4,20,0.3010564148426056,4.199653148651123,20.69212043610722,19.85337712476218,82.40352521961404,72.68953719101934,0.0,0.0889859497547149,0,0,0
6890,234174.62802414715,2010-09-17 07:00:31,653.7733131350949,4,20,0.2508470416069031,4.199653148651123,20.70491404835533,19.85337712476218,82.45725471625877,72.68953719101934,0.0,0.0889859497547149,0,0,0
6891,234381.95367360947,2010-09-17 07:03:58,861.0989625974065,4,20,0.20081827044487,4.199814796447754,20.717882849545425,19.85337712476218,82.51171987458397,72.68953719101934,3.23295607813634e-05,0.0889859497547149,0,0,0
6892,234653.12237900132,2010-09-17 07:08:29,1132.2676679993524,4,20,0.1507894992828369,4.199653148651123,20.731035881553712,19.85337712476218,82.5669586294725,72.68953719101934,0.0,0.0889859497547149,0,0,0
6893,235044.80507160092,2010-09-17 07:15:01,1523.9503605839193,4,20,0.1007607355713844,4.199653148651123,20.74457701582593,19.85337712476218,82.62382747882884,72.68953719101934,-3.23295607813634e-05,0.0889859497547149,0,0,0
6894,235771.53076276009,2010-09-17 07:27:08,2250.676051758042,4,20,0.0507319644093513,4.199491024017334,20.759323091616704,19.85337712476218,82.68575659368551,72.68953719101934,-6.47544875391759e-05,0.0889859497547149,0,0,0
6895,235791.88978779368,2010-09-17 07:27:28,2271.035076786671,4,20,0.0498289167881011,4.199653148651123,20.75961040107196,19.85337712476218,82.68696320770249,72.68953719101934,-3.23295607813634e-05,0.0889859497547149,0,0,0
6896,235821.9085105383,2010-09-17 07:27:58,30.01525898916912,5,20,0.0,4.191882610321045,20.75961040107196,19.85337712476218,82.68696320770249,72.68953719101934,-3.24249267578125e-05,0.0889859497547149,0,0,0
6897,235851.90816372292,2010-09-17 07:28:28,60.01491226407455,5,20,0.0,4.190587520599365,20.75961040107196,19.85337712476218,82.68696320770249,72.68953719101934,0.0,0.0889859497547149,0,0,0
6898,235852.0998098592,2010-09-17 07:28:29,0.18745138750188,6,20,-1.9243103452026844e-05,4.190587520599365,20.75961040107196,19.853377125764165,82.68696320770249,72.68953719521825,0.0,0.09375511854887,0,0,0
6899,235856.91254347272,2010-09-17 07:28:33,5.000185106284533,6,20,0.0008838032954372,4.190749645233154,20.75961105635068,19.853377125931377,82.6869659538309,72.68953719591899,0.0,0.09375511854887,0,0,0
6900,235886.9317535388,2010-09-17 07:29:04,30.01522766096911,7,20,-1.099568486213684,4.017045974731445,20.75961105635068,19.86254536999524,82.6869659538309,72.72656297984679,-0.0009065627818927,0.09375511854887,0,0,0
6901,235916.94700279867,2010-09-17 07:29:34,60.03047701609016,7,20,-1.099568486213684,3.990173101425171,20.75961105635068,19.87171356332266,82.6869659538309,72.76325888891,-0.0005827903514727,0.09375511854887,0,0,0
6902,235946.96226379788,2010-09-17 07:30:04,90.0457379250514,7,20,-1.0997490882873535,3.9715561866760254,20.75961105635068,19.88088167885402,82.6869659538309,72.79975101538179,-0.0004209041653666,0.09375511854887,0,0,0
6903,235976.97759988948,2010-09-17 07:30:34,120.0610740116676,7,20,-1.099568486213684,3.957472085952759,20.75961105635068,19.89004980623817,82.6869659538309,72.8360958690376,-0.0003561496851034,0.09375511854887,0,0,0
6904,236006.99282665824,2010-09-17 07:31:04,150.0763008104846,7,20,-1.099568486213684,3.9454925060272217,20.75961105635068,19.899217912635024,82.6869659538309,72.87232290694794,-0.0003237724304199,0.09375511854887,0,0,0
6905,236037.00823152155,2010-09-17 07:31:34,180.09170573894065,7,20,-1.0993878841400146,3.935293674468994,20.75961105635068,19.908386062169903,82.6869659538309,72.90844870151787,-0.0002266406954731,0.09375511854887,0,0,0
6906,236067.02335663151,2010-09-17 07:32:04,210.10683075368905,7,20,-1.0993878841400146,3.9257423877716064,20.75961105635068,19.917554068259832,82.6869659538309,72.9444823028634,-0.0002266406954731,0.09375511854887,0,0,0
6907,236097.03861361067,2010-09-17 07:32:34,240.1220877328408,7,20,-1.099568486213684,3.916514873504639,20.75961105635068,19.926722257059943,82.6869659538309,72.98043097143552,-0.0002266406954731,0.09375511854887,0,0,0
6908,236127.0538813166,2010-09-17 07:33:04,270.1373554387683,7,20,-1.099568486213684,3.90777325630188,20.75961105635068,19.9358903321712,82.6869659538309,73.01629768570227,-0.0002590179501567,0.09375511854887,0,0,0
6909,236157.06915548365,2010-09-17 07:33:34,300.1526296058238,7,20,-1.099568486213684,3.899355173110962,20.75961105635068,19.94505848054693,82.6869659538309,73.05208628137213,-0.0001942634553415,0.09375511854887,0,0,0
6910,236187.08442216204,2010-09-17 07:34:04,330.16789629421135,7,20,-1.099568486213684,3.891260862350464,20.75961105635068,19.954226561629344,82.6869659538309,73.08779818627303,-0.0002266406954731,0.09375511854887,0,0,0
6911,236217.0999068295,2010-09-17 07:34:34,360.1833809617083,7,20,-1.099568486213684,3.883004665374756,20.75961105635068,19.96339479691687,82.6869659538309,73.12343614929631,-0.0002590179501567,0.09375511854887,0,0,0
6912,236247.11493290728,2010-09-17 07:35:04,390.1984070294697,7,20,-1.0997490882873535,3.875072240829468,20.75961105635068,19.972562879118176,82.6869659538309,73.1590002056415,-0.0002266406954731,0.09375511854887,0,0,0
6913,236277.13035277303,2010-09-17 07:35:34,420.2138269152616,7,20,-1.0997490882873535,3.8673017024993896,20.75961105635068,19.981731034320696,82.6869659538309,73.19449265439924,-0.0002590179501567,0.09375511854887,0,0,0
6914,236307.1455487249,2010-09-17 07:36:04,450.22902284702974,7,20,-1.099568486213684,3.859854936599731,20.75961105635068,19.990899144122704,82.6869659538309,73.22991404340178,-0.0001942634553415,0.09375511854887,0,0,0
6915,236337.16072062665,2010-09-17 07:36:34,480.24419474881535,7,20,-1.0997490882873535,3.852084398269653,20.75961105635068,20.000067297495978,82.6869659538309,73.26526546617026,-0.0002266406954731,0.09375511854887,0,0,0
6916,236367.1759529643,2010-09-17 07:37:04,510.2594270964832,7,20,-1.0997490882873535,3.844637632369995,20.75961105635068,20.009235483026348,82.6869659538309,73.30054839538224,-0.0001942634553415,0.09375511854887,0,0,0
6917,236397.19124444452,2010-09-17 07:37:34,540.2747185717425,7,20,-1.099568486213684,3.837352752685547,20.75961105635068,20.01840369030341,82.6869659538309,73.33576398870736,-0.0001942634553415,0.09375511854887,0,0,0
6918,236427.20647752908,2010-09-17 07:38:04,570.2899516512371,7,20,-1.099929690361023,3.830229997634888,20.75961105635068,20.027571905289253,82.6869659538309,73.37091354741085,-0.0001942634553415,0.09375511854887,0,0,0
6919,236457.22175408207,2010-09-17 07:38:34,600.3052282042482,7,20,-1.0997490882873535,3.8232688903808594,20.75961105635068,20.03674014572716,82.6869659538309,73.40599848509626,-0.0001618862152099,0.09375511854887,0,0,0
6920,236487.23700693093,2010-09-17 07:39:04,630.3204810530901,7,20,-1.099568486213684,3.816307783126831,20.75961105635068,20.04590825870718,82.6869659538309,73.4410187523425,-0.0001942634553415,0.09375511854887,0,0,0
6921,236517.25229554903,2010-09-17 07:39:34,660.3357696712178,7,20,-1.099568486213684,3.8095085620880127,20.75961105635068,20.05507646005866,82.6869659538309,73.47597606042419,-0.0001618862152099,0.09375511854887,0,0,0
6922,236547.26766443756,2010-09-17 07:40:04,690.3511385897875,7,20,-1.099568486213684,3.802871227264404,20.75961105635068,20.06424466455826,82.6869659538309,73.51087109234196,-0.0001295089750783,0.09375511854887,0,0,0
6923,236577.28279448484,2010-09-17 07:40:34,720.3662686320855,7,20,-1.0997490882873535,3.796072006225586,20.75961105635068,20.07341277266795,82.6869659538309,73.54570480647448,-0.0001618862152099,0.09375511854887,0,0,0
6924,236607.2982056138,2010-09-17 07:41:04,750.3816797660313,7,20,-1.099568486213684,3.7897584438323975,20.75961105635068,20.082581024140968,82.6869659538309,73.5804787150681,-0.0001618862152099,0.09375511854887,0,0,0
6925,236637.3135449836,2010-09-17 07:41:34,780.3970191007553,7,20,-1.0997490882873535,3.783282995223999,20.75961105635068,20.0917492433194,82.6869659538309,73.615193605773,-0.0001942634553415,0.09375511854887,0,0,0
6926,236667.32865128663,2010-09-17 07:42:04,810.4121254438965,7,20,-1.0997490882873535,3.7768075466156006,20.75961105635068,20.100917365390192,82.6869659538309,73.64985020470951,-0.0001942634553415,0.09375511854887,0,0,0
6927,236697.34398091715,2010-09-17 07:42:34,840.4274550443222,7,20,-1.0997490882873535,3.770817756652832,20.75961105635068,20.110085603539087,82.6869659538309,73.6844504235863,-0.0001618862152099,0.09375511854887,0,0,0
6928,236727.3591049745,2010-09-17 07:43:04,870.4425791016808,7,20,-1.099568486213684,3.764827966690064,20.75961105635068,20.119253691547197,82.6869659538309,73.71899426643601,-0.0001618862152099,0.09375511854887,0,0,0
6929,236757.37451843423,2010-09-17 07:43:34,900.4579925764698,7,20,-1.0997490882873535,3.758838176727295,20.75961105635068,20.128421931940213,82.6869659538309,73.75348397708073,-0.0002266406954731,0.09375511854887,0,0,0
6930,236787.3896362861,2010-09-17 07:44:04,930.4731104082884,7,20,-1.0997490882873535,3.753010272979736,20.75961105635068,20.137590169709373,82.6869659538309,73.78792016174357,-0.0001942634553415,0.09375511854887,0,0,0
6931,236817.40492501453,2010-09-17 07:44:34,960.488399141704,7,20,-1.0993878841400146,3.7476682662963863,20.75961105635068,20.146758324581185,82.6869659538309,73.82230339681126,-0.0001295089750783,0.09375511854887,0,0,0
6932,236847.4201794724,2010-09-17 07:45:04,990.503653599562,7,20,-1.099568486213684,3.741840362548828,20.75961105635068,20.155926518965117,82.6869659538309,73.85663498695332,-0.0001618862152099,0.09375511854887,0,0,0
6933,236877.4354332536,2010-09-17 07:45:34,1020.5189073757184,7,20,-1.099568486213684,3.7363362312316895,20.75961105635068,20.1650947518663,82.6869659538309,73.89091601724687,-0.0001618862152099,0.09375511854887,0,0,0
6934,236907.4506838217,2010-09-17 07:46:04,1050.5341579438675,7,20,-1.0997490882873535,3.7309939861297607,20.75961105635068,20.17426296158849,82.6869659538309,73.92514710608053,-0.0001295089750783,0.09375511854887,0,0,0
6935,236937.46631853373,2010-09-17 07:46:34,1080.5497926959988,7,20,-1.0997490882873535,3.725651741027832,20.75961105635068,20.18343128420861,82.6869659538309,73.95933004228854,-0.0001618862152099,0.09375511854887,0,0,0
6936,236967.4811873239,2010-09-17 07:47:04,1110.5646614711338,7,20,-1.099568486213684,3.7206332683563232,20.75961105635068,20.19259940219816,82.6869659538309,73.9934645577677,-0.0001295089750783,0.09375511854887,0,0,0
6937,236997.496605335,2010-09-17 07:47:34,1140.5800794571835,7,20,-1.099568486213684,3.7156147956848153,20.75961105635068,20.20176765305431,82.6869659538309,74.02755249213268,-9.713172767078504e-05,0.09375511854887,0,0,0
6938,237027.51177551248,2010-09-17 07:48:04,1170.5952496346647,7,20,-1.099929690361023,3.7105963230133057,20.75961105635068,20.210935859590343,82.6869659538309,74.06159428089158,-9.713172767078504e-05,0.09375511854887,0,0,0
6939,237057.5270238701,2010-09-17 07:48:34,1200.6104980173589,7,20,-1.0997490882873535,3.705577850341797,20.75961105635068,20.22010408499321,82.6869659538309,74.09559099072632,-0.0001295089750783,0.09375511854887,0,0,0
6940,237087.54228189687,2010-09-17 07:49:04,1230.6257560190631,7,20,-1.099568486213684,3.700883150100708,20.75961105635068,20.229272295187243,82.6869659538309,74.12954285346768,-0.0001295089750783,0.09375511854887,0,0,0
6941,237117.55755200883,2010-09-17 07:49:34,1260.641026130996,7,20,-1.0997490882873535,3.695864677429199,20.75961105635068,20.238440614232516,82.6869659538309,74.16345139844088,-0.0001618862152099,0.09375511854887,0,0,0
6942,237147.57281101303,2010-09-17 07:50:04,1290.656285165278,7,20,-1.099568486213684,3.6914937496185294,20.75961105635068,20.24760890091013,82.6869659538309,74.19731661107834,-0.0001295089750783,0.09375511854887,0,0,0
6943,237177.58820174105,2010-09-17 07:50:34,1320.6716758632124,7,20,-1.099568486213684,3.6867990493774414,20.75961105635068,20.25677716098345,82.6869659538309,74.23113879604244,-0.0001295089750783,0.09375511854887,0,0,0
6944,237207.6033323097,2010-09-17 07:51:04,1350.6868064318242,7,20,-1.0997490882873535,3.682104349136353,20.75961105635068,20.265945334886972,82.6869659538309,74.26491861770852,-0.0001618862152099,0.09375511854887,0,0,0
6945,237237.61861794032,2010-09-17 07:51:34,1380.7020920624946,7,20,-1.0997490882873535,3.677733421325684,20.75961105635068,20.275113638575743,82.6869659538309,74.29865778263789,-0.0001618862152099,0.09375511854887,0,0,0
6946,237267.63385845337,2010-09-17 07:52:04,1410.7173325755443,7,20,-1.0997490882873535,3.673362493515015,20.75961105635068,20.284281829098628,82.6869659538309,74.33235658696887,-0.0001295089750783,0.09375511854887,0,0,0
6947,237297.64913342745,2010-09-17 07:52:34,1440.7326075596393,7,20,-1.099568486213684,3.668991804122925,20.75961105635068,20.29345009887055,82.6869659538309,74.36601572666007,-0.0001295089750783,0.09375511854887,0,0,0
6948,237327.6644538901,2010-09-17 07:53:04,1470.7479280372927,7,20,-1.099568486213684,3.664782762527466,20.75961105635068,20.302618314679485,82.6869659538309,74.39963498955204,-0.0001295089750783,0.09375511854887,0,0,0
6949,237357.67966488944,2010-09-17 07:53:34,1500.7631390166223,7,20,-1.099568486213684,3.660735607147217,20.75961105635068,20.311786552073304,82.6869659538309,74.43321523850511,-3.237724376958795e-05,0.09375511854887,0,0,0
6950,237387.69495658527,2010-09-17 07:54:04,1530.7784308126825,7,20,-1.0997490882873535,3.656526565551758,20.75961105635068,20.320954843664136,82.6869659538309,74.46675720490214,-6.47544875391759e-05,0.09375511854887,0,0,0
6951,237417.7101727926,2010-09-17 07:54:34,1560.7936469147987,7,20,-1.0993878841400146,3.652479410171509,20.75961105635068,20.33012307201627,82.6869659538309,74.50026100614544,-6.47544875391759e-05,0.09375511854887,0,0,0
6952,237447.7254708744,2010-09-17 07:55:04,1590.8089451168494,7,20,-1.0997490882873535,3.64810848236084,20.75961105635068,20.339291342850892,82.6869659538309,74.53372722126936,-0.0001295089750783,0.09375511854887,0,0,0
6953,237477.7408905797,2010-09-17 07:55:34,1620.8243648021407,7,20,-1.099568486213684,3.644061326980591,20.75961105635068,20.348459607322788,82.6869659538309,74.5671560458036,-9.713172767078504e-05,0.09375511854887,0,0,0
6954,237507.75596236665,2010-09-17 07:56:04,1650.8394364987987,7,20,-1.0993878841400146,3.6403379440307617,20.75961105635068,20.357627708615496,82.6869659538309,74.60054786645348,-6.47544875391759e-05,0.09375511854887,0,0,0
6955,237537.77123145096,2010-09-17 07:56:34,1680.8547055881795,7,20,-1.099568486213684,3.636452674865722,20.75961105635068,20.3667959809084,82.6869659538309,74.63390503485637,-9.713172767078504e-05,0.09375511854887,0,0,0
6956,237567.7864896732,2010-09-17 07:57:04,1710.8699637953969,7,20,-1.099568486213684,3.6327292919158936,20.75961105635068,20.3759642301731,82.6869659538309,74.66722776384468,-9.713172767078504e-05,0.09375511854887,0,0,0
6957,237597.8019595388,2010-09-17 07:57:34,1740.885433660946,7,20,-1.0997490882873535,3.629005908966065,20.75961105635068,20.38513256333149,82.6869659538309,74.70051726117377,-0.0001295089750783,0.09375511854887,0,0,0
6958,237627.81702879435,2010-09-17 07:58:04,1770.900502936561,7,20,-1.0997490882873535,3.625444412231445,20.75961105635068,20.39430081663883,82.6869659538309,74.73377321134852,-6.47544875391759e-05,0.09375511854887,0,0,0
6959,237657.83243030927,2010-09-17 07:58:34,1800.915904446484,7,20,-1.0993878841400146,3.622206687927246,20.75961105635068,20.403469079538077,82.6869659538309,74.76699687301534,-6.47544875391759e-05,0.09375511854887,0,0,0
6960,237687.84754122884,2010-09-17 07:59:04,1830.9310153510107,7,20,-1.0993878841400146,3.618645191192627,20.75961105635068,20.412637280977197,82.6869659538309,74.80018856005398,-9.713172767078504e-05,0.09375511854887,0,0,0
6961,237717.86282538585,2010-09-17 07:59:34,1860.946299518028,7,20,-1.0997490882873535,3.615083694458008,20.75961105635068,20.421805512211776,82.6869659538309,74.83334911921126,-9.713172767078504e-05,0.09375511854887,0,0,0
6962,237747.87819297108,2010-09-17 08:00:04,1890.9616670932444,7,20,-1.0993878841400146,3.6120078563690186,20.75961105635068,20.430973554992,82.6869659538309,74.86647860571986,-6.47544875391759e-05,0.09375511854887,0,0,0
6963,237777.89333164992,2010-09-17 08:00:35,1920.9768057721003,7,20,-1.099568486213684,3.6087701320648193,20.75961105635068,20.44014102052665,82.6869659538309,74.89957632065986,-9.713172767078504e-05,0.09375511854887,0,0,0
6964,237807.908647887,2010-09-17 08:01:05,1950.992122019194,7,20,-1.0993878841400146,3.60569429397583,20.75961105635068,20.44930872672117,82.6869659538309,74.9326458409202,-6.47544875391759e-05,0.09375511854887,0,0,0
6965,237837.9238935078,2010-09-17 08:01:35,1981.0073676299685,7,20,-1.099568486213684,3.602456569671631,20.75961105635068,20.4584770622286,82.6869659538309,74.96568886582152,-9.713172767078504e-05,0.09375511854887,0,0,0
6966,237867.9391630132,2010-09-17 08:02:05,2011.0226371604504,7,20,-1.099568486213684,3.5993807315826416,20.75961105635068,20.46764541303303,82.6869659538309,74.99870377495036,-9.713172767078504e-05,0.09375511854887,0,0,0
6967,237897.9544203934,2010-09-17 08:02:35,2041.0378945155408,7,20,-1.099568486213684,3.5964667797088623,20.75961105635068,20.47681374890578,82.6869659538309,75.03169047277525,-6.47544875391759e-05,0.09375511854887,0,0,0
6968,237927.96977793853,2010-09-17 08:03:05,2071.0532521559585,7,20,-1.099568486213684,3.593552827835083,20.75961105635068,20.48598209190408,82.6869659538309,75.06464951577792,-3.237724376958795e-05,0.09375511854887,0,0,0
6969,237957.9849524769,2010-09-17 08:03:35,2101.0684266041,7,20,-1.099568486213684,3.590477228164673,20.75961105635068,20.495150393911867,82.6869659538309,75.0975812225293,-6.47544875391759e-05,0.09375511854887,0,0,0
6970,237988.0003265684,2010-09-17 08:04:05,2131.083800715632,7,20,-1.099568486213684,3.5875632762908936,20.75961105635068,20.50431877800633,82.6869659538309,75.13048623841016,-9.713172767078504e-05,0.09375511854887,0,0,0
6971,238018.0154603049,2010-09-17 08:04:35,2161.098934442127,7,20,-1.099568486213684,3.5846493244171143,20.75961105635068,20.513487135057588,82.6869659538309,75.16336401503612,-3.237724376958795e-05,0.09375511854887,0,0,0
6972,238048.0308464966,2010-09-17 08:05:05,2191.1143206288,7,20,-1.0997490882873535,3.581573486328125,20.75961105635068,20.52265548567887,82.6869659538309,75.19621460538742,-9.713172767078504e-05,0.09375511854887,0,0,0
6973,238078.04599406265,2010-09-17 08:05:35,2221.129468184816,7,20,-1.0997490882873535,3.578497648239136,20.75961105635068,20.53182389945845,82.6869659538309,75.22903826599958,-9.713172767078504e-05,0.09375511854887,0,0,0
6974,238108.06122493665,2010-09-17 08:06:05,2251.1446990588047,7,20,-1.099568486213684,3.5755836963653564,20.75961105635068,20.54099244169192,82.6869659538309,75.26183531813699,-9.713172767078504e-05,0.09375511854887,0,0,0
6975,238138.07666802537,2010-09-17 08:06:35,2281.1601421475143,7,20,-1.0997490882873535,3.572507858276367,20.75961105635068,20.550160949957547,82.6869659538309,75.29460434193659,-9.713172767078504e-05,0.09375511854887,0,0,0
6976,238168.0917999423,2010-09-17 08:07:05,2311.175274079529,7,20,-1.099568486213684,3.569593906402588,20.75961105635068,20.55932934492321,82.6869659538309,75.32734483007494,-6.47544875391759e-05,0.09375511854887,0,0,0
6977,238198.10710046013,2010-09-17 08:07:35,2341.190574592348,7,20,-1.0997490882873535,3.566518068313598,20.75961105635068,20.56849774071945,82.6869659538309,75.36005760324704,-6.47544875391759e-05,0.09375511854887,0,0,0
6978,238228.12232190563,2010-09-17 08:08:05,2371.2057960327897,7,20,-1.0997490882873535,3.5632803440093994,20.75961105635068,20.57766611205741,82.6869659538309,75.3927413738726,-9.713172767078504e-05,0.09375511854887,0,0,0
6979,238258.13758625812,2010-09-17 08:08:35,2401.2210603803346,7,20,-1.099568486213684,3.56020450592041,20.75961105635068,20.586834466969364,82.6869659538309,75.42539695659124,-6.47544875391759e-05,0.09375511854887,0,0,0
6980,238288.1528883098,2010-09-17 08:09:05,2431.236362442019,7,20,-1.099568486213684,3.556966781616211,20.75961105635068,20.596002834538517,82.6869659538309,75.45802297591845,-6.47544875391759e-05,0.09375511854887,0,0,0
6981,238318.16814689292,2010-09-17 08:09:35,2461.2516210251742,7,20,-1.099568486213684,3.5538909435272217,20.75961105635068,20.60517127527821,82.6869659538309,75.490619848934,-3.237724376958795e-05,0.09375511854887,0,0,0
6982,238348.18337166676,2010-09-17 08:10:05,2491.2668457939244,7,20,-1.0997490882873535,3.5504913330078125,20.75961105635068,20.614339654136018,82.6869659538309,75.52318663388621,-9.713172767078504e-05,0.09375511854887,0,0,0
6983,238378.19864279623,2010-09-17 08:10:35,2521.2821169183844,7,20,-1.099568486213684,3.5472536087036133,20.75961105635068,20.62350809268828,82.6869659538309,75.55572370441605,-6.47544875391759e-05,0.09375511854887,0,0,0
6984,238408.21389993577,2010-09-17 08:11:05,2551.297374057937,7,20,-1.099568486213684,3.543692111968994,20.75961105635068,20.63267655472969,82.6869659538309,75.58822978243887,-9.713172767078504e-05,0.09375511854887,0,0,0
6985,238438.22918139605,2010-09-17 08:11:35,2581.312655518197,7,20,-1.099568486213684,3.540130615234375,20.75961105635068,20.641844959758075,82.6869659538309,75.62070368983238,-9.713172767078504e-05,0.09375511854887,0,0,0
6986,238468.24442879623,2010-09-17 08:12:05,2611.327902923452,7,20,-1.099568486213684,3.536731004714966,20.75961105635068,20.651013412237763,82.6869659538309,75.653145570376,-9.713172767078504e-05,0.09375511854887,0,0,0
6987,238498.25970654225,2010-09-17 08:12:35,2641.343180664428,7,20,-1.0997490882873535,3.5328457355499268,20.75961105635068,20.66018187003952,82.6869659538309,75.6855536772286,-9.713172767078504e-05,0.09375511854887,0,0,0
6988,238528.274960138,2010-09-17 08:13:05,2671.3584342601343,7,20,-1.099568486213684,3.5291223526000977,20.75961105635068,20.66935030335973,82.6869659538309,75.71792686160524,-6.47544875391759e-05,0.09375511854887,0,0,0
6989,238558.2904369408,2010-09-17 08:13:35,2701.3739110629995,7,20,-1.0997490882873535,3.5252370834350586,20.75961105635068,20.67851882562223,82.6869659538309,75.75026487359037,-6.47544875391759e-05,0.09375511854887,0,0,0
6990,238588.30552006603,2010-09-17 08:14:05,2731.388994303473,7,20,-1.0997490882873535,3.5210280418396,20.75961105635068,20.687687214588525,82.6869659538309,75.7825656725185,-9.713172767078504e-05,0.09375511854887,0,0,0
6991,238618.32085735563,2010-09-17 08:14:35,2761.404331573042,7,20,-1.0997490882873535,3.5168190002441406,20.75961105635068,20.696855737965603,82.6869659538309,75.81482913328588,-0.0001295089750783,0.09375511854887,0,0,0
6992,238648.33600691165,2010-09-17 08:15:05,2791.4194810388235,7,20,-1.099568486213684,3.5122861862182617,20.75961105635068,20.70602425333674,82.6869659538309,75.84705198643837,-0.0001295089750783,0.09375511854887,0,0,0
6993,238678.35129807613,2010-09-17 08:15:35,2821.434772198295,7,20,-1.099568486213684,3.507753610610962,20.75961105635068,20.71519268031304,82.6869659538309,75.87923316351464,-9.713172767078504e-05,0.09375511854887,0,0,0
6994,238708.3665544588,2010-09-17 08:16:05,2851.4500285859704,7,20,-1.099568486213684,3.502735137939453,20.75961105635068,20.724361191353303,82.6869659538309,75.91137073371361,-0.0001295089750783,0.09375511854887,0,0,0
6995,238738.3817917187,2010-09-17 08:16:35,2881.465265850912,7,20,-1.0997490882873535,3.4972310066223145,20.75961105635068,20.73352973315619,82.6869659538309,75.94346133331157,-0.0001942634553415,0.09375511854887,0,0,0
6996,238768.3970784722,2010-09-17 08:17:05,2911.480552609398,7,20,-1.099568486213684,3.491403102874756,20.75961105635068,20.742698241465213,82.6869659538309,75.97550053252664,-0.0001618862152099,0.09375511854887,0,0,0
6997,238798.41244537572,2010-09-17 08:17:35,2941.4959195931383,7,20,-1.0997490882873535,3.4852514266967773,20.75961105635068,20.751866727830897,82.6869659538309,76.00748437619352,-0.0001942634553415,0.09375511854887,0,0,0
6998,238828.42757957336,2010-09-17 08:18:05,2971.511053695571,7,20,-1.0997490882873535,3.478128433227539,20.75961105635068,20.761035070107333,82.6869659538309,76.03940718144096,-0.0001942634553415,0.09375511854887,0,0,0
6999,238858.44323900217,2010-09-17 08:18:35,3001.5267131593864,7,20,-1.099568486213684,3.470681667327881,20.75961105635068,20.77020353866015,82.6869659538309,76.07126352605786,-0.0001942634553415,0.09375511854887,0,0,0
7000,238888.4581125191,2010-09-17 08:19:05,3031.5415866462827,7,20,-1.0997490882873535,3.461777925491333,20.75961105635068,20.77937182049049,82.6869659538309,76.1030436273711,-0.0002913951757363,0.09375511854887,0,0,0
7001,238918.47341087155,2010-09-17 08:19:35,3061.5568850037207,7,20,-1.0997490882873535,3.451579093933105,20.75961105635068,20.788540291153097,82.6869659538309,76.13473806234252,-0.0002913951757363,0.09375511854887,0,0,0
7002,238948.4886333295,2010-09-17 08:20:05,3091.57210745669,7,20,-1.0997490882873535,3.4395995140075684,20.75961105635068,20.797708723943888,82.6869659538309,76.1663313110392,-0.0003885269106831,0.09375511854887,0,0,0
7003,238978.5038943788,2010-09-17 08:20:35,3121.587368506001,7,20,-1.099568486213684,3.425029993057251,20.75961105635068,20.80687716638328,82.6869659538309,76.1978031693174,-0.0004856586456298,0.09375511854887,0,0,0
7004,239008.5191659995,2010-09-17 08:21:05,3151.6026401216886,7,20,-1.0997490882873535,3.406898736953736,20.75961105635068,20.816045614438444,82.6869659538309,76.22912564764869,-0.0005180359003134,0.09375511854887,0,0,0
7005,239038.53442974057,2010-09-17 08:21:35,3181.617903872744,7,20,-1.0997490882873535,3.382939577102661,20.75961105635068,20.825214087415908,82.6869659538309,76.26025708568024,-0.0007122993702068,0.09375511854887,0,0,0
7006,239068.5496771408,2010-09-17 08:22:05,3211.6331512729853,7,20,-1.0997490882873535,3.350076913833618,20.75961105635068,20.834382526495,82.6869659538309,76.29113159087433,-0.0010360240703448,0.09375511854887,0,0,0
7007,239098.5651874122,2010-09-17 08:22:35,3241.648661539381,7,20,-1.099568486213684,3.303129911422729,20.75961105635068,20.843551028589083,82.6869659538309,76.3216452883527,-0.0014569759368896,0.09375511854887,0,0,0
7008,239128.580232332,2010-09-17 08:23:05,3271.6637064592,7,20,-1.099568486213684,3.235623598098755,20.75961105635068,20.852719389919272,82.6869659538309,76.35163980841334,-0.0021045207977294,0.09375511854887,0,0,0
7009,239158.59548923097,2010-09-17 08:23:35,3301.6789633631643,7,20,-1.0997490882873535,3.1342830657958984,20.75961105635068,20.86188783583079,82.6869659538309,76.38087457546962,-0.0032377243041992,0.09375511854887,0,0,0
7010,239188.6107370222,2010-09-17 08:24:05,3331.6942111443564,7,20,-1.099568486213684,2.9602558612823486,20.75961105635068,20.871056334048166,82.6869659538309,76.4089092068755,-0.0063783167861402,0.09375511854887,0,0,0
7011,239205.57931555476,2010-09-17 08:24:22,3348.6627897571248,7,20,-1.0997490882873535,2.760165214538574,20.75961105635068,20.876239535774943,82.6869659538309,76.4237867093356,-0.0116557599976658,0.09375511854887,0,0,0
7012,239209.3917471856,2010-09-17 08:24:26,3352.4752213128154,7,20,-1.099568486213684,2.699943780899048,20.75961105635068,20.877404093096583,82.6869659538309,76.42696640525563,-0.0126270772889256,0.09375511854887,0,0,0
7013,239269.4043233904,2010-09-17 08:25:26,60.01480585345728,8,20,0.0,3.408193826675415,20.75961105635068,20.877404093096583,82.6869659538309,76.42696640525563,0.0012950897216796,0.09375511854887,0,0,0
7014,239269.5902833926,2010-09-17 08:25:26,0.18742478610069,9,20,-1.9243103452026844e-05,3.408355712890625,20.75961105635068,20.877404094098427,82.6869659538309,76.42696640867025,0.0,0.0898760333657264,0,0,0
7015,239274.41847217456,2010-09-17 08:25:31,5.015613568098831,9,20,0.0001613661734154,3.415964365005493,20.759611579194004,20.877404094430943,82.68696773815859,76.42696640980483,0.0011008263099938,0.0898760333657264,0,0,0
