Data_Point,Test_Time(s),Date_Time,Step_Time(s),Step_Index,Cycle_Index,Current(A),Voltage(V),Charge_Capacity(Ah),Discharge_Capacity(Ah),Charge_Energy(Wh),Discharge_Energy(Wh),dV/dt(V/s),Internal_Resistance(Ohm),Is_FC_Data,AC_Impedance(Ohm),ACI_Phase_Angle(Deg)
11439,442729.3373497171,2011-01-15 14:47:09,30.015199908618403,1,50,0.0,3.624634981155396,34.479288838443345,34.408743560895154,139.73184027677402,122.47159611270187,0.0006475448608398,0.1037345305085182,0,0,0
11440,442759.35233668494,2011-01-15 14:47:39,60.03018685146057,1,50,0.0,3.6450326442718506,34.479288838443345,34.408743560895154,139.73184027677402,122.47159611270187,0.0004532813909463,0.1037345305085182,0,0,0
11441,442789.3674620227,2011-01-15 14:48:09,90.04531219423795,1,50,0.0,3.659602403640747,34.479288838443345,34.408743560895154,139.73184027677402,122.47159611270187,0.0003561496851034,0.1037345305085182,0,0,0
11442,442819.3356983286,2011-01-15 14:48:39,120.01354849509548,1,50,0.0,3.670610666275024,34.479288838443345,34.408743560895154,139.73184027677402,122.47159611270187,0.0002590179501567,0.1037345305085182,0,0,0
11443,442849.3426075656,2011-01-15 14:49:09,30.01519207409235,2,50,0.5501165986061096,3.792186737060547,34.48387517070214,34.408743560895154,139.7491428223239,122.47159611270187,0.0007770538213662,0.1037345305085182,0,0,0
11444,442879.35764252313,2011-01-15 14:49:39,60.03022703661433,2,50,0.5499359965324402,3.8138794898986816,34.48846160962441,34.408743560895154,139.7665898166144,122.47159611270187,0.0004209041653666,0.1037345305085182,0,0,0
11445,442909.37288096274,2011-01-15 14:50:09,90.0454654913014,2,50,0.5501165986061096,3.8278017044067374,34.4930478913906,34.408743560895154,139.7841150071694,122.47159611270187,0.0003561496851034,0.1037345305085182,0,0,0
11446,442939.38798689714,2011-01-15 14:50:39,120.06057142570717,2,50,0.5501165986061096,3.8384859561920166,34.4976341956898,34.408743560895154,139.80169579841385,122.47159611270187,0.0002266406954731,0.1037345305085182,0,0,0
11447,442969.4029751031,2011-01-15 14:51:09,150.075559606635,2,50,0.5501165986061096,3.847713470458984,34.502220422724285,34.408743560895154,139.8193216136299,122.47159611270187,0.0002590179501567,0.1037345305085182,0,0,0
11448,442999.4181255284,2011-01-15 14:51:39,180.09071006200068,2,50,0.5499359965324402,3.8558077812194815,34.50680673449687,34.408743560895154,139.83698737723233,122.47159611270187,0.0001942634553415,0.1037345305085182,0,0,0
11449,443029.43417456833,2011-01-15 14:52:09,210.10675917710293,2,50,0.5501165986061096,3.863416433334351,34.51139315434843,34.408743560895154,139.85468941819883,122.47159611270187,0.0001942634553415,0.1037345305085182,0,0,0
11450,443059.4483314323,2011-01-15 14:52:39,240.12091594589592,2,50,0.5501165986061096,3.870377540588379,34.51597927017017,34.408743560895154,139.87242321443503,122.47159611270187,0.0001942634553415,0.1037345305085182,0,0,0
11451,443089.4635600325,2011-01-15 14:53:09,270.1361445560474,2,50,0.5499359965324402,3.876691102981568,34.520565580625224,34.408743560895154,139.89018854330496,122.47159611270187,0.0001618862152099,0.1037345305085182,0,0,0
11452,443119.4808803307,2011-01-15 14:53:39,300.1534649495666,2,50,0.5499359965324402,3.882842779159546,34.525152221647375,34.408743560895154,139.90798388345377,122.47159611270187,0.0001295089750783,0.1037345305085182,0,0,0
11453,443149.4936722379,2011-01-15 14:54:09,330.166256771492,2,50,0.5501165986061096,3.888670682907105,34.52973815968841,34.408743560895154,139.92580361159648,122.47159611270187,0.0001295089750783,0.1037345305085182,0,0,0
11454,443179.50883371575,2011-01-15 14:54:39,360.1814182292792,2,50,0.5499359965324402,3.894174814224243,34.534324384507705,34.408743560895154,139.94365035133606,122.47159611270187,0.0001618862152099,0.1037345305085182,0,0,0
11455,443209.5239557703,2011-01-15 14:55:09,390.1965403039114,2,50,0.5501165986061096,3.899355173110962,34.53891067891866,34.408743560895154,139.96152185736608,122.47159611270187,0.0001295089750783,0.1037345305085182,0,0,0
11456,443239.5394162584,2011-01-15 14:55:39,420.2120007669114,2,50,0.5501165986061096,3.904373645782471,34.5434969908591,34.408743560895154,139.97941722068316,122.47159611270187,0.0001295089750783,0.1037345305085182,0,0,0
11457,443269.55414048646,2011-01-15 14:56:09,450.226725,2,50,0.5499359965324402,3.9092302322387695,34.54808321038553,34.408743560895154,139.9973350389576,122.47159611270187,0.0001295089750783,0.1037345305085182,0,0,0
11458,443299.5693789712,2011-01-15 14:56:39,480.241963494787,2,50,0.5499359965324402,3.9139246940612793,34.55266946891534,34.408743560895154,140.01527517627846,122.47159611270187,0.0001294612884521,0.1037345305085182,0,0,0
11459,443329.58439206425,2011-01-15 14:57:09,510.25697658279097,2,50,0.5501165986061096,3.918619394302368,34.55725570911966,34.408743560895154,140.033236354802,122.47159611270187,9.713172767078504e-05,0.1037345305085182,0,0,0
11460,443359.599504946,2011-01-15 14:57:39,540.2720894544866,2,50,0.550297200679779,3.922990322113037,34.56184195449326,34.408743560895154,140.05121782138357,122.47159611270187,0.0001295089750783,0.1037345305085182,0,0,0
11461,443389.6146014418,2011-01-15 14:58:09,570.2871859503687,2,50,0.5499359965324402,3.926875591278076,34.56642823693199,34.408743560895154,140.06921896801848,122.47159611270187,6.47544875391759e-05,0.1037345305085182,0,0,0
11462,443419.629868157,2011-01-15 14:58:39,600.3024526905518,2,50,0.550297200679779,3.931084632873535,34.57101453980455,34.408743560895154,140.0872388187464,122.47159611270187,9.713172767078504e-05,0.1037345305085182,0,0,0
11463,443449.64483227296,2011-01-15 14:59:09,630.3174167814399,2,50,0.5499359965324402,3.9346461296081534,34.57560083797334,34.408743560895154,140.10527635100428,122.47159611270187,6.47544875391759e-05,0.1037345305085182,0,0,0
11464,443479.6600849831,2011-01-15 14:59:39,660.3326694966686,2,50,0.5501165986061096,3.938531398773194,34.5801872058729,34.408743560895154,140.12333110954538,122.47159611270187,9.713172767078504e-05,0.1037345305085182,0,0,0
11465,443509.6750577807,2011-01-15 15:00:09,690.3476422942565,2,50,0.5501165986061096,3.9417691230773926,34.58477341255255,34.408743560895154,140.1414015692492,122.47159611270187,6.47544875391759e-05,0.1037345305085182,0,0,0
11466,443539.6901833791,2011-01-15 15:00:39,720.3627678876585,2,50,0.5501165986061096,3.9454925060272217,34.589359718282886,34.408743560895154,140.15948833850376,122.47159611270187,0.0001618862152099,0.1037345305085182,0,0,0
11467,443569.7052933034,2011-01-15 15:01:09,750.3778778120084,2,50,0.550297200679779,3.948730230331421,34.59394600541074,34.408743560895154,140.17759020432595,122.47159611270187,0.0001295089750783,0.1037345305085182,0,0,0
11468,443599.72070805257,2011-01-15 15:01:39,780.3932925660879,2,50,0.5499359965324402,3.9516441822052,34.59853230743889,34.408743560895154,140.19570682807847,122.47159611270187,6.47544875391759e-05,0.1037345305085182,0,0,0
11469,443629.7358555055,2011-01-15 15:02:09,810.4084402144576,2,50,0.5501165986061096,3.9548819065094,34.603118633564684,34.408743560895154,140.21383789925216,122.47159611270187,9.713172767078504e-05,0.1037345305085182,0,0,0
11470,443659.7506492919,2011-01-15 15:02:39,840.4232338054073,2,50,0.550297200679779,3.9579577445983887,34.60770488301911,34.408743560895154,140.23198283149938,122.47159611270187,9.713172767078504e-05,0.1037345305085182,0,0,0
11471,443689.7657508956,2011-01-15 15:03:09,870.4383354040069,2,50,0.550297200679779,3.961033582687378,34.612291186991946,34.408743560895154,140.25014180235286,122.47159611270187,9.713172767078504e-05,0.1037345305085182,0,0,0
11472,443719.7810040268,2011-01-15 15:03:39,900.453588540285,2,50,0.5499359965324402,3.963947534561157,34.61687754219433,34.408743560895154,140.2683145805075,122.47159611270187,9.713172767078504e-05,0.1037345305085182,0,0,0
11473,443749.79597754113,2011-01-15 15:04:09,930.4685620546594,2,50,0.5499359965324402,3.966699600219727,34.62146382093464,34.408743560895154,140.28650057166473,122.47159611270187,3.237724376958795e-05,0.1037345305085182,0,0,0
11474,443779.811092067,2011-01-15 15:04:39,960.4836765804775,2,50,0.5499359965324402,3.969613552093506,34.62605019886171,34.408743560895154,140.30470022080402,122.47159611270187,6.47544875391759e-05,0.1037345305085182,0,0,0
11475,443809.8263453636,2011-01-15 15:05:09,990.4989299022178,2,50,0.5499359965324402,3.972365617752075,34.63063655245868,34.408743560895154,140.3229128736876,122.47159611270187,3.237724376958795e-05,0.1037345305085182,0,0,0
11476,443839.8413425118,2011-01-15 15:05:39,1020.5139270454824,2,50,0.550297200679779,3.975441455841065,34.635222932111105,34.408743560895154,140.3411385643975,122.47159611270187,0.0001295089750783,0.1037345305085182,0,0,0
11477,443869.856430281,2011-01-15 15:06:09,1050.5290147895523,2,50,0.5501165986061096,3.977707862854004,34.63980926614629,34.408743560895154,140.35937676751053,122.47159611270187,3.237724376958795e-05,0.1037345305085182,0,0,0
11478,443899.8715447768,2011-01-15 15:06:39,1080.544129290308,2,50,0.5499359965324402,3.980783700942993,34.64439549998124,34.408743560895154,140.37762707990433,122.47159611270187,6.47544875391759e-05,0.1037345305085182,0,0,0
11479,443929.8866662349,2011-01-15 15:07:09,1110.5592507484037,2,50,0.550297200679779,3.983697652816773,34.64898172199574,34.408743560895154,140.3958901043837,122.47159611270187,0.0001295089750783,0.1037345305085182,0,0,0
11480,443959.9017932167,2011-01-15 15:07:39,1140.5743777302662,2,50,0.5501165986061096,3.986287832260132,34.6535679546015,34.408743560895154,140.41416556708256,122.47159611270187,9.713172767078504e-05,0.1037345305085182,0,0,0
11481,443989.9168882239,2011-01-15 15:08:09,1170.5894727324255,2,50,0.5501165986061096,3.988878011703491,34.65815414102663,34.408743560895154,140.4324530455825,122.47159611270187,6.47544875391759e-05,0.1037345305085182,0,0,0
11482,444019.932013301,2011-01-15 15:08:39,1200.6045978145532,2,50,0.5501165986061096,3.9914681911468506,34.662740388986336,34.408743560895154,140.45075289735013,122.47159611270187,6.47544875391759e-05,0.1037345305085182,0,0,0
11483,444049.9471281726,2011-01-15 15:09:09,1230.6197126812208,2,50,0.5501165986061096,3.994058132171631,34.66732656177199,34.408743560895154,140.4690644968844,122.47159611270187,6.470680091297254e-05,0.1037345305085182,0,0,0
11484,444079.9622422674,2011-01-15 15:09:39,1260.634826791002,2,50,0.5501165986061096,3.9968101978302,34.67191277587384,34.408743560895154,140.48738827305053,122.47159611270187,9.713172767078504e-05,0.1037345305085182,0,0,0
11485,444109.9773741616,2011-01-15 15:10:09,1290.64995867007,2,50,0.550297200679779,3.99940037727356,34.6764989743944,34.408743560895154,140.5057237539539,122.47159611270187,9.713172767078504e-05,0.1037345305085182,0,0,0
11486,444139.9925112586,2011-01-15 15:10:39,1320.6650957721554,2,50,0.5501165986061096,4.001667022705078,34.681085177852026,34.408743560895154,140.52407103449514,122.47159611270187,6.47544875391759e-05,0.1037345305085182,0,0,0
11487,444170.00772509695,2011-01-15 15:11:09,1350.6803096505907,2,50,0.5501165986061096,4.004418849945068,34.68567144471085,34.408743560895154,140.54243025377787,122.47159611270187,9.70840483205393e-05,0.1037345305085182,0,0,0
11488,444200.0229279078,2011-01-15 15:11:39,1380.6955124464048,2,50,0.5501165986061096,4.006847381591797,34.69025770329526,34.408743560895154,140.5608010894211,122.47159611270187,3.24249267578125e-05,0.1037345305085182,0,0,0
11489,444230.04010142526,2011-01-15 15:12:09,1410.7126859337889,2,50,0.5501165986061096,4.009437561035156,34.694844277891015,34.408743560895154,140.5791846926069,122.47159611270187,9.71794142969884e-05,0.1037345305085182,0,0,0
11490,444260.0529805448,2011-01-15 15:12:39,1440.7255650633117,2,50,0.5501165986061096,4.011865615844727,34.69943007038547,34.408743560895154,140.5975766016724,122.47159611270187,6.47544875391759e-05,0.1037345305085182,0,0,0
11491,444290.0680776873,2011-01-15 15:13:09,1470.7406622058054,2,50,0.5501165986061096,4.014294147491455,34.7040162127438,34.408743560895154,140.6159814051187,122.47159611270187,6.47544875391759e-05,0.1037345305085182,0,0,0
11492,444320.0831955514,2011-01-15 15:13:39,1500.7557800599186,2,50,0.5499359965324402,4.016884326934815,34.7086023387736,34.408743560895154,140.63439763279547,122.47159611270187,6.47544875391759e-05,0.1037345305085182,0,0,0
11493,444350.0982854909,2011-01-15 15:14:09,1530.7708700044727,2,50,0.5501165986061096,4.019312381744385,34.71318857709278,34.408743560895154,140.6528257427011,122.47159611270187,6.47544875391759e-05,0.1037345305085182,0,0,0
11494,444380.1133999215,2011-01-15 15:14:39,1560.7859844551035,2,50,0.5501165986061096,4.021740913391113,34.71777419855103,34.408743560895154,140.67126257857825,122.47159611270187,6.47544875391759e-05,0.1037345305085182,0,0,0
11495,444410.12851348496,2011-01-15 15:15:10,1590.8010980235356,2,50,0.5499359965324402,4.024331092834473,34.72235963512785,34.408743560895154,140.68971021140817,122.47159611270187,6.47544875391759e-05,0.1037345305085182,0,0,0
11496,444440.14367156936,2011-01-15 15:15:40,1620.8162560878652,2,50,0.550297200679779,4.026921272277832,34.72694566307703,34.408743560895154,140.70817166034072,122.47159611270187,6.47544875391759e-05,0.1037345305085182,0,0,0
11497,444470.1588293129,2011-01-15 15:16:10,1650.8314138464327,2,50,0.5499359965324402,4.029349327087402,34.73153189965503,34.408743560895154,140.72664543198266,122.47159611270187,9.70840483205393e-05,0.1037345305085182,0,0,0
11498,444500.1738838641,2011-01-15 15:16:40,1680.846468397776,2,50,0.5501165986061096,4.031939506530762,34.7361180894815,34.408743560895154,140.7451304479105,122.47159611270187,9.70840483205393e-05,0.1037345305085182,0,0,0
11499,444530.189168103,2011-01-15 15:17:10,1710.8617526315586,2,50,0.5499359965324402,4.034367561340332,34.740704361709525,34.408743560895154,140.76362741841865,122.47159611270187,6.46591215627268e-05,0.1037345305085182,0,0,0
11500,444560.204119397,2011-01-15 15:17:40,1740.8767039055033,2,50,0.5499359965324402,4.0367960929870605,34.74529052441646,34.408743560895154,140.78213556150035,122.47159611270187,3.24249267578125e-05,0.1037345305085182,0,0,0
11501,444590.21923216345,2011-01-15 15:18:10,1770.8918166769488,2,50,0.5501165986061096,4.039547920227051,34.74987670730481,34.408743560895154,140.80065541406637,122.47159611270187,9.70840483205393e-05,0.1037345305085182,0,0,0
11502,444620.2343550902,2011-01-15 15:18:40,1800.9069396939294,2,50,0.5501165986061096,4.041976451873779,34.75446290371668,34.408743560895154,140.81918689411268,122.47159611270187,6.47544875391759e-05,0.1037345305085182,0,0,0
11503,444650.2494667037,2011-01-15 15:19:10,1830.922051302477,2,50,0.5497553944587708,4.04440450668335,34.759049125691234,34.408743560895154,140.83773027426682,122.47159611270187,3.23295607813634e-05,0.1037345305085182,0,0,0
11504,444680.2647299451,2011-01-15 15:19:40,1860.9373144787776,2,50,0.5501165986061096,4.047156810760498,34.76363535935999,34.408743560895154,140.85628547456395,122.47159611270187,9.71794142969884e-05,0.1037345305085182,0,0,0
11505,444710.2796841063,2011-01-15 15:20:10,1890.9522686248808,2,50,0.5501165986061096,4.049746990203857,34.76822152639925,34.408743560895154,140.87485234141954,122.47159611270187,3.24249267578125e-05,0.1037345305085182,0,0,0
11506,444740.2947935144,2011-01-15 15:20:40,1920.967378027931,2,50,0.5501165986061096,4.052337169647217,34.77280767146576,34.408743560895154,140.89343106094316,122.47159611270187,6.47544875391759e-05,0.1037345305085182,0,0,0
11507,444770.30991649634,2011-01-15 15:21:10,1950.982501004812,2,50,0.5501165986061096,4.055088996887207,34.777393851132736,34.408743560895154,140.9120220050496,122.47159611270187,6.47544875391759e-05,0.1037345305085182,0,0,0
11508,444800.3251379737,2011-01-15 15:21:40,1980.9977225724112,2,50,0.5501165986061096,4.057679176330566,34.781980075315104,34.408743560895154,140.93062528533537,122.47159611270187,6.47544875391759e-05,0.1037345305085182,0,0,0
11509,444830.3401731468,2011-01-15 15:22:10,2011.0127576602456,2,50,0.5501165986061096,4.060431480407715,34.786566287178914,34.408743560895154,140.9492407615441,122.47159611270187,6.47544875391759e-05,0.1037345305085182,0,0,0
11510,444860.3552618081,2011-01-15 15:22:40,2041.0278463165887,2,50,0.5501165986061096,4.063183307647705,34.79115250142634,34.408743560895154,140.9678680982013,122.47159611270187,0.0001295089750783,0.1037345305085182,0,0,0
11511,444890.37039609806,2011-01-15 15:23:10,2071.0429806317284,2,50,0.5497553944587708,4.0654497146606445,34.79573865520256,34.408743560895154,140.98650765916963,122.47159611270187,3.23295607813634e-05,0.1037345305085182,0,0,0
11512,444920.385498995,2011-01-15 15:23:40,2101.0580835085134,2,50,0.5499359965324402,4.068363666534424,34.80032483146726,34.408743560895154,141.00515985189244,122.47159611270187,6.47544875391759e-05,0.1037345305085182,0,0,0
11513,444950.4006112651,2011-01-15 15:24:10,2131.0731957787098,2,50,0.5501165986061096,4.071115970611572,34.80491102838832,34.408743560895154,141.0238247885815,122.47159611270187,6.47544875391759e-05,0.1037345305085182,0,0,0
11514,444980.41571388126,2011-01-15 15:24:40,2161.0882983898327,2,50,0.5501165986061096,4.074029922485352,34.809497207429814,34.408743560895154,141.04250223516007,122.47159611270187,9.71794142969884e-05,0.1037345305085182,0,0,0
11515,445010.4308293093,2011-01-15 15:25:10,2191.1034138229124,2,50,0.5499359965324402,4.076781749725342,34.81408336997132,34.408743560895154,141.06119238387836,122.47159611270187,0.0001295089750783,0.1037345305085182,0,0,0
11516,445040.4481472969,2011-01-15 15:25:40,2221.1207319056725,2,50,0.5501165986061096,4.079695701599121,34.818669871612904,34.408743560895154,141.07989685935067,122.47159611270187,9.70840483205393e-05,0.1037345305085182,0,0,0
11517,445070.4610656592,2011-01-15 15:26:10,2251.1336501727383,2,50,0.5499359965324402,4.0824480056762695,34.8232557115492,34.408743560895154,141.09861168249174,122.47159611270187,6.47544875391759e-05,0.1037345305085182,0,0,0
11518,445100.476201057,2011-01-15 15:26:40,2281.1487855956384,2,50,0.5501165986061096,4.085361957550049,34.82784189446454,34.408743560895154,141.11734113864284,122.47159611270187,6.47544875391759e-05,0.1037345305085182,0,0,0
11519,445130.49131431966,2011-01-15 15:27:10,2311.1638988282334,2,50,0.5499359965324402,4.088275909423828,34.832428049083504,34.408743560895154,141.13608391242292,122.47159611270187,3.24249267578125e-05,0.1037345305085182,0,0,0
11520,445160.5064199032,2011-01-15 15:27:40,2341.1790044167774,2,50,0.5501165986061096,4.091351509094238,34.83701415627909,34.408743560895154,141.15484004867633,122.47159611270187,6.47544875391759e-05,0.1037345305085182,0,0,0
11521,445190.5214557279,2011-01-15 15:28:10,2371.194040261498,2,50,0.5501165986061096,4.094103813171387,34.84160027658509,34.408743560895154,141.17360967376734,122.47159611270187,3.24249267578125e-05,0.1037345305085182,0,0,0
11522,445220.5366126344,2011-01-15 15:28:40,2401.209197142879,2,50,0.5501165986061096,4.097179412841797,34.84618653551509,34.408743560895154,141.1923936511171,122.47159611270187,9.70840483205393e-05,0.1037345305085182,0,0,0
11523,445250.55172509,2011-01-15 15:29:10,2431.224309598538,2,50,0.5501165986061096,4.100255489349365,34.850772802370685,34.408743560895154,141.2111916064964,122.47159611270187,6.47544875391759e-05,0.1037345305085182,0,0,0
11524,445280.5668921969,2011-01-15 15:29:40,2461.239476710417,2,50,0.5499359965324402,4.103331089019775,34.855358987563456,34.408743560895154,141.23000322032732,122.47159611270187,9.70840483205393e-05,0.1037345305085182,0,0,0
11525,445310.5818816008,2011-01-15 15:30:10,2491.2544661394554,2,50,0.5501165986061096,4.106568813323975,34.85994524776137,34.408743560895154,141.24882936010593,122.47159611270187,0.0001295089750783,0.1037345305085182,0,0,0
11526,445340.5971618146,2011-01-15 15:30:40,2521.2697463331688,2,50,0.5501165986061096,4.109644889831543,34.864531552164934,34.408743560895154,141.26766993877976,122.47159611270187,9.71794142969884e-05,0.1037345305085182,0,0,0
11527,445370.61215729365,2011-01-15 15:31:10,2551.2847417972484,2,50,0.5501165986061096,4.112720489501953,34.8691178716138,34.408743560895154,141.2865249798338,122.47159611270187,9.70840483205393e-05,0.1037345305085182,0,0,0
11528,445400.62753318594,2011-01-15 15:31:40,2581.300117739597,2,50,0.5499359965324402,4.115796089172363,34.87370424086432,34.408743560895154,141.3053946946682,122.47159611270187,6.47544875391759e-05,0.1037345305085182,0,0,0
11529,445430.64235395467,2011-01-15 15:32:10,2611.3149384681824,2,50,0.550297200679779,4.119195938110352,34.87829046723844,34.408743560895154,141.32427847472425,122.47159611270187,9.71794142969884e-05,0.1037345305085182,0,0,0
11530,445460.6575334224,2011-01-15 15:32:40,2641.330117940868,2,50,0.5499359965324402,4.122433662414551,34.88287685461559,34.408743560895154,141.34317778813673,122.47159611270187,9.71794142969884e-05,0.1037345305085182,0,0,0
11531,445490.6726340334,2011-01-15 15:33:10,2671.3452185520064,2,50,0.5501165986061096,4.125509262084961,34.887463196948914,34.408743560895154,141.3620917295823,122.47159611270187,9.70840483205393e-05,0.1037345305085182,0,0,0
11532,445520.6880909426,2011-01-15 15:33:40,2701.360675551374,2,50,0.5501165986061096,4.128909111022949,34.89204956594521,34.408743560895154,141.38102083772182,122.47159611270187,0.0001295089750783,0.1037345305085182,0,0,0
11533,445550.7028471504,2011-01-15 15:34:10,2731.3754316639165,2,50,0.5501165986061096,4.132308483123779,34.8966358214374,34.408743560895154,141.39996456119923,122.47159611270187,0.0001295089750783,0.1037345305085182,0,0,0
11534,445580.71807966026,2011-01-15 15:34:40,2761.3906641888248,2,50,0.5501165986061096,4.1355462074279785,34.9012222380409,34.408743560895154,141.4189241552568,122.47159611270187,9.70840483205393e-05,0.1037345305085182,0,0,0
11535,445610.7330665831,2011-01-15 15:35:10,2791.4056510965797,2,50,0.5501165986061096,4.138946056365967,34.905808576743226,34.408743560895154,141.43789876925123,122.47159611270187,9.71794142969884e-05,0.1037345305085182,0,0,0
11536,445640.7483266617,2011-01-15 15:35:40,2821.4209112002222,2,50,0.5501165986061096,4.142345428466797,34.910395000250226,34.408743560895154,141.45688931070754,122.47159611270187,6.47544875391759e-05,0.1037345305085182,0,0,0
11537,445670.7632918753,2011-01-15 15:36:10,2851.4358763938585,2,50,0.5499359965324402,4.145745277404785,34.91498137825732,34.408743560895154,141.47589537486883,122.47159611270187,9.71794142969884e-05,0.1037345305085182,0,0,0
11538,445700.77854105167,2011-01-15 15:36:40,2881.45112563543,2,50,0.5501165986061096,4.149144649505615,34.919567646416034,34.408743560895154,141.49491695238896,122.47159611270187,6.47544875391759e-05,0.1037345305085182,0,0,0
11539,445730.79354267113,2011-01-15 15:37:10,2911.4661272047256,2,50,0.5501165986061096,4.152868270874023,34.92415389016696,34.408743560895154,141.5139544287815,122.47159611270187,0.0001295089750783,0.1037345305085182,0,0,0
11540,445760.8086563498,2011-01-15 15:37:40,2941.481240863383,2,50,0.5501165986061096,4.156429767608643,34.92874017749925,34.408743560895154,141.53300823044071,122.47159611270187,0.0001295089750783,0.1037345305085182,0,0,0
11541,445790.8237660737,2011-01-15 15:38:10,2971.49635058222,2,50,0.5501165986061096,4.159991264343262,34.933326488819475,34.408743560895154,141.55207841084413,122.47159611270187,0.0001295089750783,0.1037345305085182,0,0,0
11542,445820.8388730056,2011-01-15 15:38:40,3001.511457514112,2,50,0.5501165986061096,4.163390636444092,34.937912762847176,34.408743560895154,141.57116474301378,122.47159611270187,9.70840483205393e-05,0.1037345305085182,0,0,0
11543,445850.8539894813,2011-01-15 15:39:10,3031.52657398979,2,50,0.5499359965324402,4.166952133178711,34.9424989924174,34.408743560895154,141.59026726054813,122.47159611270187,9.70840483205393e-05,0.1037345305085182,0,0,0
11544,445880.8692356602,2011-01-15 15:39:40,3061.541820193791,2,50,0.5499359965324402,4.170675754547119,34.947085322944424,34.408743560895154,141.60938690725607,122.47159611270187,0.0001295089750783,0.1037345305085182,0,0,0
11545,445910.8842216306,2011-01-15 15:40:10,3091.5568061441595,2,50,0.5501165986061096,4.174398899078369,34.9516715319374,34.408743560895154,141.62852275361735,122.47159611270187,9.70840483205393e-05,0.1037345305085182,0,0,0
11546,445940.8993516902,2011-01-15 15:40:40,3121.571936223742,2,50,0.5501165986061096,4.177798748016357,34.95625786802806,34.408743560895154,141.64767595919386,122.47159611270187,6.47544875391759e-05,0.1037345305085182,0,0,0
11547,445970.91456142825,2011-01-15 15:41:10,3151.5871459568466,2,50,0.5501165986061096,4.1816840171813965,34.96084418663537,34.408743560895154,141.66684610533298,122.47159611270187,6.47544875391759e-05,0.1037345305085182,0,0,0
11548,446000.92956279207,2011-01-15 15:41:40,3181.602147305593,2,50,0.5499359965324402,4.185245513916016,34.96543049632095,34.408743560895154,141.6860332798229,122.47159611270187,6.47544875391759e-05,0.1037345305085182,0,0,0
11549,446030.9446768868,2011-01-15 15:42:10,3211.617261400336,2,50,0.5497553944587708,4.189130783081055,34.970016790792506,34.408743560895154,141.70523780292177,122.47159611270187,6.47544875391759e-05,0.1037345305085182,0,0,0
11550,446060.95978598914,2011-01-15 15:42:40,3241.632370497625,2,50,0.550297200679779,4.193016052246094,34.97460305019746,34.408743560895154,141.7244596433222,122.47159611270187,9.71794142969884e-05,0.1037345305085182,0,0,0
11551,446090.9748970012,2011-01-15 15:43:10,3271.6474815146985,2,50,0.5501165986061096,4.196900844573975,34.979189362399154,34.408743560895154,141.74369928144196,122.47159611270187,9.70840483205393e-05,0.1037345305085182,0,0,0
11552,446114.02139302046,2011-01-15 15:43:33,3294.693977528995,2,50,0.5501165986061096,4.200138568878174,34.982710879868975,34.408743560895154,141.758484085928,122.47159611270187,0.0001618385285837,0.1037345305085182,0,0,0
11553,446144.021882318,2011-01-15 15:44:04,30.015249868132884,3,50,0.0,4.095075130462647,34.982710879868975,34.408743560895154,141.758484085928,122.47159611270187,-0.0004856109735555,0.1037345305085182,0,0,0
11554,446174.0368932306,2011-01-15 15:44:34,60.03026077570251,3,50,0.0,4.081314563751221,34.982710879868975,34.408743560895154,141.758484085928,122.47159611270187,-0.0002914428769145,0.1037345305085182,0,0,0
11555,446204.0519880724,2011-01-15 15:45:04,90.0453556124495,3,50,0.0,4.073220252990723,34.982710879868975,34.408743560895154,141.758484085928,122.47159611270187,-0.0001295089750783,0.1037345305085182,0,0,0
11556,446234.0202207843,2011-01-15 15:45:34,120.01358832937474,3,50,0.0,4.067230701446533,34.982710879868975,34.408743560895154,141.758484085928,122.47159611270187,-0.0001295089750783,0.1037345305085182,0,0,0
11557,446234.0233734963,2011-01-15 15:45:34,0.015860539344212,4,50,1.029814839363098,4.199976921081543,34.98271541692973,34.408743560895154,141.7585031414784,122.47159611270187,0.0,0.1037345305085182,0,0,0
11558,446234.6794751736,2011-01-15 15:45:34,0.671961219115334,4,50,0.9792442321777344,4.199814796447754,34.98289710575922,34.408743560895154,141.75926620264508,122.47159611270187,-3.24249267578125e-05,0.1037345305085182,0,0,0
11559,446236.5074552824,2011-01-15 15:45:36,2.49994131296462,4,50,0.9290348887443542,4.199976921081543,34.983380585589195,34.408743560895154,141.76129673005337,122.47159611270187,0.0,0.1037345305085182,0,0,0
11560,446239.28875916754,2011-01-15 15:45:39,5.281245213069497,4,50,0.8788254857063293,4.199653148651123,34.98407798078219,34.408743560895154,141.76422567093914,122.47159611270187,0.0,0.1037345305085182,0,0,0
11561,446243.16357757227,2011-01-15 15:45:43,9.15606360274839,4,50,0.8286161422729492,4.199976921081543,34.98499577903965,34.408743560895154,141.7680802711049,122.47159611270187,0.0,0.1037345305085182,0,0,0
11562,446248.2260000417,2011-01-15 15:45:48,14.21848607221074,4,50,0.7784067392349243,4.199814796447754,34.986124501198816,34.408743560895154,141.77282072595105,122.47159611270187,0.0,0.1037345305085182,0,0,0
11563,446254.81976987,2011-01-15 15:45:55,20.812255920525,4,50,0.7283779978752136,4.199814796447754,34.9875027962501,34.408743560895154,141.77860936325305,122.47159611270187,0.0,0.1037345305085182,0,0,0
11564,446263.44474390405,2011-01-15 15:46:03,29.437229959668716,4,50,0.6781685948371887,4.199814796447754,34.98918536161792,34.408743560895154,141.78567591564405,122.47159611270187,-3.24249267578125e-05,0.1037345305085182,0,0,0
11565,446275.38227291446,2011-01-15 15:46:15,41.37475896503594,4,50,0.6281397938728333,4.199814796447754,34.991346944277794,34.408743560895154,141.7947542708478,122.47159611270187,0.0,0.1037345305085182,0,0,0
11566,446292.86588263954,2011-01-15 15:46:33,58.85836868001789,4,50,0.5781110525131226,4.199976921081543,34.994267324099624,34.408743560895154,141.80701947173478,122.47159611270187,3.24249267578125e-05,0.1037345305085182,0,0,0
11567,446322.4591051306,2011-01-15 15:47:02,88.45159116606003,4,50,0.5280823111534119,4.199653148651123,34.9987955241114,34.408743560895154,141.8260372755467,122.47159611270187,-3.23295607813634e-05,0.1037345305085182,0,0,0
11568,446381.2393563378,2011-01-15 15:48:01,147.23184237329963,4,50,0.4780535101890564,4.199814796447754,35.006965621892945,34.408743560895154,141.86035056352574,122.47159611270187,-3.24249267578125e-05,0.1037345305085182,0,0,0
11569,446484.01887659176,2011-01-15 15:49:44,250.0113626272402,4,50,0.4278441369533539,4.199653148651123,35.01985656901386,34.408743560895154,141.9144907767924,122.47159611270187,-6.47544875391759e-05,0.1037345305085182,0,0,0
11570,446621.7508875772,2011-01-15 15:52:01,387.74337361269625,4,50,0.3778153657913208,4.199976921081543,35.03525034883261,34.408743560895154,141.9791428922734,122.47159611270187,0.0,0.1037345305085182,0,0,0
11571,446786.5293128841,2011-01-15 15:54:46,552.5217989346525,4,50,0.3277865946292877,4.199814796447754,35.05137581290006,34.408743560895154,142.0468680895013,122.47159611270187,-3.24249267578125e-05,0.1037345305085182,0,0,0
11572,446984.7603138477,2011-01-15 15:58:04,750.7527998831704,4,50,0.2775772213935852,4.199814796447754,35.06802533755853,34.408743560895154,142.1167939782403,122.47159611270187,-3.24249267578125e-05,0.1037345305085182,0,0,0
11573,447231.3342541458,2011-01-15 16:02:11,997.3267401762854,4,50,0.2275484502315521,4.199653148651123,35.08529338813444,34.408743560895154,142.18931759585308,122.47159611270187,-3.23295607813634e-05,0.1037345305085182,0,0,0
11574,447540.09460083296,2011-01-15 16:07:20,1306.0870868684258,4,50,0.177519679069519,4.199814796447754,35.10260068906041,34.408743560895154,142.26200604822492,122.47159611270187,0.0,0.1037345305085182,0,0,0
11575,447967.7123400037,2011-01-15 16:14:27,1733.7048260391282,4,50,0.1273102909326553,4.199653148651123,35.12060402872692,34.408743560895154,142.33761771399486,122.47159611270187,-3.23295607813634e-05,0.1037345305085182,0,0,0
11576,448674.9815834446,2011-01-15 16:26:15,2440.9740694901134,4,50,0.0771009176969528,4.199814796447754,35.14027354876313,34.408743560895154,142.4202268735222,122.47159611270187,0.0,0.1037345305085182,0,0,0
11577,449398.3291101846,2011-01-15 16:38:18,3164.3215962402446,4,50,0.0498289167881011,4.199814796447754,35.152863212585004,34.408743560895154,142.47310187488657,122.47159611270187,3.23295607813634e-05,0.1037345305085182,0,0,0
11578,449428.3536370804,2011-01-15 16:38:48,30.01510358855917,5,50,0.0,4.189939975738525,35.152863212585004,34.408743560895154,142.47310187488657,122.47159611270187,-6.47544875391759e-05,0.1037345305085182,0,0,0
11579,449458.353114985,2011-01-15 16:39:18,60.01458151816835,5,50,0.0,4.188321113586426,35.152863212585004,34.408743560895154,142.47310187488657,122.47159611270187,-6.47544875391759e-05,0.1037345305085182,0,0,0
11580,449458.5514136547,2011-01-15 16:39:19,0.18740390820198,6,50,-1.9243103452026844e-05,4.188644886016846,35.152863212585004,34.408743561896884,142.47310187488657,122.4715961168978,0.0,0.108498990535736,0,0,0
11581,449463.37956923904,2011-01-15 16:39:23,5.015559492504395,6,50,0.0008838032954372,4.188483238220215,35.15286416513284,34.40874356198162,142.4731058646613,122.47159611725274,-3.23295607813634e-05,0.108498990535736,0,0,0
11582,449481.3611327915,2011-01-15 16:39:41,17.97069581842438,7,50,-1.099568486213684,3.988392353057861,35.15286416513284,34.4142322776037,142.4731058646613,122.49360357333543,-0.0016511917347088,0.108498990535736,0,0,0
11583,449511.373932408,2011-01-15 16:40:11,47.98349532951356,7,50,-1.0993878841400146,3.938045740127564,35.15286416513284,34.423398783893546,142.4731058646613,122.52992160058916,-0.0011332035064697,0.108498990535736,0,0,0
11584,449541.38911555975,2011-01-15 16:40:41,77.99867850141892,7,50,-1.099568486213684,3.9000027179718018,35.15286416513284,34.432566100503784,142.4731058646613,122.56584160268632,-0.0009065627818927,0.108498990535736,0,0,0
11585,449571.40424152405,2011-01-15 16:41:11,108.01380444068292,7,50,-1.0993878841400146,3.870215654373169,35.15286416513284,34.44173336276497,142.4731058646613,122.60145277278151,-0.0007446765666827,0.108498990535736,0,0,0
11586,449601.4193483557,2011-01-15 16:41:41,138.02891127232488,7,50,-1.0993878841400146,3.846256494522095,35.15286416513284,34.450900707896714,142.4731058646613,122.63681955198643,-0.0006151676061563,0.108498990535736,0,0,0
11587,449631.4344830167,2011-01-15 16:42:11,168.0440459634011,7,50,-1.0997490882873535,3.8265066146850586,35.15286416513284,34.46006808342951,142.4731058646613,122.67198728738984,-0.0004856586456298,0.108498990535736,0,0,0
11588,449661.4495782043,2011-01-15 16:42:42,198.05914115102257,7,50,-1.0993878841400146,3.809022903442383,35.15286416513284,34.46923551425913,142.4731058646613,122.70698545006852,-0.0004532813909463,0.108498990535736,0,0,0
11589,449691.464701512,2011-01-15 16:43:12,228.07426443366543,7,50,-1.099568486213684,3.7934818267822266,35.15286416513284,34.478402907650455,142.4731058646613,122.7418325327463,-0.0004209041653666,0.108498990535736,0,0,0
11590,449721.4798021332,2011-01-15 16:43:42,258.0893650498165,7,50,-1.099568486213684,3.77907395362854,35.15286416513284,34.4875702809576,142.4731058646613,122.77654246504444,-0.0003885269106831,0.108498990535736,0,0,0
11591,449751.4949180225,2011-01-15 16:44:12,288.10448095908265,7,50,-1.0997490882873535,3.765637397766113,35.15286416513284,34.4967376345447,142.4731058646613,122.8111262809261,-0.0004209041653666,0.108498990535736,0,0,0
11592,449781.510030849,2011-01-15 16:44:42,318.1195937856658,7,50,-1.0993878841400146,3.753495931625366,35.15286416513284,34.50590497367263,142.4731058646613,122.84559179891258,-0.0003237724304199,0.108498990535736,0,0,0
11593,449811.5251724723,2011-01-15 16:45:12,348.13473538896943,7,50,-1.099568486213684,3.741678476333618,35.15286416513284,34.51507237093328,142.4731058646613,122.87994667586916,-0.0002913951757363,0.108498990535736,0,0,0
11594,449841.54028295306,2011-01-15 16:45:42,378.1498458947685,7,50,-1.0993878841400146,3.730508327484131,35.15286416513284,34.52423967885072,142.4731058646613,122.91419610145252,-0.0002913951757363,0.108498990535736,0,0,0
11595,449871.5553767122,2011-01-15 16:46:12,408.1649396287671,7,50,-1.099568486213684,3.7198238372802734,35.15286416513284,34.533406994199936,142.4731058646613,122.9483455345564,-0.0002590179501567,0.108498990535736,0,0,0
11596,449901.5705110925,2011-01-15 16:46:42,438.1800740140813,7,50,-1.099568486213684,3.709463119506836,35.15286416513284,34.5425743586965,142.4731058646613,122.9823985007281,-0.0002590179501567,0.108498990535736,0,0,0
11597,449931.58588257374,2011-01-15 16:47:12,468.1954454902989,7,50,-1.0993878841400146,3.6994261741638175,35.15286416513284,34.551741832011096,142.4731058646613,123.01635813692928,-0.0002266406954731,0.108498990535736,0,0,0
11598,449961.6007231568,2011-01-15 16:47:42,498.21028607838,7,50,-1.0993878841400146,3.689874887466431,35.15286416513284,34.56090909417588,142.4731058646613,123.05022690053278,-0.0001942634553415,0.108498990535736,0,0,0
11599,449991.6159667192,2011-01-15 16:48:12,528.2255296558345,7,50,-1.099568486213684,3.680323600769043,35.15286416513284,34.57007651566043,142.4731058646613,123.08400812303223,-0.0002266406954731,0.108498990535736,0,0,0
11600,450021.631093305,2011-01-15 16:48:42,558.2406562467226,7,50,-1.099568486213684,3.671258211135864,35.15286416513284,34.57924391934322,142.4731058646613,123.11770464697862,-0.0001942634553415,0.108498990535736,0,0,0
11601,450051.64613009215,2011-01-15 16:49:12,588.255693033792,7,50,-1.0993878841400146,3.662354469299317,35.15286416513284,34.58841127169751,142.4731058646613,123.15131836662589,-0.0002266406954731,0.108498990535736,0,0,0
11602,450081.6612128588,2011-01-15 16:49:42,618.2707757904316,7,50,-1.099568486213684,3.653450727462769,35.15286416513284,34.59757861814574,142.4731058646613,123.18485118452476,-0.0002266406954731,0.108498990535736,0,0,0
11603,450111.6763019663,2011-01-15 16:50:12,648.2858648828618,7,50,-1.0993878841400146,3.6450326442718506,35.15286416513284,34.60674596919791,142.4731058646613,123.21830478743618,-0.0001942634553415,0.108498990535736,0,0,0
11604,450141.6915339649,2011-01-15 16:50:42,678.3010969817083,7,50,-1.099568486213684,3.636452674865722,35.15286416513284,34.61591335248198,142.4731058646613,123.25168014091548,-0.0002266406954731,0.108498990535736,0,0,0
11605,450171.7066424005,2011-01-15 16:51:12,708.3162054173479,7,50,-1.0993878841400146,3.628196477890015,35.15286416513284,34.62508065847641,142.4731058646613,123.284978641389,-0.0002266406954731,0.108498990535736,0,0,0
11606,450201.7216852728,2011-01-15 16:51:42,738.3312481893332,7,50,-1.099568486213684,3.6201021671295166,35.15286416513284,34.63424801058765,142.4731058646613,123.31820204768287,-0.0001942634553415,0.108498990535736,0,0,0
11607,450231.7367738739,2011-01-15 16:52:12,768.3463367905396,7,50,-1.0993878841400146,3.612169742584229,35.15286416513284,34.64341536227644,142.4731058646613,123.35135260968045,-0.0002266406954731,0.108498990535736,0,0,0
11608,450261.7519082693,2011-01-15 16:52:42,798.3614711858786,7,50,-1.099568486213684,3.6047229766845694,35.15286416513284,34.65258277070498,142.4731058646613,123.38443316866017,-0.0001942634553415,0.108498990535736,0,0,0
11609,450291.7691857709,2011-01-15 16:53:12,828.378748777723,7,50,-1.099568486213684,3.597276210784912,35.15286416513284,34.66175070492588,142.4731058646613,123.4174465722072,-0.0001942634553415,0.108498990535736,0,0,0
11610,450321.7822416108,2011-01-15 16:53:42,858.3918045474876,7,50,-1.0993878841400146,3.589991569519043,35.15286416513284,34.670917408927494,142.4731058646613,123.45038812229603,-0.0001618862152099,0.108498990535736,0,0,0
11611,450351.7972279021,2011-01-15 16:54:12,888.4067908186557,7,50,-1.0993878841400146,3.583030462265014,35.15286416513284,34.680084785088106,142.4731058646613,123.4832659742854,-0.0001618862152099,0.108498990535736,0,0,0
11612,450381.8123444279,2011-01-15 16:54:42,918.4219073745336,7,50,-1.0997490882873535,3.5759074687957764,35.15286416513284,34.68925219798167,142.4731058646613,123.51607965569951,-0.0001942634553415,0.108498990535736,0,0,0
11613,450411.82766678167,2011-01-15 16:55:12,948.437229698248,7,50,-1.0993878841400146,3.569270133972168,35.15286416513284,34.69841967891563,142.4731058646613,123.54883043401176,-0.0001618862152099,0.108498990535736,0,0,0
11614,450441.8425817351,2011-01-15 16:55:42,978.4521446566828,7,50,-1.0993878841400146,3.56263279914856,35.15286416513284,34.707586990325325,142.4731058646613,123.5815195698334,-0.0001295089750783,0.108498990535736,0,0,0
11615,450471.8577179701,2011-01-15 16:56:12,1008.4672808865944,7,50,-1.0993878841400146,3.556319236755371,35.15286416513284,34.71675430902174,142.4731058646613,123.61414994960164,-0.0001295089750783,0.108498990535736,0,0,0
11616,450501.8728080248,2011-01-15 16:56:42,1038.4823709364107,7,50,-1.0993878841400146,3.5500056743621826,35.15286416513284,34.72592167027369,142.4731058646613,123.64672308633678,-0.0001618862152099,0.108498990535736,0,0,0
11617,450531.8879711919,2011-01-15 16:57:12,1068.4975341285203,7,50,-1.099568486213684,3.544015884399414,35.15286416513284,34.73508904251725,142.4731058646613,123.67924101377685,-0.0001942634553415,0.108498990535736,0,0,0
11618,450561.9030294725,2011-01-15 16:57:42,1098.5125923840958,7,50,-1.099568486213684,3.538349866867065,35.15286416513284,34.74425639717772,142.4731058646613,123.71170454233494,-0.0001295089750783,0.108498990535736,0,0,0
11619,450591.9181541186,2011-01-15 16:58:12,1128.5277170351492,7,50,-1.099568486213684,3.532521963119507,35.15286416513284,34.75342378810777,142.4731058646613,123.74411538359912,-0.0001942634553415,0.108498990535736,0,0,0
11620,450621.9332759125,2011-01-15 16:58:42,1158.5428388290818,7,50,-1.0993878841400146,3.527179718017578,35.15286416513284,34.76259110786433,142.4731058646613,123.77647415835388,-0.0001295089750783,0.108498990535736,0,0,0
11621,450651.9485369083,2011-01-15 16:59:12,1188.5580998249482,7,50,-1.099568486213684,3.521513700485229,35.15286416513284,34.77175850496246,142.4731058646613,123.80878248108792,-0.0001942634553415,0.108498990535736,0,0,0
11622,450681.9635589688,2011-01-15 16:59:42,1218.5731219204015,7,50,-1.099568486213684,3.516171455383301,35.15286416513284,34.7809258150564,142.4731058646613,123.84104017780616,-0.0001618862152099,0.108498990535736,0,0,0
11623,450711.9787473636,2011-01-15 17:00:12,1248.588310310312,7,50,-1.099568486213684,3.511153221130371,35.15286416513284,34.79009317375384,142.4731058646613,123.8732499772841,-6.47544875391759e-05,0.108498990535736,0,0,0
11624,450741.9938543306,2011-01-15 17:00:42,1278.6034172672662,7,50,-1.099568486213684,3.5059728622436523,35.15286416513284,34.79926051710104,142.4731058646613,123.905412950877,-0.0001295089750783,0.108498990535736,0,0,0
11625,450772.0091267549,2011-01-15 17:01:12,1308.6186896815907,7,50,-1.099568486213684,3.501116275787353,35.15286416513284,34.80842788145748,142.4731058646613,123.93753054916333,-6.47544875391759e-05,0.108498990535736,0,0,0
11626,450802.0240980789,2011-01-15 17:01:42,1338.6336610105184,7,50,-1.0997490882873535,3.4960978031158447,35.15286416513284,34.817595156630965,142.4731058646613,123.96960257183248,-0.0001295089750783,0.108498990535736,0,0,0
11627,450832.0390751973,2011-01-15 17:02:12,1368.6486381138377,7,50,-1.099568486213684,3.491241216659546,35.15286416513284,34.826762476802294,142.4731058646613,124.00163025139032,-0.0001295089750783,0.108498990535736,0,0,0
11628,450862.054176505,2011-01-15 17:02:42,1398.6637394317374,7,50,-1.099568486213684,3.486222743988037,35.15286416513284,34.83592986855304,142.4731058646613,124.03361319799828,-0.0001618862152099,0.108498990535736,0,0,0
11629,450892.06945040816,2011-01-15 17:03:12,1428.6790133397851,7,50,-1.099568486213684,3.4812042713165283,35.15286416513284,34.84509733671459,142.4731058646613,124.06555058048912,-0.0001295089750783,0.108498990535736,0,0,0
11630,450922.08451882406,2011-01-15 17:03:42,1458.694081755683,7,50,-1.099568486213684,3.4761857986450195,35.15286416513284,34.85426480069617,142.4731058646613,124.09744112982644,-0.0001295089750783,0.108498990535736,0,0,0
11631,450952.0995200124,2011-01-15 17:04:12,1488.7090829440297,7,50,-1.0997490882873535,3.471005439758301,35.15286416513284,34.863432875797,142.4731058646613,124.12928794407196,-0.0001295089750783,0.108498990535736,0,0,0
11632,450982.11462637794,2011-01-15 17:04:42,1518.72418930951,7,50,-1.099568486213684,3.465986967086792,35.15286416513284,34.872601046619344,142.4731058646613,124.16108796391084,-0.0001295089750783,0.108498990535736,0,0,0
11633,451012.1297692644,2011-01-15 17:05:12,1548.739332201024,7,50,-1.099568486213684,3.4606447219848637,35.15286416513284,34.88176911981356,142.4731058646613,124.19283904099056,-0.0001295089750783,0.108498990535736,0,0,0
11634,451042.1448662715,2011-01-15 17:05:42,1578.7544291931429,7,50,-1.099568486213684,3.4551405906677246,35.15286416513284,34.890936967040595,142.4731058646613,124.22453994724054,-0.0001295089750783,0.108498990535736,0,0,0
11635,451072.16000940365,2011-01-15 17:06:12,1608.7695723302693,7,50,-1.099568486213684,3.449312686920166,35.15286416513284,34.90010432003233,142.4731058646613,124.25618824308292,-0.0001618862152099,0.108498990535736,0,0,0
11636,451102.17515700695,2011-01-15 17:06:42,1638.784719948564,7,50,-1.0993878841400146,3.4434847831726074,35.15286416513284,34.90927103576624,142.4731058646613,124.28778144878277,-0.0001618862152099,0.108498990535736,0,0,0
11637,451132.19025612925,2011-01-15 17:07:12,1668.7998190509422,7,50,-1.0993878841400146,3.437333106994629,35.15286416513284,34.91843773060969,142.4731058646613,124.31931828906208,-0.0001618862152099,0.108498990535736,0,0,0
11638,451162.2053217584,2011-01-15 17:07:42,1698.814884674882,7,50,-1.099568486213684,3.4305341243743896,35.15286416513284,34.9276043281838,142.4731058646613,124.35079530339944,-0.0001942157687153,0.108498990535736,0,0,0
11639,451192.22043213376,2011-01-15 17:08:12,1728.8299950503565,7,50,-1.0993878841400146,3.423411130905152,35.15286416513284,34.9367708977521,142.4731058646613,124.38220968326392,-0.0001942634553415,0.108498990535736,0,0,0
11640,451222.23558461416,2011-01-15 17:08:42,1758.845147646056,7,50,-1.099568486213684,3.416126251220703,35.15286416513284,34.94593811803671,142.4731058646613,124.41356029772572,-0.0001942634553415,0.108498990535736,0,0,0
11641,451252.2506745287,2011-01-15 17:09:12,1788.8602374402358,7,50,-1.0993878841400146,3.408031940460205,35.15286416513284,34.955105432748155,142.4731058646613,124.44484063521136,-0.0002590179501567,0.108498990535736,0,0,0
11642,451282.2657849893,2011-01-15 17:09:42,1818.8753479009224,7,50,-1.099568486213684,3.399128198623657,35.15286416513284,34.96427277116868,142.4731058646613,124.4760437568181,-0.0002590179501567,0.108498990535736,0,0,0
11643,451312.2809155552,2011-01-15 17:10:12,1848.8904784917795,7,50,-1.099568486213684,3.38909125328064,35.15286416513284,34.97344011255641,142.4731058646613,124.50715942020516,-0.0002913951757363,0.108498990535736,0,0,0
11644,451342.2960136751,2011-01-15 17:10:42,1878.9055765866467,7,50,-1.0993878841400146,3.3777592182159424,35.15286416513284,34.98260747895984,142.4731058646613,124.53817760848725,-0.0003237724304199,0.108498990535736,0,0,0
11645,451372.3113459486,2011-01-15 17:11:12,1908.920908865172,7,50,-1.099568486213684,3.3644845485687256,35.15286416513284,34.99177487812795,142.4731058646613,124.56908391204576,-0.0003885269106831,0.108498990535736,0,0,0
11646,451402.32851098,2011-01-15 17:11:42,1938.9380740167803,7,50,-1.0993878841400146,3.3489437103271484,35.15286416513284,35.00094279284699,142.4731058646613,124.59985916177216,-0.0004208564641885,0.108498990535736,0,0,0
11647,451432.3414903341,2011-01-15 17:12:12,1968.9510532808688,7,50,-1.0993878841400146,3.329841136932373,35.15286416513284,35.0101094942902,142.4731058646613,124.63047225911336,-0.0005180359003134,0.108498990535736,0,0,0
11648,451462.3564741342,2011-01-15 17:12:42,1998.9660370457912,7,50,-1.0993878841400146,3.306043863296509,35.15286416513284,35.01927680239492,142.4731058646613,124.66089266994216,-0.0007122993702068,0.108498990535736,0,0,0
11649,451492.3717367842,2011-01-15 17:13:12,2028.981299730868,7,50,-1.0997490882873535,3.276418685913086,35.15286416513284,35.02844419841159,142.4731058646613,124.69107118070286,-0.0009065627818927,0.108498990535736,0,0,0
11650,451522.386732148,2011-01-15 17:13:42,2058.9962950846725,7,50,-1.0993878841400146,3.239023208618164,35.15286416513284,35.0376114661882,142.4731058646613,124.72094317728488,-0.0010684489971026,0.108498990535736,0,0,0
11651,451552.40182329057,2011-01-15 17:14:12,2089.01138620215,7,50,-1.0993878841400146,3.189000606536865,35.15286416513284,35.04677881928583,142.4731058646613,124.75041789289251,-0.0014893055194988,0.108498990535736,0,0,0
11652,451582.41693879385,2011-01-15 17:14:43,2119.0265017054044,7,50,-1.0993878841400146,3.120846509933472,35.15286416513284,35.0559462606387,142.4731058646613,124.7793568023345,-0.0020721436012536,0.108498990535736,0,0,0
11653,451612.4320639762,2011-01-15 17:15:13,2149.041626887782,7,50,-1.099568486213684,3.025010347366333,35.15286416513284,35.06511368431817,142.4731058646613,124.80755571139797,-0.0030110359657555,0.108498990535736,0,0,0
11654,451642.44717276766,2011-01-15 17:15:43,2179.0567356793085,7,50,-1.099568486213684,2.8830363750457764,35.15286416513284,35.07428111928489,142.4731058646613,124.83467881776828,-0.0044356822036206,0.108498990535736,0,0,0
11655,451670.5091908513,2011-01-15 17:16:11,2207.11875376284,7,50,-1.0997490882873535,2.699781894683838,35.15286416513284,35.08285196992898,142.4731058646613,124.858631381053,-0.005568838212639,0.108498990535736,0,0,0
11656,451730.5255603193,2011-01-15 17:17:11,60.01476059448163,8,50,0.0,3.582382917404175,35.15286416513284,35.08285196992898,142.4731058646613,124.858631381053,0.0013274669181555,0.108498990535736,0,0,0
11657,451730.6998235517,2011-01-15 17:17:11,0.187419321616953,9,50,-1.9243103452026844e-05,3.582382917404175,35.15286416513284,35.0828519709308,142.4731058646613,124.85863138464188,0.0,0.1051652133464813,0,0,0
11658,451735.5279042743,2011-01-15 17:17:16,5.015500069403744,9,50,0.0001613661734154,3.590153455734253,35.1528650759415,35.08285197109786,142.47310913170284,124.85863138524036,0.0010684489971026,0.1051652133464813,0,0,0
