Data_Point,Test_Time(s),Date_Time,Step_Time(s),Step_Index,Cycle_Index,Current(A),Voltage(V),Charge_Capacity(Ah),Discharge_Capacity(Ah),Charge_Energy(Wh),Discharge_Energy(Wh),dV/dt(V/s),Internal_Resistance(Ohm),Is_FC_Data,AC_Impedance(Ohm),ACI_Phase_Angle(Deg)
7201,272524.6270367051,2011-01-13 15:30:00,30.015466954178105,1,31,0.0,3.60585618019104,21.591124025015898,21.55360014288184,87.34389655762303,76.94100324039636,0.0007122993702068,0.1019293591380119,0,0,0
7202,272554.64410071465,2011-01-13 15:30:30,60.03253105894692,1,31,0.0,3.626901388168335,21.591124025015898,21.55360014288184,87.34389655762303,76.94100324039636,0.0004209041653666,0.1019293591380119,0,0,0
7203,272584.6569495537,2011-01-13 15:31:00,90.04537979772664,1,31,0.0,3.642280578613281,21.591124025015898,21.55360014288184,87.34389655762303,76.94100324039636,0.0003885269106831,0.1019293591380119,0,0,0
7204,272614.6254408751,2011-01-13 15:31:30,120.01387112919892,1,31,0.0,3.6539363861083984,21.591124025015898,21.55360014288184,87.34389655762303,76.94100324039636,0.0002913951757363,0.1019293591380119,0,0,0
7205,272644.6468075172,2011-01-13 15:32:01,30.01512746807428,2,31,0.5499359965324402,3.7763218879699703,21.59571055184096,21.55360014288184,87.36112351270367,76.94100324039636,0.0008418083307333,0.1019293591380119,0,0,0
7206,272674.6619408449,2011-01-13 15:32:31,60.03026079575249,2,31,0.5501165986061096,3.798985958099365,21.600297014827685,21.55360014288184,87.37850053704975,76.94100324039636,0.0004856586456298,0.1019293591380119,0,0,0
7207,272704.6770597968,2011-01-13 15:33:01,90.04537974760171,2,31,0.5501165986061096,3.812908172607422,21.604883540034187,21.55360014288184,87.39595850563279,76.94100324039636,0.0003561496851034,0.1019293591380119,0,0,0
7208,272734.6921737311,2011-01-13 15:33:31,120.06049368194576,2,31,0.5499359965324402,3.8231070041656494,21.609470040337676,21.55360014288184,87.4134708966896,76.94100324039636,0.0002266406954731,0.1019293591380119,0,0,0
7209,272764.7074472933,2011-01-13 15:34:01,150.07576725415652,2,31,0.5499359965324402,3.8318488597869873,21.61405650628013,21.55360014288184,87.43102652041071,76.94100324039636,0.0002266406954731,0.1019293591380119,0,0,0
7210,272794.7224237149,2011-01-13 15:34:31,180.09074367076406,2,31,0.5501165986061096,3.8396191596984863,21.618642887713005,21.55360014288184,87.44861947599308,76.94100324039636,0.0001618862152099,0.1019293591380119,0,0,0
7211,272824.73769232474,2011-01-13 15:35:01,210.10601228561956,2,31,0.5501165986061096,3.846904039382935,21.623229302096515,21.55360014288184,87.46624676130556,76.94100324039636,0.0001942634553415,0.1019293591380119,0,0,0
7212,272854.75268636533,2011-01-13 15:35:31,240.12100632615133,2,31,0.5501165986061096,3.853541374206543,21.6278157013006,21.55360014288184,87.4839057612337,76.94100324039636,0.0001295089750783,0.1019293591380119,0,0,0
7213,272884.7678161541,2011-01-13 15:36:01,270.13613609997225,2,31,0.5501165986061096,3.8596930503845215,21.63240216384304,21.55360014288184,87.50159462736009,76.94100324039636,0.0001295089750783,0.1019293591380119,0,0,0
7214,272914.78292278526,2011-01-13 15:36:31,300.15124273612696,2,31,0.5501165986061096,3.8658447265625,21.636988531864663,21.55360014288184,87.51931081962526,76.94100324039636,0.0002266406954731,0.1019293591380119,0,0,0
7215,272944.7980696968,2011-01-13 15:37:01,330.1663896526728,2,31,0.550297200679779,3.871348857879639,21.641575004658407,21.55360014288184,87.53705363740549,76.94100324039636,0.0001618862152099,0.1019293591380119,0,0,0
7216,272974.8131916963,2011-01-13 15:37:31,360.1815116721676,2,31,0.5501165986061096,3.876529216766357,21.646161464225106,21.55360014288184,87.55482148836069,76.94100324039636,0.0001295089750783,0.1019293591380119,0,0,0
7217,273004.82830853784,2011-01-13 15:38:01,390.1966285137573,2,31,0.5501165986061096,3.881709575653076,21.6507478562688,21.55360014288184,87.57261328533751,76.94100324039636,9.713172767078504e-05,0.1019293591380119,0,0,0
7218,273034.8434046277,2011-01-13 15:38:31,420.21172460362754,2,31,0.5499359965324402,3.886889934539795,21.655334371586623,21.55360014288184,87.59042885441687,76.94100324039636,0.0001295089750783,0.1019293591380119,0,0,0
7219,273064.8585435393,2011-01-13 15:39:01,450.2268635152225,2,31,0.5501165986061096,3.891584634780884,21.659920871199542,21.55360014288184,87.60826690504516,76.94100324039636,0.0001295089750783,0.1019293591380119,0,0,0
7220,273094.873664035,2011-01-13 15:39:31,480.2419839958821,2,31,0.5501165986061096,3.8962793350219727,21.664507324608053,21.55360014288184,87.626126333148,76.94100324039636,0.0001295089750783,0.1019293591380119,0,0,0
7221,273124.88878257084,2011-01-13 15:40:01,510.25710252668193,2,31,0.5501165986061096,3.9006502628326416,21.66909380915321,21.55360014288184,87.64400668260626,76.94100324039636,9.713172767078504e-05,0.1019293591380119,0,0,0
7222,273154.9039037733,2011-01-13 15:40:31,540.2722237291404,2,31,0.550297200679779,3.905021190643311,21.673680250912515,21.55360014288184,87.66190702986715,76.94100324039636,0.0001295089750783,0.1019293591380119,0,0,0
7223,273184.92140441603,2011-01-13 15:41:01,570.2897243819211,2,31,0.5501165986061096,3.90906834602356,21.6782670217558,21.55360014288184,87.67982797738516,76.94100324039636,6.47544875391759e-05,0.1019293591380119,0,0,0
7224,273214.9341546544,2011-01-13 15:41:31,600.3024746051699,2,31,0.5501165986061096,3.9131155014038086,21.682853048683818,21.55360014288184,87.6977645406187,76.94100324039636,9.713172767078504e-05,0.1019293591380119,0,0,0
7225,273244.94939911395,2011-01-13 15:42:01,630.3177190748481,2,31,0.5501165986061096,3.9168386459350586,21.687439520084844,21.55360014288184,87.71572041840774,76.94100324039636,9.713172767078504e-05,0.1019293591380119,0,0,0
7226,273274.9643958813,2011-01-13 15:42:31,660.3327158371634,2,31,0.5499359965324402,3.9204001426696777,21.69202594658684,21.55360014288184,87.7336929735267,76.94100324039636,6.47544875391759e-05,0.1019293591380119,0,0,0
7227,273304.97976323223,2011-01-13 15:43:01,690.3480831880995,2,31,0.5501165986061096,3.923799753189087,21.69661241751522,21.55360014288184,87.751681743166,76.94100324039636,9.713172767078504e-05,0.1019293591380119,0,0,0
7228,273334.9946480606,2011-01-13 15:43:31,720.3629680064159,2,31,0.550297200679779,3.927199363708496,21.701198820045867,21.55360014288184,87.7696856160753,76.94100324039636,9.713172767078504e-05,0.1019293591380119,0,0,0
7229,273365.00977029564,2011-01-13 15:44:01,750.3780902765353,2,31,0.5501165986061096,3.930275201797485,21.70578526644092,21.55360014288184,87.7877044134465,76.94100324039636,9.713172767078504e-05,0.1019293591380119,0,0,0
7230,273395.0249285855,2011-01-13 15:44:31,780.3932485413646,2,31,0.5501165986061096,3.9331891536712646,21.71037176517572,21.55360014288184,87.80573766155283,76.94100324039636,3.237724376958795e-05,0.1019293591380119,0,0,0
7231,273425.04003744724,2011-01-13 15:45:01,810.4083573980538,2,31,0.5501165986061096,3.936264991760254,21.71495829187383,21.55360014288184,87.8237847424367,76.94100324039636,6.47544875391759e-05,0.1019293591380119,0,0,0
7232,273455.05514637404,2011-01-13 15:45:31,840.4234663199052,2,31,0.5501165986061096,3.939178943634033,21.71954474986285,21.55360014288184,87.84184481915598,76.94100324039636,3.237724376958795e-05,0.1019293591380119,0,0,0
7233,273485.0703908086,2011-01-13 15:46:01,870.4387107645208,2,31,0.550297200679779,3.9419310092926025,21.72413123924556,21.55360014288184,87.85991808676161,76.94100324039636,6.47544875391759e-05,0.1019293591380119,0,0,0
7234,273515.0854007188,2011-01-13 15:46:31,900.4537206746044,2,31,0.5501165986061096,3.944844961166382,21.728717684884035,21.55360014288184,87.87800401350829,76.94100324039636,9.713172767078504e-05,0.1019293591380119,0,0,0
7235,273545.10065683746,2011-01-13 15:47:01,930.4689768133655,2,31,0.5501165986061096,3.947435140609741,21.733304174289803,21.55360014288184,87.89610264967365,76.94100324039636,9.713172767078504e-05,0.1019293591380119,0,0,0
7236,273575.1156530684,2011-01-13 15:47:31,960.4839730443568,2,31,0.550297200679779,3.950187206268311,21.737890618810948,21.55360014288184,87.91421344353434,76.94100324039636,9.713172767078504e-05,0.1019293591380119,0,0,0
7237,273605.13078824576,2011-01-13 15:48:01,990.4991082216447,2,31,0.5501165986061096,3.95261549949646,21.742477090220778,21.55360014288184,87.93233664336394,76.94100324039636,6.47544875391759e-05,0.1019293591380119,0,0,0
7238,273635.14589221025,2011-01-13 15:48:31,1020.5142121610784,2,31,0.5499359965324402,3.9552056789398193,21.747063551635147,21.55360014288184,87.95047185180113,76.94100324039636,3.237724376958795e-05,0.1019293591380119,0,0,0
7239,273665.161312864,2011-01-13 15:49:01,1050.529632824887,2,31,0.5501165986061096,3.9579577445983887,21.751650119746746,21.55360014288184,87.96861935260408,76.94100324039636,6.47544875391759e-05,0.1019293591380119,0,0,0
7240,273695.1761375374,2011-01-13 15:49:31,1080.544457493291,2,31,0.5501165986061096,3.960547924041748,21.756236498494825,21.55360014288184,87.98677783740247,76.94100324039636,9.713172767078504e-05,0.1019293591380119,0,0,0
7241,273725.19138317,2011-01-13 15:50:01,1110.5597031258676,2,31,0.550297200679779,3.9629762172698975,21.760822967775912,21.55360014288184,88.00494832901263,76.94100324039636,6.47544875391759e-05,0.1019293591380119,0,0,0
7242,273755.20641148096,2011-01-13 15:50:31,1140.574731426787,2,31,0.5501165986061096,3.965566396713257,21.76540934432742,21.55360014288184,88.02312998412431,76.94100324039636,6.47544875391759e-05,0.1019293591380119,0,0,0
7243,273785.2216528479,2011-01-13 15:51:01,1170.5899728037573,2,31,0.5501165986061096,3.968156576156616,21.76999590683608,21.55360014288184,88.04132383199742,76.94100324039636,0.0001295089750783,0.1019293591380119,0,0,0
7244,273815.2366528984,2011-01-13 15:51:31,1200.6049728442426,2,31,0.5501165986061096,3.9705848693847656,21.774582400603737,21.55360014288184,88.05952875004893,76.94100324039636,9.713172767078504e-05,0.1019293591380119,0,0,0
7245,273845.25175756466,2011-01-13 15:52:01,1230.620077545575,2,31,0.5501165986061096,3.972851276397705,21.779168944065223,21.55360014288184,88.07774510318113,76.94100324039636,3.237724376958795e-05,0.1019293591380119,0,0,0
7246,273875.2669408669,2011-01-13 15:52:31,1260.6352608427928,2,31,0.5501165986061096,3.975441455841065,21.78375544689545,21.55360014288184,88.09597243201131,76.94100324039636,6.47544875391759e-05,0.1019293591380119,0,0,0
7247,273905.2820434529,2011-01-13 15:53:01,1290.6503634188284,2,31,0.550297200679779,3.977707862854004,21.788342041979284,21.55360014288184,88.11421122610389,76.94100324039636,9.713172767078504e-05,0.1019293591380119,0,0,0
7248,273935.29712358804,2011-01-13 15:53:31,1320.6654435439093,2,31,0.5501165986061096,3.980136156082153,21.79292850784626,21.55360014288184,88.13246020570838,76.94100324039636,9.713172767078504e-05,0.1019293591380119,0,0,0
7249,273965.31237853883,2011-01-13 15:54:01,1350.680698504735,2,31,0.5499359965324402,3.9824025630950928,21.79751498139547,21.55360014288184,88.15072047592314,76.94100324039636,0.0,0.1019293591380119,0,0,0
7250,273995.327553776,2011-01-13 15:54:31,1380.6958737468767,2,31,0.5501165986061096,3.984830856323242,21.802101392205955,21.55360014288184,88.16899124632306,76.94100324039636,3.237724376958795e-05,0.1019293591380119,0,0,0
7251,274025.342552834,2011-01-13 15:55:01,1410.7108728149387,2,31,0.5499359965324402,3.9870972633361816,21.806687815888488,21.55360014288184,88.18727299890945,76.94100324039636,6.47544875391759e-05,0.1019293591380119,0,0,0
7252,274055.3576239266,2011-01-13 15:55:31,1440.7259438774329,2,31,0.5501165986061096,3.989687442779541,21.81127421072383,21.55360014288184,88.2055654658914,76.94100324039636,9.713172767078504e-05,0.1019293591380119,0,0,0
7253,274085.3728846668,2011-01-13 15:56:01,1470.74120465275,2,31,0.550297200679779,3.991953849792481,21.81586069876095,21.55360014288184,88.223868949808,76.94100324039636,6.47544875391759e-05,0.1019293591380119,0,0,0
7254,274115.38788804563,2011-01-13 15:56:31,1500.756208001481,2,31,0.5499359965324402,3.994220018386841,21.820447116221697,21.55360014288184,88.24218274573586,76.94100324039636,6.470680091297254e-05,0.1019293591380119,0,0,0
7255,274145.40301324805,2011-01-13 15:57:01,1530.7713331988955,2,31,0.5501165986061096,3.9966483116149902,21.825033547577608,21.55360014288184,88.26050728389995,76.94100324039636,9.713172767078504e-05,0.1019293591380119,0,0,0
7256,274175.4181230521,2011-01-13 15:57:31,1560.7864430079585,2,31,0.5499359965324402,3.99875283241272,21.82962003524338,21.55360014288184,88.27884263476996,76.94100324039636,6.47544875391759e-05,0.1019293591380119,0,0,0
7257,274205.4333775267,2011-01-13 15:58:01,1590.801697482572,2,31,0.5501165986061096,4.001181125640869,21.834206512148675,21.55360014288184,88.29718857633038,76.94100324039636,6.47544875391759e-05,0.1019293591380119,0,0,0
7258,274235.4483939781,2011-01-13 15:58:31,1620.8167139540085,2,31,0.5499359965324402,4.003447532653809,21.838792877526423,21.55360014288184,88.31554483775501,76.94100324039636,3.23295607813634e-05,0.1019293591380119,0,0,0
7259,274265.4637193695,2011-01-13 15:59:01,1650.8320393453685,2,31,0.5499359965324402,4.005713939666748,21.843379376941005,21.55360014288184,88.33391226345648,76.94100324039636,3.23295607813634e-05,0.1019293591380119,0,0,0
7260,274295.4786334758,2011-01-13 15:59:31,1680.8469534266171,2,31,0.550297200679779,4.008304119110107,21.84796582917849,21.55360014288184,88.35229007699374,76.94100324039636,6.47544875391759e-05,0.1019293591380119,0,0,0
7261,274325.47868572176,2011-01-13 16:00:01,1710.8470057878867,2,31,0.5501165986061096,4.010246753692627,21.85255000259645,21.55360014288184,88.37066932343754,76.94100324039636,3.23295607813634e-05,0.1019293591380119,0,0,0
7262,274355.4932826376,2011-01-13 16:00:31,1740.8616025833614,2,31,0.5501165986061096,4.012836933135986,21.85713627985522,21.55360014288184,88.38906772930606,76.94100324039636,6.47544875391759e-05,0.1019293591380119,0,0,0
7263,274385.50841413566,2011-01-13 16:01:01,1770.8767341115547,2,31,0.5501165986061096,4.015265464782715,21.86172281304945,21.55360014288184,88.40747797396858,76.94100324039636,9.71794142969884e-05,0.1019293591380119,0,0,0
7264,274415.5235197693,2011-01-13 16:01:31,1800.8918397351863,2,31,0.5499359965324402,4.017369747161865,21.86630923526745,21.55360014288184,88.42589846729518,76.94100324039636,3.23295607813634e-05,0.1019293591380119,0,0,0
7265,274445.53862168366,2011-01-13 16:02:01,1830.90694172476,2,31,0.5501165986061096,4.019959926605225,21.8708956273043,21.55360014288184,88.4443294635184,76.94100324039636,0.0001295089750783,0.1019293591380119,0,0,0
7266,274475.5537375128,2011-01-13 16:02:31,1860.9220574636013,2,31,0.5501165986061096,4.022226333618164,21.875482001354992,21.55360014288184,88.46277120121425,76.94100324039636,9.70840483205393e-05,0.1019293591380119,0,0,0
7267,274505.5537677138,2011-01-13 16:03:01,1890.9220878200283,2,31,0.5499359965324402,4.024331092834473,21.88006604930088,21.55360014288184,88.48121441655108,76.94100324039636,3.24249267578125e-05,0.1019293591380119,0,0,0
7268,274535.56837415334,2011-01-13 16:03:32,1920.9366942144268,2,31,0.5499359965324402,4.026921272277832,21.884652250001658,21.55360014288184,88.49967716971702,76.94100324039636,3.24249267578125e-05,0.1019293591380119,0,0,0
7269,274565.58348258893,2011-01-13 16:04:02,1950.9518025397915,2,31,0.5501165986061096,4.029349327087402,21.88923782623343,21.55360014288184,88.51814824784205,76.94100324039636,9.70840483205393e-05,0.1019293591380119,0,0,0
7270,274595.59859498945,2011-01-13 16:04:32,1980.9669149653755,2,31,0.5501165986061096,4.031615734100342,21.893823425500543,21.55360014288184,88.53663030858615,76.94100324039636,6.47544875391759e-05,0.1019293591380119,0,0,0
7271,274625.61372384103,2011-01-13 16:05:02,2010.982043811885,2,31,0.550297200679779,4.034367561340332,21.898409006456905,21.55360014288184,88.55512333892256,76.94100324039636,0.0001294136018259,0.1019293591380119,0,0,0
7272,274655.62885392056,2011-01-13 16:05:32,2040.9971738764305,2,31,0.5499359965324402,4.036472320556641,21.902994709050187,21.55360014288184,88.57362795687963,76.94100324039636,3.24249267578125e-05,0.1019293591380119,0,0,0
7273,274685.6440438644,2011-01-13 16:06:02,2071.0123638302384,2,31,0.5499359965324402,4.038900375366211,21.90758111040536,21.55360014288184,88.59214678734531,76.94100324039636,3.23295607813634e-05,0.1019293591380119,0,0,0
7274,274715.65914116224,2011-01-13 16:06:32,2101.0274612383946,2,31,0.5499359965324402,4.04132890701294,21.912167590603868,21.55360014288184,88.61067723005081,76.94100324039636,6.47544875391759e-05,0.1019293591380119,0,0,0
7275,274745.6742332772,2011-01-13 16:07:02,2131.0425532480954,2,31,0.5499359965324402,4.04408073425293,21.91675412940712,21.55360014288184,88.62921948248452,76.94100324039636,9.70840483205393e-05,0.1019293591380119,0,0,0
7276,274775.6893278533,2011-01-13 16:07:32,2161.057647829205,2,31,0.5501165986061096,4.046509265899658,21.92134066394176,21.55360014288184,88.64777340249984,76.94100324039636,6.47544875391759e-05,0.1019293591380119,0,0,0
7277,274805.7045992752,2011-01-13 16:08:02,2191.072919256069,2,31,0.5499359965324402,4.049261093139648,21.925927148973702,21.55360014288184,88.66633909623272,76.94100324039636,0.0001295089750783,0.1019293591380119,0,0,0
7278,274835.7197067284,2011-01-13 16:08:32,2221.088026699236,2,31,0.5501165986061096,4.052013397216797,21.93051369627788,21.55360014288184,88.6849170102639,76.94100324039636,9.71794142969884e-05,0.1019293591380119,0,0,0
7279,274865.7346870898,2011-01-13 16:09:02,2251.103007035612,2,31,0.5501165986061096,4.054441452026367,21.93510024143973,21.55360014288184,88.7035069894419,76.94100324039636,6.47544875391759e-05,0.1019293591380119,0,0,0
7280,274895.7498143323,2011-01-13 16:09:32,2281.118134278124,2,31,0.550297200679779,4.057193756103516,21.93968679357729,21.55360014288184,88.7221092168746,76.94100324039636,9.71794142969884e-05,0.1019293591380119,0,0,0
7281,274925.76495901827,2011-01-13 16:10:02,2311.1332789741355,2,31,0.550297200679779,4.059945583343506,21.94427338144614,21.55360014288184,88.74072394775797,76.94100324039636,0.0001295089750783,0.1019293591380119,0,0,0
7282,274955.78011244605,2011-01-13 16:10:32,2341.1484324169464,2,31,0.550297200679779,4.062697887420654,21.948859937617684,21.55360014288184,88.75935065383977,76.94100324039636,0.0001295089750783,0.1019293591380119,0,0,0
7283,274985.7951910674,2011-01-13 16:11:02,2371.1635110232423,2,31,0.5501165986061096,4.065288066864014,21.95344642672328,21.55360014288184,88.77798970798422,76.94100324039636,6.47544875391759e-05,0.1019293591380119,0,0,0
7284,275015.81031963817,2011-01-13 16:11:32,2401.178639594065,2,31,0.5501165986061096,4.068039894104004,21.958032969736163,21.55360014288184,88.79664176229656,76.94100324039636,6.47544875391759e-05,0.1019293591380119,0,0,0
7285,275045.82557615795,2011-01-13 16:12:02,2431.1938961187884,2,31,0.5501165986061096,4.070953845977783,21.962619516798085,21.55360014288184,88.81530665727132,76.94100324039636,9.70840483205393e-05,0.1019293591380119,0,0,0
7286,275075.84055246925,2011-01-13 16:12:32,2461.2088724201085,2,31,0.550297200679779,4.073706150054932,21.96720601280887,21.55360014288184,88.83398423615014,76.94100324039636,9.71794142969884e-05,0.1019293591380119,0,0,0
7287,275105.85568371176,2011-01-13 16:13:02,2491.22400366259,2,31,0.550297200679779,4.076781749725342,21.971792590293308,21.55360014288184,88.852675305404,76.94100324039636,9.70840483205393e-05,0.1019293591380119,0,0,0
7288,275135.87082929496,2011-01-13 16:13:32,2521.239149336038,2,31,0.5499359965324402,4.079371929168701,21.976379159207312,21.55360014288184,88.87137952022584,76.94100324039636,3.23295607813634e-05,0.1019293591380119,0,0,0
7289,275165.8881854827,2011-01-13 16:14:02,2551.2565055337923,2,31,0.5499359965324402,4.0822858810424805,21.98096607877021,21.55360014288184,88.89009842995135,76.94100324039636,6.47544875391759e-05,0.1019293591380119,0,0,0
7290,275195.9010590333,2011-01-13 16:14:32,2581.2693789841605,2,31,0.5499359965324402,4.08519983291626,21.98555225693791,21.55360014288184,88.9088275561074,76.94100324039636,3.23295607813634e-05,0.1019293591380119,0,0,0
7291,275225.9161733887,2011-01-13 16:15:02,2611.2844933445663,2,31,0.550297200679779,4.088437557220459,21.990138807293956,21.55360014288184,88.92757150630302,76.94100324039636,0.0001295089750783,0.1019293591380119,0,0,0
7292,275255.931305328,2011-01-13 16:15:32,2641.299625278772,2,31,0.5501165986061096,4.091189861297607,21.994725328344508,21.55360014288184,88.94632891880661,76.94100324039636,6.47544875391759e-05,0.1019293591380119,0,0,0
7293,275285.94646807393,2011-01-13 16:16:02,2671.3147881149944,2,31,0.550297200679779,4.094265460968018,21.999311918906564,21.55360014288184,88.96510016114433,76.94100324039636,9.70840483205393e-05,0.1019293591380119,0,0,0
7294,275315.96155295084,2011-01-13 16:16:32,2701.329872906706,2,31,0.550297200679779,4.097179412841797,22.003898423469145,21.55360014288184,88.98388486318785,76.94100324039636,9.70840483205393e-05,0.1019293591380119,0,0,0
7295,275345.9766719929,2011-01-13 16:17:02,2731.344991943768,2,31,0.5501165986061096,4.100093364715576,22.008484971651924,21.55360014288184,89.00268359049473,76.94100324039636,3.23295607813634e-05,0.1019293591380119,0,0,0
7296,275375.9918298267,2011-01-13 16:17:32,2761.3601497825352,2,31,0.5501165986061096,4.103331089019775,22.013071554594347,21.55360014288184,89.02149650261417,76.94100324039636,0.0001295089750783,0.1019293591380119,0,0,0
7297,275406.00692555064,2011-01-13 16:18:02,2791.3752454964683,2,31,0.5501165986061096,4.106407165527344,22.01765813613608,21.55360014288184,89.04032374201778,76.94100324039636,9.71794142969884e-05,0.1019293591380119,0,0,0
7298,275436.0220407581,2011-01-13 16:18:32,2821.3903607089974,2,31,0.5501165986061096,4.109482765197754,22.022244679419668,21.55360014288184,89.05916519456832,76.94100324039636,6.47544875391759e-05,0.1019293591380119,0,0,0
7299,275466.037167349,2011-01-13 16:19:02,2851.4054873048985,2,31,0.5499359965324402,4.112558841705322,22.02683131065889,21.55360014288184,89.07802145362558,76.94100324039636,6.47544875391759e-05,0.1019293591380119,0,0,0
7300,275496.052295178,2011-01-13 16:19:32,2881.4206151288595,2,31,0.5501165986061096,4.115796089172363,22.03141789852172,21.55360014288184,89.09689200028097,76.94100324039636,3.23295607813634e-05,0.1019293591380119,0,0,0
7301,275526.0675470461,2011-01-13 16:20:02,2911.435867001989,2,31,0.550297200679779,4.1190338134765625,22.036004463149045,21.55360014288184,89.11577705801894,76.94100324039636,9.70840483205393e-05,0.1019293591380119,0,0,0
7302,275556.08253610926,2011-01-13 16:20:32,2941.450856055091,2,31,0.550297200679779,4.122433662414551,22.040591017412115,21.55360014288184,89.13467693090007,76.94100324039636,9.71794142969884e-05,0.1019293591380119,0,0,0
7303,275586.0976887901,2011-01-13 16:21:02,2971.466008766078,2,31,0.5501165986061096,4.125509262084961,22.04517748397347,21.55360014288184,89.15359132969401,76.94100324039636,6.47544875391759e-05,0.1019293591380119,0,0,0
7304,275616.11276200303,2011-01-13 16:21:32,3001.48108197392,2,31,0.5501165986061096,4.128909111022949,22.04976398341829,21.55360014288184,89.17252107525722,76.94100324039636,9.71794142969884e-05,0.1019293591380119,0,0,0
7305,275646.1283506856,2011-01-13 16:22:02,3031.4966706514697,2,31,0.5501165986061096,4.132308483123779,22.05435055306072,21.55360014288184,89.19146642953524,76.94100324039636,9.70840483205393e-05,0.1019293591380119,0,0,0
7306,275676.14318136394,2011-01-13 16:22:32,3061.511501319828,2,31,0.5501165986061096,4.135708332061768,22.0589370405105,21.55360014288184,89.21042680332577,76.94100324039636,0.0001295089750783,0.1019293591380119,0,0,0
7307,275706.15818185057,2011-01-13 16:23:02,3091.526501811438,2,31,0.550297200679779,4.139107704162598,22.063523612558622,21.55360014288184,89.22940310713193,76.94100324039636,0.0001295089750783,0.1019293591380119,0,0,0
7308,275736.1734228967,2011-01-13 16:23:32,3121.5417428876585,2,31,0.550297200679779,4.142507553100586,22.068110305083284,21.55360014288184,89.24839555166696,76.94100324039636,9.71794142969884e-05,0.1019293591380119,0,0,0
7309,275766.1886147252,2011-01-13 16:24:02,3151.556934791326,2,31,0.550297200679779,4.146069049835205,22.072697744833484,21.55360014288184,89.26740710150398,76.94100324039636,9.71794142969884e-05,0.1019293591380119,0,0,0
7310,275796.20354286145,2011-01-13 16:24:32,3181.571862817329,2,31,0.550297200679779,4.149468421936035,22.07728495959751,21.55360014288184,89.2864339819128,76.94100324039636,9.70840483205393e-05,0.1019293591380119,0,0,0
7311,275826.2186564149,2011-01-13 16:25:02,3211.5869763657115,2,31,0.5501165986061096,4.153029918670654,22.08187226140848,21.55360014288184,89.30547751721477,76.94100324039636,9.70840483205393e-05,0.1019293591380119,0,0,0
7312,275856.2337713467,2011-01-13 16:25:32,3241.6020912975414,2,31,0.550297200679779,4.156915187835693,22.086459611841303,21.55360014288184,89.32453755654997,76.94100324039636,0.0001295089750783,0.1019293591380119,0,0,0
7313,275886.2490387235,2011-01-13 16:26:02,3271.6173586893487,2,31,0.5501165986061096,4.160152912139893,22.091047024554065,21.55360014288184,89.34361439584337,76.94100324039636,6.47544875391759e-05,0.1019293591380119,0,0,0
7314,275916.26401723025,2011-01-13 16:26:32,3301.6323371811286,2,31,0.5501165986061096,4.164038181304932,22.095634300521382,21.55360014288184,89.36270720331623,76.94100324039636,0.0001295089750783,0.1019293591380119,0,0,0
7315,275946.2791422773,2011-01-13 16:27:02,3331.647462228169,2,31,0.5501165986061096,4.167599678039551,22.10022091274203,21.55360014288184,89.381813546227,76.94100324039636,0.0001295089750783,0.1019293591380119,0,0,0
7316,275976.294405589,2011-01-13 16:27:32,3361.662725554844,2,31,0.5501165986061096,4.17116117477417,22.10480751263197,21.55360014288184,89.40093651889217,76.94100324039636,0.0001295089750783,0.1019293591380119,0,0,0
7317,276006.30941192014,2011-01-13 16:28:02,3391.677731891021,2,31,0.5501165986061096,4.174884796142578,22.109394083305823,21.55360014288184,89.42007617998854,76.94100324039636,9.71794142969884e-05,0.1019293591380119,0,0,0
7318,276036.32450821047,2011-01-13 16:28:32,3421.6928281613405,2,31,0.5501165986061096,4.178446292877197,22.11398064549508,21.55360014288184,89.43923267624942,76.94100324039636,6.47544875391759e-05,0.1019293591380119,0,0,0
7319,276066.33966953296,2011-01-13 16:29:02,3451.707989488803,2,31,0.550297200679779,4.182331562042236,22.11856730749612,21.55360014288184,89.45840673059354,76.94100324039636,9.71794142969884e-05,0.1019293591380119,0,0,0
7320,276096.3547944396,2011-01-13 16:29:32,3481.723114390481,2,31,0.5501165986061096,4.186054706573486,22.12315399025685,21.55360014288184,89.47759807287622,76.94100324039636,6.47544875391759e-05,0.1019293591380119,0,0,0
7321,276126.36995445885,2011-01-13 16:30:02,3511.738274499908,2,31,0.5501165986061096,4.189939975738525,22.12774064638049,21.55360014288184,89.49680676825992,76.94100324039636,9.70840483205393e-05,0.1019293591380119,0,0,0
7322,276156.3850399874,2011-01-13 16:30:32,3541.753359943243,2,31,0.5501165986061096,4.193663597106934,22.13232729418859,21.55360014288184,89.51603298515772,76.94100324039636,9.71794142969884e-05,0.1019293591380119,0,0,0
7323,276186.4001629292,2011-01-13 16:31:02,3571.7684828800243,2,31,0.5501165986061096,4.197548389434815,22.13691388013478,21.55360014288184,89.53527643450711,76.94100324039636,0.0001295089750783,0.1019293591380119,0,0,0
7324,276204.89985187125,2011-01-13 16:31:21,3590.2681718220792,2,31,0.550297200679779,4.200138568878174,22.1397407930724,21.55360014288184,89.54714581064636,76.94100324039636,0.0001295089750783,0.1019293591380119,0,0,0
7325,276234.9190617734,2011-01-13 16:31:51,30.01526003848052,3,31,0.0,4.099607944488525,22.1397407930724,21.55360014288184,89.54714581064636,76.94100324039636,-0.0004856109735555,0.1019293591380119,0,0,0
7326,276264.9340310472,2011-01-13 16:32:21,60.03022930226102,3,31,0.0,4.0866570472717285,22.1397407930724,21.55360014288184,89.54714581064636,76.94100324039636,-0.0002913475036621,0.1019293591380119,0,0,0
7327,276294.9491504502,2011-01-13 16:32:51,90.04534870523459,3,31,0.0,4.078562736511231,22.1397407930724,21.55360014288184,89.54714581064636,76.94100324039636,-0.0002265930233988,0.1019293591380119,0,0,0
7328,276324.9173987409,2011-01-13 16:33:21,120.01359699597458,3,31,0.0,4.073382377624512,22.1397407930724,21.55360014288184,89.54714581064636,76.94100324039636,-0.0001295089750783,0.1019293591380119,0,0,0
7329,276324.92361733614,2011-01-13 16:33:21,0.015886143156791,4,31,1.0234935283660889,4.199814796447754,22.139745337461875,21.55360014288184,89.5471648962405,76.94100324039636,0.0,0.1019293591380119,0,0,0
7330,276325.76709036547,2011-01-13 16:33:22,0.859359072226164,4,31,0.9734647870063782,4.199653148651123,22.139977936612617,21.55360014288184,89.54814176576619,76.94100324039636,-3.23295607813634e-05,0.1019293591380119,0,0,0
7331,276327.6420627485,2011-01-13 16:33:24,2.734331440281933,4,31,0.9230747818946838,4.199653148651123,22.140470873102423,21.55360014288184,89.55021199990723,76.94100324039636,-3.23295607813634e-05,0.1019293591380119,0,0,0
7332,276330.5014866627,2011-01-13 16:33:27,5.593755454748759,4,31,0.8728653788566589,4.199814796447754,22.141183313008845,21.55360014288184,89.55320410261531,76.94100324039636,-3.24249267578125e-05,0.1019293591380119,0,0,0
7333,276334.4388151819,2011-01-13 16:33:31,9.531083868641849,4,31,0.8226560354232788,4.199814796447754,22.142109299971583,21.55360014288184,89.55709306620825,76.94100324039636,0.0,0.1019293591380119,0,0,0
7334,276339.54814619187,2011-01-13 16:33:36,14.640414878620565,4,31,0.7726272344589233,4.199976921081543,22.143239746836304,21.55360014288184,89.56184072684435,76.94100324039636,6.47544875391759e-05,0.1019293591380119,0,0,0
7335,276346.14175113925,2011-01-13 16:33:42,21.23401982595083,4,31,0.7225984930992126,4.199814796447754,22.14460712273768,21.55360014288184,89.56758347131479,76.94100324039636,-3.24249267578125e-05,0.1019293591380119,0,0,0
7336,276354.8759949673,2011-01-13 16:33:51,29.968263654030043,4,31,0.6725696921348572,4.199814796447754,22.146296758667496,21.55360014288184,89.57467963867965,76.94100324039636,0.0,0.1019293591380119,0,0,0
7337,276366.81327427033,2011-01-13 16:34:03,41.90554295706222,4,31,0.6225409507751465,4.199976921081543,22.14843919433979,21.55360014288184,89.58367749645274,76.94100324039636,0.0,0.1019293591380119,0,0,0
7338,276384.5473647204,2011-01-13 16:34:21,59.63963340710694,4,31,0.572512149810791,4.199814796447754,22.15137408765853,21.55360014288184,89.59600356920824,76.94100324039636,0.0,0.1019293591380119,0,0,0
7339,276414.92210808693,2011-01-13 16:34:51,90.01437679370123,4,31,0.5223028063774109,4.199814796447754,22.15597285208539,21.55360014288184,89.61531762681416,76.94100324039636,-3.24249267578125e-05,0.1019293591380119,0,0,0
7340,276473.46775787027,2011-01-13 16:35:50,148.56002656698232,4,31,0.4722740054130554,4.199814796447754,22.16401985137868,21.55360014288184,89.6491136874959,76.94100324039636,-3.24249267578125e-05,0.1019293591380119,0,0,0
7341,276574.6223052117,2011-01-13 16:37:31,249.71457390843327,4,31,0.4222452342510223,4.199814796447754,22.17655001304381,21.55360014288184,89.70173833799934,76.94100324039636,0.0,0.1019293591380119,0,0,0
7342,276704.901374418,2011-01-13 16:39:41,379.9936431197754,4,31,0.3722164630889892,4.199653148651123,22.19090501120755,21.55360014288184,89.76202697279558,76.94100324039636,-6.47544875391759e-05,0.1019293591380119,0,0,0
7343,276863.1331948513,2011-01-13 16:42:19,538.2254635379716,4,31,0.3221877217292785,4.199814796447754,22.20614365018226,21.55360014288184,89.82602673302894,76.94100324039636,0.0,0.1019293591380119,0,0,0
7344,277053.3176184231,2011-01-13 16:45:30,728.4098871047843,4,31,0.2719783186912536,4.199814796447754,22.221810367694303,21.55360014288184,89.89182437812987,76.94100324039636,3.23295607813634e-05,0.1019293591380119,0,0,0
7345,277288.2509934158,2011-01-13 16:49:24,963.3432621175082,4,31,0.2219495624303817,4.199814796447754,22.23789664999984,21.55360014288184,89.95938403440533,76.94100324039636,0.0,0.1019293591380119,0,0,0
7346,277591.2616076053,2011-01-13 16:54:28,1266.3538763923164,4,31,0.171740174293518,4.199976921081543,22.25440342551772,21.55360014288184,90.02870973511824,76.94100324039636,3.24249267578125e-05,0.1019293591380119,0,0,0
7347,278017.95754567406,2011-01-13 17:01:34,1693.0498143908665,4,31,0.1217114105820655,4.199814796447754,22.27165216890645,21.55360014288184,90.10115153579336,76.94100324039636,-3.24249267578125e-05,0.1019293591380119,0,0,0
7348,278747.83594331896,2011-01-13 17:13:44,2422.928212030753,4,31,0.0716826394200325,4.199653148651123,22.290773457278195,21.55360014288184,90.1814576905921,76.94100324039636,-3.23295607813634e-05,0.1019293591380119,0,0,0
7349,279323.3734165407,2011-01-13 17:23:20,2998.4656852474627,4,31,0.0498289167881011,4.199491024017334,22.30043506253613,21.55360014288184,90.22203482027535,76.94100324039636,-6.47544875391759e-05,0.1019293591380119,0,0,0
7350,279353.38189987786,2011-01-13 17:23:50,30.015095508420988,5,31,0.0,4.190425872802734,22.30043506253613,21.55360014288184,90.22203482027535,76.94100324039636,-6.47544875391759e-05,0.1019293591380119,0,0,0
7351,279383.38140821323,2011-01-13 17:24:20,60.01460385383571,5,31,0.0,4.188968658447266,22.30043506253613,21.55360014288184,90.22203482027535,76.94100324039636,0.0,0.1019293591380119,0,0,0
7352,279383.5635911387,2011-01-13 17:24:20,0.187545210370462,6,31,-1.9243103452026844e-05,4.188968658447266,22.30043506253613,21.553600143884328,90.22203482027535,76.94100324459573,0.0,0.1059741750359535,0,0,0
7353,279388.39155669947,2011-01-13 17:24:25,5.015510761050618,6,31,0.0007031940040178,4.188807010650635,22.300436002051672,21.55360014396863,90.22203875591713,76.94100324494887,-3.23295607813634e-05,0.1059741750359535,0,0,0
7354,279411.9485678415,2011-01-13 17:24:49,23.56224557589685,7,31,-1.0997490882873535,3.988716125488281,22.300436002051672,21.56079721874526,90.22203875591713,76.96988281976934,-0.0013597965007647,0.1059741750359535,0,0,0
7355,279441.96369211155,2011-01-13 17:25:19,53.5773698460008,7,31,-1.0997490882873535,3.945330619812012,22.300436002051672,21.569965193059275,90.22203875591713,77.00624250753842,-0.0010036944877356,0.1059741750359535,0,0,0
7356,279471.9788128028,2011-01-13 17:25:49,83.59249054219748,7,31,-1.099568486213684,3.9132773876190186,22.300436002051672,21.57913318977152,90.22203875591713,77.04226034119708,-0.0007446288946084,0.1059741750359535,0,0,0
7357,279501.9940725305,2011-01-13 17:26:19,113.60775027491594,7,31,-1.0997490882873535,3.8881850242614746,22.300436002051672,21.58830128362148,90.22203875591713,77.0780180840831,-0.0006151676061563,0.1059741750359535,0,0,0
7358,279532.0091221796,2011-01-13 17:26:49,143.62279992905397,7,31,-1.0997490882873535,3.8679492473602295,22.300436002051672,21.597469191931086,90.22203875591713,77.1135688232143,-0.0004532813909463,0.1059741750359535,0,0,0
7359,279562.0244600621,2011-01-13 17:27:19,173.63813782658318,7,31,-1.099568486213684,3.850303649902344,22.300436002051672,21.606637252342384,90.22203875591713,77.14894796333428,-0.0004532813909463,0.1059741750359535,0,0,0
7360,279592.0393055925,2011-01-13 17:27:49,203.65298332690708,7,31,-1.099568486213684,3.834438800811768,22.300436002051672,21.61580514139087,90.22203875591713,77.18417402565534,-0.0003885269106831,0.1059741750359535,0,0,0
7361,279622.05443649413,2011-01-13 17:28:19,233.66811422853883,7,31,-1.0993878841400146,3.82003116607666,22.300436002051672,21.624973131894976,90.22203875591713,77.21926082507495,-0.0003237724304199,0.1059741750359535,0,0,0
7362,279652.06955091463,2011-01-13 17:28:49,263.6832286691446,7,31,-1.099568486213684,3.8062708377838135,22.300436002051672,21.63414086426976,90.22203875591713,77.25421720574424,-0.0003237724304199,0.1059741750359535,0,0,0
7363,279682.084801244,2011-01-13 17:29:19,293.69847898840186,7,31,-1.0993878841400146,3.7933199405670166,22.300436002051672,21.643308555724943,90.22203875591713,77.28905140504807,-0.0003237724304199,0.1059741750359535,0,0,0
7364,279712.09985976014,2011-01-13 17:29:49,323.7135376149018,7,31,-1.0997490882873535,3.78101658821106,22.300436002051672,21.65247619632304,90.22203875591713,77.32376978143267,-0.0002913951757363,0.1059741750359535,0,0,0
7365,279742.1149441308,2011-01-13 17:30:19,353.7286218652642,7,31,-1.099568486213684,3.769198894500733,22.300436002051672,21.661643854865748,90.22203875591713,77.35837854987447,-0.0003237724304199,0.1059741750359535,0,0,0
7366,279772.1300292233,2011-01-13 17:30:49,383.7437069577255,7,31,-1.099568486213684,3.758190631866455,22.300436002051672,21.670811705052177,90.22203875591713,77.39288338609363,-0.0002913951757363,0.1059741750359535,0,0,0
7367,279802.1451652527,2011-01-13 17:31:19,413.75884299214965,7,31,-1.099568486213684,3.7475063800811768,22.300436002051672,21.679979672699343,90.22203875591713,77.42728834331001,-0.0003237724304199,0.1059741750359535,0,0,0
7368,279832.1602669014,2011-01-13 17:31:49,443.77394463586165,7,31,-1.099568486213684,3.7371456623077393,22.300436002051672,21.689147679145165,90.22203875591713,77.4615977632104,-0.0002913951757363,0.1059741750359535,0,0,0
7369,279862.17553706013,2011-01-13 17:32:19,473.7892148045899,7,31,-1.0997490882873535,3.7274324893951416,22.300436002051672,21.698315743365644,90.22203875591713,77.4958152670781,-0.0002590179501567,0.1059741750359535,0,0,0
7370,279892.1905166396,2011-01-13 17:32:49,503.8041943740554,7,31,-1.099568486213684,3.717881202697754,22.300436002051672,21.707483661138127,90.22203875591713,77.52994371558935,-0.0002590179501567,0.1059741750359535,0,0,0
7371,279922.20801998413,2011-01-13 17:33:19,533.8216978187945,7,31,-1.0997490882873535,3.708329916000366,22.300436002051672,21.71665240512426,90.22203875591713,77.56398805814224,-0.0002590179501567,0.1059741750359535,0,0,0
7372,279952.2209369128,2011-01-13 17:33:49,563.8346146823621,7,31,-1.099568486213684,3.699264287948608,22.300436002051672,21.725819719773785,90.22203875591713,77.59794193114233,-0.0002266406954731,0.1059741750359535,0,0,0
7373,279982.2360177096,2011-01-13 17:34:19,593.8496954590672,7,31,-1.099568486213684,3.690360546112061,22.300436002051672,21.73498768597296,90.22203875591713,77.63181620456436,-0.0002590179501567,0.1059741750359535,0,0,0
7374,280012.2510423564,2011-01-13 17:34:49,623.8647200908417,7,31,-1.099568486213684,3.681942462921143,22.300436002051672,21.744155719003217,90.22203875591713,77.66561051248271,-0.0002266406954731,0.1059741750359535,0,0,0
7375,280042.25104263285,2011-01-13 17:35:19,653.8647204875998,7,31,-1.099568486213684,3.6735243797302246,22.300436002051672,21.75331912944723,90.22203875591713,77.69931027848588,-0.0001942634553415,0.1059741750359535,0,0,0
7376,280072.2658801633,2011-01-13 17:35:49,683.8795578977605,7,31,-1.099568486213684,3.6651065349578857,22.300436002051672,21.76248704145029,90.22203875591713,77.7329499993301,-0.0002266406954731,0.1059741750359535,0,0,0
7377,280102.2807962596,2011-01-13 17:36:19,713.8944739940313,7,31,-1.0993878841400146,3.6571741104125977,22.300436002051672,21.771654975712696,90.22203875591713,77.76651513841088,-0.0001942634553415,0.1059741750359535,0,0,0
7378,280132.29602211283,2011-01-13 17:36:49,743.9096998773865,7,31,-1.099568486213684,3.6492416858673096,22.300436002051672,21.78082300939993,90.22203875591713,77.80000742454803,-0.0001942634553415,0.1059741750359535,0,0,0
7379,280162.3110065745,2011-01-13 17:37:19,773.92468430897,7,31,-1.0997490882873535,3.641471147537232,22.300436002051672,21.789990919312263,90.22203875591713,77.833427196148,-0.0001942634553415,0.1059741750359535,0,0,0
7380,280192.32614890963,2011-01-13 17:37:49,803.93982664911,7,31,-1.099568486213684,3.633700609207153,22.300436002051672,21.799158869674503,90.22203875591713,77.86677617336127,-0.0001942634553415,0.1059741750359535,0,0,0
7381,280222.34127964586,2011-01-13 17:38:19,833.9549574755544,7,31,-1.099568486213684,3.626253843307495,22.300436002051672,21.808326905802257,90.22203875591713,77.90005582056891,-0.0001942634553415,0.1059741750359535,0,0,0
7382,280252.3563790791,2011-01-13 17:38:49,863.9700568135198,7,31,-1.0997490882873535,3.618968963623047,22.300436002051672,21.81749486249833,90.22203875591713,77.93326778292074,-0.0001942634553415,0.1059741750359535,0,0,0
7383,280282.37150701834,2011-01-13 17:39:19,893.9851847527685,7,31,-1.099568486213684,3.6118459701538086,22.300436002051672,21.826662902156244,90.22203875591713,77.96641437308533,-0.0001942634553415,0.1059741750359535,0,0,0
7384,280312.3868117382,2011-01-13 17:39:49,924.000489587896,7,31,-1.0993878841400146,3.6047229766845694,22.300436002051672,21.83583095625585,90.22203875591713,77.99949593893615,-0.0002266406954731,0.1059741750359535,0,0,0
7385,280342.4018732067,2011-01-13 17:40:19,954.0155509512168,7,31,-1.099568486213684,3.598085641860962,22.300436002051672,21.84499897772854,90.22203875591713,78.03251432992889,-0.0001618862152099,0.1059741750359535,0,0,0
7386,280372.4168792572,2011-01-13 17:40:49,984.030556991656,7,31,-1.0993878841400146,3.5917723178863525,22.300436002051672,21.85416695489968,90.22203875591713,78.06547147877349,-9.70840483205393e-05,0.1059741750359535,0,0,0
7387,280402.43216627295,2011-01-13 17:41:19,1014.0458440073722,7,31,-1.099568486213684,3.584973096847534,22.300436002051672,21.863335023932997,90.22203875591713,78.09836834707988,-0.0001942634553415,0.1059741750359535,0,0,0
7388,280432.4474347875,2011-01-13 17:41:49,1044.0611126172153,7,31,-1.0997490882873535,3.5786595344543457,22.300436002051672,21.872503044046248,90.22203875591713,78.13120635979902,-0.0001618862152099,0.1059741750359535,0,0,0
7389,280462.4622487142,2011-01-13 17:42:19,1074.0759264486103,7,31,-1.099568486213684,3.572669744491577,22.300436002051672,21.88167099130808,90.22203875591713,78.16398692478148,-0.0001618862152099,0.1059741750359535,0,0,0
7390,280492.4773734705,2011-01-13 17:42:49,1104.0910512099388,7,31,-1.099568486213684,3.5666799545288086,22.300436002051672,21.890839025019908,90.22203875591713,78.1967129126469,-0.0001295089750783,0.1059741750359535,0,0,0
7391,280522.49252345966,2011-01-13 17:43:19,1134.10620121418,7,31,-1.0992072820663452,3.56101393699646,22.300436002051672,21.900006848953687,90.22203875591713,78.22938428052272,-9.713172767078504e-05,0.1059741750359535,0,0,0
7392,280552.5078778784,2011-01-13 17:43:49,1164.1215556128352,7,31,-1.0997490882873535,3.5551860332489014,22.300436002051672,21.90917424860479,90.22203875591713,78.26200202458891,-0.0001295089750783,0.1059741750359535,0,0,0
7393,280582.522752787,2011-01-13 17:44:19,1194.1364305214536,7,31,-1.0993878841400146,3.5496819019317627,22.300436002051672,21.91834147057752,90.22203875591713,78.29456792616757,-0.0001618862152099,0.1059741750359535,0,0,0
7394,280612.53787860594,2011-01-13 17:44:49,1224.1515563604676,7,31,-1.099568486213684,3.544177770614624,22.300436002051672,21.9275087797058,90.22203875591713,78.3270841651728,-0.0001618862152099,0.1059741750359535,0,0,0
7395,280642.552991227,2011-01-13 17:45:19,1254.166668986551,7,31,-1.099568486213684,3.5391592979431152,22.300436002051672,21.936676261379628,90.22203875591713,78.35955255558007,-0.0001618862152099,0.1059741750359535,0,0,0
7396,280672.5681223442,2011-01-13 17:45:49,1284.181800073645,7,31,-1.099568486213684,3.5341408252716064,22.300436002051672,21.945844360026108,90.22203875591713,78.39197561841253,-6.47544875391759e-05,0.1059741750359535,0,0,0
7397,280702.5832307397,2011-01-13 17:46:19,1314.1969084741972,7,31,-1.099568486213684,3.5291223526000977,22.300436002051672,21.95501237284884,90.22203875591713,78.42435268514551,-9.713172767078504e-05,0.1059741750359535,0,0,0
7398,280732.5983962226,2011-01-13 17:46:49,1344.2120740723033,7,31,-1.099568486213684,3.524265766143799,22.300436002051672,21.964180475935382,90.22203875591713,78.45668499351518,-9.713172767078504e-05,0.1059741750359535,0,0,0
7399,280762.6134765883,2011-01-13 17:47:19,1374.2271543226966,7,31,-1.0997490882873535,3.51908540725708,22.300436002051672,21.97334845920556,90.22203875591713,78.48897169621692,-0.0001618862152099,0.1059741750359535,0,0,0
7400,280792.6286205374,2011-01-13 17:47:49,1404.2422983019217,7,31,-1.099568486213684,3.514552593231201,22.300436002051672,21.98251659494469,90.22203875591713,78.52121527943541,-9.713172767078504e-05,0.1059741750359535,0,0,0
7401,280822.64372350444,2011-01-13 17:48:19,1434.2574012689315,7,31,-1.0997490882873535,3.5100200176239014,22.300436002051672,21.991684627016284,90.22203875591713,78.55341594985157,-0.0001295089750783,0.1059741750359535,0,0,0
7402,280852.6588449074,2011-01-13 17:48:49,1464.2725226418147,7,31,-1.099568486213684,3.5054872035980225,22.300436002051672,22.00085269552853,90.22203875591713,78.58557564013654,-0.0001295089750783,0.1059741750359535,0,0,0
7403,280882.67398548813,2011-01-13 17:49:19,1494.2876632476325,7,31,-1.099568486213684,3.5007925033569336,22.300436002051672,22.010020768251177,90.22203875591713,78.61769240108364,-0.0001295089750783,0.1059741750359535,0,0,0
7404,280912.68912115664,2011-01-13 17:49:49,1524.3027988960948,7,31,-1.0997490882873535,3.4959359169006348,22.300436002051672,22.01918878221542,90.22203875591713,78.64976588432751,-0.0001295089750783,0.1059741750359535,0,0,0
7405,280942.7042411912,2011-01-13 17:50:19,1554.31791892563,7,31,-1.099568486213684,3.490917444229126,22.300436002051672,22.028356879722505,90.22203875591713,78.68179472079554,-0.0001618862152099,0.1059741750359535,0,0,0
7406,280972.71933725604,2011-01-13 17:50:49,1584.3330149904375,7,31,-1.0997490882873535,3.486060857772827,22.300436002051672,22.03752496832202,90.22203875591713,78.71377827068441,-0.0001295089750783,0.1059741750359535,0,0,0
7407,281002.7344628945,2011-01-13 17:51:19,1614.348140628952,7,31,-1.099568486213684,3.4810423851013184,22.300436002051672,22.04669305517318,90.22203875591713,78.7457157673177,-0.0001295089750783,0.1059741750359535,0,0,0
7408,281032.7498084662,2011-01-13 17:51:49,1644.3634862006077,7,31,-1.099568486213684,3.4757001399993896,22.300436002051672,22.055861107718343,90.22203875591713,78.77760552652757,-0.0001618862152099,0.1059741750359535,0,0,0
7409,281062.7669977579,2011-01-13 17:52:19,1674.3806756126808,7,31,-1.0993878841400146,3.470519781112671,22.300436002051672,22.06502976304793,90.22203875591713,78.80944955540535,-0.0001295089750783,0.1059741750359535,0,0,0
7410,281092.779850216,2011-01-13 17:52:49,1704.3935279504303,7,31,-1.099568486213684,3.465015649795532,22.300436002051672,22.074197099748115,90.22203875591713,78.84123927720476,-0.0001618862152099,0.1059741750359535,0,0,0
7411,281122.7949674836,2011-01-13 17:53:19,1734.4086453083069,7,31,-1.099568486213684,3.459349632263184,22.300436002051672,22.0833651356224,90.22203875591713,78.87298101788902,-0.0001295089750783,0.1059741750359535,0,0,0
7412,281152.8101202147,2011-01-13 17:53:49,1764.4237979741818,7,31,-1.0997490882873535,3.453521728515625,22.300436002051672,22.09253324572476,90.22203875591713,78.90466950154362,-9.713172767078504e-05,0.1059741750359535,0,0,0
7413,281182.82520063047,2011-01-13 17:54:19,1794.438878364925,7,31,-1.0997490882873535,3.4472081661224365,22.300436002051672,22.1017013562846,90.22203875591713,78.93630233957178,-0.0001618862152099,0.1059741750359535,0,0,0
7414,281212.840424163,2011-01-13 17:54:49,1824.4541018873963,7,31,-1.0997490882873535,3.440732717514038,22.300436002051672,22.110869506651262,90.22203875591713,78.96787773770325,-0.0001618862152099,0.1059741750359535,0,0,0
7415,281242.855450494,2011-01-13 17:55:20,1854.4691282284307,7,31,-1.099568486213684,3.4337716102600098,22.300436002051672,22.12003755709636,90.22203875591713,78.99939098342894,-0.0002266406954731,0.1059741750359535,0,0,0
7416,281272.87059687416,2011-01-13 17:55:50,1884.48427460864,7,31,-1.099568486213684,3.4261631965637207,22.300436002051672,22.129205632131512,90.22203875591713,79.03083782694735,-0.0001942634553415,0.1059741750359535,0,0,0
7417,281302.8856987033,2011-01-13 17:56:20,1914.4993764678893,7,31,-1.099568486213684,3.4179069995880127,22.300436002051672,22.138373707235537,90.22203875591713,79.06221188417324,-0.0002266406954731,0.1059741750359535,0,0,0
7418,281332.90082703857,2011-01-13 17:56:50,1944.5145047730496,7,31,-1.0997490882873535,3.408355712890625,22.300436002051672,22.147541821947257,90.22203875591713,79.09350526916523,-0.0002913951757363,0.1059741750359535,0,0,0
7419,281362.91597550904,2011-01-13 17:57:20,1974.5296532434684,7,31,-1.0997490882873535,3.3975093364715576,22.300436002051672,22.156709933554463,90.22203875591713,79.12470571207957,-0.0002913951757363,0.1059741750359535,0,0,0
7420,281392.93109231046,2011-01-13 17:57:50,2004.544770044958,7,31,-1.099568486213684,3.38504409790039,22.300436002051672,22.16587795100811,90.22203875591713,79.15579821333604,-0.0003561496851034,0.1059741750359535,0,0,0
7421,281422.94618697686,2011-01-13 17:58:20,2034.5598647112804,7,31,-1.099568486213684,3.370150566101074,22.300436002051672,22.175045985433883,90.22203875591713,79.18676444127902,-0.0003885269106831,0.1059741750359535,0,0,0
7422,281452.9614370455,2011-01-13 17:58:50,2064.575114789938,7,31,-1.099568486213684,3.3520193099975586,22.300436002051672,22.18421412701051,90.22203875591713,79.21758169740757,-0.0005180359003134,0.1059741750359535,0,0,0
7423,281482.97657610243,2011-01-13 17:59:20,2094.5902539421327,7,31,-1.099568486213684,3.329841136932373,22.300436002051672,22.193382136818546,90.22203875591713,79.24821534669144,-0.0006475448608398,0.1059741750359535,0,0,0
7424,281512.9917007034,2011-01-13 17:59:50,2124.6053784327864,7,31,-1.099568486213684,3.3021585941314697,22.300436002051672,22.202550129987003,90.22203875591713,79.27862130313343,-0.0008094310760498,0.1059741750359535,0,0,0
7425,281543.0066792152,2011-01-13 18:00:20,2154.6203569496283,7,31,-1.0997490882873535,3.2665438652038574,22.300436002051672,22.211718077706525,90.22203875591713,79.30873877002847,-0.001068401383236,0.1059741750359535,0,0,0
7426,281573.0219598199,2011-01-13 18:00:50,2184.635637569404,7,31,-1.099568486213684,3.2205681800842285,22.300436002051672,22.220886182508465,90.22203875591713,79.33848662992601,-0.0013922214275225,0.1059741750359535,0,0,0
7427,281603.0369321764,2011-01-13 18:01:20,2214.6506099108547,7,31,-1.0997490882873535,3.1590516567230225,22.300436002051672,22.230054201598406,90.22203875591713,79.36774588182405,-0.0018455028766766,0.1059741750359535,0,0,0
7428,281633.0520726469,2011-01-13 18:01:50,2244.665750381336,7,31,-1.0997490882873535,3.0729284286499023,22.300436002051672,22.23922228974025,90.22203875591713,79.39633666549972,-0.0026549338363111,0.1059741750359535,0,0,0
7429,281663.0671955436,2011-01-13 18:02:20,2274.6808732830286,7,31,-1.099568486213684,2.946657657623291,22.300436002051672,22.248390361175087,90.22203875591713,79.42397146382937,-0.0040147304534912,0.1059741750359535,0,0,0
7430,281693.0823015431,2011-01-13 18:02:50,2304.695979307659,7,31,-1.099568486213684,2.761622190475464,22.300436002051672,22.257558399545367,90.22203875591713,79.45018281459437,-0.005568838212639,0.1059741750359535,0,0,0
7431,281701.78529186785,2011-01-13 18:02:58,2313.398969602317,7,31,-1.099568486213684,2.699943780899048,22.300436002051672,22.26021671449374,90.22203875591713,79.45744274248165,-0.005730724427849,0.1059741750359535,0,0,0
7432,281761.7864173325,2011-01-13 18:03:59,60.01458722238503,8,31,0.0,3.5671656131744385,22.300436002051672,22.26021671449374,90.22203875591713,79.45744274248165,0.0012950897216796,0.1059741750359535,0,0,0
7433,281761.97729090747,2011-01-13 18:03:59,0.187687765662112,9,31,-0.0014641173183918,3.568298816680908,22.300436002051672,22.260216790826217,90.22203875591713,79.45744301485874,0.0,0.1021136790513992,0,0,0
7434,281766.805171366,2011-01-13 18:04:04,5.015568259354082,9,31,0.0007031940040178,3.5754218101501465,22.300436859065137,22.26021679131024,90.2220418172058,79.45744301658749,0.0011655807029455,0.1021136790513992,0,0,0
