Data_Point,Test_Time(s),Date_Time,Step_Time(s),Step_Index,Cycle_Index,Current(A),Voltage(V),Charge_Capacity(Ah),Discharge_Capacity(Ah),Charge_Energy(Wh),Discharge_Energy(Wh),dV/dt(V/s),Internal_Resistance(Ohm),Is_FC_Data,AC_Impedance(Ohm),ACI_Phase_Angle(Deg)
3444,128984.9014653316,2011-01-11 23:37:21,30.015166324917484,1,15,0.0,3.5966286659240723,10.31126345661736,10.296903859584315,41.66204716405637,36.83921883774533,0.0007446765666827,0.1013949364423751,0,0,0
3445,129014.91659510545,2011-01-11 23:37:51,60.03029611377587,1,15,0.0,3.617997646331787,10.31126345661736,10.296903859584315,41.66204716405637,36.83921883774533,0.0004532813909463,0.1013949364423751,0,0,0
3446,129044.931779345,2011-01-11 23:38:21,90.0454803383047,1,15,0.0,3.633376836776733,10.31126345661736,10.296903859584315,41.66204716405637,36.83921883774533,0.0003561496851034,0.1013949364423751,0,0,0
3447,129074.90005966056,2011-01-11 23:38:51,120.01376066388538,1,15,0.0,3.6450326442718506,10.31126345661736,10.296903859584315,41.66204716405637,36.83921883774533,0.0002590179501567,0.1013949364423751,0,0,0
3448,129104.91536726392,2011-01-11 23:39:21,30.01517362811931,2,15,0.5501165986061096,3.768875122070313,10.315850882087684,10.296903859584315,41.67924175999848,36.83921883774533,0.0008418083307333,0.1013949364423751,0,0,0
3449,129134.930500752,2011-01-11 23:39:51,60.0303071212098,2,15,0.550297200679779,3.792510509490967,10.320438270476282,10.296903859584315,41.69659023090246,36.83921883774533,0.0005180359003134,0.1013949364423751,0,0,0
3450,129164.9461081462,2011-01-11 23:40:21,90.04591449535766,2,15,0.5501165986061096,3.806432723999024,10.325025798189596,10.296903859584315,41.71402280259914,36.83921883774533,0.0002913951757363,0.1013949364423751,0,0,0
3451,129194.96084236918,2011-01-11 23:40:51,120.06064872335668,2,15,0.550297200679779,3.816793441772461,10.329613156978732,10.296903859584315,41.7315088626444,36.83921883774533,0.0002266406954731,0.1013949364423751,0,0,0
3452,129224.97600258888,2011-01-11 23:41:21,150.07580895308303,2,15,0.550297200679779,3.825049638748169,10.33420051189962,10.296903859584315,41.74903707723125,36.83921883774533,0.0002266406954731,0.1013949364423751,0,0,0
3453,129254.9911699564,2011-01-11 23:41:51,180.09097632059903,2,15,0.550297200679779,3.832496404647827,10.338787903593282,10.296903859584315,41.7666016222674,36.83921883774533,0.0001618862152099,0.1013949364423751,0,0,0
3454,129285.00641357397,2011-01-11 23:42:21,210.10621992311607,2,15,0.5501165986061096,3.839457273483277,10.343375270952537,10.296903859584315,41.784198717055936,36.83921883774533,0.0001942634553415,0.1013949364423751,0,0,0
3455,129315.02155903686,2011-01-11 23:42:51,240.121365406089,2,15,0.5501165986061096,3.845770835876465,10.34796254020288,10.296903859584315,41.80182584572034,36.83921883774533,0.0001295089750783,0.1013949364423751,0,0,0
3456,129345.03663659054,2011-01-11 23:43:21,270.1364429547488,2,15,0.5501165986061096,3.8519225120544434,10.352549899736726,10.296903859584315,41.81948187667771,36.83921883774533,0.0001618862152099,0.1013949364423751,0,0,0
3457,129375.05174668532,2011-01-11 23:43:51,300.15155304952344,2,15,0.5501165986061096,3.857588529586792,10.357137276058603,10.296903859584315,41.837164993412,36.83921883774533,0.0001618862152099,0.1013949364423751,0,0,0
3458,129405.066932178,2011-01-11 23:44:21,330.16673853720044,2,15,0.5501165986061096,3.86309266090393,10.361724611846675,10.296903859584315,41.85487351331837,36.83921883774533,0.0001618862152099,0.1013949364423751,0,0,0
3459,129435.08206021748,2011-01-11 23:44:51,360.18186658672386,2,15,0.550297200679779,3.8682730197906494,10.366311862654202,10.296903859584315,41.872606028281965,36.83921883774533,0.0001618862152099,0.1013949364423751,0,0,0
3460,129465.09722780556,2011-01-11 23:45:21,390.1970341747895,2,15,0.550297200679779,3.873129606246948,10.37089920380716,10.296903859584315,41.89036224200356,36.83921883774533,0.0001618862152099,0.1013949364423751,0,0,0
3461,129495.11237045148,2011-01-11 23:45:51,420.2121768206916,2,15,0.550297200679779,3.877986192703247,10.37548652062998,10.296903859584315,41.908140842228974,36.83921883774533,0.0001295089750783,0.1013949364423751,0,0,0
3462,129525.1276748856,2011-01-11 23:46:21,450.2274812548197,2,15,0.5501165986061096,3.882680892944336,10.380073873884736,10.296903859584315,41.92594131418566,36.83921883774533,0.0001295089750783,0.1013949364423751,0,0,0
3463,129555.14267335217,2011-01-11 23:46:51,480.24247972138255,2,15,0.550297200679779,3.887213706970215,10.384661198540956,10.296903859584315,41.94376279030696,36.83921883774533,9.713172767078504e-05,0.1013949364423751,0,0,0
3464,129585.15797575624,2011-01-11 23:47:21,510.2577821104136,2,15,0.550297200679779,3.8917465209960938,10.389248547099983,10.296903859584315,41.96160486236888,36.83921883774533,0.0001618862152099,0.1013949364423751,0,0,0
3465,129615.17304818211,2011-01-11 23:47:51,540.2728545413183,2,15,0.5501165986061096,3.895793676376343,10.393835919444834,10.296903859584315,41.97946670901802,36.83921883774533,0.0001618862152099,0.1013949364423751,0,0,0
3466,129645.18814425696,2011-01-11 23:48:21,570.2879506211634,2,15,0.5501165986061096,3.899840831756592,10.398423286572609,10.296903859584315,41.99734740672663,36.83921883774533,0.0001295089750783,0.1013949364423751,0,0,0
3467,129675.20342836042,2011-01-11 23:48:51,600.3032347296339,2,15,0.5501165986061096,3.903564214706421,10.403010694143806,10.296903859584315,42.01524648769313,36.83921883774533,3.237724376958795e-05,0.1013949364423751,0,0,0
3468,129705.21866748176,2011-01-11 23:49:21,630.3184738509825,2,15,0.550297200679779,3.90744948387146,10.407598058201776,10.296903859584315,42.03316282678081,36.83921883774533,6.47544875391759e-05,0.1013949364423751,0,0,0
3469,129735.23362016422,2011-01-11 23:49:51,660.3334265284248,2,15,0.550297200679779,3.911010980606079,10.412185405108044,10.296903859584315,42.05109578571504,36.83921883774533,6.47544875391759e-05,0.1013949364423751,0,0,0
3470,129765.24876783264,2011-01-11 23:50:21,690.3485741968444,2,15,0.550297200679779,3.914572238922119,10.416772796857911,10.296903859584315,42.069044913061525,36.83921883774533,0.0001295089750783,0.1013949364423751,0,0,0
3471,129795.2661758295,2011-01-11 23:50:51,720.3659821936982,2,15,0.5501165986061096,3.9174861907958975,10.421360546386534,10.296903859584315,42.08701057400646,36.83921883774533,3.237724376958795e-05,0.1013949364423751,0,0,0
3472,129825.27914403102,2011-01-11 23:51:21,750.3789504002283,2,15,0.5501165986061096,3.920562028884888,10.425947539906089,10.296903859584315,42.10498769488987,36.83921883774533,3.237724376958795e-05,0.1013949364423751,0,0,0
3473,129855.29424354942,2011-01-11 23:51:51,780.3940499186433,2,15,0.550297200679779,3.923637866973877,10.430534880240335,10.296903859584315,42.12297993361122,36.83921883774533,6.47544875391759e-05,0.1013949364423751,0,0,0
3474,129885.3095158234,2011-01-11 23:52:21,810.4093221876059,2,15,0.5501165986061096,3.926551818847656,10.435122283486722,10.296903859584315,42.1409857356602,36.83921883774533,9.713172767078504e-05,0.1013949364423751,0,0,0
3475,129915.32467093538,2011-01-11 23:52:51,840.4244773045899,2,15,0.550297200679779,3.9293038845062256,10.439709612916982,10.296903859584315,42.15900396306005,36.83921883774533,6.47544875391759e-05,0.1013949364423751,0,0,0
3476,129945.33971253443,2011-01-11 23:53:21,870.4395188836022,2,15,0.550297200679779,3.931894063949585,10.44429706303136,10.296903859584315,42.177035019504864,36.83921883774533,9.713172767078504e-05,0.1013949364423751,0,0,0
3477,129975.35486661884,2011-01-11 23:53:52,900.4546729830503,2,15,0.550297200679779,3.9343223571777344,10.4488844744283,10.296903859584315,42.1950779067327,36.83921883774533,6.47544875391759e-05,0.1013949364423751,0,0,0
3478,130005.370135755,2011-01-11 23:54:22,930.4699421242173,2,15,0.550297200679779,3.9369125366210938,10.453471895309942,10.296903859584315,42.213132478600016,36.83921883774533,9.713172767078504e-05,0.1013949364423751,0,0,0
3479,130035.38518964972,2011-01-11 23:54:52,960.4849960088992,2,15,0.5501165986061096,3.939340829849243,10.458059218455164,10.296903859584315,42.23119820795931,36.83921883774533,3.237724376958795e-05,0.1013949364423751,0,0,0
3480,130065.40046786849,2011-01-11 23:55:22,990.5002742377156,2,15,0.550297200679779,3.9419310092926025,10.462646636828683,10.296903859584315,42.24927563253126,36.83921883774533,6.47544875391759e-05,0.1013949364423751,0,0,0
3481,130095.41548387376,2011-01-11 23:55:52,1020.5152902379778,2,15,0.550297200679779,3.944197416305542,10.467234005665992,10.296903859584315,42.26736395500514,36.83921883774533,6.47544875391759e-05,0.1013949364423751,0,0,0
3482,130125.43063366748,2011-01-11 23:56:22,1050.5304400367068,2,15,0.5501165986061096,3.9466257095336914,10.471821397467505,10.296903859584315,42.2854633822376,36.83921883774533,3.237724376958795e-05,0.1013949364423751,0,0,0
3483,130155.44579248368,2011-01-11 23:56:52,1080.5455988478975,2,15,0.5501165986061096,3.948892116546631,10.476408753104446,10.296903859584315,42.303573432921446,36.83921883774533,6.47544875391759e-05,0.1013949364423751,0,0,0
3484,130185.46097040252,2011-01-11 23:57:22,1110.560776771723,2,15,0.550297200679779,3.9514822959899902,10.480996051748576,10.296903859584315,42.32169400932708,36.83921883774533,9.713172767078504e-05,0.1013949364423751,0,0,0
3485,130215.47612288292,2011-01-11 23:57:52,1140.5759292471237,2,15,0.550297200679779,3.95358681678772,10.48558337431342,10.296903859584315,42.33982527581774,36.83921883774533,6.47544875391759e-05,0.1013949364423751,0,0,0
3486,130245.4914128159,2011-01-11 23:58:22,1170.591219185123,2,15,0.550297200679779,3.955853223800659,10.490170748269136,10.296903859584315,42.35796729461208,36.83921883774533,6.47544875391759e-05,0.1013949364423751,0,0,0
3487,130275.50645870568,2011-01-11 23:58:52,1200.6062650498166,2,15,0.5501165986061096,3.958119630813599,10.494758120675604,10.296903859584315,42.37611965720854,36.83921883774533,3.237724376958795e-05,0.1013949364423751,0,0,0
3488,130305.52160394804,2011-01-11 23:59:22,1230.6214103172522,2,15,0.5504778623580933,3.960547924041748,10.499345516548823,10.296903859584315,42.3942824592141,36.83921883774533,6.47544875391759e-05,0.1013949364423751,0,0,0
3489,130335.53672886474,2011-01-11 23:59:52,1260.6365352289554,2,15,0.5501165986061096,3.9626524448394775,10.503932886044028,10.296903859584315,42.41245542485023,36.83921883774533,6.47544875391759e-05,0.1013949364423751,0,0,0
3490,130365.55189220724,2011-01-12 00:00:22,1290.6516985614146,2,15,0.5501165986061096,3.964918851852417,10.50852022259088,10.296903859584315,42.43063841958515,36.83921883774533,6.47544875391759e-05,0.1013949364423751,0,0,0
3491,130395.56704995576,2011-01-12 00:00:52,1320.6668563049448,2,15,0.550297200679779,3.967185258865357,10.513107650977782,10.296903859584315,42.44883192471752,36.83921883774533,9.713172767078504e-05,0.1013949364423751,0,0,0
3492,130425.5822087369,2011-01-12 00:01:22,1350.6820150860606,2,15,0.5501165986061096,3.969127893447876,10.517695060611237,10.296903859584315,42.46703532910036,36.83921883774533,3.237724376958795e-05,0.1013949364423751,0,0,0
3493,130455.59736849045,2011-01-12 00:01:52,1380.6971748546378,2,15,0.5501165986061096,3.971394300460816,10.522282414158036,10.296903859584315,42.48524855628363,36.83921883774533,3.237724376958795e-05,0.1013949364423751,0,0,0
3494,130485.6125047855,2011-01-12 00:02:22,1410.712311154724,2,15,0.550297200679779,3.973660707473755,10.526869796537111,10.296903859584315,42.50347193392086,36.83921883774533,6.47544875391759e-05,0.1013949364423751,0,0,0
3495,130515.62768870426,2011-01-12 00:02:52,1440.7274950684784,2,15,0.550297200679779,3.9759271144866943,10.531457193318913,10.296903859584315,42.52170534296727,36.83921883774533,9.713172767078504e-05,0.1013949364423751,0,0,0
3496,130545.64499783971,2011-01-12 00:03:22,1470.7448042089516,2,15,0.5501165986061096,3.977869749069214,10.53604493970829,10.296903859584315,42.539950073857575,36.83921883774533,6.47544875391759e-05,0.1013949364423751,0,0,0
3497,130575.657974367,2011-01-12 00:03:52,1500.757780731207,2,15,0.550297200679779,3.980136156082153,10.540632014646183,10.296903859584315,42.55820182009796,36.83921883774533,6.47544875391759e-05,0.1013949364423751,0,0,0
3498,130605.67312846144,2011-01-12 00:04:22,1530.7729348256423,2,15,0.5499359965324402,3.982240676879883,10.545219325858191,10.296903859584315,42.576464721397336,36.83921883774533,3.237724376958795e-05,0.1013949364423751,0,0,0
3499,130635.68827822008,2011-01-12 00:04:52,1560.7880845592092,2,15,0.5501165986061096,3.9845070838928223,10.549806619934367,10.296903859584315,42.59473738721896,36.83921883774533,6.47544875391759e-05,0.1013949364423751,0,0,0
3500,130665.70368458323,2011-01-12 00:05:22,1590.803490947438,2,15,0.5501165986061096,3.986449718475342,10.554393990886776,10.296903859584315,42.61302031464074,36.83921883774533,3.237724376958795e-05,0.1013949364423751,0,0,0
3501,130695.71859516075,2011-01-12 00:05:52,1620.8184015249544,2,15,0.5501165986061096,3.9885542392730713,10.558981252152083,10.296903859584315,42.63131266560616,36.83921883774533,3.237724376958795e-05,0.1013949364423751,0,0,0
3502,130725.73374242816,2011-01-12 00:06:22,1650.8335487973875,2,15,0.550297200679779,3.9909825325012207,10.563568507404156,10.296903859584315,42.64961484076102,36.83921883774533,6.47544875391759e-05,0.1013949364423751,0,0,0
3503,130755.74890490348,2011-01-12 00:06:52,1680.8487112727105,2,15,0.5501165986061096,3.99308705329895,10.56815586215352,10.296903859584315,42.6679273269574,36.83921883774533,6.47544875391759e-05,0.1013949364423751,0,0,0
3504,130785.76406698785,2011-01-12 00:07:22,1710.8638733570592,2,15,0.5501165986061096,3.9951913356781006,10.572743209820215,10.296903859584315,42.6862496621166,36.83921883774533,3.237724376958795e-05,0.1013949364423751,0,0,0
3505,130815.77921092196,2011-01-12 00:07:52,1740.879017271122,2,15,0.5501165986061096,3.99729585647583,10.577330560938783,10.296903859584315,42.70458206609918,36.83921883774533,3.237724376958795e-05,0.1013949364423751,0,0,0
3506,130845.7943717231,2011-01-12 00:08:22,1770.8941780622474,2,15,0.5501165986061096,3.99940037727356,10.58191796431102,10.296903859584315,42.72292463744986,36.83921883774533,3.237724376958795e-05,0.1013949364423751,0,0,0
3507,130875.809543251,2011-01-12 00:08:52,1800.9093496101823,2,15,0.550297200679779,4.001828670501709,10.586505280610078,10.296903859584315,42.74127687906415,36.83921883774533,6.47544875391759e-05,0.1013949364423751,0,0,0
3508,130905.82468534051,2011-01-12 00:09:22,1830.9244917097224,2,15,0.5501165986061096,4.003933429718018,10.5910925567889,10.296903859584315,42.75963904812157,36.83921883774533,6.47544875391759e-05,0.1013949364423751,0,0,0
3509,130935.839834643,2011-01-12 00:09:52,1860.939641007203,2,15,0.550297200679779,4.006199836730957,10.595679869807032,10.296903859584315,42.77801148549837,36.83921883774533,6.47544875391759e-05,0.1013949364423751,0,0,0
3510,130965.85526488068,2011-01-12 00:10:22,1890.9550712348469,2,15,0.550297200679779,4.0084662437438965,10.600267265001868,10.296903859584315,42.79639444968146,36.83921883774533,6.47544875391759e-05,0.1013949364423751,0,0,0
3511,130995.87013962388,2011-01-12 00:10:52,1920.9699459930905,2,15,0.5501165986061096,4.010732650756836,10.604854601036196,10.296903859584315,42.814787356069125,36.83921883774533,6.47544875391759e-05,0.1013949364423751,0,0,0
3512,131025.8853223647,2011-01-12 00:11:22,1950.9851287289089,2,15,0.5501165986061096,4.012836933135986,10.609441979216353,10.296903859584315,42.83319079092842,36.83921883774533,3.23295607813634e-05,0.1013949364423751,0,0,0
3513,131055.90045981266,2011-01-12 00:11:52,1981.0002661818687,2,15,0.5499359965324402,4.014941692352295,10.614029361462944,10.296903859584315,42.8516046361001,36.83921883774533,3.24249267578125e-05,0.1013949364423751,0,0,0
3514,131085.9158563313,2011-01-12 00:12:22,2011.0156626854623,2,15,0.5501165986061096,4.017369747161865,10.618616723334544,10.296903859584315,42.87002883243802,36.83921883774533,3.23295607813634e-05,0.1013949364423751,0,0,0
3515,131115.9308064724,2011-01-12 00:12:52,2041.030612821571,2,15,0.5504778623580933,4.019798278808594,10.62320403929882,10.296903859584315,42.888463339478506,36.83921883774533,0.0001295089750783,0.1013949364423751,0,0,0
3516,131145.9459391184,2011-01-12 00:13:22,2071.0457454876,2,15,0.550297200679779,4.022064685821533,10.627791324099215,10.296903859584315,42.90690833479884,36.83921883774533,6.47544875391759e-05,0.1013949364423751,0,0,0
3517,131175.96125694088,2011-01-12 00:13:52,2101.061063310096,2,15,0.5501165986061096,4.024331092834473,10.6323787153086,10.296903859584315,42.925364488918106,36.83921883774533,3.24249267578125e-05,0.1013949364423751,0,0,0
3518,131205.97637592783,2011-01-12 00:14:22,2131.076182281995,2,15,0.5499359965324402,4.026597499847412,10.636966039703706,10.296903859584315,42.94383116756393,36.83921883774533,3.24249267578125e-05,0.1013949364423751,0,0,0
3519,131235.99153071397,2011-01-12 00:14:52,2161.091337083192,2,15,0.550297200679779,4.029349327087402,10.641553445410477,10.296903859584315,42.96230911363241,36.83921883774533,9.70840483205393e-05,0.1013949364423751,0,0,0
3520,131266.00666781605,2011-01-12 00:15:22,2191.106474175252,2,15,0.5501165986061096,4.031615734100342,10.646140786439464,10.296903859584315,42.980797765611776,36.83921883774533,6.47544875391759e-05,0.1013949364423751,0,0,0
3521,131296.0218053843,2011-01-12 00:15:52,2221.1216119439987,2,15,0.5501165986061096,4.03404426574707,10.650728100003883,10.296903859584315,42.99929749922947,36.83921883774533,6.47544875391759e-05,0.1013949364423751,0,0,0
3522,131326.036852447,2011-01-12 00:16:22,2251.136658816204,2,15,0.5501165986061096,4.036472320556641,10.655315421259209,10.296903859584315,43.01780854076791,36.83921883774533,6.47544875391759e-05,0.1013949364423751,0,0,0
3523,131356.0520111479,2011-01-12 00:16:52,2281.1518175171195,2,15,0.5501165986061096,4.038900375366211,10.65990272872982,10.296903859584315,43.03633086283065,36.83921883774533,6.47544875391759e-05,0.1013949364423751,0,0,0
3524,131386.06723028445,2011-01-12 00:17:22,2311.16703665366,2,15,0.5501165986061096,4.04132890701294,10.664490089769714,10.296903859584315,43.05486481408845,36.83921883774533,3.24249267578125e-05,0.1013949364423751,0,0,0
3525,131416.08228385335,2011-01-12 00:17:52,2341.1820902175423,2,15,0.5501165986061096,4.04408073425293,10.66907673860533,10.296903859584315,43.073407340220776,36.83921883774533,6.47544875391759e-05,0.1013949364423751,0,0,0
3526,131446.09742903555,2011-01-12 00:18:22,2371.1972354047784,2,15,0.5501165986061096,4.046509265899658,10.673663446579717,10.296903859584315,43.09196189176495,36.83921883774533,6.47544875391759e-05,0.1013949364423751,0,0,0
3527,131476.1126218465,2011-01-12 00:18:52,2401.2124282157065,2,15,0.5501165986061096,4.049261093139648,10.67825025608538,10.296903859584315,43.11052877602828,36.83921883774533,9.70840483205393e-05,0.1013949364423751,0,0,0
3528,131506.12778630175,2011-01-12 00:19:22,2431.227592665952,2,15,0.5501165986061096,4.051851272583008,10.682836988932234,10.296903859584315,43.12910727352456,36.83921883774533,9.70840483205393e-05,0.1013949364423751,0,0,0
3529,131536.1427821167,2011-01-12 00:19:52,2461.242588485919,2,15,0.5499359965324402,4.054441452026367,10.687423641562525,10.296903859584315,43.14769752189069,36.83921883774533,0.0001295089750783,0.1013949364423751,0,0,0
3530,131566.15809974872,2011-01-12 00:20:22,2491.257906112928,2,15,0.5501165986061096,4.057193756103516,10.692010362022152,10.296903859584315,43.166300233755415,36.83921883774533,0.0001295089750783,0.1013949364423751,0,0,0
3531,131596.17323316663,2011-01-12 00:20:52,2521.2730395308304,2,15,0.5501165986061096,4.059945583343506,10.696597618517812,10.296903859584315,43.18491762293254,36.83921883774533,6.47544875391759e-05,0.1013949364423751,0,0,0
3532,131626.1887391982,2011-01-12 00:21:22,2551.288545557389,2,15,0.5499359965324402,4.062535762786865,10.701185059225878,10.296903859584315,43.20354792427673,36.83921883774533,6.47544875391759e-05,0.1013949364423751,0,0,0
3533,131656.20360112446,2011-01-12 00:21:52,2581.303407498689,2,15,0.550297200679779,4.0654497146606445,10.705772353601157,10.296903859584315,43.22219025755,36.83921883774533,0.0001295089750783,0.1013949364423751,0,0,0
3534,131686.2187483267,2011-01-12 00:22:22,2611.318554700947,2,15,0.550297200679779,4.068039894104004,10.710359687433645,10.296903859584315,43.24084544466568,36.83921883774533,3.23295607813634e-05,0.1013949364423751,0,0,0
3535,131716.23614465448,2011-01-12 00:22:52,2641.335951209167,2,15,0.5501165986061096,4.070953845977783,10.714947416322788,10.296903859584315,43.25951509539584,36.83921883774533,9.70840483205393e-05,0.1013949364423751,0,0,0
3536,131746.2491319235,2011-01-12 00:23:22,2671.34893828272,2,15,0.5501165986061096,4.073706150054932,10.719534380039136,10.296903859584315,43.27819458885388,36.83921883774533,6.47544875391759e-05,0.1013949364423751,0,0,0
3537,131776.2642156476,2011-01-12 00:23:52,2701.364022011784,2,15,0.550297200679779,4.076620101928711,10.724121663971337,10.296903859584315,43.29688852823704,36.83921883774533,9.71794142969884e-05,0.1013949364423751,0,0,0
3538,131806.27936691497,2011-01-12 00:24:22,2731.379173279173,2,15,0.550297200679779,4.07953405380249,10.728709078680367,10.296903859584315,43.31559622836608,36.83921883774533,9.71794142969884e-05,0.1013949364423751,0,0,0
3539,131836.29452262845,2011-01-12 00:24:52,2761.394329002668,2,15,0.5501165986061096,4.0824480056762695,10.733296457963654,10.296903859584315,43.3343170487594,36.83921883774533,6.47544875391759e-05,0.1013949364423751,0,0,0
3540,131866.3096894145,2011-01-12 00:25:22,2791.409495788735,2,15,0.550297200679779,4.085361957550049,10.73788375097124,10.296903859584315,43.35305105087254,36.83921883774533,9.71794142969884e-05,0.1013949364423751,0,0,0
3541,131896.32483606038,2011-01-12 00:25:53,2821.4246424346065,2,15,0.5501165986061096,4.088275909423828,10.742471157016126,10.296903859584315,43.371799221106535,36.83921883774533,9.71794142969884e-05,0.1013949364423751,0,0,0
3542,131926.34002015958,2011-01-12 00:26:23,2851.4398265288105,2,15,0.5501165986061096,4.091513633728027,10.74705852380684,10.296903859584315,43.39056106052051,36.83921883774533,9.71794142969884e-05,0.1013949364423751,0,0,0
3543,131956.3551440287,2011-01-12 00:26:53,2881.4549503929024,2,15,0.5501165986061096,4.094427585601807,10.7516458789536,10.296903859584315,43.40933665583571,36.83921883774533,9.71794142969884e-05,0.1013949364423751,0,0,0
3544,131986.37031874954,2011-01-12 00:27:23,2911.47012512377,2,15,0.5499359965324402,4.097341537475586,10.756233226206865,10.296903859584315,43.42812626538215,36.83921883774533,6.47544875391759e-05,0.1013949364423751,0,0,0
3545,132016.38557068282,2011-01-12 00:27:53,2941.4853770520376,2,15,0.5499359965324402,4.100417137145996,10.760820658626333,10.296903859584315,43.44693043474789,36.83921883774533,3.23295607813634e-05,0.1013949364423751,0,0,0
3546,132046.40058474825,2011-01-12 00:28:23,2971.50039112249,2,15,0.5501165986061096,4.103816986083984,10.765407973303228,10.296903859584315,43.46574836287158,36.83921883774533,9.71794142969884e-05,0.1013949364423751,0,0,0
3547,132076.41571008603,2011-01-12 00:28:53,3001.5155164552425,2,15,0.5504778623580933,4.1068925857543945,10.76999535391457,10.296903859584315,43.4845810341206,36.83921883774533,9.70840483205393e-05,0.1013949364423751,0,0,0
3548,132106.43108305096,2011-01-12 00:29:23,3031.530889410145,2,15,0.5501165986061096,4.109968662261963,10.774582739295226,10.296903859584315,43.503428283369104,36.83921883774533,3.24249267578125e-05,0.1013949364423751,0,0,0
3549,132136.44612017888,2011-01-12 00:29:53,3061.545926538064,2,15,0.5501165986061096,4.113368034362793,10.779170091924245,10.296903859584315,43.52229014806077,36.83921883774533,9.70840483205393e-05,0.1013949364423751,0,0,0
3550,132166.46139093407,2011-01-12 00:30:23,3091.561197288241,2,15,0.5501165986061096,4.116605758666992,10.783757523747235,10.296903859584315,43.541167146885,36.83921883774533,9.71794142969884e-05,0.1013949364423751,0,0,0
3551,132196.47641055332,2011-01-12 00:30:53,3121.576216907524,2,15,0.5501165986061096,4.119681358337402,10.788344941797652,10.296903859584315,43.56005885170045,36.83921883774533,3.23295607813634e-05,0.1013949364423751,0,0,0
3552,132226.4915707931,2011-01-12 00:31:23,3151.5913771673245,2,15,0.5501165986061096,4.123081207275391,10.792932338011047,10.296903859584315,43.5789654049498,36.83921883774533,9.71794142969884e-05,0.1013949364423751,0,0,0
3553,132256.5067344313,2011-01-12 00:31:53,3181.606540795521,2,15,0.5501165986061096,4.126156806945801,10.797519704538155,10.296903859584315,43.59788685363174,36.83921883774533,6.47544875391759e-05,0.1013949364423751,0,0,0
3554,132286.52187264117,2011-01-12 00:32:23,3211.6216790053672,2,15,0.5501165986061096,4.12971830368042,10.802107034118524,10.296903859584315,43.616823415972846,36.83921883774533,6.47544875391759e-05,0.1013949364423751,0,0,0
3555,132316.53707763244,2011-01-12 00:32:53,3241.636883981616,2,15,0.5501165986061096,4.132956027984619,10.806694395042031,10.296903859584315,43.63577560636221,36.83921883774533,6.47544875391759e-05,0.1013949364423751,0,0,0
3556,132346.552215727,2011-01-12 00:33:23,3271.6520220761745,2,15,0.5504778623580933,4.136679649353027,10.81128180167196,10.296903859584315,43.65474344467096,36.83921883774533,0.0001295089750783,0.1013949364423751,0,0,0
3557,132376.56735061356,2011-01-12 00:33:53,3301.667156977775,2,15,0.550297200679779,4.1397552490234375,10.815869242802924,10.296903859584315,43.67372706280286,36.83921883774533,6.47544875391759e-05,0.1013949364423751,0,0,0
3558,132406.5826542407,2011-01-12 00:34:23,3331.682460700129,2,15,0.5501165986061096,4.143155097961426,10.82045667840004,10.296903859584315,43.69272643431856,36.83921883774533,6.47544875391759e-05,0.1013949364423751,0,0,0
3559,132436.59765037143,2011-01-12 00:34:53,3361.697456740645,2,15,0.550297200679779,4.147040367126465,10.825044067845838,10.296903859584315,43.711741712470136,36.83921883774533,0.0001295089750783,0.1013949364423751,0,0,0
3560,132466.61495194305,2011-01-12 00:35:23,3391.7147583172678,2,15,0.5501165986061096,4.150439739227295,10.829631770413798,10.296903859584315,43.7307744552521,36.83921883774533,9.70840483205393e-05,0.1013949364423751,0,0,0
3561,132496.6279900488,2011-01-12 00:35:53,3421.727796412983,2,15,0.550297200679779,4.153839588165283,10.834218787828757,10.296903859584315,43.74982049394259,36.83921883774533,0.0001295089750783,0.1013949364423751,0,0,0
3562,132526.64324322014,2011-01-12 00:36:23,3451.7430495943736,2,15,0.5501165986061096,4.157401084899902,10.838806173426471,10.296903859584315,43.76888430587129,36.83921883774533,6.47544875391759e-05,0.1013949364423751,0,0,0
3563,132556.65829832284,2011-01-12 00:36:53,3481.7581046870664,2,15,0.550297200679779,4.161286354064941,10.843393530051037,10.296903859584315,43.78796450592286,36.83921883774533,0.0001295089750783,0.1013949364423751,0,0,0
3564,132586.6736500649,2011-01-12 00:37:23,3511.773456424088,2,15,0.5501165986061096,4.164524078369141,10.847980944444194,10.296903859584315,43.8070614177425,36.83921883774533,6.47544875391759e-05,0.1013949364423751,0,0,0
3565,132616.68860215085,2011-01-12 00:37:53,3541.788408515068,2,15,0.5504778623580933,4.16840934753418,10.85256818722452,10.296903859584315,43.82617421270791,36.83921883774533,0.0001295089750783,0.1013949364423751,0,0,0
3566,132646.70374208,2011-01-12 00:38:23,3571.8035484542247,2,15,0.5501165986061096,4.171970844268799,10.857155492927824,10.296903859584315,43.84530408348751,36.83921883774533,9.71794142969884e-05,0.1013949364423751,0,0,0
3567,132676.71889998394,2011-01-12 00:38:53,3601.8187063581545,2,15,0.550297200679779,4.175693988800049,10.861742869623212,10.296903859584315,43.86445116562194,36.83921883774533,9.70840483205393e-05,0.1013949364423751,0,0,0
3568,132706.73408506057,2011-01-12 00:39:23,3631.833891434808,2,15,0.5501165986061096,4.179417610168457,10.866330223908676,10.296903859584315,43.88361521537265,36.83921883774533,6.47544875391759e-05,0.1013949364423751,0,0,0
3569,132736.74921114018,2011-01-12 00:39:53,3661.849017519433,2,15,0.5501165986061096,4.183140754699707,10.870917555031012,10.296903859584315,43.90279631859227,36.83921883774533,6.47544875391759e-05,0.1013949364423751,0,0,0
3570,132766.76439272315,2011-01-12 00:40:23,3691.864199082329,2,15,0.550297200679779,4.187026023864746,10.875504939386705,10.296903859584315,43.9219948762066,36.83921883774533,9.70840483205393e-05,0.1013949364423751,0,0,0
3571,132796.77952583527,2011-01-12 00:40:53,3721.8793321944695,2,15,0.550297200679779,4.190911293029785,10.88009226875085,10.296903859584315,43.94121062931125,36.83921883774533,0.0001295089750783,0.1013949364423751,0,0,0
3572,132826.7946833282,2011-01-12 00:41:23,3751.894489692387,2,15,0.5501165986061096,4.194634914398193,10.88467962736824,10.296903859584315,43.96044409031676,36.83921883774533,9.71794142969884e-05,0.1013949364423751,0,0,0
3573,132856.80983186877,2011-01-12 00:41:53,3781.909638232981,2,15,0.550297200679779,4.198519706726074,10.88926703428775,10.296903859584315,43.97969538227522,36.83921883774533,9.70840483205393e-05,0.1013949364423751,0,0,0
3574,132867.73167382448,2011-01-12 00:42:04,3792.8314801987262,2,15,0.550297200679779,4.200138568878174,10.890936298051567,10.296903859584315,43.98670497203829,36.83921883774533,0.0001618385285837,0.1013949364423751,0,0,0
3575,132897.75148961652,2011-01-12 00:42:34,30.015196630448195,3,15,0.0,4.102035999298096,10.890936298051567,10.296903859584315,43.98670497203829,36.83921883774533,-0.0004857063177041,0.1013949364423751,0,0,0
3576,132927.76663310453,2011-01-12 00:43:04,60.03034012847404,3,15,0.0,4.089732646942139,10.890936298051567,10.296903859584315,43.98670497203829,36.83921883774533,-0.0002914428769145,0.1013949364423751,0,0,0
3577,132957.78198753827,2011-01-12 00:43:34,90.04569454216663,3,15,0.0,4.08212423324585,10.890936298051567,10.296903859584315,43.98670497203829,36.83921883774533,-0.0001618385285837,0.1013949364423751,0,0,0
3578,132987.75007509842,2011-01-12 00:44:04,120.01378212236652,3,15,0.0,4.077105522155762,10.890936298051567,10.296903859584315,43.98670497203829,36.83921883774533,-0.0001295089750783,0.1013949364423751,0,0,0
3579,132987.75667919108,2011-01-12 00:44:04,2.651608625e-06,4,15,1.035955548286438,4.199814796447754,10.890936298814609,10.296903859584315,43.98670497524292,36.83921883774533,0.0,0.1013949364423751,0,0,0
3580,132988.17851189798,2011-01-12 00:44:05,0.421835403621333,4,15,0.985385000705719,4.199814796447754,10.891053473308476,10.296903859584315,43.98719708497698,36.83921883774533,0.0,0.1013949364423751,0,0,0
3581,132989.7566190215,2011-01-12 00:44:06,1.999942502082112,4,15,0.9353561997413636,4.199814796447754,10.891473440386353,10.296903859584315,43.9889608665944,36.83921883774533,0.0,0.1013949364423751,0,0,0
3582,132992.28783202817,2011-01-12 00:44:09,4.531155533791913,4,15,0.8853274583816528,4.199653148651123,10.892112414785142,10.296903859584315,43.99164445442161,36.83921883774533,0.0,0.1013949364423751,0,0,0
3583,132995.8659400493,2011-01-12 00:44:12,8.109263549924426,4,15,0.8345762491226196,4.199814796447754,10.892966037022838,10.296903859584315,43.9952295216864,36.83921883774533,-3.24249267578125e-05,0.1013949364423751,0,0,0
3584,133000.6316652228,2011-01-12 00:44:17,12.874988708396312,4,15,0.7843668460845947,4.199814796447754,10.894036440056718,10.296903859584315,43.999725031036384,36.83921883774533,-3.24249267578125e-05,0.1013949364423751,0,0,0
3585,133006.74075916462,2011-01-12 00:44:23,18.98408267027052,4,15,0.734338104724884,4.199814796447754,10.8953235255349,10.296903859584315,44.00513056583248,36.83921883774533,0.0,0.1013949364423751,0,0,0
3586,133014.77184906177,2011-01-12 00:44:31,27.01517256238625,4,15,0.6843093037605286,4.199814796447754,10.896903732235936,10.296903859584315,44.01176720963062,36.83921883774533,0.0,0.1013949364423751,0,0,0
3587,133025.56870767052,2011-01-12 00:44:42,37.81203115109966,4,15,0.6342805624008179,4.199814796447754,10.898877199444753,10.296903859584315,44.02005547832865,36.83921883774533,-3.24249267578125e-05,0.1013949364423751,0,0,0
3588,133041.24018678346,2011-01-12 00:44:58,53.483510264042685,4,15,0.5842517614364624,4.199814796447754,10.901522588745898,10.296903859584315,44.03116570671306,36.83921883774533,0.0,0.1013949364423751,0,0,0
3589,133066.7711113331,2011-01-12 00:45:23,79.0144350242142,4,15,0.5342230200767517,4.199814796447754,10.905473035680751,10.296903859584315,44.04775699264758,36.83921883774533,-3.24249267578125e-05,0.1013949364423751,0,0,0
3590,133114.64531157064,2011-01-12 00:46:11,126.88863505120456,4,15,0.4841942191123962,4.199814796447754,10.912208974541956,10.296903859584315,44.07604693688468,36.83921883774533,0.0,0.1013949364423751,0,0,0
3591,133202.03470176,2011-01-12 00:47:38,214.27802526064963,4,15,0.4341654479503631,4.199814796447754,10.923312361198308,10.296903859584315,44.12267949437,36.83921883774533,0.0,0.1013949364423751,0,0,0
3592,133322.8451534631,2011-01-12 00:49:39,335.08847695872794,4,15,0.3841366767883301,4.199653148651123,10.937019056592211,10.296903859584315,44.18024556935635,36.83921883774533,-3.23295607813634e-05,0.1013949364423751,0,0,0
3593,133470.07721092246,2011-01-12 00:52:07,482.3205344180882,4,15,0.334107905626297,4.199814796447754,10.951689044448742,10.296903859584315,44.24185734140764,36.83921883774533,0.0,0.1013949364423751,0,0,0
3594,133646.3245915299,2011-01-12 00:55:03,658.5679150155001,4,15,0.2840791642665863,4.199653148651123,10.966798269566077,10.296903859584315,44.30531379873317,36.83921883774533,-6.47544875391759e-05,0.1013949364423751,0,0,0
3595,133861.94679722178,2011-01-12 00:58:38,874.1901206973533,4,15,0.234050378203392,4.199814796447754,10.98228979134945,10.296903859584315,44.37037583535562,36.83921883774533,0.0,0.1013949364423751,0,0,0
3596,134134.34808891648,2011-01-12 01:03:11,1146.5914124120886,4,15,0.1840216070413589,4.199814796447754,10.998060694153487,10.296903859584315,44.43661133494875,36.83921883774533,-3.24249267578125e-05,0.1013949364423751,0,0,0
3597,134508.7015768641,2011-01-12 01:09:25,1520.9449003697678,4,15,0.1339928358793258,4.199814796447754,11.01447642153393,10.296903859584315,44.505554919874406,36.83921883774533,-3.24249267578125e-05,0.1013949364423751,0,0,0
3598,135109.6609839121,2011-01-12 01:19:26,2121.9043074177184,4,15,0.0839640721678733,4.199976921081543,11.032314342806504,10.296903859584315,44.58047147569844,36.83921883774533,0.0,0.1013949364423751,0,0,0
3599,135880.8987873221,2011-01-12 01:32:17,2893.1421108177306,4,15,0.0498289167881011,4.199814796447754,11.046333336193204,10.296903859584315,44.63934928098367,36.83921883774533,-3.24249267578125e-05,0.1013949364423751,0,0,0
3600,135910.91918671946,2011-01-12 01:32:48,30.015277857891977,5,15,0.0,4.190749645233154,11.046333336193204,10.296903859584315,44.63934928098367,36.83921883774533,-9.70840483205393e-05,0.1013949364423751,0,0,0
3601,135940.91859770723,2011-01-12 01:33:18,60.01468885568648,5,15,0.0,4.189454555511475,11.046333336193204,10.296903859584315,44.63934928098367,36.83921883774533,0.0,0.1013949364423751,0,0,0
3602,135941.11226393515,2011-01-12 01:33:18,0.187629530522225,6,15,-1.9243103452026844e-05,4.1892924308776855,11.046333336193204,10.296903860587252,44.63934928098367,36.83921884194693,0.0,0.1036408320069313,0,0,0
3603,135945.94018719043,2011-01-12 01:33:23,5.015552760726734,6,15,0.0001613661734154,4.189130783081055,11.046334473431672,10.296903860671454,44.63935404539834,36.83921884229967,-6.47544875391759e-05,0.1036408320069313,0,0,0
3604,135974.38336844207,2011-01-12 01:33:51,28.43705539189981,7,15,-1.0997490882873535,3.989039897918701,11.046334473431672,10.30558953126068,44.63935404539834,36.874091766069135,-0.001230287598446,0.1036408320069313,0,0,0
3605,136004.39852901266,2011-01-12 01:34:21,58.45221597751319,7,15,-1.099568486213684,3.95099663734436,11.046334473431672,10.314757099971017,44.63935404539834,36.91047840048026,-0.0009065627818927,0.1036408320069313,0,0,0
3606,136034.41368311713,2011-01-12 01:34:51,88.46737006693607,7,15,-1.099568486213684,3.922990322113037,11.046334473431672,10.323924737078023,44.63935404539834,36.9465656147256,-0.0006475448608398,0.1036408320069313,0,0,0
3607,136064.42885624396,2011-01-12 01:35:21,118.48254320383109,7,15,-1.099568486213684,3.900812149047852,11.046334473431672,10.33309241202154,44.63935404539834,36.98242499926855,-0.0005504131549969,0.1036408320069313,0,0,0
3608,136094.44398952153,2011-01-12 01:35:51,148.49767650143434,7,15,-1.0993878841400146,3.882195234298706,11.046334473431672,10.3422600396173,44.63935404539834,37.01809823306984,-0.0004532813909463,0.1036408320069313,0,0,0
3609,136124.45929161983,2011-01-12 01:36:21,178.5129785847034,7,15,-1.099568486213684,3.86600661277771,11.046334473431672,10.351427728248652,44.63935404539834,37.05361334494605,-0.0004209041653666,0.1036408320069313,0,0,0
3610,136154.47431538947,2011-01-12 01:36:51,208.52800235934177,7,15,-1.099568486213684,3.851274967193604,11.046334473431672,10.360595299908208,44.63935404539834,37.08898694624365,-0.0003885269106831,0.1036408320069313,0,0,0
3611,136184.48960333248,2011-01-12 01:37:21,238.543290292344,7,15,-1.0993878841400146,3.837514638900757,11.046334473431672,10.369763038600636,44.63935404539834,37.12423121471786,-0.0003885269106831,0.1036408320069313,0,0,0
3612,136214.50461207968,2011-01-12 01:37:51,268.5582990395293,7,15,-1.099568486213684,3.824725866317749,11.046334473431672,10.37893067582896,44.63935404539834,37.15935233581823,-0.0002913951757363,0.1036408320069313,0,0,0
3613,136244.51976417913,2011-01-12 01:38:21,298.57345116906754,7,15,-1.0997490882873535,3.811936855316162,11.046334473431672,10.388098354544743,44.63935404539834,37.19435709032273,-0.0003237724304199,0.1036408320069313,0,0,0
3614,136274.53491978234,2011-01-12 01:38:51,328.5886067321632,7,15,-1.099568486213684,3.800119161605835,11.046334473431672,10.397265915509292,44.63935404539834,37.22924883964022,-0.0002590179501567,0.1036408320069313,0,0,0
3615,136304.55031325336,2011-01-12 01:39:21,358.6040002282612,7,15,-1.0993878841400146,3.788625240325928,11.046334473431672,10.4064336411581,44.63935404539834,37.26403396761455,-0.0002913951757363,0.1036408320069313,0,0,0
3616,136334.56523211653,2011-01-12 01:39:51,388.6189190914278,7,15,-1.0993878841400146,3.7776169776916495,11.046334473431672,10.415601219775857,44.63935404539834,37.29871563160545,-0.0002913951757363,0.1036408320069313,0,0,0
3617,136364.58053480127,2011-01-12 01:40:21,418.63422176617104,7,15,-1.099568486213684,3.766932487487793,11.046334473431672,10.424768948506552,44.63935404539834,37.33329894179702,-0.0002913951757363,0.1036408320069313,0,0,0
3618,136394.59779825291,2011-01-12 01:40:51,448.6514852277985,7,15,-1.099568486213684,3.756733655929565,11.046334473431672,10.433937177791602,44.63935404539834,37.3677880216759,-0.0002913951757363,0.1036408320069313,0,0,0
3619,136424.61072128682,2011-01-12 01:41:21,478.6644082517197,7,15,-1.099568486213684,3.746858835220337,11.046334473431672,10.443104218896464,44.63935404539834,37.4021799610396,-0.0002266406954731,0.1036408320069313,0,0,0
3620,136454.62585671476,2011-01-12 01:41:51,508.6795436896573,7,15,-1.0997490882873535,3.7371456623077393,11.046334473431672,10.452271929034223,44.63935404539834,37.436485013800166,-0.0002590179501567,0.1036408320069313,0,0,0
3621,136484.64113674808,2011-01-12 01:42:21,538.6948237129461,7,15,-1.099568486213684,3.7277562618255615,11.046334473431672,10.461439691017208,44.63935404539834,37.4707032393584,-0.0002590179501567,0.1036408320069313,0,0,0
3622,136514.65615977586,2011-01-12 01:42:51,568.7098467507479,7,15,-1.099568486213684,3.718690633773804,11.046334473431672,10.470607244931449,44.63935404539834,37.504835877739104,-0.0002266406954731,0.1036408320069313,0,0,0
3623,136544.67133412577,2011-01-12 01:43:21,598.7250210756038,7,15,-1.099568486213684,3.709786891937256,11.046334473431672,10.479774938372904,44.63935404539834,37.53888625435448,-0.0001942634553415,0.1036408320069313,0,0,0
3624,136574.68651685657,2011-01-12 01:43:52,628.7402038364849,7,15,-1.0997490882873535,3.700721263885498,11.046334473431672,10.488942578976513,44.63935404539834,37.572855500146986,-0.0002913951757363,0.1036408320069313,0,0,0
3625,136604.70175699546,2011-01-12 01:44:22,658.7554439603318,7,15,-1.0993878841400146,3.69246506690979,11.046334473431672,10.498110325936464,44.63935404539834,37.60674547469279,-0.0001942634553415,0.1036408320069313,0,0,0
3626,136634.71678631892,2011-01-12 01:44:52,688.770473298837,7,15,-1.099568486213684,3.684046983718872,11.046334473431672,10.507277985000067,44.63935404539834,37.64055777161216,-0.0002266406954731,0.1036408320069313,0,0,0
3627,136664.73208489848,2011-01-12 01:45:22,718.7857718633363,7,15,-1.0993878841400146,3.675790786743164,11.046334473431672,10.516445751203726,44.63935404539834,37.67429457624931,-0.0001942634553415,0.1036408320069313,0,0,0
3628,136694.74709496394,2011-01-12 01:45:52,748.8007819137697,7,15,-1.099568486213684,3.667858600616455,11.046334473431672,10.525613413506957,44.63935404539834,37.7079564382322,-0.0001618862152099,0.1036408320069313,0,0,0
3629,136724.76224848191,2011-01-12 01:46:22,778.8159354718683,7,15,-1.099568486213684,3.659926176071167,11.046334473431672,10.534781120384654,44.63935404539834,37.74154569318067,-0.0002266406954731,0.1036408320069313,0,0,0
3630,136754.77738567424,2011-01-12 01:46:52,808.8310726641784,7,15,-1.099568486213684,3.652479410171509,11.046334473431672,10.543948814897991,44.63935404539834,37.77506407432504,-0.0001295089750783,0.1036408320069313,0,0,0
3631,136784.7925764501,2011-01-12 01:47:22,838.8462634400352,7,15,-1.099568486213684,3.644708871841431,11.046334473431672,10.553116518145552,44.63935404539834,37.80851246422903,-0.0002266406954731,0.1036408320069313,0,0,0
3632,136814.8077565293,2011-01-12 01:47:52,868.861443504195,7,15,-1.0997490882873535,3.6371002197265625,11.046334473431672,10.56228416716567,44.63935404539834,37.841891584305465,-0.0001942634553415,0.1036408320069313,0,0,0
3633,136844.82302534464,2011-01-12 01:48:22,898.8767123345876,7,15,-1.0993878841400146,3.630139112472534,11.046334473431672,10.571451814920508,44.63935404539834,37.87520323375068,-9.713172767078504e-05,0.1036408320069313,0,0,0
3634,136874.8380624074,2011-01-12 01:48:52,928.8917493823068,7,15,-1.099568486213684,3.622854232788086,11.046334473431672,10.580619422246462,44.63935404539834,37.908448499894455,-0.0001942634553415,0.1036408320069313,0,0,0
3635,136904.8532263564,2011-01-12 01:49:22,958.9069133313026,7,15,-1.099568486213684,3.6158931255340576,11.046334473431672,10.589787160452996,44.63935404539834,37.94162993501603,-0.0001942634553415,0.1036408320069313,0,0,0
3636,136934.86836024548,2011-01-12 01:49:52,988.9220472304052,7,15,-1.099568486213684,3.6090939044952393,11.046334473431672,10.598954852001544,44.63935404539834,37.97474816874332,-0.0001618862152099,0.1036408320069313,0,0,0
3637,136964.88351470084,2011-01-12 01:50:22,1018.9372016757148,7,15,-1.0997490882873535,3.602294683456421,11.046334473431672,10.608122521241478,44.63935404539834,38.00780477445591,-0.0001942634553415,0.1036408320069313,0,0,0
3638,136994.89869928124,2011-01-12 01:50:52,1048.9523862561307,7,15,-1.0993878841400146,3.5959811210632324,11.046334473431672,10.617290256346664,44.63935404539834,38.04080121756018,-0.0001942634553415,0.1036408320069313,0,0,0
3639,137024.9138417968,2011-01-12 01:51:22,1078.967528771708,7,15,-1.099568486213684,3.589344024658203,11.046334473431672,10.626457905035464,44.63935404539834,38.07373786323797,-0.0002266406954731,0.1036408320069313,0,0,0
3640,137054.92910352952,2011-01-12 01:51:52,1108.9827904893734,7,15,-1.099568486213684,3.5831923484802246,11.046334473431672,10.635625702766086,44.63935404539834,38.10661644316925,-0.0001295089750783,0.1036408320069313,0,0,0
3641,137084.94413296328,2011-01-12 01:52:22,1138.997819923116,7,15,-1.0993878841400146,3.577364444732666,11.046334473431672,10.644793467401906,44.63935404539834,38.139438768214674,-0.0001618862152099,0.1036408320069313,0,0,0
3642,137114.95944609406,2011-01-12 01:52:52,1169.0131330489064,7,15,-1.0993878841400146,3.571374654769897,11.046334473431672,10.653961265320415,44.63935404539834,38.17220694581927,-0.0001295089750783,0.1036408320069313,0,0,0
3643,137144.9766612503,2011-01-12 01:53:22,1199.030348215167,7,15,-1.0997490882873535,3.565708637237549,11.046334473431672,10.66312966251307,44.63935404539834,38.20492515437599,-0.0001295089750783,0.1036408320069313,0,0,0
3644,137174.98960679534,2011-01-12 01:53:52,1229.0432937702428,7,15,-1.099568486213684,3.56036639213562,11.046334473431672,10.67229672561778,44.63935404539834,38.23758790216219,-0.0001295089750783,0.1036408320069313,0,0,0
3645,137205.00479527048,2011-01-12 01:54:22,1259.058482230328,7,15,-1.099568486213684,3.5550241470336914,11.046334473431672,10.681464414239755,44.63935404539834,38.27020355777801,-0.0001295089750783,0.1036408320069313,0,0,0
3646,137235.01990974115,2011-01-12 01:54:52,1289.0735967210587,7,15,-1.0993878841400146,3.5500056743621826,11.046334473431672,10.69063210256647,44.63935404539834,38.30277075931054,-9.713172767078504e-05,0.1036408320069313,0,0,0
3647,137265.03530744772,2011-01-12 01:55:22,1319.0889944226378,7,15,-1.099568486213684,3.544663429260254,11.046334473431672,10.699799899359334,44.63935404539834,38.3352912606887,-0.0001295089750783,0.1036408320069313,0,0,0
3648,137295.05022645125,2011-01-12 01:55:52,1349.1039134261546,7,15,-1.099568486213684,3.539644956588745,11.046334473431672,10.708967485653996,44.63935404539834,38.36776496424197,-0.0001618862152099,0.1036408320069313,0,0,0
3649,137325.06540566328,2011-01-12 01:56:22,1379.1190926381903,7,15,-1.099568486213684,3.534950256347656,11.046334473431672,10.718135261858396,44.63935404539834,38.40019421210215,-0.0001295089750783,0.1036408320069313,0,0,0
3650,137355.08053368775,2011-01-12 01:56:52,1409.1342206626516,7,15,-1.099568486213684,3.5300936698913574,11.046334473431672,10.727302989327,44.63935404539834,38.43257886841528,-9.713172767078504e-05,0.1036408320069313,0,0,0
3651,137385.09577177654,2011-01-12 01:57:22,1439.1494588717264,7,15,-1.099568486213684,3.5252370834350586,11.046334473431672,10.736470808221569,44.63935404539834,38.46491969231421,-0.0001618862152099,0.1036408320069313,0,0,0
3652,137415.11086300426,2011-01-12 01:57:52,1469.164549979179,7,15,-1.099568486213684,3.52070426940918,11.046334473431672,10.74563854301766,44.63935404539834,38.49721696467712,-9.713172767078504e-05,0.1036408320069313,0,0,0
3653,137445.1261254187,2011-01-12 01:58:22,1499.1798123735311,7,15,-1.0993878841400146,3.516009569168091,11.046334473431672,10.754806353062614,44.63935404539834,38.52947237901953,-0.0001295089750783,0.1036408320069313,0,0,0
3654,137475.14118620555,2011-01-12 01:58:52,1529.1948731854775,7,15,-1.099568486213684,3.511476993560791,11.046334473431672,10.763974138828784,44.63935404539834,38.56168577979047,-9.70840483205393e-05,0.1036408320069313,0,0,0
3655,137505.15633530257,2011-01-12 01:59:22,1559.2100222774452,7,15,-1.099568486213684,3.507106065750122,11.046334473431672,10.773141931070144,44.63935404539834,38.59385796643596,-9.713172767078504e-05,0.1036408320069313,0,0,0
3656,137535.17150648456,2011-01-12 01:59:52,1589.2251935496931,7,15,-1.099568486213684,3.502573251724243,11.046334473431672,10.782309716578837,44.63935404539834,38.62598869984329,-0.0001295089750783,0.1036408320069313,0,0,0
3657,137565.1867496109,2011-01-12 02:00:22,1619.2404365857983,7,15,-1.0997490882873535,3.4978785514831543,11.046334473431672,10.791477445815737,44.63935404539834,38.65807738784687,-9.713172767078504e-05,0.1036408320069313,0,0,0
3658,137595.20190464266,2011-01-12 02:00:52,1649.2555916025324,7,15,-1.099568486213684,3.4933457374572754,11.046334473431672,10.800645138307654,44.63935404539834,38.690123000082814,-9.713172767078504e-05,0.1036408320069313,0,0,0
3659,137625.21703916832,2011-01-12 02:01:22,1679.2707262334588,7,15,-1.099568486213684,3.4883272647857666,11.046334473431672,10.80981289207898,44.63935404539834,38.722126283203465,-0.0001942634553415,0.1036408320069313,0,0,0
3660,137655.23209304802,2011-01-12 02:01:52,1709.2857800329284,7,15,-1.0993878841400146,3.483794450759888,11.046334473431672,10.818980604380291,44.63935404539834,38.754086144428726,-0.0001295089750783,0.1036408320069313,0,0,0
3661,137685.2474703688,2011-01-12 02:02:22,1739.30115732865,7,15,-1.099568486213684,3.478614091873169,11.046334473431672,10.82814837455606,44.63935404539834,38.78600123666474,-0.0001618862152099,0.1036408320069313,0,0,0
3662,137715.26240013915,2011-01-12 02:02:52,1769.3160871140385,7,15,-1.0993878841400146,3.47375750541687,11.046334473431672,10.837315891834391,44.63935404539834,38.81786918591551,-0.0001295089750783,0.1036408320069313,0,0,0
3663,137745.27757238882,2011-01-12 02:03:22,1799.331259373747,7,15,-1.0997490882873535,3.4682533740997314,11.046334473431672,10.846483558927266,44.63935404539834,38.84968999533727,-0.0001618862152099,0.1036408320069313,0,0,0
3664,137775.29272757098,2011-01-12 02:03:52,1829.346414545868,7,15,-1.0997490882873535,3.4627492427825928,11.046334473431672,10.855651266590824,44.63935404539834,38.88146201697546,-0.0001618862152099,0.1036408320069313,0,0,0
3665,137805.30796895796,2011-01-12 02:04:22,1859.3616559228385,7,15,-1.0993878841400146,3.457245111465454,11.046334473431672,10.864818986891516,44.63935404539834,38.91318299579478,-0.0001618862152099,0.1036408320069313,0,0,0
3666,137835.32302398552,2011-01-12 02:04:52,1889.376710965406,7,15,-1.099568486213684,3.451093435287476,11.046334473431672,10.873986721934164,44.63935404539834,38.94484992323877,-0.0001618862152099,0.1036408320069313,0,0,0
3667,137865.33822433522,2011-01-12 02:05:22,1919.3919113000863,7,15,-1.0997490882873535,3.444456100463867,11.046334473431672,10.883154402028037,44.63935404539834,38.9764591341096,-0.0001942634553415,0.1036408320069313,0,0,0
3668,137895.353484504,2011-01-12 02:05:52,1949.407171468892,7,15,-1.099568486213684,3.437494993209839,11.046334473431672,10.892322138906314,44.63935404539834,39.00800601034499,-0.0001942634553415,0.1036408320069313,0,0,0
3669,137925.36889637593,2011-01-12 02:06:22,1979.4225833508128,7,15,-1.0997490882873535,3.42988657951355,11.046334473431672,10.9014899123787,44.63935404539834,39.039486337455365,-0.0002266406954731,0.1036408320069313,0,0,0
3670,137955.3836665385,2011-01-12 02:06:52,2009.437353513372,7,15,-1.099568486213684,3.421468496322632,11.046334473431672,10.910657484598858,44.63935404539834,39.07089146585176,-0.0001942634553415,0.1036408320069313,0,0,0
3671,137985.3988573845,2011-01-12 02:07:22,2039.452544434591,7,15,-1.099568486213684,3.411593437194824,11.046334473431672,10.91982520797303,44.63935404539834,39.102213800139616,-0.0002913951757363,0.1036408320069313,0,0,0
3672,138015.4141084356,2011-01-12 02:07:52,2069.467795415497,7,15,-1.099568486213684,3.400585174560547,11.046334473431672,10.928992937314089,44.63935404539834,39.13344133206204,-0.0003237724304199,0.1036408320069313,0,0,0
3673,138045.42914842564,2011-01-12 02:08:22,2099.4828354005367,7,15,-1.099568486213684,3.38747239112854,11.046334473431672,10.938160541167557,44.63935404539834,39.16455865363896,-0.0004209041653666,0.1036408320069313,0,0,0
3674,138075.4444141182,2011-01-12 02:08:52,2129.498101103134,7,15,-1.099568486213684,3.371931314468384,11.046334473431672,10.947328269062886,44.63935404539834,39.19554548190706,-0.0004209041653666,0.1036408320069313,0,0,0
3675,138105.45947380236,2011-01-12 02:09:22,2159.5131607772446,7,15,-1.0997490882873535,3.3529906272888184,11.046334473431672,10.956495887950444,44.63935404539834,39.226374328480674,-0.0005827903514727,0.1036408320069313,0,0,0
3676,138135.47459891456,2011-01-12 02:09:52,2189.5282859044846,7,15,-1.0993878841400146,3.329679250717163,11.046334473431672,10.965663635236002,44.63935404539834,39.25701087174145,-0.0007122993702068,0.1036408320069313,0,0,0
3677,138165.48975363554,2011-01-12 02:10:22,2219.5434406104446,7,15,-1.0993878841400146,3.30021595954895,11.046334473431672,10.974831289571414,44.63935404539834,39.287406096737854,-0.0008094310760498,0.1036408320069313,0,0,0
3678,138195.504908552,2011-01-12 02:10:52,2249.5585955269285,7,15,-1.099568486213684,3.261849164962769,11.046334473431672,10.983999035410132,44.63935404539834,39.31749313379027,-0.0011332035064697,0.1036408320069313,0,0,0
3679,138225.52031406306,2011-01-12 02:11:22,2279.5740010229338,7,15,-1.099568486213684,3.2119882106781006,11.046334473431672,10.99316686419801,44.63935404539834,39.34717971995061,-0.0015217304462566,0.1036408320069313,0,0,0
3680,138255.53525419426,2011-01-12 02:11:52,2309.588941154107,7,15,-1.099568486213684,3.144805669784546,11.046334473431672,11.002334548608312,44.63935404539834,39.376335458723176,-0.0020721436012536,0.1036408320069313,0,0,0
3681,138285.5503741937,2011-01-12 02:12:22,2339.604061168605,7,15,-1.0997490882873535,3.050102472305298,11.046334473431672,11.01150221319914,44.63935404539834,39.40475879005387,-0.0030434608925133,0.1036408320069313,0,0,0
3682,138315.56565543503,2011-01-12 02:12:52,2369.6193426004043,7,15,-1.099568486213684,2.9069955348968506,11.046334473431672,11.020670010456616,44.63935404539834,39.432112859077854,-0.0045328140258789,0.1036408320069313,0,0,0
3683,138344.8619460605,2011-01-12 02:13:22,2398.9156330354112,7,15,-1.0997490882873535,2.706904888153076,11.046334473431672,11.029618149981514,44.63935404539834,39.45726666360706,-0.0059573650360107,0.1036408320069313,0,0,0
3684,138345.78380784875,2011-01-12 02:13:23,2399.8374948286496,7,15,-1.099568486213684,2.699943780899048,11.046334473431672,11.029899723850251,44.63935404539834,39.45802791830708,-0.0059897424653172,0.1036408320069313,0,0,0
3685,138405.7952315461,2011-01-12 02:14:23,60.01465190860298,8,15,0.0,3.556319236755371,11.046334473431672,11.029899723850251,44.63935404539834,39.45802791830708,0.0012950897216796,0.1036408320069313,0,0,0
3686,138405.9806450615,2011-01-12 02:14:23,0.187717905780561,9,15,0.0001613661734154,3.556643009185791,11.046334481845928,11.029899723850251,44.63935407532484,39.45802791830708,0.0,0.1013949364423751,0,0,0
3687,138410.80848935997,2011-01-12 02:14:28,5.015562209275425,9,15,0.0008838032954372,3.564413547515869,11.04633558541742,11.029899723850251,44.63935800533333,39.45802791830708,0.0011008263099938,0.1013949364423751,0,0,0
