Data_Point,Test_Time(s),Date_Time,Step_Time(s),Step_Index,Cycle_Index,Current(A),Voltage(V),Charge_Capacity(Ah),Discharge_Capacity(Ah),Charge_Energy(Wh),Discharge_Energy(Wh),dV/dt(V/s),Internal_Resistance(Ohm),Is_FC_Data,AC_Impedance(Ohm),ACI_Phase_Angle(Deg)
10559,406538.6224150052,2011-01-15 04:43:53,30.01508531802338,1,46,0.0,3.627225160598755,31.785454875596503,31.716951084185897,128.76624839764386,112.9499128951032,0.0006475448608398,0.1060699149966239,0,0,0
10560,406568.6375542826,2011-01-15 04:44:23,60.030224595530406,1,46,0.0,3.64729905128479,31.785454875596503,31.716951084185897,128.76624839764386,112.9499128951032,0.0004856586456298,0.1060699149966239,0,0,0
10561,406598.6526300819,2011-01-15 04:44:53,90.04530039984269,1,46,0.0,3.661221265792847,31.785454875596503,31.716951084185897,128.76624839764386,112.9499128951032,0.0003237724304199,0.1060699149966239,0,0,0
10562,406628.6208706134,2011-01-15 04:45:23,120.01354093124402,1,46,0.0,3.671905755996704,31.785454875596503,31.716951084185897,128.76624839764386,112.9499128951032,0.0002590179501567,0.1060699149966239,0,0,0
10563,406658.6514588608,2011-01-15 04:45:53,30.015462954208957,2,46,0.5501165986061096,3.7933199405670166,31.790041449137785,31.716951084185897,128.78355816062356,112.9499128951032,0.0007770538213662,0.1060699149966239,0,0,0
10564,406688.66624959966,2011-01-15 04:46:23,60.03025365796292,2,46,0.5501165986061096,3.814850807189941,31.794627942693506,31.716951084185897,128.80100988502247,112.9499128951032,0.0005180359003134,0.1060699149966239,0,0,0
10565,406718.68133929867,2011-01-15 04:46:53,90.04534335690491,2,46,0.5501165986061096,3.828773021697998,31.79921441417025,31.716951084185897,128.81853961446197,112.9499128951032,0.0003561496851034,0.1060699149966239,0,0,0
10566,406748.696465694,2011-01-15 04:47:23,120.06046975230574,2,46,0.5499359965324402,3.839133501052856,31.803800952949548,31.716951084185897,128.83612507344134,112.9499128951032,0.0002266406954731,0.1060699149966239,0,0,0
10567,406778.7117141235,2011-01-15 04:47:53,150.07571825202814,2,46,0.5501165986061096,3.848522901535034,31.808387374002617,31.716951084185897,128.8537554730738,112.9499128951032,0.0002590179501567,0.1060699149966239,0,0,0
10568,406808.726700891,2011-01-15 04:48:23,180.09070494925817,2,46,0.5501165986061096,3.856617212295532,31.81297388594563,31.716951084185897,128.871425807603,112.9499128951032,0.0001942634553415,0.1060699149966239,0,0,0
10569,406838.7419042782,2011-01-15 04:48:53,210.1059082663716,2,46,0.5499359965324402,3.8640639781951904,31.817560318942917,31.716951084185897,128.8891316022345,112.9499128951032,0.0001618862152099,0.1060699149966239,0,0,0
10570,406868.7569331456,2011-01-15 04:49:23,240.12093720387733,2,46,0.5501165986061096,3.8711869716644287,31.822146726618712,31.716951084185897,128.90687020954334,112.9499128951032,0.0002266406954731,0.1060699149966239,0,0,0
10571,406898.7721658359,2011-01-15 04:49:53,270.13616989419785,2,46,0.5501165986061096,3.877500534057617,31.826733210626795,31.716951084185897,128.92463983476927,112.9499128951032,0.0001618862152099,0.1060699149966239,0,0,0
10572,406928.78724325926,2011-01-15 04:50:23,300.1512473476202,2,46,0.5501165986061096,3.8838140964508057,31.831319653433653,31.716951084185897,128.94243818013868,112.9499128951032,0.0001618862152099,0.1060699149966239,0,0,0
10573,406958.8026251314,2011-01-15 04:50:53,330.1666292147352,2,46,0.5501165986061096,3.8894801139831534,31.835906176060025,31.716951084185897,128.9602643499681,112.9499128951032,9.713172767078504e-05,0.1060699149966239,0,0,0
10574,406988.81733612646,2011-01-15 04:51:23,360.1813402098307,2,46,0.5499359965324402,3.894822359085083,31.84049258715885,31.716951084185897,128.97811601611227,112.9499128951032,6.47544875391759e-05,0.1060699149966239,0,0,0
10575,407018.8327676724,2011-01-15 04:51:53,390.19677175576055,2,46,0.5497553944587708,3.900164604187012,31.84507906334603,31.716951084185897,128.99599248353283,112.9499128951032,0.0001295089750783,0.1060699149966239,0,0,0
10576,407048.8475437196,2011-01-15 04:52:23,420.21154778794846,2,46,0.550297200679779,3.9053449630737305,31.84966541570628,31.716951084185897,129.01389247991753,112.9499128951032,0.0001295089750783,0.1060699149966239,0,0,0
10577,407078.86264866655,2011-01-15 04:52:53,450.22665272988064,2,46,0.5499359965324402,3.9103634357452393,31.854251830614064,31.716951084185897,129.03181568679747,112.9499128951032,0.0001295089750783,0.1060699149966239,0,0,0
10578,407108.8777808012,2011-01-15 04:53:23,480.2417848746106,2,46,0.5501165986061096,3.915057897567749,31.85883839743065,31.716951084185897,129.04976155600593,112.9499128951032,0.0001295089750783,0.1060699149966239,0,0,0
10579,407138.8930593559,2011-01-15 04:53:53,510.2570634342515,2,46,0.5501165986061096,3.919590711593628,31.86342495653427,31.716951084185897,129.06772852365563,112.9499128951032,0.0001295089750783,0.1060699149966239,0,0,0
10580,407168.90800844936,2011-01-15 04:54:23,540.2720125077116,2,46,0.5501165986061096,3.923799753189087,31.868011478958667,31.716951084185897,129.08571561515322,112.9499128951032,9.713172767078504e-05,0.1060699149966239,0,0,0
10581,407198.92311383743,2011-01-15 04:54:53,570.2871178857306,2,46,0.550297200679779,3.928170680999756,31.87259800513146,31.716951084185897,129.1037220558806,112.9499128951032,0.0001618862152099,0.1060699149966239,0,0,0
10582,407228.9382954856,2011-01-15 04:55:23,600.3022995789506,2,46,0.550297200679779,3.931894063949585,31.87718451580792,31.716951084185897,129.12174693573334,112.9499128951032,9.713172767078504e-05,0.1060699149966239,0,0,0
10583,407258.95336087386,2011-01-15 04:55:53,630.3173649272031,2,46,0.5501165986061096,3.935779333114624,31.881771062207573,31.716951084185897,129.13978967866544,112.9499128951032,9.713172767078504e-05,0.1060699149966239,0,0,0
10584,407288.9684619412,2011-01-15 04:56:23,660.3324659894661,2,46,0.5501165986061096,3.939340829849243,31.88635756875794,31.716951084185897,129.1578492757629,112.9499128951032,0.0001295089750783,0.1060699149966239,0,0,0
10585,407318.98357419134,2011-01-15 04:56:53,690.3475782496375,2,46,0.5501165986061096,3.9429023265838623,31.890944064192325,31.716951084185897,129.17592528517386,112.9499128951032,9.713172767078504e-05,0.1060699149966239,0,0,0
10586,407348.9986907171,2011-01-15 04:57:23,720.3626947754403,2,46,0.5501165986061096,3.946301937103272,31.895530589761247,31.716951084185897,129.194017222972,112.9499128951032,9.713172767078504e-05,0.1060699149966239,0,0,0
10587,407379.0138057392,2011-01-15 04:57:53,750.3778097874703,2,46,0.5501165986061096,3.9497015476226807,31.900117138348183,31.716951084185897,129.21212441594784,112.9499128951032,0.0001295089750783,0.1060699149966239,0,0,0
10588,407409.0289095333,2011-01-15 04:58:23,780.3929135915668,2,46,0.5501165986061096,3.95261549949646,31.904703603316044,31.716951084185897,129.23024613720327,112.9499128951032,9.713172767078504e-05,0.1060699149966239,0,0,0
10589,407439.0440443497,2011-01-15 04:58:53,810.4080483127177,2,46,0.5497553944587708,3.955691337585449,31.909290098834465,31.716951084185897,129.24838251860416,112.9499128951032,3.237724376958795e-05,0.1060699149966239,0,0,0
10590,407469.0591405048,2011-01-15 04:59:23,840.4231445680001,2,46,0.550297200679779,3.958929061889648,31.913876676399507,31.716951084185897,129.2665334161321,112.9499128951032,0.0001295089750783,0.1060699149966239,0,0,0
10591,407499.0742608901,2011-01-15 04:59:53,870.4382648631974,2,46,0.5501165986061096,3.9616811275482178,31.918463249637416,31.716951084185897,129.28469812679575,112.9499128951032,3.237724376958795e-05,0.1060699149966239,0,0,0
10592,407529.0893485791,2011-01-15 05:00:23,900.4533526273173,2,46,0.5499359965324402,3.964756965637207,31.923049768886617,31.716951084185897,129.3028762572274,112.9499128951032,6.47544875391759e-05,0.1060699149966239,0,0,0
10593,407559.1044736361,2011-01-15 05:00:53,930.4684776994202,2,46,0.5501165986061096,3.9676709175109854,31.927636380251737,31.716951084185897,129.32106820259452,112.9499128951032,6.47544875391759e-05,0.1060699149966239,0,0,0
10594,407589.119587415,2011-01-15 05:01:23,960.4835914633394,2,46,0.5499359965324402,3.9705848693847656,31.932222919416176,31.716951084185897,129.33927316403222,112.9499128951032,6.47544875391759e-05,0.1060699149966239,0,0,0
10595,407619.1349105007,2011-01-15 05:01:53,990.4989145940652,2,46,0.5501165986061096,3.973498821258545,31.93680947795242,31.716951084185897,129.35749138562937,112.9499128951032,6.47544875391759e-05,0.1060699149966239,0,0,0
10596,407649.1520676824,2011-01-15 05:02:23,1020.5160717808228,2,46,0.550297200679779,3.976412773132324,31.94139626082147,31.716951084185897,129.37572344941856,112.9499128951032,9.713172767078504e-05,0.1060699149966239,0,0,0
10597,407679.16491139866,2011-01-15 05:02:53,1050.5289154920724,2,46,0.5501165986061096,3.9791648387908936,31.9459816448025,31.716951084185897,129.39396232613728,112.9499128951032,9.713172767078504e-05,0.1060699149966239,0,0,0
10598,407709.1800110674,2011-01-15 05:03:23,1080.544015125775,2,46,0.5501165986061096,3.981916904449463,31.950567306134552,31.716951084185897,129.41221539822885,112.9499128951032,6.47544875391759e-05,0.1060699149966239,0,0,0
10599,407739.1952059035,2011-01-15 05:03:53,1110.5592099617509,2,46,0.5499359965324402,3.9845070838928223,31.95515291133995,31.716951084185897,129.43048077398194,112.9499128951032,6.47544875391759e-05,0.1060699149966239,0,0,0
10600,407769.2102377482,2011-01-15 05:04:23,1140.5742418365774,2,46,0.5501165986061096,3.987259149551392,31.95973856039376,31.716951084185897,129.44875875121056,112.9499128951032,9.713172767078504e-05,0.1060699149966239,0,0,0
10601,407799.2254900826,2011-01-15 05:04:53,1170.589494155819,2,46,0.5501165986061096,3.990011215209961,31.96432502107292,31.716951084185897,129.46705226989704,112.9499128951032,6.47544875391759e-05,0.1060699149966239,0,0,0
10602,407829.2404831205,2011-01-15 05:05:24,1200.6044870785647,2,46,0.5501165986061096,3.9924395084381104,31.96891135711637,31.716951084185897,129.4853574332374,112.9499128951032,6.47544875391759e-05,0.1060699149966239,0,0,0
10603,407859.25576587056,2011-01-15 05:05:54,1230.619769953962,2,46,0.5501165986061096,3.9951913356781006,31.973497829033008,31.716951084185897,129.50367516911842,112.9499128951032,6.47544875391759e-05,0.1060699149966239,0,0,0
10604,407889.2707161671,2011-01-15 05:06:24,1260.6347202203954,2,46,0.5501165986061096,3.99761962890625,31.97808426867395,31.716951084185897,129.52200467354584,112.9499128951032,3.237724376958795e-05,0.1060699149966239,0,0,0
10605,407919.2858361966,2011-01-15 05:06:54,1290.6498402549432,2,46,0.5501165986061096,4.000371932983398,31.982670721667557,31.716951084185897,129.54034595931657,112.9499128951032,9.71794142969884e-05,0.1060699149966239,0,0,0
10606,407949.30094164994,2011-01-15 05:07:24,1320.664945713162,2,46,0.5501165986061096,4.002962112426758,31.987257103811345,31.716951084185897,129.55869870707176,112.9499128951032,9.71794142969884e-05,0.1060699149966239,0,0,0
10607,407979.31606934353,2011-01-15 05:07:54,1350.680073391761,2,46,0.5501165986061096,4.005390167236328,31.99184354811486,31.716951084185897,129.57706329905565,112.9499128951032,9.70840483205393e-05,0.1060699149966239,0,0,0
10608,408009.3311504762,2011-01-15 05:08:24,1380.6951545293657,2,46,0.5499359965324402,4.007656574249268,31.996429953102567,31.716951084185897,129.59543934840875,112.9499128951032,0.0,0.1060699149966239,0,0,0
10609,408039.3462767813,2011-01-15 05:08:54,1410.7102808345414,2,46,0.5501165986061096,4.010570526123047,32.001016369561164,31.716951084185897,129.61382695433613,112.9499128951032,9.70840483205393e-05,0.1060699149966239,0,0,0
10610,408069.3614139986,2011-01-15 05:09:24,1440.7254180870011,2,46,0.5501165986061096,4.012836933135986,32.00560281659376,31.716951084185897,129.6322261642111,112.9499128951032,6.47544875391759e-05,0.1060699149966239,0,0,0
10611,408099.3766248847,2011-01-15 05:09:54,1470.7406288576915,2,46,0.5501165986061096,4.015427112579346,32.01018921556833,31.716951084185897,129.6506366603406,112.9499128951032,9.70840483205393e-05,0.1060699149966239,0,0,0
10612,408129.39173502446,2011-01-15 05:10:24,1500.755739012616,2,46,0.5501165986061096,4.017855644226074,32.01477571939165,31.716951084185897,129.6690590414939,112.9499128951032,6.47544875391759e-05,0.1060699149966239,0,0,0
10613,408159.4067229998,2011-01-15 05:10:54,1530.7707270481817,2,46,0.5501165986061096,4.020445823669434,32.01936212615469,31.716951084185897,129.68749236815393,112.9499128951032,6.47544875391759e-05,0.1060699149966239,0,0,0
10614,408189.4218446535,2011-01-15 05:11:24,1560.785848606527,2,46,0.5501165986061096,4.022873878479004,32.02394854124531,31.716951084185897,129.70593725685416,112.9499128951032,6.47544875391759e-05,0.1060699149966239,0,0,0
10615,408219.4369962216,2011-01-15 05:11:54,1590.801000294966,2,46,0.5501165986061096,4.025464057922363,32.02853496565359,31.716951084185897,129.7243935828909,112.9499128951032,9.70840483205393e-05,0.1060699149966239,0,0,0
10616,408249.45208263234,2011-01-15 05:12:24,1620.8160866104754,2,46,0.5501165986061096,4.027892589569092,32.03312136492016,31.716951084185897,129.74286134002725,112.9499128951032,6.47544875391759e-05,0.1060699149966239,0,0,0
10617,408279.4672054087,2011-01-15 05:12:54,1650.831209361794,2,46,0.5499359965324402,4.030320644378662,32.03770781830243,31.716951084185897,129.76134082629395,112.9499128951032,6.47544875391759e-05,0.1060699149966239,0,0,0
10618,408309.4823094584,2011-01-15 05:13:24,1680.8463135318025,2,46,0.5501165986061096,4.0329108238220215,32.04229429812794,31.716951084185897,129.77983190395298,112.9499128951032,6.47544875391759e-05,0.1060699149966239,0,0,0
10619,408339.4974138941,2011-01-15 05:13:54,1710.8614179424103,2,46,0.5501165986061096,4.035338878631592,32.046880810200285,31.716951084185897,129.79833469528378,112.9499128951032,3.23295607813634e-05,0.1060699149966239,0,0,0
10620,408369.5126297776,2011-01-15 05:14:24,1740.8766338659427,2,46,0.5501165986061096,4.037929058074951,32.051467320928374,31.716951084185897,129.81684907938336,112.9499128951032,6.47544875391759e-05,0.1060699149966239,0,0,0
10621,408399.5276406702,2011-01-15 05:14:54,1770.8916447434374,2,46,0.5501165986061096,4.04035758972168,32.05605380986372,31.716951084185897,129.8353749225776,112.9499128951032,6.47544875391759e-05,0.1060699149966239,0,0,0
10622,408429.54274524114,2011-01-15 05:15:24,1800.9067493846203,2,46,0.5501165986061096,4.04310941696167,32.06064023673083,31.716951084185897,129.85391219410656,112.9499128951032,6.47544875391759e-05,0.1060699149966239,0,0,0
10623,408459.5600340358,2011-01-15 05:15:54,1830.9240381493105,2,46,0.5501165986061096,4.045699596405029,32.06522705046477,31.716951084185897,129.87246286763866,112.9499128951032,9.70840483205393e-05,0.1060699149966239,0,0,0
10624,408489.572957546,2011-01-15 05:16:24,1860.936961604306,2,46,0.5501165986061096,4.048128128051758,32.06981320883035,31.716951084185897,129.89102266655283,112.9499128951032,6.47544875391759e-05,0.1060699149966239,0,0,0
10625,408519.5880730693,2011-01-15 05:16:54,1890.9520770273605,2,46,0.550297200679779,4.050879955291748,32.07439975949842,31.716951084185897,129.90959588761334,112.9499128951032,9.70840483205393e-05,0.1060699149966239,0,0,0
10626,408549.60320598097,2011-01-15 05:17:24,1920.967210039252,2,46,0.550297200679779,4.053308486938477,32.078986521117294,31.716951084185897,129.9281819623248,112.9499128951032,3.24249267578125e-05,0.1060699149966239,0,0,0
10627,408579.6185116432,2011-01-15 05:17:54,1950.9825157265027,2,46,0.5501165986061096,4.056060314178467,32.08357377691724,31.716951084185897,129.9467820934329,112.9499128951032,9.70840483205393e-05,0.1060699149966239,0,0,0
10628,408609.6334372531,2011-01-15 05:18:24,1980.9974413114223,2,46,0.5499359965324402,4.058650493621826,32.08816103627672,31.716951084185897,129.96539437395833,112.9499128951032,6.47544875391759e-05,0.1060699149966239,0,0,0
10629,408639.6485169221,2011-01-15 05:18:54,2011.0125208801169,2,46,0.5501165986061096,4.0612406730651855,32.09274828080572,31.716951084185897,129.98401859866323,112.9499128951032,9.70840483205393e-05,0.1060699149966239,0,0,0
10630,408669.6636687158,2011-01-15 05:19:24,2041.0276726738173,2,46,0.5501165986061096,4.063992977142334,32.097335181429266,31.716951084185897,130.0026535283375,112.9499128951032,6.47544875391759e-05,0.1060699149966239,0,0,0
10631,408699.6788297374,2011-01-15 05:19:54,2071.0428338709557,2,46,0.5499359965324402,4.066583156585693,32.10192154125406,31.716951084185897,130.0212986359974,112.9499128951032,6.47544875391759e-05,0.1060699149966239,0,0,0
10632,408729.6939361981,2011-01-15 05:20:24,2101.057940276535,2,46,0.5501165986061096,4.069497108459473,32.10650792725981,31.716951084185897,130.03995623281702,112.9499128951032,9.71794142969884e-05,0.1060699149966239,0,0,0
10633,408759.7090100526,2011-01-15 05:20:54,2131.0730140558007,2,46,0.550297200679779,4.072411060333252,32.11109426238382,31.716951084185897,130.05862618716037,112.9499128951032,0.0001295089750783,0.1060699149966239,0,0,0
10634,408789.7241266035,2011-01-15 05:21:24,2161.088130666816,2,46,0.550297200679779,4.075162887573242,32.11568057703863,31.716951084185897,130.07730873237645,112.9499128951032,9.70840483205393e-05,0.1060699149966239,0,0,0
10635,408819.73938709806,2011-01-15 05:21:54,2191.1033912015328,2,46,0.5501165986061096,4.077915191650391,32.120266937414364,31.716951084185897,130.09600420049253,112.9499128951032,0.0001295089750783,0.1060699149966239,0,0,0
10636,408849.7543393194,2011-01-15 05:22:24,2221.1183433727133,2,46,0.5499359965324402,4.08050537109375,32.12485317361288,31.716951084185897,130.11471198191933,112.9499128951032,6.47544875391759e-05,0.1060699149966239,0,0,0
10637,408879.7694841959,2011-01-15 05:22:54,2251.1334882792494,2,46,0.550297200679779,4.083419322967529,32.129439513075816,31.716951084185897,130.13343315640864,112.9499128951032,9.71794142969884e-05,0.1060699149966239,0,0,0
10638,408909.7846023257,2011-01-15 05:23:24,2281.14860640905,2,46,0.5499359965324402,4.086333274841309,32.1340258323662,31.716951084185897,130.1521673131365,112.9499128951032,9.71794142969884e-05,0.1060699149966239,0,0,0
10639,408939.80000347085,2011-01-15 05:23:54,2311.1640075391747,2,46,0.5501165986061096,4.089085102081299,32.13861215138999,31.716951084185897,130.1709146452412,112.9499128951032,9.70840483205393e-05,0.1060699149966239,0,0,0
10640,408969.8147793075,2011-01-15 05:24:24,2341.178783441038,2,46,0.550297200679779,4.091999053955078,32.143198399289965,31.716951084185897,130.18967500992272,112.9499128951032,9.70840483205393e-05,0.1060699149966239,0,0,0
10641,408999.8299028959,2011-01-15 05:24:54,2371.1939069743053,2,46,0.5501165986061096,4.095075130462647,32.14778468902179,31.716951084185897,130.20844902856626,112.9499128951032,9.71794142969884e-05,0.1060699149966239,0,0,0
10642,409029.8450147802,2011-01-15 05:25:24,2401.2090188284647,2,46,0.5497553944587708,4.097665309906006,32.152371025707644,31.716951084185897,130.22723688111296,112.9499128951032,3.24249267578125e-05,0.1060699149966239,0,0,0
10643,409059.86028290377,2011-01-15 05:25:54,2431.2242869771585,2,46,0.550297200679779,4.101064682006836,32.15695741829828,31.716951084185897,130.24603868228152,112.9499128951032,9.70840483205393e-05,0.1060699149966239,0,0,0
10644,409089.87526186166,2011-01-15 05:26:24,2461.2392659100374,2,46,0.5499359965324402,4.104140758514404,32.161543748186965,31.716951084185897,130.26485410848733,112.9499128951032,9.71794142969884e-05,0.1060699149966239,0,0,0
10645,409119.89038194646,2011-01-15 05:26:54,2491.2543859094976,2,46,0.550297200679779,4.107216358184815,32.16613009474028,31.716951084185897,130.28368379721115,112.9499128951032,9.70840483205393e-05,0.1060699149966239,0,0,0
10646,409149.9054613346,2011-01-15 05:27:24,2521.26946539298,2,46,0.5501165986061096,4.110292434692383,32.17071645137815,31.716951084185897,130.30252763437508,112.9499128951032,9.71794142969884e-05,0.1060699149966239,0,0,0
10647,409179.9205967326,2011-01-15 05:27:54,2551.2846007908174,2,46,0.5501165986061096,4.113530158996582,32.175302775708374,31.716951084185897,130.32138568132487,112.9499128951032,0.0001619339018361,0.1060699149966239,0,0,0
10648,409209.9357019552,2011-01-15 05:28:24,2581.299705918212,2,46,0.5499359965324402,4.116443634033203,32.17988909163757,31.716951084185897,130.34025815110817,112.9499128951032,6.47544875391759e-05,0.1060699149966239,0,0,0
10649,409239.9508138694,2011-01-15 05:28:54,2611.3148180430458,2,46,0.550297200679779,4.119843482971191,32.18447543318266,31.716951084185897,130.3591453028019,112.9499128951032,0.0001295089750783,0.1060699149966239,0,0,0
10650,409269.96591480135,2011-01-15 05:29:24,2641.3299187794964,2,46,0.5499359965324402,4.122757434844971,32.18906170605142,31.716951084185897,130.37804685552825,112.9499128951032,6.47544875391759e-05,0.1060699149966239,0,0,0
10651,409299.98105743225,2011-01-15 05:29:54,2671.345061490561,2,46,0.5501165986061096,4.126156806945801,32.19364800946481,31.716951084185897,130.39696323255853,112.9499128951032,9.70840483205393e-05,0.1060699149966239,0,0,0
10652,409329.9961750257,2011-01-15 05:30:24,2701.3601790739995,2,46,0.550297200679779,4.12939453125,32.198234348731305,31.716951084185897,130.41589475194291,112.9499128951032,6.47544875391759e-05,0.1060699149966239,0,0,0
10653,409360.01125294034,2011-01-15 05:30:54,2731.3752570236597,2,46,0.5501165986061096,4.132794380187988,32.20282073125439,31.716951084185897,130.43484159221103,112.9499128951032,6.47544875391759e-05,0.1060699149966239,0,0,0
10654,409390.0263643934,2011-01-15 05:31:24,2761.390368446744,2,46,0.5499359965324402,4.136032104492188,32.20740703153157,31.716951084185897,130.45380315345233,112.9499128951032,9.71794142969884e-05,0.1060699149966239,0,0,0
10655,409420.0415026283,2011-01-15 05:31:54,2791.4055066966903,2,46,0.550297200679779,4.139593601226807,32.21199340753155,31.716951084185897,130.47278049177405,112.9499128951032,9.71794142969884e-05,0.1060699149966239,0,0,0
10656,409450.05655651307,2011-01-15 05:32:24,2821.4205605863845,2,46,0.5499359965324402,4.142669200897217,32.21657974260132,31.716951084185897,130.4917731633987,112.9499128951032,9.70840483205393e-05,0.1060699149966239,0,0,0
10657,409480.07170815126,2011-01-15 05:32:54,2851.435712239736,2,46,0.5501165986061096,4.146230697631836,32.2211660535217,31.716951084185897,130.51078144063226,112.9499128951032,9.70840483205393e-05,0.1060699149966239,0,0,0
10658,409510.0868407472,2011-01-15 05:33:24,2881.4508447152903,2,46,0.5499359965324402,4.149792194366455,32.22575231516161,31.716951084185897,130.52980538506242,112.9499128951032,9.70840483205393e-05,0.1060699149966239,0,0,0
10659,409540.102000165,2011-01-15 05:33:54,2911.4660043435174,2,46,0.5499359965324402,4.153192043304443,32.23033860494459,31.716951084185897,130.54884546618803,112.9499128951032,6.47544875391759e-05,0.1060699149966239,0,0,0
10660,409570.1192938067,2011-01-15 05:34:24,2941.4832978851136,2,46,0.5501165986061096,4.156753540039063,32.23492523105456,31.716951084185897,130.56790294663256,112.9499128951032,6.47544875391759e-05,0.1060699149966239,0,0,0
10661,409600.1322685846,2011-01-15 05:34:54,2971.4962726529966,2,46,0.5501165986061096,4.160315036773682,32.239511132373416,31.716951084185897,130.5869736892593,112.9499128951032,6.47544875391759e-05,0.1060699149966239,0,0,0
10662,409630.1472988104,2011-01-15 05:35:24,3001.5113027634256,2,46,0.5501165986061096,4.164038181304932,32.244097406480186,31.716951084185897,130.60606237604463,112.9499128951032,9.70840483205393e-05,0.1060699149966239,0,0,0
10663,409660.1624416167,2011-01-15 05:35:54,3031.5264456749896,2,46,0.550297200679779,4.167599678039551,32.24868361784645,31.716951084185897,130.62516717674973,112.9499128951032,0.0001295089750783,0.1060699149966239,0,0,0
10664,409690.17753217777,2011-01-15 05:36:24,3061.541536236081,2,46,0.5501165986061096,4.17116117477417,32.25326987997863,31.716951084185897,130.64428886555643,112.9499128951032,9.70840483205393e-05,0.1060699149966239,0,0,0
10665,409720.1926652849,2011-01-15 05:36:54,3091.5566693432093,2,46,0.550297200679779,4.174884796142578,32.257856163606995,31.716951084185897,130.66342733002944,112.9499128951032,9.71794142969884e-05,0.1060699149966239,0,0,0
10666,409750.2078030737,2011-01-15 05:37:25,3121.5718071320057,2,46,0.5499359965324402,4.178446292877197,32.262442396466604,31.716951084185897,130.68258235983296,112.9499128951032,6.47544875391759e-05,0.1060699149966239,0,0,0
10667,409780.22288430657,2011-01-15 05:37:55,3151.58688838991,2,46,0.5499359965324402,4.182169437408447,32.267028684352525,31.716951084185897,130.70175458999708,112.9499128951032,6.47544875391759e-05,0.1060699149966239,0,0,0
10668,409810.2379853588,2011-01-15 05:38:25,3181.6019894070605,2,46,0.5501165986061096,4.186054706573486,32.27161504464833,31.716951084185897,130.72094416751477,112.9499128951032,0.0001618385285837,0.1060699149966239,0,0,0
10669,409840.2531194384,2011-01-15 05:38:55,3211.6171234966378,2,46,0.5501165986061096,4.189778327941895,32.27620132624739,31.716951084185897,130.7401508366191,112.9499128951032,9.71794142969884e-05,0.1060699149966239,0,0,0
10670,409870.26823653554,2011-01-15 05:39:25,3241.6322405988776,2,46,0.5501165986061096,4.1935014724731445,32.28078758138127,31.716951084185897,130.759374775767,112.9499128951032,9.70840483205393e-05,0.1060699149966239,0,0,0
10671,409900.2833266254,2011-01-15 05:39:55,3271.647330673756,2,46,0.550297200679779,4.197548389434815,32.285373844069255,31.716951084185897,130.77861626561557,112.9499128951032,0.0001295089750783,0.1060699149966239,0,0,0
10672,409919.0797930082,2011-01-15 05:40:13,3290.443796991348,2,46,0.550297200679779,4.200138568878174,32.28824589997291,31.716951084185897,130.7906748873858,112.9499128951032,0.0001942634553415,0.1060699149966239,0,0,0
10673,409949.1036522123,2011-01-15 05:40:44,30.015127543261663,3,46,0.0,4.094265460968018,32.28824589997291,31.716951084185897,130.7906748873858,112.9499128951032,-0.0005180359003134,0.1060699149966239,0,0,0
10674,409979.1188028281,2011-01-15 05:41:14,60.03027825426448,3,46,0.0,4.08082914352417,32.28824589997291,31.716951084185897,130.7906748873858,112.9499128951032,-0.0002590179501567,0.1060699149966239,0,0,0
10675,410009.1338771938,2011-01-15 05:41:44,90.04535250470403,3,46,0.0,4.072087287902832,32.28824589997291,31.716951084185897,130.7906748873858,112.9499128951032,-0.0001942634553415,0.1060699149966239,0,0,0
10676,410039.1021267226,2011-01-15 05:42:14,120.01360203854222,3,46,0.0,4.0659356117248535,32.28824589997291,31.716951084185897,130.7906748873858,112.9499128951032,-0.0001942634553415,0.1060699149966239,0,0,0
10677,410039.1130487854,2011-01-15 05:42:14,0.015778981075912,4,46,1.0354137420654297,4.199814796447754,32.28825043824333,31.716951084185897,130.79069394728106,112.9499128951032,0.0,0.1060699149966239,0,0,0
10678,410039.6755021223,2011-01-15 05:42:14,0.578232332891206,4,46,0.984843134880066,4.199814796447754,32.288406790151086,31.716951084185897,130.79135060194648,112.9499128951032,0.0,0.1060699149966239,0,0,0
10679,410041.3942747475,2011-01-15 05:42:16,2.297005028301305,4,46,0.9346337914466858,4.199814796447754,32.288863913743576,31.716951084185897,130.79327042695755,112.9499128951032,0.0,0.1060699149966239,0,0,0
10680,410044.1129670352,2011-01-15 05:42:19,5.015697210740616,4,46,0.8844243884086609,4.199976921081543,32.28954987691974,31.716951084185897,130.79615136023605,112.9499128951032,3.24249267578125e-05,0.1060699149966239,0,0,0
10681,410047.8941128842,2011-01-15 05:42:23,8.796843059625527,4,46,0.8338537812232971,4.199814796447754,32.29045134095705,31.716951084185897,130.79993736660188,112.9499128951032,0.0,0.1060699149966239,0,0,0
10682,410052.925270126,2011-01-15 05:42:28,13.828000306533204,4,46,0.7834637761116028,4.199814796447754,32.2915803248173,31.716951084185897,130.80467895283007,112.9499128951032,0.0,0.1060699149966239,0,0,0
10683,410059.37816521607,2011-01-15 05:42:34,20.28089538657886,4,46,0.7334350347518921,4.199814796447754,32.292938107918765,31.716951084185897,130.8103814747899,112.9499128951032,-3.24249267578125e-05,0.1060699149966239,0,0,0
10684,410067.8312785054,2011-01-15 05:42:42,28.73400869590364,4,46,0.6834062337875366,4.199976921081543,32.294598907461285,31.716951084185897,130.81735661743838,112.9499128951032,0.0,0.1060699149966239,0,0,0
10685,410079.3465795186,2011-01-15 05:42:54,40.24930969416083,4,46,0.6333774924278259,4.199814796447754,32.296700635153435,31.716951084185897,130.82618360049403,112.9499128951032,0.0,0.1060699149966239,0,0,0
10686,410096.28417644673,2011-01-15 05:43:11,57.18690664733643,4,46,0.5833486914634705,4.199814796447754,32.29955491852071,31.716951084185897,130.83817124786427,112.9499128951032,0.0,0.1060699149966239,0,0,0
10687,410124.5335617921,2011-01-15 05:43:39,85.43629197268577,4,46,0.5333199501037598,4.199814796447754,32.303917526950016,31.716951084185897,130.85649363068262,112.9499128951032,-3.24249267578125e-05,0.1060699149966239,0,0,0
10688,410179.8002585506,2011-01-15 05:44:34,140.70298883640766,4,46,0.4832911789417267,4.199814796447754,32.31167709359982,31.716951084185897,130.8890827715391,112.9499128951032,0.0,0.1060699149966239,0,0,0
10689,410277.8745588437,2011-01-15 05:46:12,238.7772890191709,4,46,0.4332624077796936,4.199653148651123,32.32412144368633,31.716951084185897,130.94134734238918,112.9499128951032,-3.23295607813634e-05,0.1060699149966239,0,0,0
10690,410413.8408818965,2011-01-15 05:48:28,374.74361208704767,4,46,0.3832336366176605,4.199814796447754,32.33952135191507,31.716951084185897,131.006024886923,112.9499128951032,0.0,0.1060699149966239,0,0,0
10691,410576.6974583547,2011-01-15 05:51:11,537.6001885452974,4,46,0.3332048654556274,4.199814796447754,32.35570020750026,31.716951084185897,131.07397393197004,112.9499128951032,0.0,0.1060699149966239,0,0,0
10692,410772.9128585059,2011-01-15 05:54:28,733.8155886964436,4,46,0.2831760942935943,4.199814796447754,32.372467691535114,31.716951084185897,131.14439521221843,112.9499128951032,0.0,0.1060699149966239,0,0,0
10693,411013.1431575531,2011-01-15 05:58:28,974.0458877336592,4,46,0.2331473380327224,4.199653148651123,32.389656723482375,31.716951084185897,131.21658692987,112.9499128951032,-3.23295607813634e-05,0.1060699149966239,0,0,0
10694,411319.6380324726,2011-01-15 06:03:34,1280.5407626731237,4,46,0.1829379498958587,4.199976921081543,32.40730709083491,31.716951084185897,131.29071607125408,112.9499128951032,3.24249267578125e-05,0.1060699149966239,0,0,0
10695,411736.5371433184,2011-01-15 06:10:31,1697.4398735139887,4,46,0.1329091787338256,4.199814796447754,32.42547839145733,31.716951084185897,131.36703319730412,112.9499128951032,3.23295607813634e-05,0.1060699149966239,0,0,0
10696,412397.2757595893,2011-01-15 06:21:32,2358.1784897548505,4,46,0.0828804150223732,4.199653148651123,32.444905557472204,31.716951084185897,131.44862466049614,112.9499128951032,-6.47544875391759e-05,0.1060699149966239,0,0,0
10697,413229.38661065936,2011-01-15 06:35:24,3190.28934083485,4,46,0.0498289167881011,4.199814796447754,32.459922418405206,31.716951084185897,131.5116935244173,112.9499128951032,0.0,0.1060699149966239,0,0,0
10698,413259.3888006555,2011-01-15 06:35:54,30.01512207964465,5,46,0.0,4.1901021003723145,32.459922418405206,31.716951084185897,131.5116935244173,112.9499128951032,0.0,0.1060699149966239,0,0,0
10699,413289.38827755256,2011-01-15 06:36:24,60.01459897668034,5,46,0.0,4.188321113586426,32.459922418405206,31.716951084185897,131.5116935244173,112.9499128951032,-3.24249267578125e-05,0.1060699149966239,0,0,0
10700,413289.5794704676,2011-01-15 06:36:25,0.187424945633733,6,46,-1.9243103452026844e-05,4.188159465789795,32.459922418405206,31.716951085187738,131.5116935244173,112.94991289929908,0.0,0.1094075143337249,0,0,0
10701,413294.40765107423,2011-01-15 06:36:29,5.015605562324563,6,46,0.0008838032954372,4.188321113586426,32.45992328874787,31.71695108543919,131.5116971697047,112.94991290035222,-3.24249267578125e-05,0.1094075143337249,0,0,0
10702,413311.1923391602,2011-01-15 06:36:46,16.780997634489033,7,46,-1.099568486213684,3.9882304668426514,32.45992328874787,31.722076471129327,131.5116971697047,112.97045841487568,-0.0017159462440758,0.1094075143337249,0,0,0
10703,413341.2074187189,2011-01-15 06:37:16,46.79607717812085,7,46,-1.0993878841400146,3.936750650405884,32.45992328874787,31.73124382093121,131.5116971697047,113.00677383708756,-0.0011979580158367,0.1094075143337249,0,0,0
10704,413371.2225668383,2011-01-15 06:37:46,76.81122530267744,7,46,-1.0993878841400146,3.897574424743652,32.45992328874787,31.74041119411281,131.5116971697047,113.04267622013133,-0.0009713172912597,0.1094075143337249,0,0,0
10705,413401.2377189628,2011-01-15 06:38:16,106.82637744725317,7,46,-1.099568486213684,3.8669779300689697,32.45992328874787,31.749578517052488,131.5116971697047,113.07826082767887,-0.0007446765666827,0.1094075143337249,0,0,0
10706,413431.25276649673,2011-01-15 06:38:46,136.8414249610568,7,46,-1.0993878841400146,3.842371225357056,32.45992328874787,31.758745833857887,131.5116971697047,113.11359368487358,-0.0006151676061563,0.1094075143337249,0,0,0
10707,413461.2678630628,2011-01-15 06:39:16,166.85652152711376,7,46,-1.0997490882873535,3.8221356868743896,32.45992328874787,31.767913140337868,131.5116971697047,113.14872322248615,-0.0005180359003134,0.1094075143337249,0,0,0
10708,413491.28298518254,2011-01-15 06:39:46,196.87164364184585,7,46,-1.099568486213684,3.804490089416504,32.45992328874787,31.77708042207305,131.5116971697047,113.18368025032626,-0.0004856586456298,0.1094075143337249,0,0,0
10709,413521.29810482106,2011-01-15 06:40:16,226.88676328541905,7,46,-1.099568486213684,3.7887871265411377,32.45992328874787,31.786247760933605,131.5116971697047,113.218484744216,-0.0004209041653666,0.1094075143337249,0,0,0
10710,413551.3133601428,2011-01-15 06:40:46,256.9020187926062,7,46,-1.099568486213684,3.774541139602661,32.45992328874787,31.795415148451195,131.5116971697047,113.25315188773912,-0.0003561496851034,0.1094075143337249,0,0,0
10711,413581.32843063393,2011-01-15 06:41:16,286.917089118264,7,46,-1.099568486213684,3.761266469955444,32.45992328874787,31.80458245692172,131.5116971697047,113.2876919676656,-0.0003237724304199,0.1094075143337249,0,0,0
10712,413611.3435689992,2011-01-15 06:41:46,316.93222747848483,7,46,-1.0993878841400146,3.748801469802856,32.45992328874787,31.81374984539461,131.5116971697047,113.32211436634788,-0.0002913951757363,0.1094075143337249,0,0,0
10713,413641.358543496,2011-01-15 06:42:16,346.9472019552577,7,46,-1.099568486213684,3.7368218898773193,32.45992328874787,31.822917190280226,131.5116971697047,113.35642483950288,-0.0002913951757363,0.1094075143337249,0,0,0
10714,413671.3738763509,2011-01-15 06:42:46,376.9625348102194,7,46,-1.099568486213684,3.725651741027832,32.45992328874787,31.832084627070145,131.5116971697047,113.39063020436193,-0.0003237724304199,0.1094075143337249,0,0,0
10715,413701.3910422093,2011-01-15 06:43:16,406.97970078888926,7,46,-1.099568486213684,3.7148053646087646,32.45992328874787,31.841252611199288,131.5116971697047,113.4247373012376,-0.0002913951757363,0.1094075143337249,0,0,0
10716,413731.4040156688,2011-01-15 06:43:46,436.9926741382369,7,46,-1.099568486213684,3.704606533050537,32.45992328874787,31.850419356849244,131.5116971697047,113.45874362274012,-0.0002913951757363,0.1094075143337249,0,0,0
10717,413761.41900775454,2011-01-15 06:44:16,467.0076662138715,7,46,-1.099568486213684,3.6947314739227295,32.45992328874787,31.859586707886624,131.5116971697047,113.49265951989932,-0.0002590179501567,0.1094075143337249,0,0,0
10718,413791.4341610018,2011-01-15 06:44:46,497.02281949628303,7,46,-1.099568486213684,3.684856414794922,32.45992328874787,31.86875421166785,131.5116971697047,113.52648577808408,-0.0002590179501567,0.1094075143337249,0,0,0
10719,413821.44922336267,2011-01-15 06:45:16,527.0378818220025,7,46,-1.0997490882873535,3.675467014312744,32.45992328874787,31.877921596790504,131.5116971697047,113.56022370790842,-0.0002590179501567,0.1094075143337249,0,0,0
10720,413851.4644591207,2011-01-15 06:45:46,557.0531176200685,7,46,-1.099568486213684,3.666563510894776,32.45992328874787,31.88708911515688,131.5116971697047,113.5938773720496,-0.0002266406954731,0.1094075143337249,0,0,0
10721,413881.4795772204,2011-01-15 06:46:17,587.0682356947315,7,46,-1.099568486213684,3.6578216552734375,32.45992328874787,31.89625652279512,131.5116971697047,113.62744915361756,-0.0001942634553415,0.1094075143337249,0,0,0
10722,413911.4945870252,2011-01-15 06:46:47,617.0832454895277,7,46,-1.099568486213684,3.6490797996521,32.45992328874787,31.905423847319565,131.5116971697047,113.66094079562302,-0.0002266406954731,0.1094075143337249,0,0,0
10723,413941.5096776765,2011-01-15 06:47:17,647.0983361308183,7,46,-1.099568486213684,3.640499830245972,32.45992328874787,31.914591191422097,131.5116971697047,113.69435334373938,-0.0002266406954731,0.1094075143337249,0,0,0
10724,413971.5248391995,2011-01-15 06:47:47,677.1134976587803,7,46,-1.099568486213684,3.632243633270264,32.45992328874787,31.92375857692969,131.5116971697047,113.72768906133604,-0.0002266406954731,0.1094075143337249,0,0,0
10725,414001.5399278909,2011-01-15 06:48:17,707.1285863702612,7,46,-1.0997490882873535,3.623987436294556,32.45992328874787,31.9329260164652,131.5116971697047,113.76094965072602,-0.0001942634553415,0.1094075143337249,0,0,0
10726,414031.5550268981,2011-01-15 06:48:47,737.1436853623646,7,46,-1.099568486213684,3.616055011749268,32.45992328874787,31.94209340605937,131.5116971697047,113.79413590397544,-0.0001942634553415,0.1094075143337249,0,0,0
10727,414061.57014107297,2011-01-15 06:49:17,767.158799532296,7,46,-1.0993878841400146,3.6082844734191895,32.45992328874787,31.951260781208244,131.5116971697047,113.82725003564737,-0.0001942634553415,0.1094075143337249,0,0,0
10728,414091.5852415137,2011-01-15 06:49:47,797.1738999730097,7,46,-1.099568486213684,3.6005139350891118,32.45992328874787,31.960428215874416,131.5116971697047,113.86029366357566,-0.0002266406954731,0.1094075143337249,0,0,0
10729,414121.60035557335,2011-01-15 06:50:17,827.1890140326661,7,46,-1.0997490882873535,3.593229055404663,32.45992328874787,31.96959557265233,131.5116971697047,113.89326801352207,-0.0001942634553415,0.1094075143337249,0,0,0
10730,414151.6156122335,2011-01-15 06:50:47,857.2042707328264,7,46,-1.0993878841400146,3.585944414138794,32.45992328874787,31.97876299551261,131.5116971697047,113.9261750087686,-0.0001942634553415,0.1094075143337249,0,0,0
10731,414181.63057987817,2011-01-15 06:51:17,887.2192383424843,7,46,-1.0993878841400146,3.5789833068847656,32.45992328874787,31.987930317659437,131.5116971697047,113.95901541142698,-0.0001942634553415,0.1094075143337249,0,0,0
10732,414211.6457124088,2011-01-15 06:51:47,917.2343708932262,7,46,-1.099568486213684,3.5716984272003174,32.45992328874787,31.997097635123662,131.5116971697047,113.99179152905911,-0.0002266406954731,0.1094075143337249,0,0,0
10733,414241.66081102,2011-01-15 06:52:17,947.2494694793176,7,46,-1.099568486213684,3.565061092376709,32.45992328874787,32.00626508993907,131.5116971697047,114.0245052385399,-0.0001942634553415,0.1094075143337249,0,0,0
10734,414271.6759474053,2011-01-15 06:52:47,977.2646058646164,7,46,-1.0993878841400146,3.5587475299835205,32.45992328874787,32.01543247202574,131.5116971697047,114.05715829913132,-0.0001618862152099,0.1094075143337249,0,0,0
10735,414301.6910886978,2011-01-15 06:53:17,1007.2797472674202,7,46,-1.0993878841400146,3.552272081375122,32.45992328874787,32.024599862687886,131.5116971697047,114.08975214292602,-0.0001618862152099,0.1094075143337249,0,0,0
10736,414331.7063018445,2011-01-15 06:53:47,1037.2949603288196,7,46,-1.0997490882873535,3.546120405197144,32.45992328874787,32.03376733734789,131.5116971697047,114.12228890826528,-0.0001618862152099,0.1094075143337249,0,0,0
10737,414361.7213343759,2011-01-15 06:54:17,1067.30999283522,7,46,-1.099568486213684,3.540130615234375,32.45992328874787,32.042934621861306,131.5116971697047,114.15476940061968,-0.0001618862152099,0.1094075143337249,0,0,0
10738,414391.7364191977,2011-01-15 06:54:47,1097.325077662019,7,46,-1.099568486213684,3.5344645977020264,32.45992328874787,32.0521020529136,131.5116971697047,114.18719656601095,-0.0001295089750783,0.1094075143337249,0,0,0
10739,414421.7515090119,2011-01-15 06:55:17,1127.340167471236,7,46,-1.099568486213684,3.528636693954468,32.45992328874787,32.06126944786776,131.5116971697047,114.21957110000784,-0.0001618862152099,0.1094075143337249,0,0,0
10740,414451.7667193216,2011-01-15 06:55:47,1157.3553778008268,7,46,-1.099568486213684,3.523132562637329,32.45992328874787,32.070436933380954,131.5116971697047,114.25189445528164,-0.0001295089750783,0.1094075143337249,0,0,0
10741,414481.781708535,2011-01-15 06:56:17,1187.3703669892657,7,46,-1.099568486213684,3.5176284313201904,32.45992328874787,32.079604340698715,131.5116971697047,114.28416707500146,-0.0001295089750783,0.1094075143337249,0,0,0
10742,414511.799021104,2011-01-15 06:56:47,1217.3876795783335,7,46,-1.099568486213684,3.5122861862182617,32.45992328874787,32.08877239589744,131.5116971697047,114.31639256944035,-0.0001618862152099,0.1094075143337249,0,0,0
10743,414541.81195657887,2011-01-15 06:57:17,1247.4006150382493,7,46,-1.099568486213684,3.507106065750122,32.45992328874787,32.09793919156436,131.5116971697047,114.34856572750422,-0.0001295089750783,0.1094075143337249,0,0,0
10744,414571.8270505936,2011-01-15 06:57:47,1277.4157090529472,7,46,-1.0993878841400146,3.5020875930786133,32.45992328874787,32.10710657831575,131.5116971697047,114.38069329231408,-9.713172767078504e-05,0.1094075143337249,0,0,0
10745,414601.84216851793,2011-01-15 06:58:17,1307.4308269822482,7,46,-1.0993878841400146,3.4970691204071045,32.45992328874787,32.116273993183626,131.5116971697047,114.4127740542842,-9.713172767078504e-05,0.1094075143337249,0,0,0
10746,414631.85731282295,2011-01-15 06:58:47,1337.4459713023227,7,46,-1.099568486213684,3.4918887615203857,32.45992328874787,32.12544140819773,131.5116971697047,114.444808682969,-0.0001618862152099,0.1094075143337249,0,0,0
10747,414661.8725611422,2011-01-15 06:59:17,1367.4612197218453,7,46,-1.0993878841400146,3.486870288848877,32.45992328874787,32.134608885037125,131.5116971697047,114.47679839856175,-0.0001295089750783,0.1094075143337249,0,0,0
10748,414691.88751047134,2011-01-15 06:59:47,1397.4761689356549,7,46,-1.0997490882873535,3.482013702392578,32.45992328874787,32.14377629473581,131.5116971697047,114.50874333900563,-0.0001942634553415,0.1094075143337249,0,0,0
10749,414721.9026114384,2011-01-15 07:00:17,1427.491269897668,7,46,-1.099568486213684,3.4769952297210693,32.45992328874787,32.15294363399232,131.5116971697047,114.54064214140156,-0.0001295089750783,0.1094075143337249,0,0,0
10750,414751.917737528,2011-01-15 07:00:47,1457.5063959873066,7,46,-1.099568486213684,3.4721386432647705,32.45992328874787,32.16211099728761,131.5116971697047,114.572495110334,-9.713172767078504e-05,0.1094075143337249,0,0,0
10751,414781.93283418426,2011-01-15 07:01:17,1487.521492648601,7,46,-1.099568486213684,3.466958284378052,32.45992328874787,32.17127837733937,131.5116971697047,114.60430133294236,-0.0001618862152099,0.1094075143337249,0,0,0
10752,414811.94794816873,2011-01-15 07:01:47,1517.5366066280576,7,46,-1.0997490882873535,3.461777925491333,32.45992328874787,32.180445822740914,131.5116971697047,114.63606124847152,-0.0001295089750783,0.1094075143337249,0,0,0
10753,414841.96310137096,2011-01-15 07:02:17,1547.5517599255063,7,46,-1.099568486213684,3.4562737941741943,32.45992328874787,32.189613286215945,131.5116971697047,114.66777282083764,-0.0001942634553415,0.1094075143337249,0,0,0
10754,414871.97831426194,2011-01-15 07:02:47,1577.5669727212437,7,46,-1.099568486213684,3.450769662857056,32.45992328874787,32.19878074907476,131.5116971697047,114.6994341768464,-0.0001618862152099,0.1094075143337249,0,0,0
10755,414901.9932909242,2011-01-15 07:03:17,1607.5819493784509,7,46,-1.099568486213684,3.445103645324707,32.45992328874787,32.20794816555697,131.5116971697047,114.73104250185312,-0.0001295089750783,0.1094075143337249,0,0,0
10756,414932.00840997626,2011-01-15 07:03:47,1637.5970684355625,7,46,-1.0993878841400146,3.4389519691467285,32.45992328874787,32.21711562348596,131.5116971697047,114.76259629563576,-0.0001618862152099,0.1094075143337249,0,0,0
10757,414962.0235171136,2011-01-15 07:04:17,1667.6121755729664,7,46,-1.099568486213684,3.43247652053833,32.45992328874787,32.22628305225102,131.5116971697047,114.79409295897432,-0.0002266406954731,0.1094075143337249,0,0,0
10758,414992.0389087902,2011-01-15 07:04:47,1697.6275672645672,7,46,-1.099568486213684,3.425677537918091,32.45992328874787,32.23545060723043,131.5116971697047,114.82553021254412,-0.0002266406954731,0.1094075143337249,0,0,0
10759,415022.0538674877,2011-01-15 07:05:17,1727.6425259870755,7,46,-1.099568486213684,3.4185545444488525,32.45992328874787,32.2446180417674,131.5116971697047,114.85690372875344,-0.0002266406954731,0.1094075143337249,0,0,0
10760,415052.0688852473,2011-01-15 07:05:47,1757.6575437066226,7,46,-1.0997490882873535,3.4107840061187744,32.45992328874787,32.25378546473388,131.5116971697047,114.88820900107687,-0.0002913951757363,0.1094075143337249,0,0,0
10761,415082.0839986052,2011-01-15 07:06:17,1787.6726570595174,7,46,-1.099568486213684,3.4025278091430664,32.45992328874787,32.26295289268879,131.5116971697047,114.91944136727253,-0.0002266406954731,0.1094075143337249,0,0,0
10762,415112.0994330484,2011-01-15 07:06:47,1817.6880916480304,7,46,-1.0997490882873535,3.3936240673065186,32.45992328874787,32.27212040770294,131.5116971697047,114.95059480089056,-0.0002590179501567,0.1094075143337249,0,0,0
10763,415142.1143151499,2011-01-15 07:07:17,1847.702973624264,7,46,-1.0997490882873535,3.383425235748291,32.45992328874787,32.28128773102023,131.5116971697047,114.98165973383831,-0.0002913951757363,0.1094075143337249,0,0,0
10764,415172.12941370095,2011-01-15 07:07:47,1877.71807220033,7,46,-1.099568486213684,3.371931314468384,32.45992328874787,32.290455182989305,131.5116971697047,115.01262561339918,-0.0003237724304199,0.1094075143337249,0,0,0
10765,415202.1443998568,2011-01-15 07:08:17,1907.7330583161108,7,46,-1.0993878841400146,3.358332872390747,32.45992328874787,32.299622560936115,131.5116971697047,115.04347570327282,-0.0003237724304199,0.1094075143337249,0,0,0
10766,415232.1595692193,2011-01-15 07:08:47,1937.7482276785995,7,46,-1.099568486213684,3.34214448928833,32.45992328874787,32.308790018150184,131.5116971697047,115.07419053456012,-0.0004532813909463,0.1094075143337249,0,0,0
10767,415262.1746988077,2011-01-15 07:09:17,1967.7633573571825,7,46,-1.099568486213684,3.3228800296783447,32.45992328874787,32.31795750891101,131.5116971697047,115.1047442710083,-0.0005504131549969,0.1094075143337249,0,0,0
10768,415292.1897903612,2011-01-15 07:09:47,1997.7784488255345,7,46,-1.099568486213684,3.2987589836120605,32.45992328874787,32.32712495177451,131.5116971697047,115.1350993387199,-0.0006799221155233,0.1094075143337249,0,0,0
10769,415322.204892406,2011-01-15 07:10:17,2027.7935508602209,7,46,-1.0993878841400146,3.268648386001587,32.45992328874787,32.33629235371295,131.5116971697047,115.1652064943814,-0.0008741378551349,0.1094075143337249,0,0,0
10770,415352.22004306177,2011-01-15 07:10:47,2057.808701536136,7,46,-1.099568486213684,3.2297956943511963,32.45992328874787,32.345459817310726,131.5116971697047,115.19500062509331,-0.0011332035064697,0.1094075143337249,0,0,0
10771,415382.2351440739,2011-01-15 07:11:17,2087.8238025382493,7,46,-1.099568486213684,3.178963661193848,32.45992328874787,32.3546272873964,131.5116971697047,115.22438834188024,-0.0015541076427325,0.1094075143337249,0,0,0
10772,415412.2502322992,2011-01-15 07:11:47,2117.8388907585054,7,46,-1.0997490882873535,3.109838485717773,32.45992328874787,32.36379473798337,131.5116971697047,115.2532312831204,-0.0021368502639234,0.1094075143337249,0,0,0
10773,415442.2653437975,2011-01-15 07:12:17,2147.8540022567786,7,46,-1.099568486213684,3.012545108795166,32.45992328874787,32.372962144972924,131.5116971697047,115.28132370441868,-0.0030434608925133,0.1094075143337249,0,0,0
10774,415472.2806495198,2011-01-15 07:12:47,2177.8693080392677,7,46,-1.0993878841400146,2.86976170539856,32.45992328874787,32.382129703206445,131.5116971697047,115.30832938887504,-0.0044356822036206,0.1094075143337249,0,0,0
10775,415498.998764794,2011-01-15 07:13:14,2204.5874232533392,7,46,-1.0993878841400146,2.699943780899048,32.45992328874787,32.39029019400651,131.5116971697047,115.33107478019318,-0.0054069519974291,0.1094075143337249,0,0,0
10776,415559.0080615967,2011-01-15 07:14:14,60.01473546685585,8,46,0.0,3.5882108211517334,32.45992328874787,32.39029019400651,131.5116971697047,115.33107478019318,0.0012627125252038,0.1094075143337249,0,0,0
10777,415559.1909682544,2011-01-15 07:14:15,0.187451777507017,9,46,-1.9243103452026844e-05,3.588372707366944,32.45992328874787,32.3902901950085,131.5116971697047,115.33107478378868,0.0,0.10382841527462,0,0,0
10778,415564.01900940354,2011-01-15 07:14:19,5.015492901539221,9,46,0.0007031940040178,3.5958192348480225,32.45992414001035,32.39029019509267,131.5117002279532,115.33107478409072,0.001068401383236,0.10382841527462,0,0,0
