Data_Point,Test_Time(s),Date_Time,Step_Time(s),Step_Index,Cycle_Index,Current(A),Voltage(V),Charge_Capacity(Ah),Discharge_Capacity(Ah),Charge_Energy(Wh),Discharge_Energy(Wh),dV/dt(V/s),Internal_Resistance(Ohm),Is_FC_Data,AC_Impedance(Ohm),ACI_Phase_Angle(Deg)
1743,65091.11599651498,2011-01-11 05:52:19,30.015144345137116,1,8,0.0,3.580116510391236,5.213760908042179,5.214951923708464,21.05845580788434,18.6777325343018,0.0007446765666827,0.1020214408636093,0,0,0
1744,65121.13099647526,2011-01-11 05:52:49,60.03014429038527,1,8,0.0,3.603104114532471,5.213760908042179,5.214951923708464,21.05845580788434,18.6777325343018,0.0005180359003134,0.1020214408636093,0,0,0
1745,65151.14615845434,2011-01-11 05:53:19,90.04530628952159,1,8,0.0,3.619616508483887,5.213760908042179,5.214951923708464,21.05845580788434,18.6777325343018,0.0003885269106831,0.1020214408636093,0,0,0
1746,65181.1145678867,2011-01-11 05:53:49,120.01371571686356,1,8,0.0,3.632243633270264,5.213760908042179,5.214951923708464,21.05845580788434,18.6777325343018,0.0003237724304199,0.1020214408636093,0,0,0
1747,65211.1296462702,2011-01-11 05:54:19,30.01513598429933,2,8,0.550297200679779,3.759000062942505,5.218347523540842,5.214951923708464,21.075595785288947,18.6777325343018,0.0010036944877356,0.1020214408636093,0,0,0
1748,65241.14477982846,2011-01-11 05:54:49,60.0302695525772,2,8,0.5499359965324402,3.7844161987304688,5.222934148307123,5.214951923708464,21.092900391252005,18.6777325343018,0.0005180359003134,0.1020214408636093,0,0,0
1749,65271.1601512746,2011-01-11 05:55:19,90.04564099871989,2,8,0.5501165986061096,3.799633502960205,5.2275207039091,5.214951923708464,21.110295744200226,18.6777325343018,0.0003237724304199,0.1020214408636093,0,0,0
1750,65301.17522332956,2011-01-11 05:55:49,120.0607130837626,2,8,0.5499359965324402,3.8098323345184326,5.232107307852459,5.214951923708464,21.127747470450675,18.6777325343018,0.0002590179501567,0.1020214408636093,0,0,0
1751,65331.19019478882,2011-01-11 05:56:19,150.07568449790247,2,8,0.5501165986061096,3.81792664527893,5.236693788654732,5.214951923708464,21.145240134545336,18.6777325343018,0.0001942634553415,0.1020214408636093,0,0,0
1752,65361.20532505888,2011-01-11 05:56:49,180.09081476294764,2,8,0.5501165986061096,3.825211524963379,5.241280296443518,5.214951923708464,21.16276805300297,18.6777325343018,0.0001942634553415,0.1020214408636093,0,0,0
1753,65391.22060683653,2011-01-11 05:57:19,210.10609656567132,2,8,0.5501165986061096,3.831686973571777,5.245866858566098,5.214951923708464,21.18032792791388,18.6777325343018,0.0001295089750783,0.1020214408636093,0,0,0
1754,65421.23559914275,2011-01-11 05:57:49,240.1210888568432,2,8,0.5501165986061096,3.8380002975463863,5.250453388910495,5.214951923708464,21.197917133594306,18.6777325343018,0.0001295089750783,0.1020214408636093,0,0,0
1755,65451.25071910712,2011-01-11 05:58:19,270.13620881620346,2,8,0.5501165986061096,3.8439900875091553,5.255039976731157,5.214951923708464,21.21553447227305,18.6777325343018,0.0001942634553415,0.1020214408636093,0,0,0
1756,65481.26586356755,2011-01-11 05:58:49,300.1513533016904,2,8,0.5501165986061096,3.849494218826294,5.25962670213557,5.214951923708464,21.23317878193396,18.6777325343018,9.713172767078504e-05,0.1020214408636093,0,0,0
1757,65511.28101167205,2011-01-11 05:59:19,330.166501386147,2,8,0.5501165986061096,3.854836463928223,5.264213416811826,5.214951923708464,21.25084805845741,18.6777325343018,0.0001295089750783,0.1020214408636093,0,0,0
1758,65541.29612217785,2011-01-11 05:59:49,360.18161189194603,2,8,0.5501165986061096,3.860016822814941,5.268800078563893,5.214951923708464,21.26854115273504,18.6777325343018,0.0001295089750783,0.1020214408636093,0,0,0
1759,65571.31139163481,2011-01-11 06:00:19,390.1968813689503,2,8,0.550297200679779,3.86503529548645,5.273386801919485,5.214951923708464,21.286257609056065,18.6777325343018,0.0001295089750783,0.1020214408636093,0,0,0
1760,65601.32652146877,2011-01-11 06:00:49,420.2120111778587,2,8,0.5501165986061096,3.869891881942749,5.277973489090878,5.214951923708464,21.303996321282277,18.6777325343018,0.0001295089750783,0.1020214408636093,0,0,0
1761,65631.34155632604,2011-01-11 06:01:19,450.2270460351183,2,8,0.550297200679779,3.874586582183838,5.282560155860697,5.214951923708464,21.321756758372977,18.6777325343018,0.0001618862152099,0.1020214408636093,0,0,0
1762,65661.35670785408,2011-01-11 06:01:49,480.2421975631573,2,8,0.5501165986061096,3.878957509994507,5.287146825261812,5.214951923708464,21.339538413003137,18.6777325343018,6.47544875391759e-05,0.1020214408636093,0,0,0
1763,65691.37183469058,2011-01-11 06:02:19,510.2573243996576,2,8,0.5501165986061096,3.8834903240203857,5.291733545044111,5.214951923708464,21.35734100012008,18.6777325343018,9.713172767078504e-05,0.1020214408636093,0,0,0
1764,65721.387252392,2011-01-11 06:02:49,540.2727421060952,2,8,0.5501165986061096,3.8880231380462646,5.296320260243329,5.214951923708464,21.37516372979871,18.6777325343018,0.0001295089750783,0.1020214408636093,0,0,0
1765,65751.40211879442,2011-01-11 06:03:19,570.2876085085136,2,8,0.550297200679779,3.892232179641724,5.300906907662637,5.214951923708464,21.39300583588302,18.6777325343018,0.0001618862152099,0.1020214408636093,0,0,0
1766,65781.41722796188,2011-01-11 06:03:49,600.3027176709645,2,8,0.5501165986061096,3.8961174488067623,5.305493682750615,5.214951923708464,21.410867280905364,18.6777325343018,0.0001295089750783,0.1020214408636093,0,0,0
1767,65811.4323812042,2011-01-11 06:04:19,630.3178709132762,2,8,0.5501165986061096,3.899840831756592,5.310080342185304,5.214951923708464,21.42874640778749,18.6777325343018,6.47544875391759e-05,0.1020214408636093,0,0,0
1768,65841.44770958801,2011-01-11 06:04:49,660.3331994123816,2,8,0.5501165986061096,3.903726100921631,5.314667128025005,5.214951923708464,21.446643622015163,18.6777325343018,6.47544875391759e-05,0.1020214408636093,0,0,0
1769,65871.46266096721,2011-01-11 06:05:19,690.348150686326,2,8,0.5501165986061096,3.90728759765625,5.319253797071723,5.214951923708464,21.464557202094785,18.6777325343018,6.47544875391759e-05,0.1020214408636093,0,0,0
1770,65901.47778574358,2011-01-11 06:05:49,720.3632754476541,2,8,0.550297200679779,3.910849094390869,5.323840412113125,5.214951923708464,21.48248657635617,18.6777325343018,9.713172767078504e-05,0.1020214408636093,0,0,0
1771,65931.49294145705,2011-01-11 06:06:19,750.3784311711496,2,8,0.5501165986061096,3.9139246940612793,5.328427086342405,5.214951923708464,21.50043156151801,18.6777325343018,6.470680091297254e-05,0.1020214408636093,0,0,0
1772,65961.5080631357,2011-01-11 06:06:49,780.3935528548074,2,8,0.5499359965324402,3.9171624183654794,5.333013781285023,5.214951923708464,21.51839108681806,18.6777325343018,0.0001295089750783,0.1020214408636093,0,0,0
1773,65991.52319721023,2011-01-11 06:07:19,810.4086869193221,2,8,0.5501165986061096,3.920076370239258,5.337600418145011,5.214951923708464,21.53636425432535,18.6777325343018,3.237724376958795e-05,0.1020214408636093,0,0,0
1774,66021.53845506327,2011-01-11 06:07:49,840.4239447924058,2,8,0.5501165986061096,3.922828435897827,5.342187158639338,5.214951923708464,21.554351053494585,18.6777325343018,6.47544875391759e-05,0.1020214408636093,0,0,0
1775,66051.55347212117,2011-01-11 06:08:19,870.4389618302538,2,8,0.5499359965324402,3.925580501556397,5.346773838620385,5.214951923708464,21.572350371423912,18.6777325343018,6.47544875391759e-05,0.1020214408636093,0,0,0
1776,66081.56861038115,2011-01-11 06:08:49,900.4541000952373,2,8,0.5501165986061096,3.928170680999756,5.351360573387375,5.214951923708464,21.59036208519477,18.6777325343018,6.47544875391759e-05,0.1020214408636093,0,0,0
1777,66111.5837492376,2011-01-11 06:09:19,930.469238951695,2,8,0.5501165986061096,3.9307608604431152,5.355947245467867,5.214951923708464,21.608385476051943,18.6777325343018,6.47544875391759e-05,0.1020214408636093,0,0,0
1778,66141.59893920143,2011-01-11 06:09:49,960.484428915528,2,8,0.550297200679779,3.9333510398864746,5.360533999343688,5.214951923708464,21.62642077653072,18.6777325343018,6.47544875391759e-05,0.1020214408636093,0,0,0
1779,66171.613994244,2011-01-11 06:10:19,990.4994839580957,2,8,0.5501165986061096,3.935779333114624,5.365120719765522,5.214951923708464,21.64446727384987,18.6777325343018,6.47544875391759e-05,0.1020214408636093,0,0,0
1780,66201.62925275367,2011-01-11 06:10:49,1020.5147424978408,2,8,0.5501165986061096,3.938207626342773,5.369707439986304,5.214951923708464,21.662524756490544,18.6777325343018,6.47544875391759e-05,0.1020214408636093,0,0,0
1781,66231.64454343352,2011-01-11 06:11:19,1050.530033147614,2,8,0.5501165986061096,3.940474033355713,5.374294102434996,5.214951923708464,21.680592953026338,18.6777325343018,6.47544875391759e-05,0.1020214408636093,0,0,0
1782,66261.65947038685,2011-01-11 06:11:49,1080.544960100944,2,8,0.5501165986061096,3.942740440368652,5.37888079776105,5.214951923708464,21.698672069694915,18.6777325343018,3.237724376958795e-05,0.1020214408636093,0,0,0
1783,66291.67459846144,2011-01-11 06:12:19,1110.56008817553,2,8,0.5501165986061096,3.945006847381592,5.383467454354473,5.214951923708464,21.71676165327756,18.6777325343018,6.47544875391759e-05,0.1020214408636093,0,0,0
1784,66321.68985677061,2011-01-11 06:12:49,1140.5753464847005,2,8,0.5499359965324402,3.9472732543945312,5.388054146289118,5.214951923708464,21.734861883070423,18.6777325343018,3.237724376958795e-05,0.1020214408636093,0,0,0
1785,66351.70737581924,2011-01-11 06:13:19,1170.592865528317,2,8,0.5501165986061096,3.9497015476226807,5.392641129175614,5.214951923708464,21.75297369970182,18.6777325343018,6.47544875391759e-05,0.1020214408636093,0,0,0
1786,66381.72004984257,2011-01-11 06:13:49,1200.6055396519016,2,8,0.5501165986061096,3.95180606842041,5.39722744131645,5.214951923708464,21.771093322163505,18.6777325343018,3.237724376958795e-05,0.1020214408636093,0,0,0
1787,66411.73514371691,2011-01-11 06:14:19,1230.6206334310127,2,8,0.550297200679779,3.95423436164856,5.401814142095057,5.214951923708464,21.789224748782992,18.6777325343018,6.47544875391759e-05,0.1020214408636093,0,0,0
1788,66441.75027760098,2011-01-11 06:14:49,1260.6357673100647,2,8,0.5501165986061096,3.956500768661499,5.406400843315342,5.214951923708464,21.80736647446792,18.6777325343018,6.47544875391759e-05,0.1020214408636093,0,0,0
1789,66471.76542927438,2011-01-11 06:15:19,1290.6509189834665,2,8,0.5501165986061096,3.958605289459229,5.410987532104675,5.214951923708464,21.825518222868904,18.6777325343018,3.237724376958795e-05,0.1020214408636093,0,0,0
1790,66501.78067761872,2011-01-11 06:15:49,1320.6661673428391,2,8,0.5501165986061096,3.960709810256958,5.415574269005314,5.214951923708464,21.84368033623571,18.6777325343018,3.237724376958795e-05,0.1020214408636093,0,0,0
1791,66531.7956871228,2011-01-11 06:16:20,1350.6811768318737,2,8,0.5499359965324402,3.962814331054688,5.42016099131966,5.214951923708464,21.861852425086592,18.6777325343018,3.237724376958795e-05,0.1020214408636093,0,0,0
1792,66561.811003231,2011-01-11 06:16:50,1380.6964929801968,2,8,0.550297200679779,3.965080738067627,5.424747728594777,5.214951923708464,21.88003450706262,18.6777325343018,3.237724376958795e-05,0.1020214408636093,0,0,0
1793,66591.82597944212,2011-01-11 06:17:20,1410.7114691562049,2,8,0.5501165986061096,3.9673471450805664,5.429334485496444,5.214951923708464,21.898226581779387,18.6777325343018,6.47544875391759e-05,0.1020214408636093,0,0,0
1794,66621.84110987256,2011-01-11 06:17:50,1440.7265995766372,2,8,0.5501165986061096,3.969289779663086,5.433921253564999,5.214951923708464,21.91642843834039,18.6777325343018,6.47544875391759e-05,0.1020214408636093,0,0,0
1795,66651.85625209742,2011-01-11 06:18:20,1470.7417418115149,2,8,0.5501165986061096,3.9715561866760254,5.438507977514982,5.214951923708464,21.93463994217774,18.6777325343018,6.47544875391759e-05,0.1020214408636093,0,0,0
1796,66681.87137895398,2011-01-11 06:18:50,1500.756868668065,2,8,0.550297200679779,3.973660707473755,5.443094724889487,5.214951923708464,21.952861329326968,18.6777325343018,6.47544875391759e-05,0.1020214408636093,0,0,0
1797,66711.88652750458,2011-01-11 06:19:20,1530.7720172186837,2,8,0.5501165986061096,3.9759271144866943,5.447681484579081,5.214951923708464,21.971092529946407,18.6777325343018,6.47544875391759e-05,0.1020214408636093,0,0,0
1798,66741.90177882634,2011-01-11 06:19:50,1560.787268560489,2,8,0.5501165986061096,3.977869749069214,5.452268281844825,5.214951923708464,21.98933360718525,18.6777325343018,3.237724376958795e-05,0.1020214408636093,0,0,0
1799,66771.9168135984,2011-01-11 06:20:20,1590.8023033124864,2,8,0.5501165986061096,3.979974269866944,5.456854928343968,5.214951923708464,22.00758353541861,18.6777325343018,6.47544875391759e-05,0.1020214408636093,0,0,0
1800,66801.93207175218,2011-01-11 06:20:50,1620.8175614913323,2,8,0.5501165986061096,3.982240676879883,5.46144148855895,5.214951923708464,22.025843115324268,18.6777325343018,3.237724376958795e-05,0.1020214408636093,0,0,0
1801,66831.94708876997,2011-01-11 06:21:20,1650.8325784790557,2,8,0.5499359965324402,3.9841833114624015,5.466028142927055,5.214951923708464,22.044112711178208,18.6777325343018,3.237724376958795e-05,0.1020214408636093,0,0,0
1802,66861.9622231553,2011-01-11 06:21:50,1680.8477128643697,2,8,0.5501165986061096,3.986287832260132,5.470614886415597,5.214951923708464,22.06239239757646,18.6777325343018,0.0,0.1020214408636093,0,0,0
1803,66891.97735531506,2011-01-11 06:22:20,1710.862845024137,2,8,0.550297200679779,3.988392353057861,5.475201574120315,5.214951923708464,22.080681582498062,18.6777325343018,6.47544875391759e-05,0.1020214408636093,0,0,0
1804,66921.99248075308,2011-01-11 06:22:50,1740.8779704671645,2,8,0.550297200679779,3.990658760070801,5.479788185948558,5.214951923708464,22.09898011968656,18.6777325343018,3.237724376958795e-05,0.1020214408636093,0,0,0
1805,66952.00765103284,2011-01-11 06:23:20,1770.8931407469386,2,8,0.5501165986061096,3.9927632808685294,5.484374860261574,5.214951923708464,22.117288677163536,18.6777325343018,6.47544875391759e-05,0.1020214408636093,0,0,0
1806,66982.02278517756,2011-01-11 06:23:50,1800.908274891653,2,8,0.5501165986061096,3.9948675632476807,5.488961520778871,5.214951923708464,22.135606913236582,18.6777325343018,6.47544875391759e-05,0.1020214408636093,0,0,0
1807,67012.0379002347,2011-01-11 06:24:20,1830.923389948796,2,8,0.5501165986061096,3.99697208404541,5.493548172383714,5.214951923708464,22.153934932509703,18.6777325343018,3.237724376958795e-05,0.1020214408636093,0,0,0
1808,67042.05304595827,2011-01-11 06:24:50,1860.938535667356,2,8,0.5499359965324402,3.99907660484314,5.498134865601864,5.214951923708464,22.17227286544997,18.6777325343018,3.237724376958795e-05,0.1020214408636093,0,0,0
1809,67072.07055748817,2011-01-11 06:25:20,1890.9560472974952,2,8,0.5499359965324402,4.001181125640869,5.502721910939791,5.214951923708464,22.19062208826989,18.6777325343018,6.47544875391759e-05,0.1020214408636093,0,0,0
1810,67102.0832913306,2011-01-11 06:25:50,1920.9687810446808,2,8,0.550297200679779,4.003447532653809,5.507308164606176,5.214951923708464,22.20897803199392,18.6777325343018,6.47544875391759e-05,0.1020214408636093,0,0,0
1811,67132.09846873813,2011-01-11 06:26:20,1950.9839584421943,2,8,0.5501165986061096,4.005552291870117,5.511894839753209,5.214951923708464,22.22734558988948,18.6777325343018,6.47544875391759e-05,0.1020214408636093,0,0,0
1812,67162.11360322368,2011-01-11 06:26:50,1980.9990929377832,2,8,0.5501165986061096,4.007818698883057,5.516481468568803,5.214951923708464,22.245723041367164,18.6777325343018,6.47544875391759e-05,0.1020214408636093,0,0,0
1813,67192.12878727278,2011-01-11 06:27:20,2011.0142770069249,2,8,0.5501165986061096,4.010085105895996,5.521068173363473,5.214951923708464,22.26411097870347,18.6777325343018,9.71794142969884e-05,0.1020214408636093,0,0,0
1814,67222.1438845406,2011-01-11 06:27:50,2041.029374244656,2,8,0.550297200679779,4.012351512908936,5.525654839815178,5.214951923708464,22.282509079884207,18.6777325343018,3.24249267578125e-05,0.1020214408636093,0,0,0
1815,67252.1590560434,2011-01-11 06:28:20,2071.044545757504,2,8,0.550297200679779,4.014779567718506,5.530241485026262,5.214951923708464,22.30091744183692,18.6777325343018,6.47544875391759e-05,0.1020214408636093,0,0,0
1816,67282.17415083504,2011-01-11 06:28:50,2101.0596405491374,2,8,0.5501165986061096,4.016722202301025,5.534828169158373,5.214951923708464,22.31933632380986,18.6777325343018,6.47544875391759e-05,0.1020214408636093,0,0,0
1817,67312.18930497458,2011-01-11 06:29:20,2131.074794708736,2,8,0.5501165986061096,4.019150733947754,5.539414868445188,5.214951923708464,22.337765756600707,18.6777325343018,6.47544875391759e-05,0.1020214408636093,0,0,0
1818,67342.2044290492,2011-01-11 06:29:50,2161.08991875829,2,8,0.5499359965324402,4.021417140960693,5.544001539636234,5.214951923708464,22.35620548130952,18.6777325343018,6.47544875391759e-05,0.1020214408636093,0,0,0
1819,67372.21956734928,2011-01-11 06:30:20,2191.105057063374,2,8,0.550297200679779,4.023845195770264,5.548588122920889,5.214951923708464,22.374655562535743,18.6777325343018,6.47544875391759e-05,0.1020214408636093,0,0,0
1820,67402.23472458655,2011-01-11 06:30:50,2221.120214325704,2,8,0.550297200679779,4.026273727416992,5.553174753743388,5.214951923708464,22.39311658512224,18.6777325343018,0.0001295089750783,0.1020214408636093,0,0,0
1821,67432.24985588917,2011-01-11 06:31:20,2251.135345593248,2,8,0.5501165986061096,4.0287017822265625,5.557761431381963,5.214951923708464,22.411588701575543,18.6777325343018,9.70840483205393e-05,0.1020214408636093,0,0,0
1822,67462.26498945244,2011-01-11 06:31:50,2281.1504791715506,2,8,0.550297200679779,4.030968189239502,5.562348049894816,5.214951923708464,22.43007151864392,18.6777325343018,6.47544875391759e-05,0.1020214408636093,0,0,0
1823,67492.28012089041,2011-01-11 06:32:20,2311.165610599494,2,8,0.5499359965324402,4.033234596252441,5.566934759647373,5.214951923708464,22.44856577769169,18.6777325343018,6.47544875391759e-05,0.1020214408636093,0,0,0
1824,67522.29536117967,2011-01-11 06:32:50,2341.1808509138164,2,8,0.5501165986061096,4.035824775695801,5.57152145314091,5.214951923708464,22.4670711078529,18.6777325343018,6.47544875391759e-05,0.1020214408636093,0,0,0
1825,67552.31038304957,2011-01-11 06:33:20,2371.195872783707,2,8,0.5501165986061096,4.038252830505371,5.576108076715284,5.214951923708464,22.48558741720633,18.6777325343018,6.47544875391759e-05,0.1020214408636093,0,0,0
1826,67582.32564191011,2011-01-11 06:33:50,2401.211131634227,2,8,0.5501165986061096,4.0406813621521,5.580694783801326,5.214951923708464,22.5041153987719,18.6777325343018,6.47544875391759e-05,0.1020214408636093,0,0,0
1827,67612.3406684316,2011-01-11 06:34:20,2431.226158155712,2,8,0.5499359965324402,4.04310941696167,5.585280619702936,5.214951923708464,22.522651195376955,18.6777325343018,6.47544875391759e-05,0.1020214408636093,0,0,0
1828,67642.3560771807,2011-01-11 06:34:50,2461.2415668948,2,8,0.5501165986061096,4.045699596405029,5.589866509904631,5.214951923708464,22.54119880883659,18.6777325343018,9.70840483205393e-05,0.1020214408636093,0,0,0
1829,67672.37099084591,2011-01-11 06:35:20,2491.256480565024,2,8,0.5501165986061096,4.048451900482178,5.594453120629965,5.214951923708464,22.5597613029548,18.6777325343018,0.0001295089750783,0.1020214408636093,0,0,0
1830,67702.3860913167,2011-01-11 06:35:50,2521.271581035812,2,8,0.550297200679779,4.051042079925537,5.599039862919354,5.214951923708464,22.578336220523457,18.6777325343018,6.47544875391759e-05,0.1020214408636093,0,0,0
1831,67732.40123003782,2011-01-11 06:36:20,2551.286719746908,2,8,0.550297200679779,4.0536322593688965,5.603626557487502,5.214951923708464,22.596922879584472,18.6777325343018,6.47544875391759e-05,0.1020214408636093,0,0,0
1832,67762.4164932041,2011-01-11 06:36:50,2581.3019829332334,2,8,0.550297200679779,4.056546211242676,5.608213313566786,5.214951923708464,22.61552185570476,18.6777325343018,0.0001295089750783,0.1020214408636093,0,0,0
1833,67792.43156869263,2011-01-11 06:37:20,2611.317058411734,2,8,0.5501165986061096,4.058812618255615,5.612799984199199,5.214951923708464,22.634132800178016,18.6777325343018,0.0,0.1020214408636093,0,0,0
1834,67822.44664019621,2011-01-11 06:37:50,2641.332129935377,2,8,0.5499359965324402,4.061402797698975,5.617386687510139,5.214951923708464,22.652756049414705,18.6777325343018,3.24249267578125e-05,0.1020214408636093,0,0,0
1835,67852.46190341262,2011-01-11 06:38:20,2671.3473931417534,2,8,0.550297200679779,4.064478397369385,5.6219733730032,5.214951923708464,22.67139158359273,18.6777325343018,9.70840483205393e-05,0.1020214408636093,0,0,0
1836,67882.47701578306,2011-01-11 06:38:50,2701.36250553225,2,8,0.5501165986061096,4.067068576812744,5.626560018846677,5.214951923708464,22.69003953169632,18.6777325343018,6.47544875391759e-05,0.1020214408636093,0,0,0
1837,67912.49208155237,2011-01-11 06:39:20,2731.3775712614515,2,8,0.5497553944587708,4.069820880889893,5.631146716055501,5.214951923708464,22.708700451125765,18.6777325343018,3.24249267578125e-05,0.1020214408636093,0,0,0
1838,67942.50729057871,2011-01-11 06:39:50,2761.392780307844,2,8,0.5499359965324402,4.072572708129883,5.635733402820125,5.214951923708464,22.72737415983969,18.6777325343018,3.23295607813634e-05,0.1020214408636093,0,0,0
1839,67972.52230551132,2011-01-11 06:40:20,2791.407795225408,2,8,0.5501165986061096,4.075486660003662,5.640320090148272,5.214951923708464,22.746060883048745,18.6777325343018,6.47544875391759e-05,0.1020214408636093,0,0,0
1840,68002.53745803182,2011-01-11 06:40:50,2821.4229477459207,2,8,0.5501165986061096,4.078400611877441,5.64490680206252,5.214951923708464,22.764760875201805,18.6777325343018,9.70840483205393e-05,0.1020214408636093,0,0,0
1841,68032.55262474772,2011-01-11 06:41:20,2851.438114486875,2,8,0.5501165986061096,4.081314563751221,5.649493513964853,5.214951923708464,22.78347426163761,18.6777325343018,6.47544875391759e-05,0.1020214408636093,0,0,0
1842,68062.56771755942,2011-01-11 06:41:50,2881.453207273513,2,8,0.550297200679779,4.084390640258789,5.654080164644578,5.214951923708464,22.80220077622451,18.6777325343018,9.71794142969884e-05,0.1020214408636093,0,0,0
1843,68092.58285247104,2011-01-11 06:42:20,2911.468342180126,2,8,0.5501165986061096,4.087304592132568,5.658666896622886,5.214951923708464,22.82094122856043,18.6777325343018,6.47544875391759e-05,0.1020214408636093,0,0,0
1844,68122.59801430978,2011-01-11 06:42:50,2941.483504028888,2,8,0.5501165986061096,4.0903801918029785,5.663253556698298,5.214951923708464,22.83969503626105,18.6777325343018,0.0001295089750783,0.1020214408636093,0,0,0
1845,68152.61334767602,2011-01-11 06:43:20,2971.498837415173,2,8,0.5501165986061096,4.093294143676758,5.667840281529612,5.214951923708464,22.8584628598604,18.6777325343018,0.0001295089750783,0.1020214408636093,0,0,0
1846,68182.62842556051,2011-01-11 06:43:50,3001.513915289645,2,8,0.5501165986061096,4.096370220184326,5.672426974131234,5.214951923708464,22.87724449122502,18.6777325343018,9.71794142969884e-05,0.1020214408636093,0,0,0
1847,68212.64341009234,2011-01-11 06:44:20,3031.528899811454,2,8,0.5499359965324402,4.0992841720581055,5.677013621894757,5.214951923708464,22.89603992732195,18.6777325343018,9.71794142969884e-05,0.1020214408636093,0,0,0
1848,68242.65857324937,2011-01-11 06:44:50,3061.5440629634627,2,8,0.5501165986061096,4.102521896362305,5.681600402720092,5.214951923708464,22.914850004067898,18.6777325343018,9.71794142969884e-05,0.1020214408636093,0,0,0
1849,68272.6761926481,2011-01-11 06:45:20,3091.561682457432,2,8,0.5501165986061096,4.105597496032715,5.686187456075201,5.214951923708464,22.933675516141488,18.6777325343018,6.47544875391759e-05,0.1020214408636093,0,0,0
1850,68302.6888284211,2011-01-11 06:45:50,3121.574318140211,2,8,0.5501165986061096,4.108835220336914,5.690773769587481,5.214951923708464,22.952512354269352,18.6777325343018,0.0001295089750783,0.1020214408636093,0,0,0
1851,68332.70395219998,2011-01-11 06:46:20,3151.589441919091,2,8,0.5501165986061096,4.111911296844482,5.695360491903278,5.214951923708464,22.971365362548845,18.6777325343018,9.71794142969884e-05,0.1020214408636093,0,0,0
1852,68362.71921549659,2011-01-11 06:46:50,3181.6047052257163,2,8,0.5501165986061096,4.115148544311523,5.699947217489717,5.214951923708464,22.99023294770777,18.6777325343018,9.70840483205393e-05,0.1020214408636093,0,0,0
1853,68392.73424432382,2011-01-11 06:47:20,3211.619734037909,2,8,0.550297200679779,4.118548393249512,5.704533904506264,5.214951923708464,23.0091151393713,18.6777325343018,0.0001295089750783,0.1020214408636093,0,0,0
1854,68422.74949718942,2011-01-11 06:47:50,3241.6349869085257,2,8,0.5501165986061096,4.121462345123291,5.709120629337278,5.214951923708464,23.028012437172897,18.6777325343018,3.24249267578125e-05,0.1020214408636093,0,0,0
1855,68452.76490944729,2011-01-11 06:48:21,3271.6503992616213,2,8,0.5501165986061096,4.12502384185791,5.713707453202243,5.214951923708464,23.046925168321824,18.6777325343018,0.0001295089750783,0.1020214408636093,0,0,0
1856,68482.7796554396,2011-01-11 06:48:51,3301.665145158704,2,8,0.5501165986061096,4.128261566162109,5.71829413421753,5.214951923708464,23.065852494646258,18.6777325343018,0.0001295089750783,0.1020214408636093,0,0,0
1857,68512.79479159432,2011-01-11 06:49:21,3331.6802813034024,2,8,0.5501165986061096,4.131499290466309,5.722880932951233,5.214951923708464,23.08479565287282,18.6777325343018,3.24249267578125e-05,0.1020214408636093,0,0,0
1858,68542.80991264139,2011-01-11 06:49:51,3361.6954023604985,2,8,0.5501165986061096,4.135222434997559,5.727467684165728,5.214951923708464,23.103754096146925,18.6777325343018,0.0001295089750783,0.1020214408636093,0,0,0
1859,68572.82504751292,2011-01-11 06:50:21,3391.7105372219994,2,8,0.5501165986061096,4.138298511505127,5.732054438082538,5.214951923708464,23.122728132132565,18.6777325343018,3.24249267578125e-05,0.1020214408636093,0,0,0
1860,68602.84018811373,2011-01-11 06:50:51,3421.725677827817,2,8,0.5501165986061096,4.141860008239746,5.736641227407764,5.214951923708464,23.141718113328363,18.6777325343018,0.0001295089750783,0.1020214408636093,0,0,0
1861,68632.8553392558,2011-01-11 06:51:21,3451.740828964881,2,8,0.5501165986061096,4.145583152770996,5.741227969521489,5.214951923708464,23.160723848929145,18.6777325343018,0.0001295089750783,0.1020214408636093,0,0,0
1862,68662.87048123003,2011-01-11 06:51:51,3481.7559709691845,2,8,0.5501165986061096,4.148820877075195,5.745814714441744,5.214951923708464,23.17974587003532,18.6777325343018,6.47544875391759e-05,0.1020214408636093,0,0,0
1863,68692.88559894881,2011-01-11 06:52:21,3511.7710886578857,2,8,0.5501165986061096,4.152544498443604,5.750401406045742,5.214951923708464,23.198783723871543,18.6777325343018,0.0001295089750783,0.1020214408636093,0,0,0
1864,68722.9008622855,2011-01-11 06:52:51,3541.7863520146366,2,8,0.5499359965324402,4.155620098114014,5.754988165471946,5.214951923708464,23.217838130852243,18.6777325343018,6.47544875391759e-05,0.1020214408636093,0,0,0
1865,68752.91599117713,2011-01-11 06:53:21,3571.801480891221,2,8,0.5499359965324402,4.159343719482422,5.759574838462989,5.214951923708464,23.236908500363395,18.6777325343018,6.47544875391759e-05,0.1020214408636093,0,0,0
1866,68782.93103019476,2011-01-11 06:53:51,3601.8165199088494,2,8,0.5501165986061096,4.163228988647461,5.764162174168895,5.214951923708464,23.25599824253062,18.6777325343018,9.71794142969884e-05,0.1020214408636093,0,0,0
1867,68812.94615432952,2011-01-11 06:54:21,3631.831644038604,2,8,0.550297200679779,4.16679048538208,5.768749603364938,5.214951923708464,23.275104909160937,18.6777325343018,9.71794142969884e-05,0.1020214408636093,0,0,0
1868,68842.96127737658,2011-01-11 06:54:51,3661.84676708566,2,8,0.5501165986061096,4.17051362991333,5.773336935102817,5.214951923708464,23.294227924565156,18.6777325343018,0.0001295089750783,0.1020214408636093,0,0,0
1869,68872.97646213243,2011-01-11 06:55:21,3691.861951846525,2,8,0.550297200679779,4.174237251281738,5.777924320542789,5.214951923708464,23.31336804219772,18.6777325343018,9.71794142969884e-05,0.1020214408636093,0,0,0
1870,68902.99170076757,2011-01-11 06:55:51,3721.8771904966993,2,8,0.5501165986061096,4.177798748016357,5.78251105116286,5.214951923708464,23.332522257728264,18.6777325343018,9.71794142969884e-05,0.1020214408636093,0,0,0
1871,68933.00682299759,2011-01-11 06:56:21,3751.8923127166954,2,8,0.5501165986061096,4.181521892547607,5.787097768072614,5.214951923708464,23.351693554858645,18.6777325343018,9.70840483205393e-05,0.1020214408636093,0,0,0
1872,68963.0218332786,2011-01-11 06:56:51,3781.907323017752,2,8,0.5501165986061096,4.185407161712647,5.791684423789911,5.214951923708464,23.370881798235715,18.6777325343018,9.70840483205393e-05,0.1020214408636093,0,0,0
1873,68993.03940457242,2011-01-11 06:57:21,3811.924894281517,2,8,0.550297200679779,4.189454555511475,5.796271514539665,5.214951923708464,23.39008927755589,18.6777325343018,0.0001295089750783,0.1020214408636093,0,0,0
1874,69023.05212251523,2011-01-11 06:57:51,3841.93761231955,2,8,0.5501165986061096,4.193016052246094,5.800857802186711,5.214951923708464,23.409310868649595,18.6777325343018,9.71794142969884e-05,0.1020214408636093,0,0,0
1875,69053.06724573272,2011-01-11 06:58:21,3871.9527354417937,2,8,0.5501165986061096,4.196577072143555,5.805444495914241,5.214951923708464,23.428551757491977,18.6777325343018,3.23295607813634e-05,0.1020214408636093,0,0,0
1876,69076.67625225127,2011-01-11 06:58:44,3895.561741970372,2,8,0.5501165986061096,4.200138568878174,5.809052228930681,5.214951923708464,23.443698383882133,18.6777325343018,0.0001295089750783,0.1020214408636093,0,0,0
1877,69106.69228457917,2011-01-11 06:59:15,30.01515887635337,3,8,0.0,4.102359771728516,5.809052228930681,5.214951923708464,23.443698383882133,18.6777325343018,-0.0004857063177041,0.1020214408636093,0,0,0
1878,69136.70740438816,2011-01-11 06:59:45,60.03027870037632,3,8,0.0,4.090218544006348,5.809052228930681,5.214951923708464,23.443698383882133,18.6777325343018,-0.0002265930233988,0.1020214408636093,0,0,0
1879,69166.7225338462,2011-01-11 07:00:15,90.0454081584102,3,8,0.0,4.0824480056762695,5.809052228930681,5.214951923708464,23.443698383882133,18.6777325343018,-0.0001942634553415,0.1020214408636093,0,0,0
1880,69196.69080487361,2011-01-11 07:00:45,120.01367918080446,3,8,0.0,4.077429294586182,5.809052228930681,5.214951923708464,23.443698383882133,18.6777325343018,-9.71794142969884e-05,0.1020214408636093,0,0,0
1881,69196.69363596856,2011-01-11 07:00:45,2.591458712e-06,4,8,1.018978238105774,4.199814796447754,5.809052229664192,5.214951923708464,23.443698386962744,18.6777325343018,0.0,0.1020214408636093,0,0,0
1882,69197.4279596391,2011-01-11 07:00:45,0.734326267003917,4,8,0.9678658843040466,4.199814796447754,5.80925343238731,5.214951923708464,23.444543399770662,18.6777325343018,0.0,0.1020214408636093,0,0,0
1883,69199.28730742088,2011-01-11 07:00:47,2.593674033745643,4,8,0.9176564812660216,4.199814796447754,5.80973932962186,5.214951923708464,23.44658406564505,18.6777325343018,0.0,0.1020214408636093,0,0,0
1884,69202.13110779643,2011-01-11 07:00:50,5.437474504534378,4,8,0.867085874080658,4.199653148651123,5.81044333398653,5.214951923708464,23.44954074399464,18.6777325343018,0.0,0.1020214408636093,0,0,0
1885,69206.06843542335,2011-01-11 07:00:54,9.37480204625374,4,8,0.8166959285736084,4.199653148651123,5.811363336778517,5.214951923708464,23.453404578208364,18.6777325343018,0.0,0.1020214408636093,0,0,0
1886,69211.2871130688,2011-01-11 07:00:59,14.593479691693142,4,8,0.7666671276092529,4.199814796447754,5.812509714008177,5.214951923708464,23.45821913142202,18.6777325343018,0.0,0.1020214408636093,0,0,0
1887,69217.9745052979,2011-01-11 07:01:06,21.28087193081217,4,8,0.7164577841758728,4.199814796447754,5.813885420810168,5.214951923708464,23.463996835034138,18.6777325343018,3.23295607813634e-05,0.1020214408636093,0,0,0
1888,69226.89621968027,2011-01-11 07:01:15,30.202586298158486,4,8,0.6662483811378479,4.199814796447754,5.81559616687072,5.214951923708464,23.471181653416643,18.6777325343018,0.0,0.1020214408636093,0,0,0
1889,69239.0211936211,2011-01-11 07:01:27,42.32756027406768,4,8,0.6162195801734924,4.199814796447754,5.817751882845999,5.214951923708464,23.48023523488701,18.6777325343018,0.0,0.1020214408636093,0,0,0
1890,69257.42698254042,2011-01-11 07:01:45,60.73334916831179,4,8,0.5661908388137817,4.199814796447754,5.820766262043789,5.214951923708464,23.492895069331876,18.6777325343018,0.0,0.1020214408636093,0,0,0
1891,69288.87958815633,2011-01-11 07:02:17,92.18595477921896,4,8,0.5159814357757568,4.199653148651123,5.82547331479173,5.214951923708464,23.512663856786126,18.6777325343018,-6.47544875391759e-05,0.1020214408636093,0,0,0
1892,69349.72238381396,2011-01-11 07:03:18,153.0287504418705,4,8,0.4659526944160461,4.199653148651123,5.833727322900738,5.214951923708464,23.547329194968373,18.6777325343018,-3.23295607813634e-05,0.1020214408636093,0,0,0
1893,69450.36145521577,2011-01-11 07:04:58,253.6678218536969,4,8,0.415923923254013,4.199814796447754,5.846021980062596,5.214951923708464,23.598964563549337,18.6777325343018,0.0,0.1020214408636093,0,0,0
1894,69581.93732696305,2011-01-11 07:07:10,385.24369359094976,4,8,0.3657145500183105,4.199653148651123,5.860293475509116,5.214951923708464,23.65890238085868,18.6777325343018,-6.47544875391759e-05,0.1020214408636093,0,0,0
1895,69740.27865641144,2011-01-11 07:09:48,543.5850231546315,4,8,0.3156857788562774,4.199814796447754,5.87526494709206,5.214951923708464,23.721779902153383,18.6777325343018,0.0,0.1020214408636093,0,0,0
1896,69930.72864325866,2011-01-11 07:12:59,734.0350099717758,4,8,0.2656570076942444,4.199814796447754,5.890622391213175,5.214951923708464,23.786278379195828,18.6777325343018,3.23295607813634e-05,0.1020214408636093,0,0,0
1897,70166.61547456284,2011-01-11 07:16:55,969.9218412007616,4,8,0.2156282365322113,4.199814796447754,5.906356393945894,5.214951923708464,23.852358382136178,18.6777325343018,0.0,0.1020214408636093,0,0,0
1898,70472.11034728408,2011-01-11 07:22:00,1275.416713927018,4,8,0.1654188483953476,4.199653148651123,5.922458777871588,5.214951923708464,23.91998560323245,18.6777325343018,-3.23295607813634e-05,0.1020214408636093,0,0,0
1899,70906.38724248558,2011-01-11 07:29:14,1709.6936091936827,4,8,0.115209475159645,4.199653148651123,5.939242089893885,5.214951923708464,23.99047256802895,18.6777325343018,-3.23295607813634e-05,0.1020214408636093,0,0,0
1900,71677.41892171574,2011-01-11 07:42:05,2480.7252883386286,4,8,0.065180703997612,4.199653148651123,5.958038652111473,5.214951923708464,24.069414739021877,18.6777325343018,-3.23295607813634e-05,0.1020214408636093,0,0,0
1901,72092.47467326807,2011-01-11 07:49:01,2895.781039911009,4,8,0.0498289167881011,4.199814796447754,5.964677904268459,5.214951923708464,24.097298353064573,18.6777325343018,-3.24249267578125e-05,0.1020214408636093,0,0,0
1902,72122.49294324355,2011-01-11 07:49:31,30.015266414371204,5,8,0.0,4.190911293029785,5.964677904268459,5.214951923708464,24.097298353064573,18.6777325343018,-3.24249267578125e-05,0.1020214408636093,0,0,0
1903,72152.49245782952,2011-01-11 07:50:01,60.01478099031432,5,8,0.0,4.1892924308776855,5.964677904268459,5.214951923708464,24.097298353064573,18.6777325343018,-3.24249267578125e-05,0.1020214408636093,0,0,0
1904,72152.68386107025,2011-01-11 07:50:01,0.187549415851815,6,8,-1.9243103452026844e-05,4.1892924308776855,5.964677904268459,5.214951924710973,24.097298353064573,18.677732538501605,0.0,0.102924108505249,0,0,0
1905,72157.5141558511,2011-01-11 07:50:06,5.017844186665228,6,8,0.0008838032954372,4.189454555511475,5.964678733855584,5.214951924877707,24.097301828530146,18.677732539200104,0.0,0.102924108505249,0,0,0
1906,72185.70292456904,2011-01-11 07:50:34,28.187040016656898,7,8,-1.099929690361023,3.989363670349121,5.964678733855584,5.223562408842149,24.097301828530146,18.712302879036432,-0.0012626647949218,0.102924108505249,0,0,0
1907,72215.71803599714,2011-01-11 07:51:04,58.20215137457972,7,8,-1.0997490882873535,3.9514822959899902,5.964678733855584,5.232731557004601,24.097301828530146,18.74869970065541,-0.0008741855854168,0.102924108505249,0,0,0
1908,72245.73345082138,2011-01-11 07:51:34,88.21756618379655,7,8,-1.0997490882873535,3.924123525619507,5.964678733855584,5.241900672256489,24.097301828530146,18.784800052232,-0.0006475448608398,0.102924108505249,0,0,0
1909,72275.74833656201,2011-01-11 07:52:04,118.23245191438662,7,8,-1.0997490882873535,3.902592897415161,5.964678733855584,5.251069792461123,24.097301828530146,18.82067882858601,-0.0005180359003134,0.102924108505249,0,0,0
1910,72305.76350189444,2011-01-11 07:52:34,148.24761724683057,7,8,-1.0997490882873535,3.8847854137420654,5.964678733855584,5.260238795186258,24.097301828530146,18.856378431350024,-0.0004532813909463,0.102924108505249,0,0,0
1911,72335.77851260152,2011-01-11 07:53:04,178.262627948888,7,8,-1.0997490882873535,3.869244337081909,5.964678733855584,5.269407017203026,24.097301828530146,18.89192273091448,-0.0003885269106831,0.102924108505249,0,0,0
1912,72365.79389390223,2011-01-11 07:53:34,208.2780092646288,7,8,-1.099568486213684,3.8549983501434326,5.964678733855584,5.278575156901582,24.097301828530146,18.92732989306795,-0.0003561496851034,0.102924108505249,0,0,0
1913,72395.80890875463,2011-01-11 07:54:04,238.29302412705516,7,8,-1.099568486213684,3.841561794281006,5.964678733855584,5.287743118884047,24.097301828530146,18.9626102635293,-0.0003561496851034,0.102924108505249,0,0,0
1914,72425.82401795719,2011-01-11 07:54:34,268.30813333461856,7,8,-1.099568486213684,3.828934907913208,5.964678733855584,5.296911190465476,24.097301828530146,18.99777216647593,-0.0003561496851034,0.102924108505249,0,0,0
1915,72455.83908865377,2011-01-11 07:55:04,298.32320402117585,7,8,-1.099568486213684,3.817117214202881,5.964678733855584,5.306079282484005,24.097301828530146,19.0328211772899,-0.0002590179501567,0.102924108505249,0,0,0
1916,72485.85430310361,2011-01-11 07:55:34,328.3384184509855,7,8,-1.0997490882873535,3.8052995204925537,5.964678733855584,5.315247683139847,24.097301828530146,19.067762361728395,-0.0002913951757363,0.102924108505249,0,0,0
1917,72515.86944943872,2011-01-11 07:56:04,358.35356481114474,7,8,-1.0997490882873535,3.7941293716430655,5.964678733855584,5.324416030726154,24.097301828530146,19.10259871020306,-0.0002913951757363,0.102924108505249,0,0,0
1918,72545.88454599978,2011-01-11 07:56:34,388.3686613471267,7,8,-1.099568486213684,3.783282995223999,5.964678733855584,5.333584356343767,24.097301828530146,19.13733437702668,-0.0002913951757363,0.102924108505249,0,0,0
1919,72575.89969772329,2011-01-11 07:57:04,418.383813090703,7,8,-1.0997490882873535,3.7729222774505615,5.964678733855584,5.342752754106974,24.097301828530146,19.171973453019664,-0.0002590179501567,0.102924108505249,0,0,0
1920,72605.91482048463,2011-01-11 07:57:34,448.3989358370091,7,8,-1.0997490882873535,3.762885332107544,5.964678733855584,5.351921111376148,24.097301828530146,19.20651830284762,-0.0002590179501567,0.102924108505249,0,0,0
1921,72635.93010295402,2011-01-11 07:58:04,478.4142183063944,7,8,-1.099568486213684,3.753334045410156,5.964678733855584,5.361089562481049,24.097301828530146,19.24097352455545,-0.0002266406954731,0.102924108505249,0,0,0
1922,72665.945102388,2011-01-11 07:58:34,508.4292177353559,7,8,-1.0997490882873535,3.7439448833465576,5.964678733855584,5.370257926712294,24.097301828530146,19.275341357653367,-0.0002266406954731,0.102924108505249,0,0,0
1923,72695.96036382997,2011-01-11 07:59:04,538.4444791823468,7,8,-1.099568486213684,3.73471736907959,5.964678733855584,5.379426340605201,24.097301828530146,19.30962439274248,-0.0002590179501567,0.102924108505249,0,0,0
1924,72725.97541111821,2011-01-11 07:59:34,568.4595264856258,7,8,-1.0993878841400146,3.725813627243042,5.964678733855584,5.388594681604272,24.097301828530146,19.34382385622383,-0.0001942634553415,0.102924108505249,0,0,0
1925,72755.99073177276,2011-01-11 08:00:04,598.4748471451927,7,8,-1.0997490882873535,3.716909885406494,5.964678733855584,5.397763136269655,24.097301828530146,19.37794275660609,-0.0002266406954731,0.102924108505249,0,0,0
1926,72786.0059210148,2011-01-11 08:00:34,628.4900363922392,7,8,-1.099568486213684,3.708491802215576,5.964678733855584,5.406931630849084,24.097301828530146,19.41198249285161,-0.0002266406954731,0.102924108505249,0,0,0
1927,72816.0207996878,2011-01-11 08:01:04,658.5049150351646,7,8,-1.0997490882873535,3.700073719024658,5.964678733855584,5.416099882925662,24.097301828530146,19.44594413750833,-0.0002266406954731,0.102924108505249,0,0,0
1928,72846.03592606816,2011-01-11 08:01:34,688.5200414105154,7,8,-1.099568486213684,3.69197940826416,5.964678733855584,5.425268256142288,24.097301828530146,19.47983059165752,-0.0001942634553415,0.102924108505249,0,0,0
1929,72876.05375055302,2011-01-11 08:02:04,718.5378660357352,7,8,-1.099568486213684,3.683885097503662,5.964678733855584,5.434437465106815,24.097301828530146,19.51364542418992,-0.0002266406954731,0.102924108505249,0,0,0
1930,72906.0662589235,2011-01-11 08:02:34,748.5503742658626,7,8,-1.099568486213684,3.675952672958374,5.964678733855584,5.443605044823404,24.097301828530146,19.54738108556766,-0.0002266406954731,0.102924108505249,0,0,0
1931,72936.08150407489,2011-01-11 08:03:04,778.565619427265,7,8,-1.099568486213684,3.668182373046875,5.964678733855584,5.452773495706631,24.097301828530146,19.58104797457683,-0.0001942634553415,0.102924108505249,0,0,0
1932,72966.09649428086,2011-01-11 08:03:34,808.5806096232149,7,8,-1.0997490882873535,3.660735607147217,5.964678733855584,5.4619418741404,24.097301828530146,19.6146447325676,-0.0001942634553415,0.102924108505249,0,0,0
1933,72996.11164836527,2011-01-11 08:04:04,838.5957637126378,7,8,-1.099568486213684,3.653450727462769,5.964678733855584,5.471110263591211,24.097301828530146,19.648173378217635,-0.0001942634553415,0.102924108505249,0,0,0
1934,73026.12676016429,2011-01-11 08:04:34,868.6108755367222,7,8,-1.0997490882873535,3.6460039615631104,5.964678733855584,5.480278659372862,24.097301828530146,19.681634864383582,-0.0001942634553415,0.102924108505249,0,0,0
1935,73056.14190443925,2011-01-11 08:05:05,898.6260197916346,7,8,-1.0997490882873535,3.638880968093872,5.964678733855584,5.489447003966782,24.097301828530146,19.715030054593797,-0.0001942634553415,0.102924108505249,0,0,0
1936,73086.15703926065,2011-01-11 08:05:35,928.6411546080232,7,8,-1.099568486213684,3.631757974624634,5.964678733855584,5.498615376062965,24.097301828530146,19.748359935458463,-0.0001942634553415,0.102924108505249,0,0,0
1937,73116.17218600176,2011-01-11 08:06:05,958.6563013491316,7,8,-1.099568486213684,3.6251206398010254,5.964678733855584,5.507783769172653,24.097301828530146,19.78162649230547,-0.0001618862152099,0.102924108505249,0,0,0
1938,73146.1873574294,2011-01-11 08:06:35,988.6714727817792,7,8,-1.0997490882873535,3.617997646331787,5.964678733855584,5.5169521435025,24.097301828530146,19.8148308607283,-0.0002266406954731,0.102924108505249,0,0,0
1939,73176.20245890268,2011-01-11 08:07:05,1018.686574250054,7,8,-1.0997490882873535,3.611684083938599,5.964678733855584,5.52612049893927,24.097301828530146,19.84797329652821,-0.0001618862152099,0.102924108505249,0,0,0
1940,73206.21759475666,2011-01-11 08:07:35,1048.7017101040285,7,8,-1.0997490882873535,3.6050467491149902,5.964678733855584,5.535288971713865,24.097301828530146,19.8810562765022,-0.0002266406954731,0.102924108505249,0,0,0
1941,73236.23274116695,2011-01-11 08:08:05,1078.7168565193251,7,8,-1.0997490882873535,3.598895072937012,5.964678733855584,5.544457286896744,24.097301828530146,19.914080508518182,-0.0001295089750783,0.102924108505249,0,0,0
1942,73266.2478674972,2011-01-11 08:08:35,1108.7319828495636,7,8,-1.099568486213684,3.592743396759033,5.964678733855584,5.553625646506678,24.097301828530146,19.94704744721573,-0.0001295089750783,0.102924108505249,0,0,0
1943,73296.26303157149,2011-01-11 08:09:05,1138.7471469188592,7,8,-1.099929690361023,3.586430072784424,5.964678733855584,5.562794107394942,24.097301828530146,19.979958517692573,-0.0002266406954731,0.102924108505249,0,0,0
1944,73326.27838455161,2011-01-11 08:09:35,1168.762499909004,7,8,-1.099568486213684,3.580925941467285,5.964678733855584,5.571962577398132,24.097301828530146,20.012815342059564,-0.0001295089750783,0.102924108505249,0,0,0
1945,73356.29332021164,2011-01-11 08:10:05,1198.7774355790584,7,8,-1.099929690361023,3.5749361515045166,5.964678733855584,5.581130972281087,24.097301828530146,20.045618772207572,-0.0001295089750783,0.102924108505249,0,0,0
1946,73386.3084268478,2011-01-11 08:10:35,1228.7925422001758,7,8,-1.0997490882873535,3.569432020187378,5.964678733855584,5.590299454528235,24.097301828530146,20.078370718947685,-0.0001295089750783,0.102924108505249,0,0,0
1947,73416.32359271658,2011-01-11 08:11:05,1258.8077080589314,7,8,-1.099568486213684,3.564089775085449,5.964678733855584,5.599467890960191,24.097301828530146,20.111072143304867,-0.0001295089750783,0.102924108505249,0,0,0
1948,73446.33883212364,2011-01-11 08:11:35,1288.8229474910547,7,8,-1.0993878841400146,3.5590713024139404,5.964678733855584,5.608636254836312,24.097301828530146,20.143724862343344,-9.713172767078504e-05,0.102924108505249,0,0,0
1949,73476.3538779382,2011-01-11 08:12:05,1318.8379932855732,7,8,-1.099568486213684,3.553729057312012,5.964678733855584,5.617804647322416,24.097301828530146,20.17632956262474,-9.713172767078504e-05,0.102924108505249,0,0,0
1950,73506.36910391679,2011-01-11 08:12:35,1348.853219274191,7,8,-1.099568486213684,3.548710584640503,5.964678733855584,5.626973074868571,24.097301828530146,20.208887432171075,-0.0001295089750783,0.102924108505249,0,0,0
1951,73536.38411300484,2011-01-11 08:13:05,1378.8682283471885,7,8,-1.0997490882873535,3.543530225753784,5.964678733855584,5.636141517593243,24.097301828530146,20.24139952149777,-0.0001618862152099,0.102924108505249,0,0,0
1952,73566.39927560046,2011-01-11 08:13:35,1408.8833909628613,7,8,-1.0997490882873535,3.5388355255126958,5.964678733855584,5.645309946547509,24.097301828530146,20.27386709575341,-0.0001295089750783,0.102924108505249,0,0,0
1953,73596.41681822283,2011-01-11 08:14:05,1438.9009337506554,7,8,-1.0997490882873535,3.5341408252716064,5.964678733855584,5.654479140202532,24.097301828530146,20.306293443244044,-9.713172767078504e-05,0.102924108505249,0,0,0
1954,73626.42959516267,2011-01-11 08:14:35,1468.9137106253277,7,8,-1.0997490882873535,3.5294461250305176,5.964678733855584,5.663646859546974,24.097301828530146,20.338672098602267,-0.0001295089750783,0.102924108505249,0,0,0
1955,73656.44467509727,2011-01-11 08:15:05,1498.928790444647,7,8,-1.099568486213684,3.5250751972198486,5.964678733855584,5.672815307884845,24.097301828530146,20.37101195683433,-0.0001295089750783,0.102924108505249,0,0,0
1956,73686.45980765804,2011-01-11 08:15:35,1528.9439230054136,7,8,-1.099568486213684,3.52070426940918,5.964678733855584,5.681983718385924,24.097301828530146,20.40331108543053,-9.713172767078504e-05,0.102924108505249,0,0,0
1957,73716.47516151033,2011-01-11 08:16:05,1558.959276857707,7,8,-1.0997490882873535,3.5163333415985107,5.964678733855584,5.691152170503092,24.097301828530146,20.43557025254055,-9.713172767078504e-05,0.102924108505249,0,0,0
1958,73746.49008730578,2011-01-11 08:16:35,1588.974202653151,7,8,-1.0997490882873535,3.511962413787842,5.964678733855584,5.700320509919888,24.097301828530146,20.467788897146125,-9.713172767078504e-05,0.102924108505249,0,0,0
1959,73776.50525816702,2011-01-11 08:17:05,1618.9893735394369,7,8,-1.0997490882873535,3.507591724395752,5.964678733855584,5.70948896288978,24.097301828530146,20.499967934242942,-9.713172767078504e-05,0.102924108505249,0,0,0
1960,73806.52036686329,2011-01-11 08:17:35,1649.0044822106636,7,8,-1.099568486213684,3.503058910369873,5.964678733855584,5.71865739242318,24.097301828530146,20.53210649902744,-0.0001295089750783,0.102924108505249,0,0,0
1961,73836.53551728357,2011-01-11 08:18:05,1679.0196326309415,7,8,-1.0997490882873535,3.498849868774414,5.964678733855584,5.727825856445144,24.097301828530146,20.56420479588285,-9.713172767078504e-05,0.102924108505249,0,0,0
1962,73866.55063556877,2011-01-11 08:18:35,1709.0347509261544,7,8,-1.099568486213684,3.494317054748535,5.964678733855584,5.736994297898812,24.097301828530146,20.59626235328645,-0.0001295089750783,0.102924108505249,0,0,0
1963,73896.56578130736,2011-01-11 08:19:05,1739.0498966547395,7,8,-1.099568486213684,3.489784240722656,5.964678733855584,5.746162748195454,24.097301828530146,20.628278781298107,-0.0001295089750783,0.102924108505249,0,0,0
1964,73926.58091822399,2011-01-11 08:19:35,1769.0650335713624,7,8,-1.099568486213684,3.4850895404815674,5.964678733855584,5.755331213246119,24.097301828530146,20.66025325586022,-0.0001295089750783,0.102924108505249,0,0,0
1965,73956.59607582216,2011-01-11 08:20:05,1799.08019116953,7,8,-1.0997490882873535,3.4803948402404785,5.964678733855584,5.764499639033606,24.097301828530146,20.69218458853693,-9.713172767078504e-05,0.102924108505249,0,0,0
1966,73986.61120928016,2011-01-11 08:20:35,1829.0953246425704,7,8,-1.0997490882873535,3.47521448135376,5.964678733855584,5.773667941019952,24.097301828530146,20.724071307316837,-0.0001618862152099,0.102924108505249,0,0,0
1967,74016.62645475235,2011-01-11 08:21:05,1859.1105701297847,7,8,-1.099568486213684,3.470357894897461,5.964678733855584,5.782836386409665,24.097301828530146,20.75591253453054,-0.0001295089750783,0.102924108505249,0,0,0
1968,74046.641592481,2011-01-11 08:21:35,1889.1257078333688,7,8,-1.099929690361023,3.4648537635803223,5.964678733855584,5.792004769532647,24.097301828530146,20.787706405541847,-0.0001942634553415,0.102924108505249,0,0,0
1969,74076.65663673164,2011-01-11 08:22:05,1919.1407521040903,7,8,-1.0997490882873535,3.4595115184783936,5.964678733855584,5.801173166844812,24.097301828530146,20.81945029172624,-0.0001618862152099,0.102924108505249,0,0,0
1970,74106.67173465108,2011-01-11 08:22:35,1949.15585004357,7,8,-1.099568486213684,3.453683614730835,5.964678733855584,5.810341493927449,24.097301828530146,20.8511410317056,-0.0001295089750783,0.102924108505249,0,0,0
1971,74136.68684960798,2011-01-11 08:23:05,1979.1709649553504,7,8,-1.099568486213684,3.4472081661224365,5.964678733855584,5.819509875825339,24.097301828530146,20.882775532417657,-0.0001618862152099,0.102924108505249,0,0,0
1972,74166.70244755864,2011-01-11 08:23:35,2009.186562906012,7,8,-1.0997490882873535,3.440247058868408,5.964678733855584,5.828678454893437,24.097301828530146,20.914349994159515,-0.0001942634553415,0.102924108505249,0,0,0
1973,74196.71721260346,2011-01-11 08:24:05,2039.201327945803,7,8,-1.099568486213684,3.43263840675354,5.964678733855584,5.837846834366801,24.097301828530146,20.94585669381955,-0.0001942634553415,0.102924108505249,0,0,0
1974,74226.73231977594,2011-01-11 08:24:35,2069.2164351233077,7,8,-1.0997490882873535,3.424058675765991,5.964678733855584,5.847015295735484,24.097301828530146,20.97728950937784,-0.0002590179501567,0.102924108505249,0,0,0
1975,74256.747456467,2011-01-11 08:25:05,2099.2315718093555,7,8,-1.099929690361023,3.4143455028533936,5.964678733855584,5.856183760374881,24.097301828530146,21.008638917050856,-0.0002590179501567,0.102924108505249,0,0,0
1976,74286.76274526717,2011-01-11 08:25:35,2129.2468606395946,7,8,-1.099568486213684,3.4031753540039062,5.964678733855584,5.865352229119039,24.097301828530146,21.039893072015516,-0.0002913951757363,0.102924108505249,0,0,0
1977,74316.777875051,2011-01-11 08:26:05,2159.26199040339,7,8,-1.0993878841400146,3.389900684356689,5.964678733855584,5.874520658387626,24.097301828530146,21.07103568955833,-0.0003885269106831,0.102924108505249,0,0,0
1978,74346.79288896607,2011-01-11 08:26:35,2189.277004318455,7,8,-1.099568486213684,3.3740358352661133,5.964678733855584,5.883689017953092,24.097301828530146,21.10204524636453,-0.0004532813909463,0.102924108505249,0,0,0
1979,74376.80800832393,2011-01-11 08:27:05,2219.292123671304,7,8,-1.0997490882873535,3.354447603225708,5.964678733855584,5.892857458929385,24.097301828530146,21.13289360001849,-0.0005827903514727,0.102924108505249,0,0,0
1980,74406.82317710498,2011-01-11 08:27:35,2249.307292472393,7,8,-1.0997490882873535,3.330164909362793,5.964678733855584,5.902025937492381,24.097301828530146,21.16354256804629,-0.0007770538213662,0.102924108505249,0,0,0
1981,74436.83829410195,2011-01-11 08:28:05,2279.322409454332,7,8,-1.099568486213684,3.2994065284729004,5.964678733855584,5.911194410429046,24.097301828530146,21.19394059130358,-0.0009065627818927,0.102924108505249,0,0,0
1982,74466.85344020647,2011-01-11 08:28:35,2309.337555558854,7,8,-1.0997490882873535,3.259582757949829,5.964678733855584,5.920362807747454,24.097301828530146,21.224017349412005,-0.0011979580158367,0.102924108505249,0,0,0
1983,74496.86856069716,2011-01-11 08:29:05,2339.352676039514,7,8,-1.099568486213684,3.207617282867432,5.964678733855584,5.929531169389371,24.097301828530146,21.253676043683324,-0.0015541076427325,0.102924108505249,0,0,0
1984,74526.88385067025,2011-01-11 08:29:35,2369.367966037664,7,8,-1.0993878841400146,3.136063814163208,5.964678733855584,5.938699635675982,24.097301828530146,21.28277495017586,-0.0022016526199877,0.102924108505249,0,0,0
1985,74556.89884601904,2011-01-11 08:30:05,2399.3829613664057,7,8,-1.099568486213684,3.034885168075561,5.964678733855584,5.94786806025482,24.097301828530146,21.31109499635913,-0.0032377243041992,0.102924108505249,0,0,0
1986,74586.91397367758,2011-01-11 08:30:35,2429.3980890199423,7,8,-1.0997490882873535,2.878179788589477,5.964678733855584,5.957036571772854,24.097301828530146,21.338257360903185,-0.0050508501008152,0.102924108505249,0,0,0
1987,74611.36672233115,2011-01-11 08:31:00,2453.8508376835343,7,8,-1.099568486213684,2.699781894683838,5.964678733855584,5.964505942464847,24.097301828530146,21.35911066960556,-0.0062163830734789,0.102924108505249,0,0,0
1988,74671.37806620469,2011-01-11 08:32:00,60.014362387026125,8,8,0.0,3.5381879806518555,5.964678733855584,5.964505942464847,24.097301828530146,21.35911066960556,0.0013598442310467,0.102924108505249,0,0,0
1989,74671.5636077336,2011-01-11 08:32:00,0.187603951772109,9,8,-1.9243103452026844e-05,3.5385117530822754,5.964678733855584,5.964505943467647,24.097301828530146,21.359110673153985,0.0,0.1012117490172386,0,0,0
1990,74676.39163611588,2011-01-11 08:32:05,5.015632313997964,9,8,0.0007031940040178,3.5467679500579834,5.964679515610196,5.964505943634244,24.097304598446467,21.35911067374349,0.0011979580158367,0.1012117490172386,0,0,0
