Data_Point,Test_Time(s),Date_Time,Step_Time(s),Step_Index,Cycle_Index,Current(A),Voltage(V),Charge_Capacity(Ah),Discharge_Capacity(Ah),Charge_Energy(Wh),Discharge_Energy(Wh),dV/dt(V/s),Internal_Resistance(Ohm),Is_FC_Data,AC_Impedance(Ohm),ACI_Phase_Angle(Deg)
8804,336964.8235347003,2011-01-14 09:24:09,30.015250469632008,1,38,0.0,3.623501777648926,26.471654046455967,26.41359105489452,107.17346049037924,94.1893152292886,0.0006475448608398,0.1043562516570091,0,0,0
8805,336994.83850863075,2011-01-14 09:24:39,60.030224364955735,1,38,0.0,3.643413782119751,26.471654046455967,26.41359105489452,107.17346049037924,94.1893152292886,0.0004532813909463,0.1043562516570091,0,0,0
8806,337024.8538970242,2011-01-14 09:25:09,90.0456128736235,1,38,0.0,3.6574978828430176,26.471654046455967,26.41359105489452,107.17346049037924,94.1893152292886,0.0003237724304199,0.1043562516570091,0,0,0
8807,337054.82202033343,2011-01-14 09:25:39,120.0137360776088,1,38,0.0,3.668182373046875,26.471654046455967,26.41359105489452,107.17346049037924,94.1893152292886,0.0002590179501567,0.1043562516570091,0,0,0
8808,337084.8407916635,2011-01-14 09:26:09,30.015107523365927,2,38,0.5501165986061096,3.789272785186768,26.476240573730337,26.41359105489452,107.19075138978822,94.1893152292886,0.0008094310760498,0.1043562516570091,0,0,0
8809,337114.8559121943,2011-01-14 09:26:40,60.03022805415034,2,38,0.5501165986061096,3.8109655380249023,26.480827090857147,26.41359105489452,107.20818509809384,94.1893152292886,0.0004856586456298,0.1043562516570091,0,0,0
8810,337144.87103044445,2011-01-14 09:27:10,90.04534631427559,2,38,0.5501165986061096,3.824563980102539,26.48541358185286,26.41359105489452,107.2256968450167,94.1893152292886,0.0002913951757363,0.1043562516570091,0,0,0
8811,337174.88616267435,2011-01-14 09:27:40,120.0604785592554,2,38,0.5497553944587708,3.835086345672608,26.48999999637813,26.41359105489452,107.24326317511094,94.1893152292886,0.0002590179501567,0.1043562516570091,0,0,0
8812,337204.9012710699,2011-01-14 09:28:10,150.07558693975756,2,38,0.5499359965324402,3.844151973724365,26.49458647193848,26.41359105489452,107.26087455048672,94.1893152292886,0.0002266406954731,0.1043562516570091,0,0,0
8813,337234.91637135023,2011-01-14 09:28:40,180.09068722007157,2,38,0.5501165986061096,3.852408170700073,26.499172996276304,26.41359105489452,107.27852523650846,94.1893152292886,0.0001942634553415,0.1043562516570091,0,0,0
8814,337264.93149140483,2011-01-14 09:29:10,210.10580726965668,2,38,0.5499359965324402,3.8596930503845215,26.503759507053203,26.41359105489452,107.29621134858468,94.1893152292886,0.0001942634553415,0.1043562516570091,0,0,0
8815,337294.9466136098,2011-01-14 09:29:40,240.1209294746137,2,38,0.5499359965324402,3.86649227142334,26.508345956054747,26.41359105489452,107.3139298149024,94.1893152292886,0.0001295089750783,0.1043562516570091,0,0,0
8816,337324.9617087623,2011-01-14 09:30:10,270.1360246321602,2,38,0.5501165986061096,3.872805833816528,26.512932412190864,26.41359105489452,107.3316784612838,94.1893152292886,0.0001295089750783,0.1043562516570091,0,0,0
8817,337354.97706981254,2011-01-14 09:30:40,300.1513856773805,2,38,0.5501165986061096,3.878957509994507,26.517518948624005,26.41359105489452,107.34945582303256,94.1893152292886,0.0001295089750783,0.1043562516570091,0,0,0
8818,337384.9920889807,2011-01-14 09:31:10,330.16640484553807,2,38,0.5501165986061096,3.884623527526856,26.522105460705536,26.41359105489452,107.36725991002872,94.1893152292886,0.0001295089750783,0.1043562516570091,0,0,0
8819,337415.00705707155,2011-01-14 09:31:40,360.18137294140786,2,38,0.5501165986061096,3.890127658843994,26.52669197455256,26.41359105489452,107.3850895876498,94.1893152292886,0.0001618862152099,0.1043562516570091,0,0,0
8820,337445.0223080725,2011-01-14 09:32:10,390.19662394737657,2,38,0.5501165986061096,3.895146131515503,26.53127856915167,26.41359105489452,107.40294397805832,94.1893152292886,0.0001295089750783,0.1043562516570091,0,0,0
8821,337475.03727568215,2011-01-14 09:32:40,420.2115915470095,2,38,0.5501165986061096,3.9003264904022217,26.535865047457925,26.41359105489452,107.42082108896946,94.1893152292886,0.0001618862152099,0.1043562516570091,0,0,0
8822,337505.0524035613,2011-01-14 09:33:10,450.22671942610816,2,38,0.5501165986061096,3.905183076858521,26.540451571981283,26.41359105489452,107.43872121703008,94.1893152292886,0.0001295089750783,0.1043562516570091,0,0,0
8823,337535.0675039769,2011-01-14 09:33:40,480.24181984175954,2,38,0.550297200679779,3.90987777709961,26.54503856578701,26.41359105489452,107.45664516090469,94.1893152292886,9.713172767078504e-05,0.1043562516570091,0,0,0
8824,337565.08262947004,2011-01-14 09:34:10,510.2569453399242,2,38,0.5501165986061096,3.914410352706909,26.54962579668619,26.41359105489452,107.47459128125088,94.1893152292886,9.713172767078504e-05,0.1043562516570091,0,0,0
8825,337595.0977468179,2011-01-14 09:34:40,540.2720626978007,2,38,0.550297200679779,3.918781280517578,26.554213048102977,26.41359105489452,107.4925577761348,94.1893152292886,0.0001295089750783,0.1043562516570091,0,0,0
8826,337625.1128823812,2011-01-14 09:35:10,570.2871982710756,2,38,0.550297200679779,3.922828435897827,26.55880029699452,26.41359105489452,107.51054352558576,94.1893152292886,0.0001295089750783,0.1043562516570091,0,0,0
8827,337655.12809226464,2011-01-14 09:35:40,600.3024081345045,2,38,0.5501165986061096,3.926713705062866,26.563387156687075,26.41359105489452,107.52854619053772,94.1893152292886,6.47544875391759e-05,0.1043562516570091,0,0,0
8828,337685.1432119333,2011-01-14 09:36:10,630.3175278231901,2,38,0.5501165986061096,3.9304370880126953,26.56797371298248,26.41359105489452,107.54656522574844,94.1893152292886,6.47544875391759e-05,0.1043562516570091,0,0,0
8829,337715.15819441003,2011-01-14 09:36:40,660.3325102948887,2,38,0.5501165986061096,3.934160470962525,26.572560172009943,26.41359105489452,107.56460068896216,94.1893152292886,0.0001295089750783,0.1043562516570091,0,0,0
8830,337745.17569850635,2011-01-14 09:37:10,690.3500144764644,2,38,0.550297200679779,3.9375600814819336,26.577147113167733,26.41359105489452,107.58265416741288,94.1893152292886,6.47544875391759e-05,0.1043562516570091,0,0,0
8831,337775.188436028,2011-01-14 09:37:40,720.3627518777569,2,38,0.550297200679779,3.9411215782165527,26.581733211327137,26.41359105489452,107.60072001242372,94.1893152292886,0.0001295089750783,0.1043562516570091,0,0,0
8832,337805.20356101985,2011-01-14 09:38:10,750.3778769097597,2,38,0.5499359965324402,3.944035530090332,26.58631969388921,26.41359105489452,107.61880242295048,94.1893152292886,9.713172767078504e-05,0.1043562516570091,0,0,0
8833,337835.2186564932,2011-01-14 09:38:40,780.3929723429933,2,38,0.5501165986061096,3.947435140609741,26.590906132255217,26.41359105489452,107.63689928667652,94.1893152292886,0.0001295089750783,0.1043562516570091,0,0,0
8834,337865.2339760299,2011-01-14 09:39:10,810.4082918897868,2,38,0.5499359965324402,3.950349092483521,26.59549261541668,26.41359105489452,107.6550105466946,94.1893152292886,9.713172767078504e-05,0.1043562516570091,0,0,0
8835,337895.24888372526,2011-01-14 09:39:40,840.4231995801074,2,38,0.5501165986061096,3.9534249305725098,26.600079093043096,26.41359105489452,107.67313568892524,94.1893152292886,9.713172767078504e-05,0.1043562516570091,0,0,0
8836,337925.26399291784,2011-01-14 09:40:10,870.4383087676208,2,38,0.550297200679779,3.956500768661499,26.60466551292744,26.41359105489452,107.69127422216808,94.1893152292886,0.0001295089750783,0.1043562516570091,0,0,0
8837,337955.2791122958,2011-01-14 09:40:40,900.4534281505444,2,38,0.550297200679779,3.959252834320069,26.609251995834324,26.41359105489452,107.7094262202867,94.1893152292886,9.713172767078504e-05,0.1043562516570091,0,0,0
8838,337985.2942461447,2011-01-14 09:41:10,930.4685621148092,2,38,0.550297200679779,3.9620048999786377,26.613838541442117,26.41359105489452,107.72759156680688,94.1893152292886,6.47544875391759e-05,0.1043562516570091,0,0,0
8839,338015.3093638183,2011-01-14 09:41:40,960.483679698248,2,38,0.5499359965324402,3.964756965637207,26.618425080527285,26.41359105489452,107.74576967814906,94.1893152292886,9.713172767078504e-05,0.1043562516570091,0,0,0
8840,338045.32445413386,2011-01-14 09:42:10,990.4987700137266,2,38,0.550297200679779,3.967509031295776,26.62301158856889,26.41359105489452,107.76396038630055,94.1893152292886,6.47544875391759e-05,0.1043562516570091,0,0,0
8841,338075.3397051097,2011-01-14 09:42:40,1020.5140209795952,2,38,0.5501165986061096,3.970099210739136,26.62759811140051,26.41359105489452,107.78216365629396,94.1893152292886,3.237724376958795e-05,0.1043562516570091,0,0,0
8842,338105.3548179113,2011-01-14 09:43:10,1050.529133771091,2,38,0.5501165986061096,3.972851276397705,26.632184630945744,26.41359105489452,107.8003793954566,94.1893152292886,6.47544875391759e-05,0.1043562516570091,0,0,0
8843,338135.36980824755,2011-01-14 09:43:40,1080.5441241023782,2,38,0.550297200679779,3.975765228271485,26.63677113207473,26.41359105489452,107.81860736688988,94.1893152292886,0.0001295089750783,0.1043562516570091,0,0,0
8844,338165.38492424705,2011-01-14 09:44:10,1110.5592401068818,2,38,0.550297200679779,3.978031635284424,26.641357661374396,26.41359105489452,107.83684748146746,94.1893152292886,6.47544875391759e-05,0.1043562516570091,0,0,0
8845,338195.4000153595,2011-01-14 09:44:40,1140.574331234384,2,38,0.5499359965324402,3.980621814727783,26.645944026816736,26.41359105489452,107.8550989647851,94.1893152292886,3.237724376958795e-05,0.1043562516570091,0,0,0
8846,338225.41542477027,2011-01-14 09:45:10,1170.589740640134,2,38,0.5499359965324402,3.983373880386353,26.650530422059266,26.41359105489452,107.87336261998853,94.1893152292886,6.47544875391759e-05,0.1043562516570091,0,0,0
8847,338255.4302989771,2011-01-14 09:45:40,1200.604614852016,2,38,0.5501165986061096,3.986125946044922,26.65511676419499,26.41359105489452,107.89163786499869,94.1893152292886,9.713172767078504e-05,0.1043562516570091,0,0,0
8848,338285.44540246547,2011-01-14 09:46:10,1230.6197183202753,2,38,0.5499359965324402,3.988392353057861,26.659703224591052,26.41359105489452,107.90992530337796,94.1893152292886,6.47544875391759e-05,0.1043562516570091,0,0,0
8849,338315.46052010404,2011-01-14 09:46:40,1260.634835963864,2,38,0.5501165986061096,3.991144418716431,26.664289593055702,26.41359105489452,107.92822400591842,94.1893152292886,9.713172767078504e-05,0.1043562516570091,0,0,0
8850,338345.47576927044,2011-01-14 09:47:10,1290.6500851502976,2,38,0.5501165986061096,3.99357271194458,26.668875979419468,26.41359105489452,107.94653427129956,94.1893152292886,6.47544875391759e-05,0.1043562516570091,0,0,0
8851,338375.49076808785,2011-01-14 09:47:40,1320.6650839526974,2,38,0.5501165986061096,3.9960007667541504,26.673462325512823,26.41359105489452,107.96485586974188,94.1893152292886,6.47544875391759e-05,0.1043562516570091,0,0,0
8852,338405.5058926086,2011-01-14 09:48:10,1350.680208493476,2,38,0.550297200679779,3.9984290599823,26.67804867009867,26.41359105489452,107.98318872984768,94.1893152292886,3.237724376958795e-05,0.1043562516570091,0,0,0
8853,338435.52101092384,2011-01-14 09:48:40,1380.6953268037262,2,38,0.5501165986061096,4.001019477844238,26.68263507082415,26.41359105489452,108.00153300205744,94.1893152292886,0.0001295089750783,0.1043562516570091,0,0,0
8854,338465.5361129936,2011-01-14 09:49:10,1410.71042885345,2,38,0.5501165986061096,4.003447532653809,26.68722138118528,26.41359105489452,108.01988825084304,94.1893152292886,6.47544875391759e-05,0.1043562516570091,0,0,0
8855,338495.5512014495,2011-01-14 09:49:40,1440.7255173092938,2,38,0.5499359965324402,4.005876064300537,26.691807720770704,26.41359105489452,108.0382548581992,94.1893152292886,6.47544875391759e-05,0.1043562516570091,0,0,0
8856,338525.56632279226,2011-01-14 09:50:10,1470.7406386470898,2,38,0.5501165986061096,4.008304119110107,26.69639409171046,26.41359105489452,108.0566328387106,94.1893152292886,6.47544875391759e-05,0.1043562516570091,0,0,0
8857,338555.5814330775,2011-01-14 09:50:40,1500.7557489373517,2,38,0.5501165986061096,4.010894298553467,26.700980451422858,26.41359105489452,108.07502193548824,94.1893152292886,6.47544875391759e-05,0.1043562516570091,0,0,0
8858,338585.5965548764,2011-01-14 09:51:10,1530.7708707613592,2,38,0.5501165986061096,4.013160705566406,26.70556681486715,26.41359105489452,108.09342229697964,94.1893152292886,3.23295607813634e-05,0.1043562516570091,0,0,0
8859,338615.61166842986,2011-01-14 09:51:40,1560.7859842896912,2,38,0.5501165986061096,4.015589237213135,26.71015318333444,26.41359105489452,108.1118338347854,94.1893152292886,3.24249267578125e-05,0.1043562516570091,0,0,0
8860,338645.6268070858,2011-01-14 09:52:10,1590.8011229656993,2,38,0.5499359965324402,4.018017292022705,26.714739515668057,26.41359105489452,108.13025632881728,94.1893152292886,6.47544875391759e-05,0.1043562516570091,0,0,0
8861,338675.6418913061,2011-01-14 09:52:40,1620.8162071659367,2,38,0.550297200679779,4.020445823669434,26.719325933236213,26.41359105489452,108.14869018780576,94.1893152292886,6.47544875391759e-05,0.1043562516570091,0,0,0
8862,338705.6570105587,2011-01-14 09:53:10,1650.8313264185354,2,38,0.5499359965324402,4.022873878479004,26.723912284028746,26.41359105489452,108.16713505166412,94.1893152292886,6.47544875391759e-05,0.1043562516570091,0,0,0
8863,338735.6721804425,2011-01-14 09:53:40,1680.8464963123477,2,38,0.5501165986061096,4.025302410125732,26.72849871984863,26.41359105489452,108.18559146208013,94.1893152292886,6.47544875391759e-05,0.1043562516570091,0,0,0
8864,338765.68736115826,2011-01-14 09:54:10,1710.8616770381566,2,38,0.5501165986061096,4.027730464935303,26.7330851179007,26.41359105489452,108.20405892597502,94.1893152292886,3.23295607813634e-05,0.1043562516570091,0,0,0
8865,338795.7023485071,2011-01-14 09:54:40,1740.876664361948,2,38,0.5501165986061096,4.030158996582031,26.737671443149704,26.41359105489452,108.22253719979204,94.1893152292886,6.47544875391759e-05,0.1043562516570091,0,0,0
8866,338825.7176764047,2011-01-14 09:55:10,1770.8919922645673,2,38,0.5501165986061096,4.032587051391602,26.742257839940137,26.41359105489452,108.24102707060264,94.1893152292886,3.23295607813634e-05,0.1043562516570091,0,0,0
8867,338855.7348747591,2011-01-14 09:55:40,1800.9091907442396,2,38,0.5501165986061096,4.035177230834961,26.74684451899819,26.41359105489452,108.25952943380088,94.1893152292886,6.47544875391759e-05,0.1043562516570091,0,0,0
8868,338885.7477325404,2011-01-14 09:56:10,1830.9220484102689,2,38,0.5501165986061096,4.03776741027832,26.751430524280995,26.41359105489452,108.27804051655323,94.1893152292886,9.71794142969884e-05,0.1043562516570091,0,0,0
8869,338915.7628145001,2011-01-14 09:56:40,1860.9371303949845,2,38,0.5501165986061096,4.040195465087891,26.756016908347807,26.41359105489452,108.29656470373938,94.1893152292886,6.47544875391759e-05,0.1043562516570091,0,0,0
8870,338945.7780599171,2011-01-14 09:57:10,1890.952375791974,2,38,0.5501165986061096,4.04278564453125,26.76060332535706,26.41359105489452,108.31510050102126,94.1893152292886,6.47544875391759e-05,0.1043562516570091,0,0,0
8871,338975.79303662945,2011-01-14 09:57:40,1920.9673524942937,2,38,0.5499359965324402,4.0452141761779785,26.76518967698198,26.41359105489452,108.3336476298759,94.1893152292886,6.47544875391759e-05,0.1043562516570091,0,0,0
8872,339005.8081621577,2011-01-14 09:58:10,1950.982478047596,2,38,0.5501165986061096,4.047804355621338,26.769776070025728,26.41359105489452,108.35220668883352,94.1893152292886,3.24249267578125e-05,0.1043562516570091,0,0,0
8873,339035.823276468,2011-01-14 09:58:41,1980.997592332814,2,38,0.5501165986061096,4.050556182861328,26.77436242858667,26.41359105489452,108.37077746060446,94.1893152292886,6.47544875391759e-05,0.1043562516570091,0,0,0
8874,339065.8384145024,2011-01-14 09:59:11,2011.0127303922857,2,38,0.550297200679779,4.053146362304688,26.77894876205256,26.41359105489452,108.3893599174616,94.1893152292886,9.70840483205393e-05,0.1043562516570091,0,0,0
8875,339095.8536224861,2011-01-14 09:59:41,2041.0279383509671,2,38,0.5499359965324402,4.055574893951416,26.78353509773931,26.41359105489452,108.40795442000528,94.1893152292886,6.47544875391759e-05,0.1043562516570091,0,0,0
8876,339125.8686179552,2011-01-14 10:00:11,2071.0429338250715,2,38,0.5501165986061096,4.058326721191406,26.788121475513112,26.41359105489452,108.4265611121115,94.1893152292886,6.47544875391759e-05,0.1043562516570091,0,0,0
8877,339155.88373137324,2011-01-14 10:00:41,2101.058047263179,2,38,0.5499359965324402,4.060755252838135,26.792707920219048,26.41359105489452,108.44518012116384,94.1893152292886,6.47544875391759e-05,0.1043562516570091,0,0,0
8878,339185.8987397345,2011-01-14 10:01:11,2131.073055624402,2,38,0.5499359965324402,4.063507080078125,26.79729423973607,26.41359105489452,108.46381035518348,94.1893152292886,9.70840483205393e-05,0.1043562516570091,0,0,0
8879,339215.9139594024,2011-01-14 10:01:41,2161.0882752722173,2,38,0.5501165986061096,4.066097259521484,26.801879788481266,26.41359105489452,108.48244975628576,94.1893152292886,6.47544875391759e-05,0.1043562516570091,0,0,0
8880,339245.92895911704,2011-01-14 10:02:11,2191.1032749969154,2,38,0.5501165986061096,4.069011211395264,26.806465349886206,26.41359105489452,108.5011015883702,94.1893152292886,9.70840483205393e-05,0.1043562516570091,0,0,0
8881,339275.94432519475,2011-01-14 10:02:41,2221.1186410847035,2,38,0.5499359965324402,4.071763515472412,26.8110510575076,26.41359105489452,108.51976656401452,94.1893152292886,0.0001295089750783,0.1043562516570091,0,0,0
8882,339305.9594113299,2011-01-14 10:03:11,2251.133727194701,2,38,0.5501165986061096,4.074353694915772,26.8156365761062,26.41359105489452,108.53844329266974,94.1893152292886,6.47544875391759e-05,0.1043562516570091,0,0,0
8883,339335.97441916977,2011-01-14 10:03:41,2281.1487350446496,2,38,0.5501165986061096,4.077105522155762,26.820222142821404,26.41359105489452,108.55713281132412,94.1893152292886,6.47544875391759e-05,0.1043562516570091,0,0,0
8884,339365.989543876,2011-01-14 10:04:11,2311.163859745828,2,38,0.5501165986061096,4.080019474029541,26.82480771299495,26.41359105489452,108.57583502761878,94.1893152292886,9.70840483205393e-05,0.1043562516570091,0,0,0
8885,339396.0046486826,2011-01-14 10:04:41,2341.178964562448,2,38,0.5501165986061096,4.0827717781066895,26.82939409395024,26.41359105489452,108.594553528709,94.1893152292886,6.47544875391759e-05,0.1043562516570091,0,0,0
8886,339426.02004278015,2011-01-14 10:05:11,2371.194358745257,2,38,0.550297200679779,4.085685729980469,26.83398057123387,26.41359105489452,108.61328555086511,94.1893152292886,6.47544875391759e-05,0.1043562516570091,0,0,0
8887,339456.0350095728,2011-01-14 10:05:41,2401.2093254476545,2,38,0.5501165986061096,4.088437557220459,26.83856703714594,26.41359105489452,108.63203076694738,94.1893152292886,6.47544875391759e-05,0.1043562516570091,0,0,0
8888,339486.04998986906,2011-01-14 10:06:11,2431.224305748944,2,38,0.5501165986061096,4.091351509094238,26.843153423548426,26.41359105489452,108.65078901883932,94.1893152292886,6.47544875391759e-05,0.1043562516570091,0,0,0
8889,339516.0651029262,2011-01-14 10:06:41,2461.239418801089,2,38,0.5501165986061096,4.094427585601807,26.847739879690906,26.41359105489452,108.66956092676784,94.1893152292886,0.0001295089750783,0.1043562516570091,0,0,0
8890,339546.0802221187,2011-01-14 10:07:11,2491.254537988525,2,38,0.5499359965324402,4.097503185272217,26.852326324052942,26.41359105489452,108.68834643077405,94.1893152292886,9.70840483205393e-05,0.1043562516570091,0,0,0
8891,339576.09544420755,2011-01-14 10:07:41,2521.2697600874485,2,38,0.5501165986061096,4.100579261779785,26.856912802933643,26.41359105489452,108.70714591621145,94.1893152292886,9.71794142969884e-05,0.1043562516570091,0,0,0
8892,339606.11043803254,2011-01-14 10:08:11,2551.284753917456,2,38,0.5499359965324402,4.103331089019775,26.8614992667176,26.41359105489452,108.72595930457258,94.1893152292886,6.47544875391759e-05,0.1043562516570091,0,0,0
8893,339636.1255631247,2011-01-14 10:08:41,2581.2998789795333,2,38,0.5501165986061096,4.106568813323975,26.866085749574538,26.41359105489452,108.74478692790356,94.1893152292886,9.70840483205393e-05,0.1043562516570091,0,0,0
8894,339666.14286995947,2011-01-14 10:09:11,2611.3171858393225,2,38,0.5501165986061096,4.109644889831543,26.87067249709255,26.41359105489452,108.76362977139256,94.1893152292886,6.47544875391759e-05,0.1043562516570091,0,0,0
8895,339696.15581636666,2011-01-14 10:09:41,2641.330132246522,2,38,0.5499359965324402,4.112720489501953,26.875258614653102,26.41359105489452,108.78248430570312,94.1893152292886,9.70840483205393e-05,0.1043562516570091,0,0,0
8896,339726.1709292985,2011-01-14 10:10:11,2671.3452452685924,2,38,0.5501165986061096,4.115958213806152,26.879845148172368,26.41359105489452,108.80135488608838,94.1893152292886,9.71794142969884e-05,0.1043562516570091,0,0,0
8897,339756.1860258345,2011-01-14 10:10:41,2701.3603416943,2,38,0.5499359965324402,4.1190338134765625,26.884431617810463,26.41359105489452,108.82023979682596,94.1893152292886,6.47544875391759e-05,0.1043562516570091,0,0,0
8898,339786.20114497177,2011-01-14 10:11:11,2731.375460831611,2,38,0.5501165986061096,4.122271537780762,26.889018169362,26.41359105489452,108.83913977699436,94.1893152292886,6.47544875391759e-05,0.1043562516570091,0,0,0
8899,339816.21624451526,2011-01-14 10:11:41,2761.390560370076,2,38,0.5499359965324402,4.12567138671875,26.89360466604761,26.41359105489452,108.85805420801212,94.1893152292886,0.0001295089750783,0.1043562516570091,0,0,0
8900,339846.23137143697,2011-01-14 10:12:11,2791.405687291789,2,38,0.5501165986061096,4.12874698638916,26.898191190322738,26.41359105489452,108.87698362429944,94.1893152292886,6.47544875391759e-05,0.1043562516570091,0,0,0
8901,339876.2464945642,2011-01-14 10:12:41,2821.420810449119,2,38,0.5499359965324402,4.131984710693359,26.90277768066435,26.41359105489452,108.89592785243978,94.1893152292886,6.47544875391759e-05,0.1043562516570091,0,0,0
8902,339906.2616240624,2011-01-14 10:13:11,2851.4359399221908,2,38,0.5501165986061096,4.1355462074279785,26.90736416272864,26.41359105489452,108.91488719514228,94.1893152292886,9.70840483205393e-05,0.1043562516570091,0,0,0
8903,339936.2767084932,2011-01-14 10:13:41,2881.4510243530026,2,38,0.5499359965324402,4.138622283935547,26.911950614755625,26.41359105489452,108.93386165888091,94.1893152292886,6.47544875391759e-05,0.1043562516570091,0,0,0
8904,339966.2918239313,2011-01-14 10:14:11,2911.4661397910945,2,38,0.550297200679779,4.142183780670166,26.916537162707748,26.41359105489452,108.95285196324232,94.1893152292886,9.71794142969884e-05,0.1043562516570091,0,0,0
8905,339996.30694766005,2011-01-14 10:14:41,2941.481263509824,2,38,0.5499359965324402,4.145583152770996,26.921123647306462,26.41359105489452,108.97185758549398,94.1893152292886,9.70840483205393e-05,0.1043562516570091,0,0,0
8906,340026.322221528,2011-01-14 10:15:11,2971.496537382785,2,38,0.550297200679779,4.149144649505615,26.925710105188625,26.41359105489452,108.9908791584179,94.1893152292886,0.0001295089750783,0.1043562516570091,0,0,0
8907,340056.3371769723,2011-01-14 10:15:41,3001.5114928521853,2,38,0.5501165986061096,4.152544498443604,26.93029641762923,26.41359105489452,109.0099160775781,94.1893152292886,3.24249267578125e-05,0.1043562516570091,0,0,0
8908,340086.35229881137,2011-01-14 10:16:11,3031.526614666168,2,38,0.5501165986061096,4.156105995178223,26.934882916466865,26.41359105489452,109.02896989805396,94.1893152292886,9.71794142969884e-05,0.1043562516570091,0,0,0
8909,340116.36741979327,2011-01-14 10:16:41,3061.541735678152,2,38,0.5501165986061096,4.159667491912842,26.939469361310625,26.41359105489452,109.048039746108,94.1893152292886,9.71794142969884e-05,0.1043562516570091,0,0,0
8910,340146.3827516758,2011-01-14 10:17:11,3091.5570676459024,2,38,0.5501165986061096,4.163066864013672,26.944055848704902,26.41359105489452,109.06712605300106,94.1893152292886,6.47544875391759e-05,0.1043562516570091,0,0,0
8911,340176.39763975726,2011-01-14 10:17:41,3121.571955627101,2,38,0.5501165986061096,4.166952133178711,26.948642220032745,26.41359105489452,109.08622823542797,94.1893152292886,9.70840483205393e-05,0.1043562516570091,0,0,0
8912,340206.4127372055,2011-01-14 10:18:11,3151.5870530903944,2,38,0.5499359965324402,4.17051362991333,26.95322869823184,26.41359105489452,109.10534739896552,94.1893152292886,9.70840483205393e-05,0.1043562516570091,0,0,0
8913,340236.42786053824,2011-01-14 10:18:41,3181.602176408125,2,38,0.550297200679779,4.174237251281738,26.957815179459963,26.41359105489452,109.1244832290348,94.1893152292886,0.0001295089750783,0.1043562516570091,0,0,0
8914,340266.4431434688,2011-01-14 10:19:11,3211.617459333647,2,38,0.5501165986061096,4.177636623382568,26.962401617148707,26.41359105489452,109.14363547265124,94.1893152292886,9.70840483205393e-05,0.1043562516570091,0,0,0
8915,340296.4581327675,2011-01-14 10:19:41,3241.632448647398,2,38,0.5501165986061096,4.181360244750977,26.966987975861105,26.41359105489452,109.16280427968408,94.1893152292886,9.71794142969884e-05,0.1043562516570091,0,0,0
8916,340326.47328544344,2011-01-14 10:20:11,3271.647601333323,2,38,0.5501165986061096,4.185083389282227,26.97157440823904,26.41359105489452,109.1819905893942,94.1893152292886,6.47544875391759e-05,0.1043562516570091,0,0,0
8917,340356.4883810471,2011-01-14 10:20:41,3301.6626969369813,2,38,0.5501165986061096,4.188807010650635,26.976160749950463,26.41359105489452,109.20119369186772,94.1893152292886,6.47544875391759e-05,0.1043562516570091,0,0,0
8918,340386.50356928667,2011-01-14 10:21:11,3331.677885271754,2,38,0.550297200679779,4.192692279815674,26.980747084885664,26.41359105489452,109.22041411666278,94.1893152292886,9.71794142969884e-05,0.1043562516570091,0,0,0
8919,340416.51860499097,2011-01-14 10:21:41,3361.6929208558254,2,38,0.5501165986061096,4.196577072143555,26.985333400174152,26.41359105489452,109.23965189992114,94.1893152292886,9.70840483205393e-05,0.1043562516570091,0,0,0
8920,340443.61190440453,2011-01-14 10:22:08,3388.786220289414,2,38,0.5501165986061096,4.200138568878174,26.98947331131902,26.41359105489452,109.25703235276364,94.1893152292886,9.70840483205393e-05,0.1043562516570091,0,0,0
8921,340473.6386273131,2011-01-14 10:22:38,30.01225762053117,3,38,0.0,4.096046447753906,26.98947331131902,26.41359105489452,109.25703235276364,94.1893152292886,-0.0005180359003134,0.1043562516570091,0,0,0
8922,340503.6536222408,2011-01-14 10:23:08,60.02725254827416,3,38,0.0,4.0826096534729,26.98947331131902,26.41359105489452,109.25703235276364,94.1893152292886,-0.0002590179501567,0.1043562516570091,0,0,0
8923,340533.6687453932,2011-01-14 10:23:38,90.0423757306672,3,38,0.0,4.074191570281982,26.98947331131902,26.41359105489452,109.25703235276364,94.1893152292886,-0.0001942634553415,0.1043562516570091,0,0,0
8924,340563.6370248917,2011-01-14 10:24:08,120.01065529936147,3,38,0.0,4.068525791168213,26.98947331131902,26.41359105489452,109.25703235276364,94.1893152292886,-0.0001295089750783,0.1043562516570091,0,0,0
8925,340563.6378676428,2011-01-14 10:24:09,2.631558654e-06,4,38,1.047153353691101,4.199976921081543,26.98947331208448,26.41359105489452,109.25703235597854,94.1893152292886,0.0,0.1043562516570091,0,0,0
8926,340563.9349438481,2011-01-14 10:24:09,0.297078856920324,4,38,0.996402144432068,4.199653148651123,26.9895566383553,26.41359105489452,109.25738232078814,94.1893152292886,-6.47544875391759e-05,0.1043562516570091,0,0,0
8927,340565.3722251053,2011-01-14 10:24:10,1.734360124078473,4,38,0.9463733434677124,4.199814796447754,26.98994340021145,26.41359105489452,109.2590066479621,94.1893152292886,-3.24249267578125e-05,0.1043562516570091,0,0,0
8928,340567.8096747648,2011-01-14 10:24:13,4.171809778602055,4,38,0.8963446021080017,4.199814796447754,26.99056635335129,26.41359105489452,109.26162294698896,94.1893152292886,0.0,0.1043562516570091,0,0,0
8929,340571.293981755,2011-01-14 10:24:16,7.656116768715877,4,38,0.8457739949226379,4.199814796447754,26.9914083549729,26.41359105489452,109.26515922597515,94.1893152292886,-3.24249267578125e-05,0.1043562516570091,0,0,0
8930,340575.93474712013,2011-01-14 10:24:21,12.296882133933805,4,38,0.7953839898109436,4.199814796447754,26.99246494158076,26.41359105489452,109.26959672490996,94.1893152292886,0.0,0.1043562516570091,0,0,0
8931,340581.9500528078,2011-01-14 10:24:27,18.31218781655819,4,38,0.7453552484512329,4.199814796447754,26.99375049450964,26.41359105489452,109.2749958647766,94.1893152292886,-3.24249267578125e-05,0.1043562516570091,0,0,0
8932,340589.7936692384,2011-01-14 10:24:35,26.15580425213609,4,38,0.6953264474868774,4.199976921081543,26.99531733946404,26.41359105489452,109.2815764008721,94.1893152292886,3.24249267578125e-05,0.1043562516570091,0,0,0
8933,340600.3247416862,2011-01-14 10:24:45,36.68687670501866,4,38,0.6451171040534973,4.199814796447754,26.99727398264242,26.41359105489452,109.28979404075704,94.1893152292886,0.0,0.1043562516570091,0,0,0
8934,340615.49696529086,2011-01-14 10:25:00,51.85910030460532,4,38,0.5949077010154724,4.199814796447754,26.99988046259429,26.41359105489452,109.30074090264895,94.1893152292886,0.0,0.1043562516570091,0,0,0
8935,340639.7148791137,2011-01-14 10:25:25,76.07701423779265,4,38,0.5448789596557617,4.199814796447754,27.003700126622157,26.41359105489452,109.31678294689642,94.1893152292886,-3.24249267578125e-05,0.1043562516570091,0,0,0
8936,340685.6983417113,2011-01-14 10:26:11,122.06047672005612,4,38,0.4948501884937286,4.199653148651123,27.01030478927693,26.41359105489452,109.34452157141432,94.1893152292886,-3.23295607813634e-05,0.1043562516570091,0,0,0
8937,340771.55628220184,2011-01-14 10:27:37,207.91841722562384,4,38,0.4448214173316955,4.199653148651123,27.02146796861436,26.41359105489452,109.39140531986632,94.1893152292886,-6.47544875391759e-05,0.1043562516570091,0,0,0
8938,340897.44705174514,2011-01-14 10:29:42,333.80918686919705,4,38,0.3947926461696625,4.199814796447754,27.036130423070983,26.41359105489452,109.45298557607224,94.1893152292886,-3.24249267578125e-05,0.1043562516570091,0,0,0
8939,341051.75468322705,2011-01-14 10:32:17,488.1168182508714,4,38,0.3447638750076294,4.199814796447754,27.051957699545213,26.41359105489452,109.51945797262024,94.1893152292886,0.0,0.1043562516570091,0,0,0
8940,341236.11130264273,2011-01-14 10:35:21,672.473437656544,4,38,0.2947351038455963,4.199814796447754,27.068300863027584,26.41359105489452,109.58809685276408,94.1893152292886,-3.24249267578125e-05,0.1043562516570091,0,0,0
8941,341460.1074341343,2011-01-14 10:39:05,896.4695691481076,4,38,0.2447063326835632,4.199653148651123,27.085046875280227,26.41359105489452,109.6584278749024,94.1893152292886,-6.47544875391759e-05,0.1043562516570091,0,0,0
8942,341740.3055450014,2011-01-14 10:43:45,1176.667680025217,4,38,0.1944969445466995,4.199814796447754,27.102094169817377,26.41359105489452,109.73002406878396,94.1893152292886,0.0,0.1043562516570091,0,0,0
8943,342116.9397715063,2011-01-14 10:50:02,1553.3019065050587,4,38,0.1444681733846664,4.199814796447754,27.119738667116955,26.41359105489452,109.80412837129828,94.1893152292886,0.0,0.1043562516570091,0,0,0
8944,342684.6176865808,2011-01-14 10:59:30,2120.9798216046147,4,38,0.0944394096732139,4.199814796447754,27.13829842516389,26.41359105489452,109.88207666779554,94.1893152292886,0.0,0.1043562516570091,0,0,0
8945,343695.0849318691,2011-01-14 11:16:20,3131.4470668627964,4,38,0.0498289167881011,4.199814796447754,27.15778294374895,26.41359105489452,109.96390896330938,94.1893152292886,0.0,0.1043562516570091,0,0,0
8946,343725.1072006528,2011-01-14 11:16:50,30.015296038202905,5,38,0.0,4.190263748168945,27.15778294374895,26.41359105489452,109.96390896330938,94.1893152292886,0.0,0.1043562516570091,0,0,0
8947,343755.10661482846,2011-01-14 11:17:20,60.014710163792834,5,38,0.0,4.188483238220215,27.15778294374895,26.41359105489452,109.96390896330938,94.1893152292886,-3.23295607813634e-05,0.1043562516570091,0,0,0
8948,343755.301928921,2011-01-14 11:17:21,0.187445782565779,6,38,-1.9243103452026844e-05,4.188644886016846,27.15778294374895,26.413591055896475,109.96390896330938,94.18931523348544,0.0,0.1076892986893653,0,0,0
8949,343760.13007018465,2011-01-14 11:17:25,5.015587066226595,6,38,0.0007031940040178,4.188483238220215,27.15778383675305,26.41359105598015,109.96391270374762,94.18931523383591,-3.23295607813634e-05,0.1076892986893653,0,0,0
8950,343779.0281927275,2011-01-14 11:17:44,18.89017030175206,7,38,-1.099568486213684,3.9882304668426514,27.15778383675305,26.419360731685565,109.96391270374762,94.21245123629774,-0.0016188144218176,0.1076892986893653,0,0,0
8951,343809.04330438114,2011-01-14 11:18:14,48.90528195541195,7,38,-1.0993878841400146,3.939502716064453,27.15778383675305,26.42852825486364,109.96391270374762,94.2487814263272,-0.0011655807029455,0.1076892986893653,0,0,0
8952,343839.0585536027,2011-01-14 11:18:44,78.92053120700822,7,38,-1.0993878841400146,3.902916669845581,27.15778383675305,26.4376958322827,109.96391270374762,94.28472249679471,-0.0008741855854168,0.1076892986893653,0,0,0
8953,343869.0737553108,2011-01-14 11:19:14,108.93573289004904,7,38,-1.0993878841400146,3.874262809753418,27.15778383675305,26.446863407766127,109.96391270374762,94.32036662787306,-0.0007122993702068,0.1076892986893653,0,0,0
8954,343899.0909585674,2011-01-14 11:19:44,138.95293624186434,7,38,-1.099568486213684,3.8514368534088135,27.15778383675305,26.456031620606037,109.96391270374762,94.35577862188414,-0.0005504131549969,0.1076892986893653,0,0,0
8955,343929.1038115417,2011-01-14 11:20:14,168.965789141013,7,38,-1.0993878841400146,3.832010746002197,27.15778383675305,26.46519851149709,109.96391270374762,94.39099290446458,-0.0004856109735555,0.1076892986893653,0,0,0
8956,343959.1188929049,2011-01-14 11:20:44,198.98087048914212,7,38,-1.099568486213684,3.815012693405152,27.15778383675305,26.47436604702651,109.96391270374762,94.42604374866175,-0.0004209041653666,0.1076892986893653,0,0,0
8957,343989.13403060846,2011-01-14 11:21:14,228.9960081827015,7,38,-1.099568486213684,3.799633502960205,27.15778383675305,26.48353359302367,109.96391270374762,94.46094625104,-0.0003885269106831,0.1076892986893653,0,0,0
8958,344019.14914742,2011-01-14 11:21:44,259.0111250944662,7,38,-1.0993878841400146,3.7855494022369385,27.15778383675305,26.49270119044748,109.96391270374762,94.4957139178077,-0.0003561496851034,0.1076892986893653,0,0,0
8959,344049.16424192087,2011-01-14 11:22:14,289.02621950013884,7,38,-1.099568486213684,3.772436618804932,27.15778383675305,26.50186875395348,109.96391270374762,94.53035697695957,-0.0003561496851034,0.1076892986893653,0,0,0
8960,344079.1793617249,2011-01-14 11:22:45,319.0413393041118,7,38,-1.099568486213684,3.760133266448975,27.15778383675305,26.511036391409203,109.96391270374762,94.564883473239,-0.0002913951757363,0.1076892986893653,0,0,0
8961,344109.19456813467,2011-01-14 11:23:15,349.056545834233,7,38,-1.099568486213684,3.7481539249420166,27.15778383675305,26.52020402546244,109.96391270374762,94.59929958710153,-0.0003237724304199,0.1076892986893653,0,0,0
8962,344139.2096212374,2011-01-14 11:23:45,379.0715988467411,7,38,-1.0993878841400146,3.737307548522949,27.15778383675305,26.52937161365434,109.96391270374762,94.63361014361246,-0.0002590179501567,0.1076892986893653,0,0,0
8963,344169.2247231418,2011-01-14 11:24:15,409.0867007210278,7,38,-1.099568486213684,3.726299285888672,27.15778383675305,26.53853918914385,109.96391270374762,94.66782018951332,-0.0002913951757363,0.1076892986893653,0,0,0
8964,344199.23982822406,2011-01-14 11:24:45,439.1018058033098,7,38,-1.099568486213684,3.716100454330444,27.15778383675305,26.547706730277564,109.96391270374762,94.70193414215926,-0.0002590179501567,0.1076892986893653,0,0,0
8965,344229.2550905432,2011-01-14 11:25:15,469.11706812748696,7,38,-1.0993878841400146,3.7062253952026367,27.15778383675305,26.55687438454009,109.96391270374762,94.73595581133227,-0.0002266406954731,0.1076892986893653,0,0,0
8966,344259.27005960647,2011-01-14 11:25:45,499.1320371857553,7,38,-1.099568486213684,3.696512222290039,27.15778383675305,26.566041919006956,109.96391270374762,94.76988778585498,-0.0002590179501567,0.1076892986893653,0,0,0
8967,344289.28520321986,2011-01-14 11:26:15,529.1471808141059,7,38,-1.0997490882873535,3.6872847080230713,27.15778383675305,26.5752095616398,109.96391270374762,94.80373383287434,-0.0001942634553415,0.1076892986893653,0,0,0
8968,344319.30042051175,2011-01-14 11:26:45,559.1623981010364,7,38,-1.0997490882873535,3.678057193756104,27.15778383675305,26.58437717265177,109.96391270374762,94.8374956616461,-0.0002913951757363,0.1076892986893653,0,0,0
8969,344349.3155960947,2011-01-14 11:27:15,589.1775736790154,7,38,-1.099568486213684,3.6694774627685542,27.15778383675305,26.59354471368196,109.96391270374762,94.87117476349428,-0.0002266406954731,0.1076892986893653,0,0,0
8970,344379.3305391984,2011-01-14 11:27:45,619.192516777584,7,38,-1.099568486213684,3.660573720932007,27.15778383675305,26.60271223319675,109.96391270374762,94.90477320447842,-0.0002590179501567,0.1076892986893653,0,0,0
8971,344409.3456529372,2011-01-14 11:28:15,649.2076305214534,7,38,-1.0993878841400146,3.652155637741089,27.15778383675305,26.611879792880583,109.96391270374762,94.93829259160222,-0.0002266406954731,0.1076892986893653,0,0,0
8972,344439.36077507195,2011-01-14 11:28:45,679.2227526612481,7,38,-1.099568486213684,3.644061326980591,27.15778383675305,26.621047329539746,109.96391270374762,94.97173597497866,-0.0002266406954731,0.1076892986893653,0,0,0
8973,344469.37591341214,2011-01-14 11:29:15,709.2378909964065,7,38,-1.099568486213684,3.6359670162200928,27.15778383675305,26.63021485553596,109.96391270374762,95.0051054404996,-0.0002266406954731,0.1076892986893653,0,0,0
8974,344499.3910260382,2011-01-14 11:29:45,739.2530036224898,7,38,-1.099568486213684,3.6280345916748047,27.15778383675305,26.639382396972252,109.96391270374762,95.03840174811972,-0.0001618862152099,0.1076892986893653,0,0,0
8975,344529.4061383485,2011-01-14 11:30:15,769.2681159277739,7,38,-1.0993878841400146,3.620264053344727,27.15778383675305,26.6485499673714,109.96391270374762,95.07162634064149,-0.0002266406954731,0.1076892986893653,0,0,0
8976,344559.421281626,2011-01-14 11:30:45,799.2832592052499,7,38,-1.0993878841400146,3.612817287445069,27.15778383675305,26.657717477368887,109.96391270374762,95.10478052664094,-0.0001942634553415,0.1076892986893653,0,0,0
8977,344589.4363862221,2011-01-14 11:31:15,829.2983638013202,7,38,-1.0993878841400146,3.6050467491149902,27.15778383675305,26.66688499629121,109.96391270374762,95.13786547182993,-0.0001942634553415,0.1076892986893653,0,0,0
8978,344619.4514745476,2011-01-14 11:31:45,859.3134521218267,7,38,-1.0997490882873535,3.597599983215332,27.15778383675305,26.67605254442716,109.96391270374762,95.17088204273132,-0.0002590179501567,0.1076892986893653,0,0,0
8979,344649.4665939456,2011-01-14 11:32:15,889.3285715147751,7,38,-1.099568486213684,3.5908010005950928,27.15778383675305,26.685220139787283,109.96391270374762,95.20383247961458,-0.0001618862152099,0.1076892986893653,0,0,0
8980,344679.48184867075,2011-01-14 11:32:45,919.3438262700886,7,38,-1.099568486213684,3.5836780071258545,27.15778383675305,26.694387780632383,109.96391270374762,95.23671833121124,-0.0001618862152099,0.1076892986893653,0,0,0
8981,344709.4968485258,2011-01-14 11:33:15,949.3588261100743,7,38,-1.0992072820663452,3.576878786087036,27.15778383675305,26.703555361980012,109.96391270374762,95.26954061896816,-0.0001618862152099,0.1076892986893653,0,0,0
8982,344739.49855600216,2011-01-14 11:33:45,979.3605337066996,7,38,-1.099568486213684,3.570241451263428,27.15778383675305,26.712718879582205,109.96391270374762,95.30228657558108,-0.0001618862152099,0.1076892986893653,0,0,0
8983,344769.51174003654,2011-01-14 11:34:15,1009.373717645902,7,38,-1.099568486213684,3.5634422302246094,27.15778383675305,26.72188598006364,109.96391270374762,95.33498481190902,-0.0002266406954731,0.1076892986893653,0,0,0
8984,344799.5265648052,2011-01-14 11:34:45,1039.3885423794688,7,38,-1.099568486213684,3.557614326477051,27.15778383675305,26.73105343270543,109.96391270374762,95.36762658008244,-0.0001618862152099,0.1076892986893653,0,0,0
8985,344829.5416836418,2011-01-14 11:35:15,1069.4036612160307,7,38,-1.099568486213684,3.5514626502990723,27.15778383675305,26.740220997489377,109.96391270374762,95.40021249136012,-0.0001618862152099,0.1076892986893653,0,0,0
8986,344859.5570392434,2011-01-14 11:35:45,1099.4190168277091,7,38,-1.0997490882873535,3.5453109741210938,27.15778383675305,26.749388614176823,109.96391270374762,95.43274336433616,-0.0001618862152099,0.1076892986893653,0,0,0
8987,344889.5719255956,2011-01-14 11:36:15,1129.4339031848608,7,38,-1.099568486213684,3.539644956588745,27.15778383675305,26.75855617141946,109.96391270374762,95.46521979258137,-0.0001618862152099,0.1076892986893653,0,0,0
8988,344919.5870763867,2011-01-14 11:36:45,1159.4490540512509,7,38,-1.0993878841400146,3.5341408252716064,27.15778383675305,26.767723845412025,109.96391270374762,95.49764427163784,-9.713172767078504e-05,0.1076892986893653,0,0,0
8989,344949.6021560908,2011-01-14 11:37:15,1189.46413367007,7,38,-1.0993878841400146,3.528312921524048,27.15778383675305,26.77689148438651,109.96391270374762,95.53001752940332,-0.0001942634553415,0.1076892986893653,0,0,0
8990,344979.61735026515,2011-01-14 11:37:45,1219.4793279346216,7,38,-1.099568486213684,3.523132562637329,27.15778383675305,26.78605915221869,109.96391270374762,95.56234089597368,-0.0001618862152099,0.1076892986893653,0,0,0
8991,345009.6323951975,2011-01-14 11:38:15,1249.4943727817792,7,38,-1.099568486213684,3.5177903175354004,27.15778383675305,26.795226693554888,109.96391270374762,95.59461540547714,-0.0001942634553415,0.1076892986893653,0,0,0
8992,345039.64750953787,2011-01-14 11:38:45,1279.5094871221352,7,38,-1.0993878841400146,3.5129337310791016,27.15778383675305,26.804394346541528,109.96391270374762,95.62684352043516,-0.0001295089750783,0.1076892986893653,0,0,0
8993,345069.66262899595,2011-01-14 11:39:15,1309.5246065802462,7,38,-1.099568486213684,3.508077383041382,27.15778383675305,26.813561975410387,109.96391270374762,95.65902576778466,-9.713172767078504e-05,0.1076892986893653,0,0,0
8994,345099.67791187635,2011-01-14 11:39:45,1339.5398894656682,7,38,-1.099568486213684,3.503220796585083,27.15778383675305,26.82272964828524,109.96391270374762,95.69116352249678,-0.0001295089750783,0.1076892986893653,0,0,0
8995,345129.69289613754,2011-01-14 11:40:15,1369.5548737418642,7,38,-1.0993878841400146,3.498526096343994,27.15778383675305,26.831897315291847,109.96391270374762,95.72325752535544,-9.713172767078504e-05,0.1076892986893653,0,0,0
8996,345159.70801056817,2011-01-14 11:40:45,1399.5699881523951,7,38,-1.099568486213684,3.4935076236724854,27.15778383675305,26.84106493323389,109.96391270374762,95.75530702736488,-0.0001295089750783,0.1076892986893653,0,0,0
8997,345189.7231041517,2011-01-14 11:41:15,1429.5850817360192,7,38,-1.099568486213684,3.4886510372161865,27.15778383675305,26.850232590718164,109.96391270374762,95.78731242280368,-0.0001295089750783,0.1076892986893653,0,0,0
8998,345219.73851929174,2011-01-14 11:41:45,1459.6004968810728,7,38,-1.0993878841400146,3.483794450759888,27.15778383675305,26.859400287871352,109.96391270374762,95.81927332520796,-0.0001618862152099,0.1076892986893653,0,0,0
8999,345249.75334960426,2011-01-14 11:42:15,1489.615327183519,7,38,-1.099568486213684,3.478775978088379,27.15778383675305,26.868567791278927,109.96391270374762,95.85118786344133,-9.713172767078504e-05,0.1076892986893653,0,0,0
9000,345279.76844840084,2011-01-14 11:42:45,1519.630425980135,7,38,-1.0997490882873535,3.47375750541687,27.15778383675305,26.877735293302425,109.96391270374762,95.88305728173276,-0.0001618862152099,0.1076892986893653,0,0,0
9001,345309.7835768113,2011-01-14 11:43:15,1549.6455543855454,7,38,-1.099568486213684,3.4687390327453613,27.15778383675305,26.886902823390027,109.96391270374762,95.91488097772128,-0.0001618862152099,0.1076892986893653,0,0,0
9002,345339.7988616516,2011-01-14 11:43:45,1579.6608392509022,7,38,-1.099568486213684,3.4635586738586426,27.15778383675305,26.896070423677056,109.96391270374762,95.9466573465562,-0.0001295089750783,0.1076892986893653,0,0,0
9003,345369.8137965848,2011-01-14 11:44:15,1609.6757741891329,7,38,-1.099568486213684,3.458054542541504,27.15778383675305,26.90523800996161,109.96391270374762,95.97838410330944,-0.0001618862152099,0.1076892986893653,0,0,0
9004,345399.8289281882,2011-01-14 11:44:45,1639.6909057925136,7,38,-1.0993878841400146,3.4523885250091557,27.15778383675305,26.914405569394862,109.96391270374762,96.01005977268792,-0.0001618862152099,0.1076892986893653,0,0,0
9005,345429.84403902484,2011-01-14 11:45:15,1669.706016624125,7,38,-1.0997490882873535,3.4465606212615967,27.15778383675305,26.923573183052785,109.96391270374762,96.04168334902202,-0.0001295089750783,0.1076892986893653,0,0,0
9006,345459.8592136204,2011-01-14 11:45:45,1699.72119122968,7,38,-1.0997490882873535,3.440408945083618,27.15778383675305,26.93274085870846,109.96391270374762,96.07325322005649,-0.0001942634553415,0.1076892986893653,0,0,0
9007,345489.8743960254,2011-01-14 11:46:15,1729.7363737198864,7,38,-1.099568486213684,3.43425726890564,27.15778383675305,26.94190843870184,109.96391270374762,96.1047661500304,-0.0001618862152099,0.1076892986893653,0,0,0
9008,345519.88939974,2011-01-14 11:46:45,1759.751377314229,7,38,-1.0993878841400146,3.4274582862854004,27.15778383675305,26.95107605077136,109.96391270374762,96.13621970506756,-0.0002266406954731,0.1076892986893653,0,0,0
9009,345549.9045575687,2011-01-14 11:47:15,1789.7665351429716,7,38,-1.099568486213684,3.420011520385742,27.15778383675305,26.96024374431633,109.96391270374762,96.16760765538923,-0.0001618862152099,0.1076892986893653,0,0,0
9010,345579.9197025805,2011-01-14 11:47:45,1819.7816802449952,7,38,-1.099568486213684,3.411917209625244,27.15778383675305,26.96941137789424,109.96391270374762,96.19892401535348,-0.0001942634553415,0.1076892986893653,0,0,0
9011,345609.93474424974,2011-01-14 11:48:15,1849.796721824008,7,38,-1.099568486213684,3.4031753540039062,27.15778383675305,26.978579028272403,109.96391270374762,96.23016435213316,-0.0002590179501567,0.1076892986893653,0,0,0
9012,345639.9499920577,2011-01-14 11:48:45,1879.811969642031,7,38,-1.099568486213684,3.3939478397369385,27.15778383675305,26.98774673218256,109.96391270374762,96.2613218576536,-0.0002590179501567,0.1076892986893653,0,0,0
9013,345669.9649981784,2011-01-14 11:49:15,1909.8269757576577,7,38,-1.0993878841400146,3.383263349533081,27.15778383675305,26.99691422455945,109.96391270374762,96.29238676053016,-0.0002913951757363,0.1076892986893653,0,0,0
9014,345699.98012150615,2011-01-14 11:49:45,1939.8420990804,7,38,-1.0997490882873535,3.370798110961914,27.15778383675305,27.00608188688795,109.96391270374762,96.32334691229424,-0.0003237724304199,0.1076892986893653,0,0,0
9015,345729.99522130523,2011-01-14 11:50:15,1969.857198879515,7,38,-1.0993878841400146,3.356066465377808,27.15778383675305,27.015249527732557,109.96391270374762,96.3541830168464,-0.0003885269106831,0.1076892986893653,0,0,0
9016,345760.01037460275,2011-01-14 11:50:45,1999.872352176964,7,38,-1.099568486213684,3.338097333908081,27.15778383675305,27.02441716218879,109.96391270374762,96.38487045963664,-0.0005180359003134,0.1076892986893653,0,0,0
9017,345790.02549635153,2011-01-14 11:51:15,2029.887473930797,7,38,-1.099568486213684,3.3160808086395264,27.15778383675305,27.033584819655143,109.96391270374762,96.41537589693888,-0.0006475448608398,0.1076892986893653,0,0,0
9018,345820.0405984614,2011-01-14 11:51:45,2059.902576035658,7,38,-1.0993878841400146,3.288398265838623,27.15778383675305,27.04275235430245,109.96391270374762,96.44565393014578,-0.0008094310760498,0.1076892986893653,0,0,0
9019,345850.05800399714,2011-01-14 11:52:15,2089.919981671628,7,38,-1.099568486213684,3.252459764480591,27.15778383675305,27.05192065431205,109.96391270374762,96.47564525813898,-0.0010684489971026,0.1076892986893653,0,0,0
9020,345880.0709689255,2011-01-14 11:52:45,2119.9329465097626,7,38,-1.099568486213684,3.205674648284912,27.15778383675305,27.061087645998423,109.96391270374762,96.5052567323068,-0.0014245987404137,0.1076892986893653,0,0,0
9021,345910.0859259137,2011-01-14 11:53:15,2149.947903487924,7,38,-1.0997490882873535,3.143672466278076,27.15778383675305,27.07025533358447,109.96391270374762,96.53437549809315,-0.0019102573860436,0.1076892986893653,0,0,0
9022,345940.1010737174,2011-01-14 11:53:45,2179.9630512866684,7,38,-1.099568486213684,3.0590062141418457,27.15778383675305,27.07942297045508,109.96391270374762,96.56282822228911,-0.0026225566398352,0.1076892986893653,0,0,0
9023,345970.11616432364,2011-01-14 11:54:15,2209.978141922946,7,38,-1.0993878841400146,2.9359731674194336,27.15778383675305,27.088590620254877,109.96391270374762,96.59034782493538,-0.0041118622757494,0.1076892986893653,0,0,0
9024,346000.131242564,2011-01-14 11:54:45,2239.9932201683428,7,38,-1.099568486213684,2.7585463523864746,27.15778383675305,27.09775806070989,109.96391270374762,96.61649162612936,-0.0053098676726222,0.1076892986893653,0,0,0
9025,346008.7406136408,2011-01-14 11:54:54,2248.6025912250534,7,38,-1.099568486213684,2.699943780899048,27.15778383675305,27.10038760272542,109.96391270374762,96.6236690460378,-0.0055040838196873,0.1076892986893653,0,0,0
9026,346068.76992288005,2011-01-14 11:55:54,60.01458759330948,8,38,0.0,3.581411600112915,27.15778383675305,27.10038760272542,109.96391270374762,96.6236690460378,0.0012950897216796,0.1076892986893653,0,0,0
9027,346068.9732447078,2011-01-14 11:55:55,0.187437938014744,9,38,-1.9243103452026844e-05,3.581573486328125,27.15778383675305,27.10038760372733,109.96391270374762,96.62366904962624,0.0,0.1036408320069313,0,0,0
9028,346073.801432342,2011-01-14 11:55:59,5.015625662420186,9,38,0.0007031940040178,3.589020252227783,27.157784714288887,27.100387603812123,109.96391585044812,96.62366904992992,0.0010684489971026,0.1036408320069313,0,0,0
