Data_Point,Test_Time(s),Date_Time,Step_Time(s),Step_Index,Cycle_Index,Current(A),Voltage(V),Charge_Capacity(Ah),Discharge_Capacity(Ah),Charge_Energy(Wh),Discharge_Energy(Wh),dV/dt(V/s),Internal_Resistance(Ohm),Is_FC_Data,AC_Impedance(Ohm),ACI_Phase_Angle(Deg)
8127,309477.73288542364,2011-01-14 01:45:59,30.015232810620315,1,35,0.0,3.622044801712036,24.406370658861125,24.353577734626864,98.77414560886842,86.89244686509952,0.0006475448608398,0.104450523853302,0,0,0
8128,309507.74786221626,2011-01-14 01:46:29,60.03020956306487,1,35,0.0,3.6417949199676514,24.406370658861125,24.353577734626864,98.77414560886842,86.89244686509952,0.0004532813909463,0.104450523853302,0,0,0
8129,309537.7630996584,2011-01-14 01:46:59,90.0454470102409,1,35,0.0,3.656040906906128,24.406370658861125,24.353577734626864,98.77414560886842,86.89244686509952,0.0003561496851034,0.104450523853302,0,0,0
8130,309567.73135177366,2011-01-14 01:47:29,120.01369916060028,1,35,0.0,3.666563510894776,24.406370658861125,24.353577734626864,98.77414560886842,86.89244686509952,0.0002913951757363,0.104450523853302,0,0,0
8131,309597.7347478681,2011-01-14 01:47:59,30.015115357891972,2,35,0.550297200679779,3.7884633541107178,24.410957209796557,24.353577734626864,98.79143179946088,86.89244686509952,0.0008418083307333,0.104450523853302,0,0,0
8132,309627.74988789746,2011-01-14 01:48:29,60.030255387272895,2,35,0.5499359965324402,3.8098323345184326,24.4155437971132,24.353577734626864,98.80886159809629,86.89244686509952,0.0003885269106831,0.104450523853302,0,0,0
8133,309657.7649964434,2011-01-14 01:48:59,90.04536393318733,2,35,0.5497553944587708,3.8235926628112793,24.420130346386088,24.353577734626864,98.82636960089108,86.89244686509952,0.0002913951757363,0.104450523853302,0,0,0
8134,309687.78009239794,2011-01-14 01:49:29,120.06045991278262,2,35,0.5499359965324402,3.8342769145965576,24.42471683711443,24.353577734626864,98.84393200115797,86.89244686509952,0.0002913475036621,0.104450523853302,0,0,0
8135,309717.79524083325,2011-01-14 01:49:59,150.0756083431013,2,35,0.550297200679779,3.8431806564331055,24.429303280565737,24.353577734626864,98.86153867898342,86.89244686509952,0.0001942634553415,0.104450523853302,0,0,0
8136,309747.8104232633,2011-01-14 01:50:29,180.09079075812025,2,35,0.5501165986061096,3.8511130809783936,24.433889716774026,24.353577734626864,98.87918419622156,86.89244686509952,0.0001295089750783,0.104450523853302,0,0,0
8137,309777.82543061697,2011-01-14 01:50:59,210.10579813188247,2,35,0.5501165986061096,3.858559846878052,24.43847615513676,24.353577734626864,98.89686495989068,86.89244686509952,0.0001618862152099,0.104450523853302,0,0,0
8138,309807.8405454586,2011-01-14 01:51:29,240.1209129534378,2,35,0.550297200679779,3.86552095413208,24.443062675219657,24.353577734626864,98.9145783977083,86.89244686509952,0.0001942634553415,0.104450523853302,0,0,0
8139,309837.85566216486,2011-01-14 01:51:59,270.13602967974026,2,35,0.5501165986061096,3.871834516525269,24.44764922301085,24.353577734626864,98.9323221449786,86.89244686509952,0.0001618862152099,0.104450523853302,0,0,0
8140,309867.8730000871,2011-01-14 01:52:29,300.1533676069589,2,35,0.5501165986061096,3.877824306488037,24.452236079151948,24.353577734626864,98.9500954145425,86.89244686509952,0.0001295089750783,0.104450523853302,0,0,0
8141,309897.8859023242,2011-01-14 01:52:59,330.16626981901044,2,35,0.5501165986061096,3.8834903240203857,24.45682219460117,24.353577734626864,98.9678925133797,86.89244686509952,0.0001618862152099,0.104450523853302,0,0,0
8142,309927.9010546943,2011-01-14 01:53:29,360.1814222192233,2,35,0.5501165986061096,3.8888325691223145,24.461408708554178,24.353577734626864,98.9857165164086,86.89244686509952,0.0001295089750783,0.104450523853302,0,0,0
8143,309957.91654586385,2011-01-14 01:53:59,390.1969134489034,2,35,0.5501165986061096,3.894174814224243,24.46599527364093,24.353577734626864,99.00356507589912,86.89244686509952,0.0001618862152099,0.104450523853302,0,0,0
8144,309987.9316267207,2011-01-14 01:54:29,420.2119942205959,2,35,0.5499359965324402,3.899031400680542,24.470581798732667,24.353577734626864,99.0214367171034,86.89244686509952,0.0001295089750783,0.104450523853302,0,0,0
8145,310017.9463585177,2011-01-14 01:54:59,450.2267261227984,2,35,0.5501165986061096,3.903887987136841,24.475168240178952,24.353577734626864,99.03933066690524,86.89244686509952,0.0001295089750783,0.104450523853302,0,0,0
8146,310047.9613926231,2011-01-14 01:55:29,480.24176014297166,2,35,0.550297200679779,3.9085826873779297,24.479754710655705,24.353577734626864,99.05724640192844,86.89244686509952,0.0001295089750783,0.104450523853302,0,0,0
8147,310077.9765533089,2011-01-14 01:55:59,510.25692080878497,2,35,0.5499359965324402,3.912953615188599,24.484341158000124,24.353577734626864,99.07518286576756,86.89244686509952,0.0001295089750783,0.104450523853302,0,0,0
8148,310107.9916626518,2011-01-14 01:56:29,540.2720301516857,2,35,0.5501165986061096,3.917324304580689,24.488927560836096,24.353577734626864,99.09313916723112,86.89244686509952,9.713172767078504e-05,0.104450523853302,0,0,0
8149,310138.006866781,2011-01-14 01:56:59,570.2872342908479,2,35,0.5501165986061096,3.921209573745728,24.49351408418176,24.353577734626864,99.11111520423404,86.89244686509952,9.713172767078504e-05,0.104450523853302,0,0,0
8150,310168.02193690115,2011-01-14 01:57:29,600.3023044009686,2,35,0.5501165986061096,3.925256729125977,24.49810058727638,24.353577734626864,99.12910955084531,86.89244686509952,9.713172767078504e-05,0.104450523853302,0,0,0
8151,310198.0371302985,2011-01-14 01:57:59,630.3174978835713,2,35,0.5501165986061096,3.9289801120758057,24.50268709103181,24.353577734626864,99.14712139145236,86.89244686509952,9.713172767078504e-05,0.104450523853302,0,0,0
8152,310228.0523157962,2011-01-14 01:58:29,660.3326832860361,2,35,0.5501165986061096,3.932541608810425,24.50727360406096,24.353577734626864,99.16515011678209,86.89244686509952,9.713172767078504e-05,0.104450523853302,0,0,0
8153,310258.0672803282,2011-01-14 01:58:59,690.3476478230358,2,35,0.5499359965324402,3.935941219329834,24.51186007985405,24.353577734626864,99.18319482089332,86.89244686509952,6.47544875391759e-05,0.104450523853302,0,0,0
8154,310288.0825418855,2011-01-14 01:59:29,720.3629094003517,2,35,0.5499359965324402,3.939502716064453,24.516446652510226,24.353577734626864,99.20125535569598,86.89244686509952,0.0001295089750783,0.104450523853302,0,0,0
8155,310318.0975100565,2011-01-14 01:59:59,750.3778775613838,2,35,0.5501165986061096,3.9425785541534415,24.521033118456018,24.353577734626864,99.21933037953576,86.89244686509952,9.713172767078504e-05,0.104450523853302,0,0,0
8156,310348.1129804091,2011-01-14 02:00:29,780.3933480042566,2,35,0.5499359965324402,3.945654392242432,24.52561963853049,24.353577734626864,99.23742009763768,86.89244686509952,9.713172767078504e-05,0.104450523853302,0,0,0
8157,310378.12775197026,2011-01-14 02:00:59,810.4081195602887,2,35,0.5499359965324402,3.948568344116211,24.53020608344605,24.353577734626864,99.25552355731432,86.89244686509952,6.47544875391759e-05,0.104450523853302,0,0,0
8158,310408.14285079186,2011-01-14 02:01:29,840.42321828673,2,35,0.5499359965324402,3.9516441822052,24.534792603580968,24.353577734626864,99.2736409432298,86.89244686509952,6.47544875391759e-05,0.104450523853302,0,0,0
8159,310438.15813673,2011-01-14 02:01:59,870.438504294935,2,35,0.5501165986061096,3.9543962478637695,24.53937913828559,24.353577734626864,99.29177166484544,86.89244686509952,6.47544875391759e-05,0.104450523853302,0,0,0
8160,310468.17337407183,2011-01-14 02:02:29,900.4537415867238,2,35,0.5501165986061096,3.957310199737549,24.543965702995948,24.353577734626864,99.3099155781448,86.89244686509952,6.47544875391759e-05,0.104450523853302,0,0,0
8161,310498.18819582794,2011-01-14 02:02:59,930.4685633528948,2,35,0.5501165986061096,3.959900379180908,24.54855214561126,24.353577734626864,99.3280718354535,86.89244686509952,3.237724376958795e-05,0.104450523853302,0,0,0
8162,310528.2034622374,2011-01-14 02:03:29,960.4838298374408,2,35,0.5501165986061096,3.962814331054688,24.553138643494396,24.353577734626864,99.3462410630221,86.89244686509952,9.713172767078504e-05,0.104450523853302,0,0,0
8163,310558.21846452844,2011-01-14 02:03:59,990.498832048336,2,35,0.5501165986061096,3.965566396713257,24.557725154826603,24.353577734626864,99.364422902961,86.89244686509952,9.713172767078504e-05,0.104450523853302,0,0,0
8164,310588.23355574615,2011-01-14 02:04:29,1020.5139232660632,2,35,0.5501165986061096,3.968480348587036,24.56231171274672,24.353577734626864,99.38261726329696,86.89244686509952,0.0001295089750783,0.104450523853302,0,0,0
8165,310618.2486495303,2011-01-14 02:04:59,1050.5290170201115,2,35,0.5501165986061096,3.9709086418151855,24.566898201352625,24.353577734626864,99.40082361069972,86.89244686509952,6.47544875391759e-05,0.104450523853302,0,0,0
8166,310648.2638891629,2011-01-14 02:05:29,1080.5442566727845,2,35,0.5501165986061096,3.973498821258545,24.57148477412812,24.353577734626864,99.41904248628292,86.89244686509952,6.47544875391759e-05,0.104450523853302,0,0,0
8167,310678.2788780456,2011-01-14 02:05:59,1110.559245570499,2,35,0.5504778623580933,3.976250886917114,24.576071321160217,24.353577734626864,99.43727330448418,86.89244686509952,9.713172767078504e-05,0.104450523853302,0,0,0
8168,310708.29401040083,2011-01-14 02:06:29,1140.574377910716,2,35,0.5501165986061096,3.9788410663604736,24.580657927318928,24.353577734626864,99.45551600719838,86.89244686509952,0.0001942634553415,0.104450523853302,0,0,0
8169,310738.3091074882,2011-01-14 02:06:59,1170.589474988047,2,35,0.5501165986061096,3.981431245803833,24.585244346247386,24.353577734626864,99.4737700952067,86.89244686509952,9.713172767078504e-05,0.104450523853302,0,0,0
8170,310768.3242461742,2011-01-14 02:07:29,1200.60461369413,2,35,0.5501165986061096,3.9838595390319824,24.58983081670012,24.353577734626864,99.4920360350648,86.89244686509952,6.47544875391759e-05,0.104450523853302,0,0,0
8171,310798.3393542991,2011-01-14 02:07:59,1230.619721798945,2,35,0.550297200679779,3.986449718475342,24.594417252947387,24.353577734626864,99.51031337971668,86.89244686509952,9.713172767078504e-05,0.104450523853302,0,0,0
8172,310828.3544655718,2011-01-14 02:08:29,1260.6348330716555,2,35,0.550297200679779,3.988878011703491,24.599003750135697,24.353577734626864,99.52860246187484,86.89244686509952,9.713172767078504e-05,0.104450523853302,0,0,0
8173,310858.3695587043,2011-01-14 02:08:59,1290.6499262191924,2,35,0.550297200679779,3.9914681911468506,24.603590169438416,24.353577734626864,99.54690263452405,86.89244686509952,9.713172767078504e-05,0.104450523853302,0,0,0
8174,310888.3848572287,2011-01-14 02:09:29,1320.6652247385794,2,35,0.5499359965324402,3.99373459815979,24.608176654098283,24.353577734626864,99.56521433152302,86.89244686509952,6.47544875391759e-05,0.104450523853302,0,0,0
8175,310918.3997943123,2011-01-14 02:09:59,1350.6801618021068,2,35,0.5501165986061096,3.99616265296936,24.61276315863602,24.353577734626864,99.58353739378718,86.89244686509952,3.237724376958795e-05,0.104450523853302,0,0,0
8176,310948.4151377436,2011-01-14 02:10:29,1380.695505263503,2,35,0.5499359965324402,3.9984290599823,24.617349675619696,24.353577734626864,99.60187174453544,86.89244686509952,3.237724376958795e-05,0.104450523853302,0,0,0
8177,310978.43062341446,2011-01-14 02:10:59,1410.710991009516,2,35,0.5501165986061096,4.001181125640869,24.621936168235585,24.353577734626864,99.62021701035678,86.89244686509952,9.70840483205393e-05,0.104450523853302,0,0,0
8178,311008.4317916468,2011-01-14 02:11:29,1440.7121592519047,2,35,0.5501165986061096,4.003609657287598,24.626520454958698,24.353577734626864,99.63856454369832,86.89244686509952,9.71794142969884e-05,0.104450523853302,0,0,0
8179,311038.44465272134,2011-01-14 02:11:59,1470.7250202111416,2,35,0.5501165986061096,4.006037712097168,24.63110650113189,24.353577734626864,99.65693013960048,86.89244686509952,9.70840483205393e-05,0.104450523853302,0,0,0
8180,311068.4600228291,2011-01-14 02:12:29,1500.740390364061,2,35,0.5499359965324402,4.008142471313477,24.635692982056028,24.353577734626864,99.67530851012664,86.89244686509952,3.24249267578125e-05,0.104450523853302,0,0,0
8181,311098.4748940987,2011-01-14 02:12:59,1530.7552616085477,2,35,0.5501165986061096,4.010570526123047,24.6402793620337,24.353577734626864,99.6936973512965,86.89244686509952,6.47544875391759e-05,0.104450523853302,0,0,0
8182,311128.490007226,2011-01-14 02:13:29,1560.7703747459052,2,35,0.5501165986061096,4.012999057769775,24.64486581410033,24.353577734626864,99.71209748749062,86.89244686509952,6.47544875391759e-05,0.104450523853302,0,0,0
8183,311158.5050760479,2011-01-14 02:13:59,1590.7854435527777,2,35,0.5499359965324402,4.015427112579346,24.64945225345362,24.353577734626864,99.73050851397988,86.89244686509952,3.23295607813634e-05,0.104450523853302,0,0,0
8184,311188.5201978819,2011-01-14 02:14:30,1620.8005653817977,2,35,0.5501165986061096,4.017855644226074,24.65403870995055,24.353577734626864,99.74893062347893,86.89244686509952,6.47544875391759e-05,0.104450523853302,0,0,0
8185,311218.5353233801,2011-01-14 02:15:00,1650.8156908849749,2,35,0.5501165986061096,4.020122051239014,24.65862523010072,24.353577734626864,99.76736393954656,86.89244686509952,9.71794142969884e-05,0.104450523853302,0,0,0
8186,311248.55042909895,2011-01-14 02:15:30,1680.830796608856,2,35,0.550297200679779,4.022712230682373,24.66321170648652,24.353577734626864,99.78580811423755,86.89244686509952,9.71794142969884e-05,0.104450523853302,0,0,0
8187,311278.56554022135,2011-01-14 02:16:00,1710.8459077111415,2,35,0.5501165986061096,4.025140285491943,24.667798164689337,24.353577734626864,99.80426321177382,86.89244686509952,9.70840483205393e-05,0.104450523853302,0,0,0
8188,311308.58078142285,2011-01-14 02:16:30,1740.861148927712,2,35,0.5501165986061096,4.027406692504883,24.67238461454471,24.353577734626864,99.8227293937326,86.89244686509952,6.47544875391759e-05,0.104450523853302,0,0,0
8189,311338.595811017,2011-01-14 02:17:00,1770.876178536892,2,35,0.550297200679779,4.029835224151611,24.67697107040255,24.353577734626864,99.84120670293788,86.89244686509952,6.47544875391759e-05,0.104450523853302,0,0,0
8190,311368.6108841597,2011-01-14 02:17:30,1800.891251654508,2,35,0.5501165986061096,4.032263278961182,24.68155747855086,24.353577734626864,99.85969491298516,86.89244686509952,6.47544875391759e-05,0.104450523853302,0,0,0
8191,311398.62607090554,2011-01-14 02:18:00,1830.9064384905453,2,35,0.5499359965324402,4.034691333770752,24.686143882653088,24.353577734626864,99.87819428834342,86.89244686509952,6.47544875391759e-05,0.104450523853302,0,0,0
8192,311428.64123123046,2011-01-14 02:18:30,1860.921598760372,2,35,0.5501165986061096,4.037281513214111,24.690730341503837,24.353577734626864,99.89670513627792,86.89244686509952,9.70840483205393e-05,0.104450523853302,0,0,0
8193,311458.65637491894,2011-01-14 02:19:00,1890.936742433835,2,35,0.5501165986061096,4.03971004486084,24.69531677293316,24.353577734626864,99.9152271620352,86.89244686509952,6.47544875391759e-05,0.104450523853302,0,0,0
8194,311488.6713349046,2011-01-14 02:19:30,1920.9517024094664,2,35,0.5501165986061096,4.04213809967041,24.699903161159543,24.353577734626864,99.93376028787496,86.89244686509952,6.47544875391759e-05,0.104450523853302,0,0,0
8195,311518.6864541121,2011-01-14 02:20:00,1950.966821637003,2,35,0.550297200679779,4.0447282791137695,24.704489663542613,24.353577734626864,99.95230543597262,86.89244686509952,6.47544875391759e-05,0.104450523853302,0,0,0
8196,311548.7016123669,2011-01-14 02:20:30,1980.9819798667447,2,35,0.5501165986061096,4.047156810760498,24.70907611410804,24.353577734626864,99.97086202627216,86.89244686509952,9.71794142969884e-05,0.104450523853302,0,0,0
8197,311578.7167024167,2011-01-14 02:21:00,2010.9970699115488,2,35,0.5501165986061096,4.049746990203857,24.713662544395856,24.353577734626864,99.98943026191732,86.89244686509952,6.47544875391759e-05,0.104450523853302,0,0,0
8198,311608.731819123,2011-01-14 02:21:30,2041.0121866228133,2,35,0.5501165986061096,4.052498817443848,24.718249046499604,24.353577734626864,100.00801047120332,86.89244686509952,9.70840483205393e-05,0.104450523853302,0,0,0
8199,311638.7469166063,2011-01-14 02:22:00,2071.027284101144,2,35,0.5501165986061096,4.055088996887207,24.72283552567684,24.353577734626864,100.02660253434928,86.89244686509952,9.70840483205393e-05,0.104450523853302,0,0,0
8200,311668.76202626503,2011-01-14 02:22:30,2101.04239375482,2,35,0.5501165986061096,4.057517528533936,24.727422060340896,24.353577734626864,100.04520678513737,86.89244686509952,3.24249267578125e-05,0.104450523853302,0,0,0
8201,311698.7771743645,2011-01-14 02:23:00,2131.0575418843887,2,35,0.5501165986061096,4.060107707977295,24.7320085683799,24.353577734626864,100.0638230322166,86.89244686509952,3.24249267578125e-05,0.104450523853302,0,0,0
8202,311728.7923814109,2011-01-14 02:23:30,2161.072748920772,2,35,0.5499359965324402,4.062697887420654,24.73659508423989,24.353577734626864,100.08245096191602,86.89244686509952,6.47544875391759e-05,0.104450523853302,0,0,0
8203,311758.80739319563,2011-01-14 02:24:00,2191.087760700515,2,35,0.5499359965324402,4.0654497146606445,24.74118147344416,24.353577734626864,100.10109077638944,86.89244686509952,9.70840483205393e-05,0.104450523853302,0,0,0
8204,311788.8226101818,2011-01-14 02:24:30,2221.102977681684,2,35,0.550297200679779,4.068363666534424,24.745767967759537,24.353577734626864,100.11974345448468,86.89244686509952,0.0001295089750783,0.104450523853302,0,0,0
8205,311818.8398129422,2011-01-14 02:25:00,2251.1201805472874,2,35,0.5501165986061096,4.070792198181152,24.75035481000493,24.353577734626864,100.1384100808023,86.89244686509952,3.24249267578125e-05,0.104450523853302,0,0,0
8206,311848.8528371683,2011-01-14 02:25:30,2281.133204688223,2,35,0.550297200679779,4.0738677978515625,24.75494090198477,24.353577734626864,100.15708612611708,86.89244686509952,0.0001295089750783,0.104450523853302,0,0,0
8207,311878.8678181012,2011-01-14 02:26:00,2311.148185596024,2,35,0.5499359965324402,4.076457977294922,24.75952730683144,24.353577734626864,100.17577629625484,86.89244686509952,6.47544875391759e-05,0.104450523853302,0,0,0
8208,311908.88305766863,2011-01-14 02:26:30,2341.163425374009,2,35,0.5501165986061096,4.079371929168701,24.764113788337355,24.353577734626864,100.19447974759328,86.89244686509952,9.70840483205393e-05,0.104450523853302,0,0,0
8209,311938.89828932635,2011-01-14 02:27:00,2371.178656816219,2,35,0.5501165986061096,4.08212423324585,24.76870029545436,24.353577734626864,100.21319625804117,86.89244686509952,6.47544875391759e-05,0.104450523853302,0,0,0
8210,311968.91328005365,2011-01-14 02:27:30,2401.193647553518,2,35,0.5501165986061096,4.085038185119629,24.773286705252264,24.353577734626864,100.23192552002448,86.89244686509952,6.47544875391759e-05,0.104450523853302,0,0,0
8211,311998.9282039344,2011-01-14 02:28:00,2431.2085715444646,2,35,0.550297200679779,4.088113784790039,24.77787309909318,24.353577734626864,100.2506679441446,86.89244686509952,9.70840483205393e-05,0.104450523853302,0,0,0
8212,312028.9434027953,2011-01-14 02:28:30,2461.223770295197,2,35,0.5501165986061096,4.091027736663818,24.782459510152265,24.353577734626864,100.26942388288562,86.89244686509952,9.70840483205393e-05,0.104450523853302,0,0,0
8213,312058.958509998,2011-01-14 02:29:00,2491.2388775278387,2,35,0.5501165986061096,4.093780040740967,24.78704592316693,24.353577734626864,100.28819321947944,86.89244686509952,9.71794142969884e-05,0.104450523853302,0,0,0
8214,312088.9737223376,2011-01-14 02:29:30,2521.254089862426,2,35,0.5501165986061096,4.096855640411377,24.79163235212351,24.353577734626864,100.30697628364008,86.89244686509952,9.70840483205393e-05,0.104450523853302,0,0,0
8215,312118.9887194858,2011-01-14 02:30:00,2551.2690870708534,2,35,0.5501165986061096,4.099931716918945,24.796218791748288,24.353577734626864,100.32577320384942,86.89244686509952,6.47544875391759e-05,0.104450523853302,0,0,0
8216,312149.0039687725,2011-01-14 02:30:30,2581.2843362823496,2,35,0.550297200679779,4.103007316589356,24.800805342307,24.353577734626864,100.34458446261024,86.89244686509952,9.70840483205393e-05,0.104450523853302,0,0,0
8217,312179.01911892206,2011-01-14 02:31:00,2611.2994864369657,2,35,0.5499359965324402,4.105921268463135,24.80539171358432,24.353577734626864,100.36340899593048,86.89244686509952,9.70840483205393e-05,0.104450523853302,0,0,0
8218,312209.03406614094,2011-01-14 02:31:30,2641.314433655803,2,35,0.550297200679779,4.109158992767334,24.80997808593185,24.353577734626864,100.38224772589298,86.89244686509952,9.70840483205393e-05,0.104450523853302,0,0,0
8219,312239.049178351,2011-01-14 02:32:00,2671.329545855825,2,35,0.550297200679779,4.112396717071533,24.81456449414573,24.353577734626864,100.40110088120952,86.89244686509952,9.70840483205393e-05,0.104450523853302,0,0,0
8220,312269.0644172768,2011-01-14 02:32:30,2701.344784806749,2,35,0.5501165986061096,4.115472316741943,24.819150933702225,24.353577734626864,100.4199684628248,86.89244686509952,0.0001295089750783,0.104450523853302,0,0,0
8221,312299.07969654823,2011-01-14 02:33:00,2731.3600640731515,2,35,0.5501165986061096,4.118548393249512,24.823737378478423,24.353577734626864,100.43885061171127,86.89244686509952,6.47544875391759e-05,0.104450523853302,0,0,0
8222,312329.0946412208,2011-01-14 02:33:30,2761.375008725593,2,35,0.5499359965324402,4.121786117553711,24.82832381421081,24.353577734626864,100.45774748661512,86.89244686509952,6.47544875391759e-05,0.104450523853302,0,0,0
8223,312359.1096307701,2011-01-14 02:34:00,2791.3899982749317,2,35,0.5501165986061096,4.12502384185791,24.83291012432337,24.353577734626864,100.47665868784196,86.89244686509952,9.71794142969884e-05,0.104450523853302,0,0,0
8224,312389.12478797726,2011-01-14 02:34:30,2821.4051554670878,2,35,0.5501165986061096,4.128261566162109,24.83749652838408,24.353577734626864,100.49558529199682,86.89244686509952,9.71794142969884e-05,0.104450523853302,0,0,0
8225,312419.1399833145,2011-01-14 02:35:00,2851.420350829375,2,35,0.5499359965324402,4.13166093826294,24.84208293645389,24.353577734626864,100.51452700767835,86.89244686509952,0.0001295089750783,0.104450523853302,0,0,0
8226,312449.1549454906,2011-01-14 02:35:30,2881.4353129954657,2,35,0.5501165986061096,4.134898662567139,24.84666939429703,24.353577734626864,100.53348412256688,86.89244686509952,6.47544875391759e-05,0.104450523853302,0,0,0
8227,312479.1701265773,2011-01-14 02:36:00,2911.450494182424,2,35,0.5499359965324402,4.138298511505127,24.851255838255184,24.353577734626864,100.5524565314491,86.89244686509952,9.71794142969884e-05,0.104450523853302,0,0,0
8228,312509.1851866223,2011-01-14 02:36:30,2941.465554122197,2,35,0.5499359965324402,4.141697883605957,24.85584229470937,24.353577734626864,100.57144449452812,86.89244686509952,9.70840483205393e-05,0.104450523853302,0,0,0
8229,312539.20032130845,2011-01-14 02:37:00,2971.480688798236,2,35,0.550297200679779,4.145259380340576,24.860428769827216,24.353577734626864,100.59044825989734,86.89244686509952,9.70840483205393e-05,0.104450523853302,0,0,0
8230,312569.215407629,2011-01-14 02:37:30,3001.495775128783,2,35,0.550297200679779,4.148820877075195,24.86501518905964,24.353577734626864,100.60946786897824,86.89244686509952,0.0001295089750783,0.104450523853302,0,0,0
8231,312599.2306786398,2011-01-14 02:38:00,3031.51104615966,2,35,0.5501165986061096,4.152220726013184,24.86960163205761,24.353577734626864,100.62850350554604,86.89244686509952,9.71794142969884e-05,0.104450523853302,0,0,0
8232,312629.2456374876,2011-01-14 02:38:30,3061.526004977405,2,35,0.5501165986061096,4.155782222747803,24.87418807448692,24.353577734626864,100.6475553470252,86.89244686509952,0.0001295089750783,0.104450523853302,0,0,0
8233,312659.260895501,2011-01-14 02:39:00,3091.541263010889,2,35,0.550297200679779,4.159181594848633,24.87877455547524,24.353577734626864,100.666623478333,86.89244686509952,9.70840483205393e-05,0.104450523853302,0,0,0
8234,312689.2758713312,2011-01-14 02:39:30,3121.556238836022,2,35,0.5499359965324402,4.162743091583252,24.88336098664887,24.353577734626864,100.6857076978399,86.89244686509952,9.70840483205393e-05,0.104450523853302,0,0,0
8235,312719.2909578572,2011-01-14 02:40:00,3151.571325372081,2,35,0.550297200679779,4.166628360748291,24.887947341008285,24.353577734626864,100.70480809032148,86.89244686509952,0.0001618385285837,0.104450523853302,0,0,0
8236,312749.306093636,2011-01-14 02:40:30,3181.586461150868,2,35,0.5499359965324402,4.170028209686279,24.89253293249752,24.353577734626864,100.72392179475014,86.89244686509952,9.71794142969884e-05,0.104450523853302,0,0,0
8237,312779.32117837254,2011-01-14 02:41:00,3211.6015458924558,2,35,0.5501165986061096,4.173751354217529,24.897118621913464,24.353577734626864,100.74305273459152,86.89244686509952,9.70840483205393e-05,0.104450523853302,0,0,0
8238,312809.33646607,2011-01-14 02:41:30,3241.616833574833,2,35,0.550297200679779,4.1774749755859375,24.901705896461163,24.353577734626864,100.7622073189651,86.89244686509952,0.0001295089750783,0.104450523853302,0,0,0
8239,312839.3513924619,2011-01-14 02:42:00,3271.6317599918257,2,35,0.5497553944587708,4.181036472320557,24.906293107706745,24.353577734626864,100.7813786021174,86.89244686509952,6.47544875391759e-05,0.104450523853302,0,0,0
8240,312869.36657673656,2011-01-14 02:42:30,3301.646944256455,2,35,0.5501165986061096,4.184921741485596,24.910879518499385,24.353577734626864,100.80056364252144,86.89244686509952,9.71794142969884e-05,0.104450523853302,0,0,0
8241,312899.3818956517,2011-01-14 02:43:00,3331.662263181699,2,35,0.5501165986061096,4.188644886016846,24.91546592598097,24.353577734626864,100.81976589705242,86.89244686509952,9.70840483205393e-05,0.104450523853302,0,0,0
8242,312929.399085124,2011-01-14 02:43:30,3361.679452729109,2,35,0.5501165986061096,4.192368507385254,24.920052666705747,24.353577734626864,100.83898709824578,86.89244686509952,6.47544875391759e-05,0.104450523853302,0,0,0
8243,312959.4119365695,2011-01-14 02:44:00,3391.692304074385,2,35,0.5501165986061096,4.196415424346924,24.92463875698261,24.353577734626864,100.85822307073876,86.89244686509952,0.0001295089750783,0.104450523853302,0,0,0
8244,312987.42705490446,2011-01-14 02:44:28,3419.707422399288,2,35,0.550297200679779,4.200138568878174,24.92891954136622,24.353577734626864,100.8761943378372,86.89244686509952,0.0001295089750783,0.104450523853302,0,0,0
8245,313017.45755195944,2011-01-14 02:44:59,30.015124044541786,3,35,0.0,4.095722675323486,24.92891954136622,24.353577734626864,100.8761943378372,86.89244686509952,-0.0004856109735555,0.104450523853302,0,0,0
8246,313047.47267118696,2011-01-14 02:45:29,60.03024309162837,3,35,0.0,4.08212423324585,24.92891954136622,24.353577734626864,100.8761943378372,86.89244686509952,-0.0002913475036621,0.104450523853302,0,0,0
8247,313077.48778193846,2011-01-14 02:45:59,90.04535392323946,3,35,0.0,4.0738677978515625,24.92891954136622,24.353577734626864,100.8761943378372,86.89244686509952,-0.0001942634553415,0.104450523853302,0,0,0
8248,313107.456097557,2011-01-14 02:46:29,120.01366956684352,3,35,0.0,4.068202018737793,24.92891954136622,24.353577734626864,100.8761943378372,86.89244686509952,-9.70840483205393e-05,0.104450523853302,0,0,0
8249,313107.457836162,2011-01-14 02:46:29,0.015761512538943,4,35,1.0330657958984375,4.199814796447754,24.928924064332964,24.353577734626864,100.87621333345986,86.89244686509952,0.0,0.104450523853302,0,0,0
8250,313108.02030767413,2011-01-14 02:46:29,0.578233014590209,4,35,0.982675850391388,4.199814796447754,24.92908009123614,24.353577734626864,100.87686861543295,86.89244686509952,0.0,0.104450523853302,0,0,0
8251,313109.77027738706,2011-01-14 02:46:31,2.328202727567168,4,35,0.9317440390586852,4.199814796447754,24.92954437526054,24.353577734626864,100.87881852221264,86.89244686509952,0.0,0.104450523853302,0,0,0
8252,313112.5202347519,2011-01-14 02:46:34,5.078160097473704,4,35,0.8815346360206604,4.199814796447754,24.93023608706812,24.353577734626864,100.88172358879956,86.89244686509952,0.0,0.104450523853302,0,0,0
8253,313116.3012850427,2011-01-14 02:46:38,8.859210368148307,4,35,0.8315058946609497,4.199814796447754,24.93113462674328,24.353577734626864,100.88549730964618,86.89244686509952,3.23295607813634e-05,0.104450523853302,0,0,0
8254,313121.3011996985,2011-01-14 02:46:43,13.859125028918228,4,35,0.7814770936965942,4.199814796447754,24.932253313583605,24.353577734626864,100.8901956262202,86.89244686509952,0.0,0.104450523853302,0,0,0
8255,313127.75444898626,2011-01-14 02:46:49,20.312374442071008,4,35,0.7312676906585693,4.199814796447754,24.93360743218356,24.353577734626864,100.89588273307876,86.89244686509952,0.0,0.104450523853302,0,0,0
8256,313136.26980206126,2011-01-14 02:46:58,28.827727527067463,4,35,0.6810583472251892,4.199814796447754,24.935275390919376,24.353577734626864,100.90288792313116,86.89244686509952,0.0,0.104450523853302,0,0,0
8257,313147.8478705354,2011-01-14 02:47:09,40.40579598113761,4,35,0.6306683421134949,4.199814796447754,24.937381224796823,24.353577734626864,100.9117321343016,86.89244686509952,0.0,0.104450523853302,0,0,0
8258,313164.941221325,2011-01-14 02:47:26,57.49914667556063,4,35,0.5806396007537842,4.199814796447754,24.94024992154569,24.353577734626864,100.92378027584988,86.89244686509952,-3.24249267578125e-05,0.104450523853302,0,0,0
8259,313193.45623225614,2011-01-14 02:47:55,86.01415758660046,4,35,0.5306107997894287,4.199814796447754,24.94463287598045,24.353577734626864,100.94218809534787,86.89244686509952,-3.24249267578125e-05,0.104450523853302,0,0,0
8260,313249.11225030804,2011-01-14 02:48:50,141.67017565856443,4,35,0.4805820286273956,4.199814796447754,24.952407070436987,24.353577734626864,100.97483859761556,86.89244686509952,0.0,0.104450523853302,0,0,0
8261,313348.8129967854,2011-01-14 02:50:30,241.3709221359388,4,35,0.4305532872676849,4.199814796447754,24.96498393474385,24.353577734626864,101.0276596477702,86.89244686509952,0.0,0.104450523853302,0,0,0
8262,313483.6856643573,2011-01-14 02:52:45,376.24358968274777,4,35,0.3805245161056518,4.199653148651123,24.980154723757668,24.353577734626864,101.09137483914452,86.89244686509952,-3.23295607813634e-05,0.104450523853302,0,0,0
8263,313646.02667501697,2011-01-14 02:55:27,538.5846003624417,4,35,0.3304957449436188,4.199653148651123,24.996162585817057,24.353577734626864,101.15860565252704,86.89244686509952,-6.47544875391759e-05,0.104450523853302,0,0,0
8264,313839.8516538326,2011-01-14 02:58:41,732.4095791831179,4,35,0.2804669737815857,4.199653148651123,25.0125835201967,24.353577734626864,101.22757127593124,86.89244686509952,-3.23295607813634e-05,0.104450523853302,0,0,0
8265,314078.8319215221,2011-01-14 03:02:40,971.3898468876276,4,35,0.2304381877183914,4.199814796447754,25.029507373407203,24.353577734626864,101.29864911469907,86.89244686509952,-3.24249267578125e-05,0.104450523853302,0,0,0
8266,314384.4359510206,2011-01-14 03:07:46,1276.993876356072,4,35,0.1802288144826889,4.199814796447754,25.04688118946388,24.353577734626864,101.37161673779394,86.89244686509952,-3.24249267578125e-05,0.104450523853302,0,0,0
8267,314801.585091808,2011-01-14 03:14:43,1694.1430171384836,4,35,0.1302000433206558,4.199814796447754,25.06475176043378,24.353577734626864,101.44667062192724,86.89244686509952,6.47544875391759e-05,0.104450523853302,0,0,0
8268,315476.6518026844,2011-01-14 03:25:58,2369.209728115072,4,35,0.0801712721586227,4.199653148651123,25.084085020450058,24.353577734626864,101.5278675821109,86.89244686509952,-6.47544875391759e-05,0.104450523853302,0,0,0
8269,316240.4512156717,2011-01-14 03:38:42,3133.009141027253,4,35,0.0498289167881011,4.199814796447754,25.09764642515461,24.353577734626864,101.5848235082578,86.89244686509952,0.0,0.104450523853302,0,0,0
8270,316270.45876608795,2011-01-14 03:39:12,30.01489976055708,5,35,0.0,4.1901021003723145,25.09764642515461,24.353577734626864,101.5848235082578,86.89244686509952,-3.23295607813634e-05,0.104450523853302,0,0,0
8271,316300.4582494612,2011-01-14 03:39:42,60.0143831387458,5,35,0.0,4.188644886016846,25.09764642515461,24.353577734626864,101.5848235082578,86.89244686509952,0.0,0.104450523853302,0,0,0
8272,316300.6550677209,2011-01-14 03:39:42,0.187510584071069,6,35,-0.0018253359012305,4.189130783081055,25.09764642515461,24.35357782970181,101.5848235082578,86.8924472633809,0.0,0.108498990535736,0,0,0
8273,316305.4676102828,2011-01-14 03:39:47,5.000053070730128,6,35,0.0008838032954372,4.188321113586426,25.097647270050533,24.353577831377137,101.58482704715252,86.8924472704027,-6.47544875391759e-05,0.108498990535736,0,0,0
8274,316323.8514976908,2011-01-14 03:40:06,18.390280377247908,7,35,-1.099568486213684,3.9882304668426514,25.097647270050533,24.35919486692188,101.58482704715252,86.91496930484207,-0.0016511917347088,0.108498990535736,0,0,0
8275,316353.86659344984,2011-01-14 03:40:36,48.40537613629353,7,35,-1.0993878841400146,3.939340829849243,25.097647270050533,24.368362456742805,101.58482704715252,86.95129776406746,-0.0011655807029455,0.108498990535736,0,0,0
8276,316383.8816596752,2011-01-14 03:41:06,78.42044238679476,7,35,-1.0992072820663452,3.902269124984741,25.097647270050533,24.37753002636845,101.58482704715252,86.9872336593525,-0.0008741855854168,0.108498990535736,0,0,0
8277,316413.8968398397,2011-01-14 03:41:36,108.43562252614208,7,35,-1.099568486213684,3.873615264892578,25.097647270050533,24.38669759585891,101.58482704715252,87.02287051697276,-0.0006799221155233,0.108498990535736,0,0,0
8278,316443.9119539444,2011-01-14 03:42:06,138.45073664594838,7,35,-1.099568486213684,3.850627422332764,25.097647270050533,24.39586522067955,101.58482704715252,87.05827220817021,-0.0005504131549969,0.108498990535736,0,0,0
8279,316473.9270417888,2011-01-14 03:42:36,168.46582450029302,7,35,-1.0997490882873535,3.8310394287109375,25.097647270050533,24.4050328092353,101.58482704715252,87.09348129858559,-0.0004856109735555,0.108498990535736,0,0,0
8280,316503.9422081688,2011-01-14 03:43:06,198.48099088034795,7,35,-1.099568486213684,3.8142032623291016,25.097647270050533,24.414200412986304,101.58482704715252,87.12852523617659,-0.0004209041653666,0.108498990535736,0,0,0
8281,316533.95848982845,2011-01-14 03:43:36,228.4972726101977,7,35,-1.099568486213684,3.798985958099365,25.097647270050533,24.42336838457472,101.58482704715252,87.1634232472079,-0.0003885269106831,0.108498990535736,0,0,0
8282,316563.9725628235,2011-01-14 03:44:06,258.51134563527563,7,35,-1.099568486213684,3.784901857376098,25.097647270050533,24.4325355991462,101.58482704715252,87.19818446470723,-0.0003561496851034,0.108498990535736,0,0,0
8283,316593.98753115494,2011-01-14 03:44:36,288.52631383640767,7,35,-1.099568486213684,3.7719509601593018,25.097647270050533,24.44170318776026,101.58482704715252,87.23282341412937,-0.0003237724304199,0.108498990535736,0,0,0
8284,316624.0026602621,2011-01-14 03:45:06,318.54144296862955,7,35,-1.099568486213684,3.7596476078033447,25.097647270050533,24.450870778275764,101.58482704715252,87.26734628291784,-0.0003237724304199,0.108498990535736,0,0,0
8285,316654.01779234165,2011-01-14 03:45:36,348.5565750331596,7,35,-1.099568486213684,3.747992038726807,25.097647270050533,24.46003836770799,101.58482704715252,87.30175929807115,-0.0002913951757363,0.108498990535736,0,0,0
8286,316684.032891414,2011-01-14 03:46:06,378.57167409543786,7,35,-1.099568486213684,3.7368218898773193,25.097647270050533,24.46920599283401,101.58482704715252,87.33606833695677,-0.0003237724304199,0.108498990535736,0,0,0
8287,316714.0479894637,2011-01-14 03:46:36,408.58677214519264,7,35,-1.099568486213684,3.726299285888672,25.097647270050533,24.47837353286354,101.58482704715252,87.37027723401515,-0.0002590179501567,0.108498990535736,0,0,0
8288,316744.06309769384,2011-01-14 03:47:06,438.60188037532,7,35,-1.099568486213684,3.7159385681152335,25.097647270050533,24.48754107157676,101.58482704715252,87.40439060856569,-0.0003237724304199,0.108498990535736,0,0,0
8289,316774.0782395478,2011-01-14 03:47:36,468.6170223244857,7,35,-1.099568486213684,3.705901622772217,25.097647270050533,24.49670862898192,101.58482704715252,87.43841157061988,-0.0003237724304199,0.108498990535736,0,0,0
8290,316804.09336274024,2011-01-14 03:48:06,498.6321454316913,7,35,-1.099568486213684,3.696350336074829,25.097647270050533,24.5058762625933,101.58482704715252,87.47234274623726,-0.0002913951757363,0.108498990535736,0,0,0
8291,316834.1084517374,2011-01-14 03:48:36,528.6472344288843,7,35,-1.099568486213684,3.687122821807861,25.097647270050533,24.51504389575176,101.58482704715252,87.5061864761305,-0.0001942634553415,0.108498990535736,0,0,0
8292,316864.1235511756,2011-01-14 03:49:06,558.6623338570746,7,35,-1.099568486213684,3.6778953075408936,25.097647270050533,24.5242115103223,101.58482704715252,87.53994551176903,-0.0001942634553415,0.108498990535736,0,0,0
8293,316894.13861377706,2011-01-14 03:49:36,588.6773964685061,7,35,-1.099568486213684,3.668991804122925,25.097647270050533,24.53337939484853,101.58482704715252,87.57362304805362,-0.0002590179501567,0.108498990535736,0,0,0
8294,316924.15595175937,2011-01-14 03:50:06,618.6947345460995,7,35,-1.0997490882873535,3.660249948501587,25.097647270050533,24.54254835956081,101.58482704715252,87.6072240560085,-0.0002266406954731,0.108498990535736,0,0,0
8295,316954.1689131439,2011-01-14 03:50:36,648.707695940652,7,35,-1.099568486213684,3.651831865310669,25.097647270050533,24.551715928111783,101.58482704715252,87.64074108712603,-0.0002266406954731,0.108498990535736,0,0,0
8296,316984.1839806676,2011-01-14 03:51:06,678.7227633791141,7,35,-1.099568486213684,3.643575668334961,25.097647270050533,24.56088420284608,101.58482704715252,87.67418390092219,-0.0001942634553415,0.108498990535736,0,0,0
8297,317014.199260756,2011-01-14 03:51:36,708.7380434525278,7,35,-1.0997490882873535,3.635481357574463,25.097647270050533,24.57005255538918,101.58482704715252,87.70755212536353,-0.0002266406954731,0.108498990535736,0,0,0
8298,317044.21444216353,2011-01-14 03:52:06,738.7532248700608,7,35,-1.099568486213684,3.6277108192443848,25.097647270050533,24.57922082510524,101.58482704715252,87.74084694435119,-0.0001618862152099,0.108498990535736,0,0,0
8299,317074.2293261698,2011-01-14 03:52:36,768.7681088512909,7,35,-1.0993878841400146,3.619940280914306,25.097647270050533,24.5883888590788,101.58482704715252,87.77406902788242,-0.0001618862152099,0.108498990535736,0,0,0
8300,317104.2443807061,2011-01-14 03:53:06,798.7831634176716,7,35,-1.0993878841400146,3.6123316287994394,25.097647270050533,24.597556347324858,101.58482704715252,87.80721910575107,-0.0001942634553415,0.108498990535736,0,0,0
8301,317134.2595701988,2011-01-14 03:53:36,828.7983529955427,7,35,-1.099568486213684,3.6047229766845694,25.097647270050533,24.606723800161436,101.58482704715252,87.8403009101622,-0.0002266406954731,0.108498990535736,0,0,0
8302,317164.2746828649,2011-01-14 03:54:06,858.8134655915512,7,35,-1.099568486213684,3.597761869430542,25.097647270050533,24.61589118177976,101.58482704715252,87.87331563163661,-0.0001618862152099,0.108498990535736,0,0,0
8303,317194.28978240344,2011-01-14 03:54:36,888.828565094929,7,35,-1.099568486213684,3.590639114379883,25.097647270050533,24.625058614617085,101.58482704715252,87.90626450164046,-0.0001942634553415,0.108498990535736,0,0,0
8304,317224.30483673426,2011-01-14 03:55:06,918.84361942071,7,35,-1.0997490882873535,3.5836780071258545,25.097647270050533,24.63422602967388,101.58482704715252,87.93914886437463,-0.0001618862152099,0.108498990535736,0,0,0
8305,317254.320162256,2011-01-14 03:55:36,948.8589449474074,7,35,-1.099568486213684,3.577040672302246,25.097647270050533,24.64339354452229,101.58482704715252,87.97197081942164,-0.0001618862152099,0.108498990535736,0,0,0
8306,317284.33526069165,2011-01-14 03:56:06,978.8740433781117,7,35,-1.099568486213684,3.5704033374786377,25.097647270050533,24.65256100940987,101.58482704715252,88.00473107144899,-0.0001295089750783,0.108498990535736,0,0,0
8307,317314.35023339896,2011-01-14 03:56:36,1008.889016080462,7,35,-1.0997490882873535,3.5634422302246094,25.097647270050533,24.66172846594875,101.58482704715252,88.03743172010228,-0.0002266406954731,0.108498990535736,0,0,0
8308,317344.36532886233,2011-01-14 03:57:06,1038.9041115838706,7,35,-1.099568486213684,3.557614326477051,25.097647270050533,24.670895902593884,101.58482704715252,88.07007430757989,-0.0001618862152099,0.108498990535736,0,0,0
8309,317374.38056184334,2011-01-14 03:57:36,1068.919344569928,7,35,-1.0993878841400146,3.5516245365142822,25.097647270050533,24.68006346296951,101.58482704715252,88.10266090088153,-0.0001618862152099,0.108498990535736,0,0,0
8310,317404.39587950043,2011-01-14 03:58:06,1098.934662196937,7,35,-1.0997490882873535,3.545472860336304,25.097647270050533,24.68923108530816,101.58482704715252,88.13519278185035,-0.0001942634553415,0.108498990535736,0,0,0
8311,317434.4107634416,2011-01-14 03:58:36,1128.9495462433297,7,35,-1.099568486213684,3.539806842803955,25.097647270050533,24.698398588589523,101.58482704715252,88.16767094529084,-0.0001942634553415,0.108498990535736,0,0,0
8312,317464.4258615465,2011-01-14 03:59:06,1158.9646443181468,7,35,-1.0993878841400146,3.5344645977020264,25.097647270050533,24.707566187409903,101.58482704715252,88.20009748706471,-0.0001295089750783,0.108498990535736,0,0,0
8313,317494.4409409748,2011-01-14 03:59:36,1188.9797236662914,7,35,-1.099568486213684,3.5287985801696777,25.097647270050533,24.716733813704007,101.58482704715252,88.2324737670365,-0.0001618862152099,0.108498990535736,0,0,0
8314,317524.45616514893,2011-01-14 04:00:06,1218.994947845399,7,35,-1.099568486213684,3.523456335067749,25.097647270050533,24.725901432900702,101.58482704715252,88.26480031498794,-0.0001295089750783,0.108498990535736,0,0,0
8315,317554.47126556456,2011-01-14 04:00:36,1249.0100482861133,7,35,-1.099568486213684,3.51843786239624,25.097647270050533,24.73506904927959,101.58482704715252,88.297078979257,-0.0001295089750783,0.108498990535736,0,0,0
8316,317584.4862945572,2011-01-14 04:01:06,1279.025077263719,7,35,-1.0993878841400146,3.513257503509521,25.097647270050533,24.744236603352068,101.58482704715252,88.32930971475204,-9.713172767078504e-05,0.108498990535736,0,0,0
8317,317614.5014186419,2011-01-14 04:01:36,1309.0402013283106,7,35,-1.0993878841400146,3.508239269256592,25.097647270050533,24.753404195517945,101.58482704715252,88.36149393542884,-9.713172767078504e-05,0.108498990535736,0,0,0
8318,317644.5165463956,2011-01-14 04:02:06,1339.055329102147,7,35,-1.0993878841400146,3.503220796585083,25.097647270050533,24.762571750093084,101.58482704715252,88.39363253109275,-9.713172767078504e-05,0.108498990535736,0,0,0
8319,317674.53166233,2011-01-14 04:02:36,1369.0704450364756,7,35,-1.099568486213684,3.498202323913574,25.097647270050533,24.77173932990611,101.58482704715252,88.42572592909922,-0.0001618862152099,0.108498990535736,0,0,0
8320,317704.546792976,2011-01-14 04:03:06,1399.0855756874828,7,35,-1.0997490882873535,3.4933457374572754,25.097647270050533,24.78090692834161,101.58482704715252,88.45777461269499,-0.0001295089750783,0.108498990535736,0,0,0
8321,317734.5618772714,2011-01-14 04:03:36,1429.100659957895,7,35,-1.099568486213684,3.4886510372161865,25.097647270050533,24.79007456048632,101.58482704715252,88.48977860126601,-9.713172767078504e-05,0.108498990535736,0,0,0
8322,317764.5770156617,2011-01-14 04:04:06,1459.115798348191,7,35,-1.0993878841400146,3.4836325645446777,25.097647270050533,24.79924219529033,101.58482704715252,88.52173771561117,-0.0001295089750783,0.108498990535736,0,0,0
8323,317794.59221883846,2011-01-14 04:04:36,1489.1310015349795,7,35,-1.099929690361023,3.478452205657959,25.097647270050533,24.808409776700728,101.58482704715252,88.55365054672134,-0.0001618862152099,0.108498990535736,0,0,0
8324,317824.60720490414,2011-01-14 04:05:06,1519.1459875906105,7,35,-1.099568486213684,3.47343373298645,25.097647270050533,24.817577291152716,101.58482704715252,88.5855170360105,-0.0001295089750783,0.108498990535736,0,0,0
8325,317854.62244865205,2011-01-14 04:05:36,1549.1612313485148,7,35,-1.0997490882873535,3.4684152603149414,25.097647270050533,24.826744923458342,101.58482704715252,88.61733751671608,-0.0001295089750783,0.108498990535736,0,0,0
8326,317884.6374661109,2011-01-14 04:06:06,1579.1762488174372,7,35,-1.099568486213684,3.4633967876434326,25.097647270050533,24.835912473853195,101.58482704715252,88.64911093912637,-0.0001295089750783,0.108498990535736,0,0,0
8327,317914.6525822608,2011-01-14 04:06:36,1609.1913649723158,7,35,-1.099568486213684,3.457730770111084,25.097647270050533,24.8450800499381,101.58482704715252,88.68083582836846,-0.0001295089750783,0.108498990535736,0,0,0
8328,317944.667667624,2011-01-14 04:07:06,1639.2064503103893,7,35,-1.099568486213684,3.4522266387939453,25.097647270050533,24.85424762310481,101.58482704715252,88.7125097981144,-0.0001295089750783,0.108498990535736,0,0,0
8329,317974.6827812425,2011-01-14 04:07:36,1669.2215639239334,7,35,-1.0993878841400146,3.4462368488311768,25.097647270050533,24.8634152428082,101.58482704715252,88.74413075690414,-0.0001295089750783,0.108498990535736,0,0,0
8330,318004.6981204132,2011-01-14 04:08:06,1699.2369031096734,7,35,-1.0993878841400146,3.4400851726531982,25.097647270050533,24.87258293962162,101.58482704715252,88.7756958308437,-0.0001618862152099,0.108498990535736,0,0,0
8331,318034.7152912139,2011-01-14 04:08:36,1729.2540739955737,7,35,-1.099568486213684,3.43344783782959,25.097647270050533,24.881751118725784,101.58482704715252,88.80720440849632,-0.0001942634553415,0.108498990535736,0,0,0
8332,318064.7281477872,2011-01-14 04:09:06,1759.2669304987046,7,35,-1.099568486213684,3.4266488552093506,25.097647270050533,24.89091806931837,101.58482704715252,88.83864823199403,-0.0001942634553415,0.108498990535736,0,0,0
8333,318094.74327057856,2011-01-14 04:09:36,1789.2820532951357,7,35,-1.0997490882873535,3.4192020893096924,25.097647270050533,24.90008568878116,101.58482704715252,88.87002991187028,-0.0002266406954731,0.108498990535736,0,0,0
8334,318124.7583643176,2011-01-14 04:10:06,1819.297147004072,7,35,-1.099568486213684,3.411755323410034,25.097647270050533,24.9092532446082,101.58482704715252,88.90134255443725,-0.0001942634553415,0.108498990535736,0,0,0
8335,318154.77346098894,2011-01-14 04:10:36,1849.3122436703784,7,35,-1.0997490882873535,3.4030134677886963,25.097647270050533,24.91842087175421,101.58482704715252,88.9325804711962,-0.0002590179501567,0.108498990535736,0,0,0
8336,318184.78857281804,2011-01-14 04:11:06,1879.3273554994755,7,35,-1.0993878841400146,3.3937859535217285,25.097647270050533,24.92758852634624,101.58482704715252,88.96373625251374,-0.0002266406954731,0.108498990535736,0,0,0
8337,318214.8036884416,2011-01-14 04:11:37,1909.342471128042,7,35,-1.099568486213684,3.383101463317871,25.097647270050533,24.936756111625105,101.58482704715252,88.99479992494943,-0.0002913951757363,0.108498990535736,0,0,0
8338,318244.8189488209,2011-01-14 04:12:07,1939.357731517397,7,35,-1.099568486213684,3.370636224746704,25.097647270050533,24.94592376113897,101.58482704715252,89.02575787727933,-0.0002913951757363,0.108498990535736,0,0,0
8339,318274.8339216736,2011-01-14 04:12:37,1969.3727044503223,7,35,-1.099568486213684,3.356066465377808,25.097647270050533,24.95509130601189,101.58482704715252,89.05659227158388,-0.0003885269106831,0.108498990535736,0,0,0
8340,318304.84907150746,2011-01-14 04:13:07,1999.387854213964,7,35,-1.099568486213684,3.338421106338501,25.097647270050533,24.964258935089827,101.58482704715252,89.08728121377985,-0.0005180359003134,0.108498990535736,0,0,0
8341,318334.864165873,2011-01-14 04:13:37,2029.4029485644992,7,35,-1.099568486213684,3.317375898361206,25.097647270050533,24.973426553807343,101.58482704715252,89.11779396918365,-0.0006475448608398,0.108498990535736,0,0,0
8342,318364.8792859577,2011-01-14 04:14:07,2059.418068729372,7,35,-1.099568486213684,3.2909884452819824,25.097647270050533,24.982594067623342,101.58482704715252,89.14808980769573,-0.0007446765666827,0.108498990535736,0,0,0
8343,318394.89438073424,2011-01-14 04:14:37,2089.4331634408063,7,35,-1.099568486213684,3.2573163509368896,25.097647270050533,24.991761585078372,101.58482704715252,89.17811263983694,-0.0010036944877356,0.108498990535736,0,0,0
8344,318424.9095026585,2011-01-14 04:15:07,2119.448285430226,7,35,-1.0993878841400146,3.21393084526062,25.097647270050533,25.000929144736844,101.58482704715252,89.20778429552708,-0.0013274669181555,0.108498990535736,0,0,0
8345,318454.92477842123,2011-01-14 04:15:37,2149.463561127734,7,35,-1.099568486213684,3.1554901599884038,25.097647270050533,25.010096841335248,101.58482704715252,89.2369939959918,-0.0018131255637854,0.108498990535736,0,0,0
8346,318484.93988477666,2011-01-14 04:16:07,2179.478667468152,7,35,-1.099568486213684,3.0763280391693115,25.097647270050533,25.01926441436684,101.58482704715252,89.26557975848026,-0.0024282932281494,0.108498990535736,0,0,0
8347,318514.95487307286,2011-01-14 04:16:37,2209.4936558696286,7,35,-1.0993878841400146,2.963493585586548,25.097647270050533,25.028431902596957,101.58482704715252,89.29329773395287,-0.0034967423416674,0.108498990535736,0,0,0
8348,318544.9699495639,2011-01-14 04:17:07,2239.508732240353,7,35,-1.099568486213684,2.798532009124756,25.097647270050533,25.037599517323187,101.58482704715252,89.31975324228841,-0.0050508501008152,0.108498990535736,0,0,0
8349,318559.8604362534,2011-01-14 04:17:22,2254.3992189398964,7,35,-1.0993878841400146,2.699943780899048,25.097647270050533,25.042147558461764,101.58482704715252,89.33225976976809,-0.0054069519974291,0.108498990535736,0,0,0
8350,318619.8600374921,2011-01-14 04:18:22,60.01447272201487,8,35,0.0,3.584973096847534,25.097647270050533,25.042147558461764,101.58482704715252,89.33225976976809,0.0012627125252038,0.108498990535736,0,0,0
8351,318620.0340686578,2011-01-14 04:18:22,0.187650462691631,9,35,-1.9243103452026844e-05,3.585134983062744,25.097647270050533,25.04214755946481,101.58482704715252,89.33225977336416,0.0,0.1037345305085182,0,0,0
8352,318624.86435558903,2011-01-14 04:18:27,5.017937378929023,9,35,0.0008838032954372,3.5924196243286133,25.09764836372798,25.04214755963105,101.5848309727365,89.33225977396017,0.0010360240703448,0.1037345305085182,0,0,0
