Data_Point,Test_Time(s),Date_Time,Step_Time(s),Step_Index,Cycle_Index,Current(A),Voltage(V),Charge_Capacity(Ah),Discharge_Capacity(Ah),Charge_Energy(Wh),Discharge_Energy(Wh),dV/dt(V/s),Internal_Resistance(Ohm),Is_FC_Data,AC_Impedance(Ohm),ACI_Phase_Angle(Deg)
2955,110004.58764977538,2011-01-11 18:20:58,30.01517225970881,1,13,0.0,3.589182138442993,8.832201378091906,8.823990066030388,35.673316052397055,31.57500113100853,0.0007446765666827,0.1021136790513992,0,0,0
2956,110034.6027930378,2011-01-11 18:21:28,60.030315507110025,1,13,0.0,3.6113603115081783,8.832201378091906,8.823990066030388,35.673316052397055,31.57500113100853,0.0005180359003134,0.1021136790513992,0,0,0
2957,110064.61794251073,2011-01-11 18:21:58,90.04546499005214,1,13,0.0,3.626901388168335,8.832201378091906,8.823990066030388,35.673316052397055,31.57500113100853,0.0003237724304199,0.1021136790513992,0,0,0
2958,110094.58637123115,2011-01-11 18:22:28,120.0138937255159,1,13,0.0,3.639204740524292,8.832201378091906,8.823990066030388,35.673316052397055,31.57500113100853,0.0002913951757363,0.1021136790513992,0,0,0
2959,110124.60195729606,2011-01-11 18:22:58,30.015138169746137,2,13,0.550297200679779,3.764504194259644,8.836787966162733,8.823990066030388,35.69048396719304,31.57500113100853,0.0009065627818927,0.1021136790513992,0,0,0
2960,110154.61712198188,2011-01-11 18:23:28,60.03030286059101,2,13,0.550297200679779,3.7891108989715576,8.841374604893913,8.823990066030388,35.70781118356747,31.57500113100853,0.0005504131549969,0.1021136790513992,0,0,0
2961,110184.63247612992,2011-01-11 18:23:58,90.04565702867146,2,13,0.5499359965324402,3.803194999694824,8.845961309964371,8.823990066030388,35.725225440192304,31.57500113100853,0.0002913951757363,0.1021136790513992,0,0,0
2962,110214.64745059666,2011-01-11 18:24:28,120.0606314753694,2,13,0.5501165986061096,3.8135557174682617,8.85054792403392,8.823990066030388,35.742694237801594,31.57500113100853,0.0002590179501567,0.1021136790513992,0,0,0
2963,110244.66262109198,2011-01-11 18:24:58,150.07580206591814,2,13,0.5501165986061096,3.8218119144439697,8.855134562296424,8.823990066030388,35.76020521835417,31.57500113100853,0.0002266406954731,0.1021136790513992,0,0,0
2964,110274.6787124273,2011-01-11 18:25:28,180.09189331603383,2,13,0.5501165986061096,3.829258680343628,8.859721297040421,8.823990066030388,35.77775238209026,31.57500113100853,0.0001942634553415,0.1021136790513992,0,0,0
2965,110304.69298994706,2011-01-11 18:25:58,210.10617093101268,2,13,0.5499359965324402,3.835895776748657,8.864307807892935,8.823990066030388,35.79533124549952,31.57500113100853,0.0001295089750783,0.1021136790513992,0,0,0
2966,110334.70808235776,2011-01-11 18:26:28,240.1212632364509,2,13,0.5501165986061096,3.842371225357056,8.868894359485656,8.823990066030388,35.81294048036415,31.57500113100853,0.0001295089750783,0.1021136790513992,0,0,0
2967,110364.72323962508,2011-01-11 18:26:58,270.1364204987816,2,13,0.5499359965324402,3.848361015319824,8.87348098979875,8.823990066030388,35.83057829661246,31.57500113100853,0.0001295089750783,0.1021136790513992,0,0,0
2968,110394.7384638092,2011-01-11 18:27:28,300.15164477312686,2,13,0.550297200679779,3.854188919067383,8.878067652716942,8.823990066030388,35.84824289202029,31.57500113100853,0.0001618862152099,0.1021136790513992,0,0,0
2969,110424.75369597824,2011-01-11 18:27:58,330.1668768719732,2,13,0.5501165986061096,3.8593692779541016,8.8826542661258,8.823990066030388,35.865932577360034,31.57500113100853,6.47544875391759e-05,0.1021136790513992,0,0,0
2970,110454.76871383812,2011-01-11 18:28:29,360.18189471683274,2,13,0.5501165986061096,3.86454963684082,8.88724085815413,8.823990066030388,35.88364629934239,31.57500113100853,9.713172767078504e-05,0.1021136790513992,0,0,0
2971,110484.78400977608,2011-01-11 18:28:59,390.19719066982327,2,13,0.5501165986061096,3.869568109512329,8.891827512165388,8.823990066030388,35.90138344756182,31.57500113100853,0.0001295089750783,0.1021136790513992,0,0,0
2972,110514.79904823232,2011-01-11 18:29:29,420.2122291310651,2,13,0.550297200679779,3.874424695968628,8.896414162732446,8.823990066030388,35.91914293281099,31.57500113100853,0.0001295089750783,0.1021136790513992,0,0,0
2973,110544.81439278644,2011-01-11 18:29:59,450.2275736701472,2,13,0.5499359965324402,3.878957509994507,8.901000880218504,8.823990066030388,35.93692443875934,31.57500113100853,0.0001295089750783,0.1021136790513992,0,0,0
2974,110574.82935394,2011-01-11 18:30:29,480.242534818702,2,13,0.5501165986061096,3.883652210235596,8.905587513672852,8.823990066030388,35.95472671994001,31.57500113100853,0.0001295089750783,0.1021136790513992,0,0,0
2975,110604.84452570848,2011-01-11 18:30:59,510.2577065821741,2,13,0.5501165986061096,3.8880231380462646,8.910174209162546,8.823990066030388,35.97254969024286,31.57500113100853,9.713172767078504e-05,0.1021136790513992,0,0,0
2976,110634.85970514106,2011-01-11 18:31:29,540.2728860297974,2,13,0.5499359965324402,3.892232179641724,8.914760921105625,8.823990066030388,35.99039271873852,31.57500113100853,9.713172767078504e-05,0.1021136790513992,0,0,0
2977,110664.87485163155,2011-01-11 18:31:59,570.2880325102562,2,13,0.5501165986061096,3.896441221237183,8.919347642306906,8.823990066030388,36.00825481319251,31.57500113100853,0.0001618862152099,0.1021136790513992,0,0,0
2978,110694.88999701428,2011-01-11 18:32:29,600.3031778929794,2,13,0.5501165986061096,3.900164604187012,8.923934346103238,8.823990066030388,36.02613512590937,31.57500113100853,6.47544875391759e-05,0.1021136790513992,0,0,0
2979,110724.9053653226,2011-01-11 18:32:59,630.3185462063142,2,13,0.5501165986061096,3.903887987136841,8.928521050163257,8.823990066030388,36.044033063844026,31.57500113100853,6.47544875391759e-05,0.1021136790513992,0,0,0
2980,110754.92038018502,2011-01-11 18:33:29,660.333561163978,2,13,0.550297200679779,3.90761137008667,8.933107691881311,8.823990066030388,36.0619476927296,31.57500113100853,0.0001295089750783,0.1021136790513992,0,0,0
2981,110784.93552032468,2011-01-11 18:33:59,690.3487012083964,2,13,0.5501165986061096,3.911172866821289,8.937694310618964,8.823990066030388,36.07987830334776,31.57500113100853,0.0001295089750783,0.1021136790513992,0,0,0
2982,110814.95064225896,2011-01-11 18:34:29,720.3638231376663,2,13,0.5501165986061096,3.914086580276489,8.942280980596253,8.823990066030388,36.09782448409226,31.57500113100853,0.0,0.1021136790513992,0,0,0
2983,110844.96579985211,2011-01-11 18:34:59,750.3789807308212,2,13,0.5501165986061096,3.917324304580689,8.946867663116151,8.823990066030388,36.11578520272164,31.57500113100853,9.713172767078504e-05,0.1021136790513992,0,0,0
2984,110874.98098564052,2011-01-11 18:35:29,780.3941665142354,2,13,0.5501165986061096,3.9204001426696777,8.95145432818445,8.823990066030388,36.133759755997765,31.57500113100853,9.713172767078504e-05,0.1021136790513992,0,0,0
2985,110904.99625179928,2011-01-11 18:35:59,810.4094326930195,2,13,0.550297200679779,3.923152208328247,8.956040949981544,8.823990066030388,36.151747488448095,31.57500113100853,9.713172767078504e-05,0.1021136790513992,0,0,0
2986,110935.0114122696,2011-01-11 18:36:29,840.4245931483082,2,13,0.5501165986061096,3.925904273986816,8.960627602675194,8.823990066030388,36.16974812142368,31.57500113100853,9.713172767078504e-05,0.1021136790513992,0,0,0
2987,110965.02645795888,2011-01-11 18:36:59,870.4396388375645,2,13,0.5501165986061096,3.9286563396453857,8.96521422846125,8.823990066030388,36.18776093479752,31.57500113100853,9.713172767078504e-05,0.1021136790513992,0,0,0
2988,110995.04171565652,2011-01-11 18:37:29,900.4548965552608,2,13,0.550297200679779,3.931084632873535,8.96980082328437,8.823990066030388,36.20578555134735,31.57500113100853,6.47544875391759e-05,0.1021136790513992,0,0,0
2989,111025.05892263236,2011-01-11 18:37:59,930.4721035311084,2,13,0.5501165986061096,3.9336748123168954,8.974387776414892,8.823990066030388,36.22382320071106,31.57500113100853,9.713172767078504e-05,0.1021136790513992,0,0,0
2990,111055.0719192898,2011-01-11 18:38:29,960.4851001684968,2,13,0.5501165986061096,3.936103105545044,8.978974119482347,8.823990066030388,36.241869873024605,31.57500113100853,6.47544875391759e-05,0.1021136790513992,0,0,0
2991,111085.08706991558,2011-01-11 18:38:59,990.5002507942874,2,13,0.5501165986061096,3.938531398773194,8.98356083698163,8.823990066030388,36.259929027034815,31.57500113100853,6.47544875391759e-05,0.1021136790513992,0,0,0
2992,111115.10223198992,2011-01-11 18:39:29,1020.5154128635984,2,13,0.5499359965324402,3.940797805786133,8.988147476785883,8.823990066030388,36.277998880620736,31.57500113100853,0.0,0.1021136790513992,0,0,0
2993,111145.1176140074,2011-01-11 18:39:59,1050.5307948911131,2,13,0.5501165986061096,3.943064212799072,8.992734161438667,8.823990066030388,36.29607972401144,31.57500113100853,3.237724376958795e-05,0.1021136790513992,0,0,0
2994,111175.13255333656,2011-01-11 18:40:29,1080.5457342152747,2,13,0.5499359965324402,3.9454925060272217,8.997320787413447,8.823990066030388,36.31417104159016,31.57500113100853,6.47544875391759e-05,0.1021136790513992,0,0,0
2995,111205.14772543588,2011-01-11 18:40:59,1110.560906314584,2,13,0.5501165986061096,3.947920799255371,9.001907483394497,8.823990066030388,36.33227322601907,31.57500113100853,6.47544875391759e-05,0.1021136790513992,0,0,0
2996,111235.16286975094,2011-01-11 18:41:29,1140.5760506496963,2,13,0.5499359965324402,3.9500253200531006,9.00649357172772,8.823990066030388,36.35038347447912,31.57500113100853,3.237724376958795e-05,0.1021136790513992,0,0,0
2997,111265.17804129887,2011-01-11 18:41:59,1170.5912221775811,2,13,0.5499359965324402,3.95229172706604,9.01107950028568,8.823990066030388,36.36850350986668,31.57500113100853,6.47544875391759e-05,0.1021136790513992,0,0,0
2998,111295.19318866152,2011-01-11 18:42:29,1200.6063695602888,2,13,0.5501165986061096,3.95455813407898,9.015665350757049,8.823990066030388,36.38663356664807,31.57500113100853,3.237724376958795e-05,0.1021136790513992,0,0,0
2999,111325.2083404001,2011-01-11 18:42:59,1230.6215212737902,2,13,0.5499359965324402,3.956824541091919,9.020251249310288,8.823990066030388,36.40477415407262,31.57500113100853,6.47544875391759e-05,0.1021136790513992,0,0,0
3000,111355.2235563136,2011-01-11 18:43:29,1260.6367371872975,2,13,0.5501165986061096,3.958929061889648,9.024837793861025,8.823990066030388,36.42292752099756,31.57500113100853,0.0,0.1021136790513992,0,0,0
3001,111385.23867658876,2011-01-11 18:43:59,1290.6518574724698,2,13,0.550297200679779,3.961195468902588,9.02942453283902,8.823990066030388,36.44109191590477,31.57500113100853,6.47544875391759e-05,0.1021136790513992,0,0,0
3002,111415.25382480856,2011-01-11 18:44:29,1320.6670056872513,2,13,0.5499359965324402,3.9634618759155273,9.034011161091271,8.823990066030388,36.45926597322758,31.57500113100853,6.47544875391759e-05,0.1021136790513992,0,0,0
3003,111445.26920555788,2011-01-11 18:44:59,1350.6823864516175,2,13,0.5501165986061096,3.965728282928467,9.038597968326348,8.823990066030388,36.47745086377636,31.57500113100853,6.47544875391759e-05,0.1021136790513992,0,0,0
3004,111475.28419241552,2011-01-11 18:45:29,1380.6973733794223,2,13,0.5501165986061096,3.967832803726196,9.043184770917293,8.823990066030388,36.49564572601601,31.57500113100853,9.713172767078504e-05,0.1021136790513992,0,0,0
3005,111505.29931213928,2011-01-11 18:45:59,1410.7124930129708,2,13,0.5501165986061096,3.969937324523926,9.047771556858269,8.823990066030388,36.51385045253755,31.57500113100853,6.47544875391759e-05,0.1021136790513992,0,0,0
3006,111535.3144399031,2011-01-11 18:46:29,1440.727620806857,2,13,0.5499359965324402,3.972203731536865,9.05235835408814,8.823990066030388,36.53206512273077,31.57500113100853,9.713172767078504e-05,0.1021136790513992,0,0,0
3007,111565.3300296032,2011-01-11 18:46:59,1470.7432104969307,2,13,0.550297200679779,3.9743082523345943,9.056945255540649,8.823990066030388,36.5502900707528,31.57500113100853,3.237724376958795e-05,0.1021136790513992,0,0,0
3008,111595.34476621714,2011-01-11 18:47:29,1500.7579470958387,2,13,0.5501165986061096,3.976412773132324,9.061531977201428,8.823990066030388,36.56852414710282,31.57500113100853,6.47544875391759e-05,0.1021136790513992,0,0,0
3009,111625.3599428728,2011-01-11 18:47:59,1530.7731237515036,2,13,0.5501165986061096,3.9785172939300537,9.06611879853082,8.823990066030388,36.58676809211364,31.57500113100853,9.713172767078504e-05,0.1021136790513992,0,0,0
3010,111655.3750845112,2011-01-11 18:48:29,1560.7882653898948,2,13,0.5501165986061096,3.980621814727783,9.070705560783452,8.823990066030388,36.605021979413536,31.57500113100853,3.237724376958795e-05,0.1021136790513992,0,0,0
3011,111685.39036825876,2011-01-11 18:48:59,1590.8035491525034,2,13,0.5501165986061096,3.982888221740722,9.075292280698932,8.823990066030388,36.62328550375971,31.57500113100853,3.237724376958795e-05,0.1021136790513992,0,0,0
3012,111715.40539746192,2011-01-11 18:49:29,1620.8185783356212,2,13,0.5499359965324402,3.984992742538452,9.079878963269245,8.823990066030388,36.64155861356797,31.57500113100853,6.47544875391759e-05,0.1021136790513992,0,0,0
3013,111745.42067108428,2011-01-11 18:49:59,1650.8338519830193,2,13,0.5501165986061096,3.9870972633361816,9.084465650528644,8.823990066030388,36.65984159501959,31.57500113100853,3.237724376958795e-05,0.1021136790513992,0,0,0
3014,111775.43572858296,2011-01-11 18:50:29,1680.8489094566455,2,13,0.550297200679779,3.989201784133911,9.089052875900617,8.823990066030388,36.678136600305024,31.57500113100853,0.0,0.1021136790513992,0,0,0
3015,111805.4510319394,2011-01-11 18:50:59,1710.864212913338,2,13,0.550297200679779,3.9914681911468506,9.09364023708395,8.823990066030388,36.69644202816486,31.57500113100853,6.47544875391759e-05,0.1021136790513992,0,0,0
3016,111835.4660321904,2011-01-11 18:51:29,1740.8792130640982,2,13,0.5501165986061096,3.99373459815979,9.098227587876869,8.823990066030388,36.71475732814867,31.57500113100853,6.47544875391759e-05,0.1021136790513992,0,0,0
3017,111865.4812154776,2011-01-11 18:51:59,1770.8943963563036,2,13,0.550297200679779,3.995838880538941,9.10281495905441,8.823990066030388,36.7330825554785,31.57500113100853,6.47544875391759e-05,0.1021136790513992,0,0,0
3018,111895.4963503341,2011-01-11 18:52:29,1800.9095312127918,2,13,0.550297200679779,3.99810528755188,9.107401803087267,8.823990066030388,36.75141558640864,31.57500113100853,9.713172767078504e-05,0.1021136790513992,0,0,0
3019,111925.51151190216,2011-01-11 18:52:59,1830.924692780853,2,13,0.550297200679779,4.000209808349609,9.11198837867552,8.823990066030388,36.76975737852592,31.57500113100853,6.47544875391759e-05,0.1021136790513992,0,0,0
3020,111955.52669116433,2011-01-11 18:53:29,1860.9398720680776,2,13,0.5499359965324402,4.002152442932129,9.116575027673466,8.823990066030388,36.78810954393592,31.57500113100853,6.47544875391759e-05,0.1021136790513992,0,0,0
3021,111985.5418519404,2011-01-11 18:53:59,1890.9550328391529,2,13,0.5499359965324402,4.0042572021484375,9.121161681425775,8.823990066030388,36.80647184005986,31.57500113100853,0.0,0.1021136790513992,0,0,0
3022,112015.5569901352,2011-01-11 18:54:29,1920.9701710339616,2,13,0.5501165986061096,4.006685256958008,9.125748227513064,8.823990066030388,36.82484384331426,31.57500113100853,6.47544875391759e-05,0.1021136790513992,0,0,0
3023,112045.57214879604,2011-01-11 18:54:59,1950.9853296697152,2,13,0.5499359965324402,4.008951663970947,9.130334874823918,8.823990066030388,36.84322651383793,31.57500113100853,6.47544875391759e-05,0.1021136790513992,0,0,0
3024,112075.58730208848,2011-01-11 18:55:29,1981.0004829671643,2,13,0.5501165986061096,4.011218070983887,9.134921541286644,8.823990066030388,36.86161946252295,31.57500113100853,9.70840483205393e-05,0.1021136790513992,0,0,0
3025,112105.60279294722,2011-01-11 18:55:59,2011.0159738509824,2,13,0.5501165986061096,4.013484477996826,9.139508207465054,8.823990066030388,36.88002277856465,31.57500113100853,6.47544875391759e-05,0.1021136790513992,0,0,0
3026,112135.61762141009,2011-01-11 18:56:29,2041.0308022937936,2,13,0.550297200679779,4.015750885009766,9.144094811596911,8.823990066030388,36.89843625785593,31.57500113100853,6.47544875391759e-05,0.1021136790513992,0,0,0
3027,112165.63292898703,2011-01-11 18:56:59,2071.04610988078,2,13,0.5501165986061096,4.018179416656494,9.148681497363778,8.823990066030388,36.916860664443135,31.57500113100853,6.47544875391759e-05,0.1021136790513992,0,0,0
3028,112195.6501967193,2011-01-11 18:57:29,2101.063377623076,2,13,0.5499359965324402,4.0202836990356445,9.153268441598414,8.823990066030388,36.9352967021384,31.57500113100853,3.23295607813634e-05,0.1021136790513992,0,0,0
3029,112225.66309401912,2011-01-11 18:57:59,2131.076274887798,2,13,0.550297200679779,4.022873878479004,9.157854625848175,8.823990066030388,36.95374047451848,31.57500113100853,6.47544875391759e-05,0.1021136790513992,0,0,0
3030,112255.67823138184,2011-01-11 18:58:29,2161.0914122856198,2,13,0.5499359965324402,4.025140285491943,9.162441213642282,8.823990066030388,36.97219661703886,31.57500113100853,6.47544875391759e-05,0.1021136790513992,0,0,0
3031,112285.69338663416,2011-01-11 18:58:59,2191.1065675078657,2,13,0.5501165986061096,4.027568817138672,9.167027785873705,8.823990066030388,36.99066361005513,31.57500113100853,6.47544875391759e-05,0.1021136790513992,0,0,0
3032,112315.70854390653,2011-01-11 18:59:29,2221.1217247752093,2,13,0.5499359965324402,4.029673099517822,9.171614446093074,8.823990066030388,37.00914202873677,31.57500113100853,3.23295607813634e-05,0.1021136790513992,0,0,0
3033,112345.72376078244,2011-01-11 18:59:59,2251.13694168119,2,13,0.5501165986061096,4.032263278961182,9.176201128692444,8.823990066030388,37.0276316465312,31.57500113100853,3.23295607813634e-05,0.1021136790513992,0,0,0
3034,112375.73893668623,2011-01-11 19:00:30,2281.152117564931,2,13,0.5501165986061096,4.034691333770752,9.180787792409747,8.823990066030388,37.046132393692425,31.57500113100853,6.47544875391759e-05,0.1021136790513992,0,0,0
3035,112405.75404652036,2011-01-11 19:01:00,2311.1672274191064,2,13,0.5501165986061096,4.037281513214111,9.185374415351497,8.823990066030388,37.06464432241692,31.57500113100853,6.47544875391759e-05,0.1021136790513992,0,0,0
3036,112435.7691917878,2011-01-11 19:01:30,2341.182372666492,2,13,0.5501165986061096,4.039871692657471,9.189961069981068,8.823990066030388,37.08316792435053,31.57500113100853,6.47544875391759e-05,0.1021136790513992,0,0,0
3037,112465.78436443346,2011-01-11 19:02:00,2371.1975453021378,2,13,0.5501165986061096,4.042300224304199,9.194547777475986,8.823990066030388,37.101703210326015,31.57500113100853,6.47544875391759e-05,0.1021136790513992,0,0,0
3038,112495.7995123976,2011-01-11 19:02:30,2401.2126933063946,2,13,0.5501165986061096,4.0447282791137695,9.199134355111203,8.823990066030388,37.120249700703255,31.57500113100853,3.23295607813634e-05,0.1021136790513992,0,0,0
3039,112525.81465921892,2011-01-11 19:03:00,2431.2278401176786,2,13,0.550297200679779,4.047642230987549,9.203720968946248,8.823990066030388,37.138808141702185,31.57500113100853,9.70840483205393e-05,0.1021136790513992,0,0,0
3040,112555.82981596496,2011-01-11 19:03:30,2461.24299683866,2,13,0.5501165986061096,4.050232410430908,9.208307558436529,8.823990066030388,37.15737845116853,31.57500113100853,6.47544875391759e-05,0.1021136790513992,0,0,0
3041,112585.84496398928,2011-01-11 19:04:00,2491.258144878004,2,13,0.550297200679779,4.052822589874268,9.212894179557289,8.823990066030388,37.17596092607206,31.57500113100853,6.47544875391759e-05,0.1021136790513992,0,0,0
3042,112615.86014767246,2011-01-11 19:04:30,2521.273328581233,2,13,0.5499359965324402,4.055412769317627,9.217480843805,8.823990066030388,37.1945558036373,31.57500113100853,6.47544875391759e-05,0.1021136790513992,0,0,0
3043,112645.8755301962,2011-01-11 19:05:00,2551.2887110749098,2,13,0.550297200679779,4.058326721191406,9.222067512679487,8.823990066030388,37.21316296933395,31.57500113100853,9.70840483205393e-05,0.1021136790513992,0,0,0
3044,112675.89042894923,2011-01-11 19:05:30,2581.303609827956,2,13,0.550297200679779,4.060755252838135,9.226654159490584,8.823990066030388,37.23178251560211,31.57500113100853,3.24249267578125e-05,0.1021136790513992,0,0,0
3045,112705.90560914876,2011-01-11 19:06:00,2611.318790017428,2,13,0.5501165986061096,4.063669204711914,9.231240853837292,8.823990066030388,37.25041439851139,31.57500113100853,0.0001295089750783,0.1021136790513992,0,0,0
3046,112735.92074332351,2011-01-11 19:06:30,2641.3339241922176,2,13,0.5499359965324402,4.066259384155273,9.235827446650228,8.823990066030388,37.26905861220522,31.57500113100853,3.24249267578125e-05,0.1021136790513992,0,0,0
3047,112765.9359054129,2011-01-11 19:07:00,2671.3490862815784,2,13,0.550297200679779,4.069173336029053,9.24041404718566,8.823990066030388,37.28771561678754,31.57500113100853,9.71794142969884e-05,0.1021136790513992,0,0,0
3048,112795.95106883056,2011-01-11 19:07:30,2701.36424969925,2,13,0.550297200679779,4.072087287902832,9.245000673970663,8.823990066030388,37.30638565591728,31.57500113100853,9.71794142969884e-05,0.1021136790513992,0,0,0
3049,112825.96624790729,2011-01-11 19:08:00,2731.379428775949,2,13,0.550297200679779,4.075001239776611,9.249587271135496,8.823990066030388,37.325068617766576,31.57500113100853,6.47544875391759e-05,0.1021136790513992,0,0,0
3050,112855.98139997164,2011-01-11 19:08:30,2761.394580940575,2,13,0.5501165986061096,4.077753067016602,9.254173884717554,8.823990066030388,37.343764813072085,31.57500113100853,9.70840483205393e-05,0.1021136790513992,0,0,0
3051,112885.99652940464,2011-01-11 19:09:00,2791.409710278309,2,13,0.5499359965324402,4.08050537109375,9.2587605660587,8.823990066030388,37.362474677231695,31.57500113100853,3.24249267578125e-05,0.1021136790513992,0,0,0
3052,112916.0116837597,2011-01-11 19:09:30,2821.42486464342,2,13,0.550297200679779,4.08358097076416,9.263347194635116,8.823990066030388,37.38119773088098,31.57500113100853,6.47544875391759e-05,0.1021136790513992,0,0,0
3053,112946.0290352407,2011-01-11 19:10:00,2851.442216114393,2,13,0.5504778623580933,4.0866570472717285,9.267934153248143,8.823990066030388,37.39993573783864,31.57500113100853,9.71794142969884e-05,0.1021136790513992,0,0,0
3054,112976.0420515822,2011-01-11 19:10:30,2881.4552324558904,2,13,0.5501165986061096,4.089570999145508,9.272520465376315,8.823990066030388,37.41868481725216,31.57500113100853,9.71794142969884e-05,0.1021136790513992,0,0,0
3055,113006.05715845896,2011-01-11 19:11:00,2911.4703393577065,2,13,0.5499359965324402,4.092484951019287,9.277107107777368,8.823990066030388,37.43744905091511,31.57500113100853,6.47544875391759e-05,0.1021136790513992,0,0,0
3056,113036.07234164588,2011-01-11 19:11:30,2941.48552254465,2,13,0.5499359965324402,4.095560550689697,9.281693738185892,8.823990066030388,37.4562271357882,31.57500113100853,3.23295607813634e-05,0.1021136790513992,0,0,0
3057,113066.08748795593,2011-01-11 19:12:00,2971.5006688346343,2,13,0.5501165986061096,4.0987982749938965,9.286280366052198,8.823990066030388,37.47501933568952,31.57500113100853,9.70840483205393e-05,0.1021136790513992,0,0,0
3058,113096.1026338349,2011-01-11 19:12:30,3001.5158147085813,2,13,0.5501165986061096,4.101874351501465,9.290867072910649,8.823990066030388,37.49382614284827,31.57500113100853,9.71794142969884e-05,0.1021136790513992,0,0,0
3059,113126.11780091168,2011-01-11 19:13:00,3031.5309817953976,2,13,0.5501165986061096,4.104949951171875,9.295453723500984,8.823990066030388,37.51264688820146,31.57500113100853,9.70840483205393e-05,0.1021136790513992,0,0,0
3060,113156.13295625924,2011-01-11 19:13:30,3061.546137157994,2,13,0.550297200679779,4.108187675476074,9.300040390992049,8.823990066030388,37.5314821919541,31.57500113100853,9.70840483205393e-05,0.1021136790513992,0,0,0
3061,113186.14811141133,2011-01-11 19:14:00,3091.5612923050526,2,13,0.5501165986061096,4.111263751983643,9.304627033755072,8.823990066030388,37.55033191358342,31.57500113100853,9.71794142969884e-05,0.1021136790513992,0,0,0
3062,113216.16326150075,2011-01-11 19:14:30,3121.576442369444,2,13,0.5497553944587708,4.114339351654053,9.309213670273978,8.823990066030388,37.56919628846261,31.57500113100853,6.47544875391759e-05,0.1021136790513992,0,0,0
3063,113246.17843689329,2011-01-11 19:15:00,3151.591617797048,2,13,0.5501165986061096,4.117738723754883,9.313800309551027,8.823990066030388,37.58807546163207,31.57500113100853,3.23295607813634e-05,0.1021136790513992,0,0,0
3064,113276.1935688676,2011-01-11 19:15:30,3181.606749746291,2,13,0.5501165986061096,4.120976448059082,9.318386951253348,8.823990066030388,37.60696963437779,31.57500113100853,9.70840483205393e-05,0.1021136790513992,0,0,0
3065,113306.20874601448,2011-01-11 19:16:00,3211.62192689318,2,13,0.5499359965324402,4.124214172363281,9.32297359346444,8.823990066030388,37.62587891448664,31.57500113100853,9.70840483205393e-05,0.1021136790513992,0,0,0
3066,113336.22389617412,2011-01-11 19:16:30,3241.6370770427834,2,13,0.5504778623580933,4.1277756690979,9.32756021507116,8.823990066030388,37.64480329252316,31.57500113100853,9.70840483205393e-05,0.1021136790513992,0,0,0
3067,113366.23917280894,2011-01-11 19:17:00,3271.652353677627,2,13,0.5501165986061096,4.1310133934021,9.332146899835209,8.823990066030388,37.66374316295379,31.57500113100853,6.47544875391759e-05,0.1021136790513992,0,0,0
3068,113396.25420424769,2011-01-11 19:17:30,3301.6673851163678,2,13,0.5499359965324402,4.134251117706299,9.336733545263447,8.823990066030388,37.682698317872685,31.57500113100853,3.23295607813634e-05,0.1021136790513992,0,0,0
3069,113426.2693849334,2011-01-11 19:18:00,3331.682565832151,2,13,0.5501165986061096,4.137812614440918,9.341320250171588,8.823990066030388,37.70166925272773,31.57500113100853,9.70840483205393e-05,0.1021136790513992,0,0,0
3070,113456.2845482458,2011-01-11 19:18:30,3361.69772914456,2,13,0.5501165986061096,4.141212463378906,9.345906950005691,8.823990066030388,37.72065584588191,31.57500113100853,9.71794142969884e-05,0.1021136790513992,0,0,0
3071,113486.2999463935,2011-01-11 19:19:00,3391.7131272822267,2,13,0.5499359965324402,4.144773960113525,9.350493642368306,8.823990066030388,37.73965822378492,31.57500113100853,6.47544875391759e-05,0.1021136790513992,0,0,0
3072,113516.31484952748,2011-01-11 19:19:30,3421.7280304061665,2,13,0.5501165986061096,4.148173332214356,9.355080168486833,8.823990066030388,37.75867629473685,31.57500113100853,9.70840483205393e-05,0.1021136790513992,0,0,0
3073,113546.33000532616,2011-01-11 19:20:00,3451.743186234924,2,13,0.5499359965324402,4.151734828948975,9.359666781665464,8.823990066030388,37.77771082736228,31.57500113100853,6.47544875391759e-05,0.1021136790513992,0,0,0
3074,113576.34512929048,2011-01-11 19:20:30,3481.758310294503,2,13,0.5501165986061096,4.155296325683594,9.364253382960957,8.823990066030388,37.79676161971502,31.57500113100853,6.47544875391759e-05,0.1021136790513992,0,0,0
3075,113606.36042056682,2011-01-11 19:21:00,3511.7736014705883,2,13,0.5499359965324402,4.158857822418213,9.368839992943178,8.823990066030388,37.81582885753789,31.57500113100853,6.47544875391759e-05,0.1021136790513992,0,0,0
3076,113636.37546226112,2011-01-11 19:21:30,3541.7886431548627,2,13,0.550297200679779,4.162581443786621,9.373426621151465,8.823990066030388,37.83491271126664,31.57500113100853,3.24249267578125e-05,0.1021136790513992,0,0,0
3077,113666.39078478032,2011-01-11 19:22:00,3571.803965659027,2,13,0.550297200679779,4.166304588317871,9.378013267641336,8.823990066030388,37.85401329402151,31.57500113100853,9.70840483205393e-05,0.1021136790513992,0,0,0
3078,113696.4057856178,2011-01-11 19:22:30,3601.818966506524,2,13,0.5501165986061096,4.16986608505249,9.382599811981628,8.823990066030388,37.87313023405922,31.57500113100853,9.70840483205393e-05,0.1021136790513992,0,0,0
3079,113726.42093642906,2011-01-11 19:23:00,3631.834117327802,2,13,0.5501165986061096,4.173589706420898,9.38718638003021,8.823990066030388,37.8922641347196,31.57500113100853,0.0001295089750783,0.1021136790513992,0,0,0
3080,113756.43609808233,2011-01-11 19:23:30,3661.849278951001,2,13,0.5501165986061096,4.177151203155518,9.391772958051504,8.823990066030388,37.91141502714788,31.57500113100853,6.47544875391759e-05,0.1021136790513992,0,0,0
3081,113786.45127312397,2011-01-11 19:24:00,3691.864453992643,2,13,0.5501165986061096,4.181036472320557,9.39635955239504,8.823990066030388,37.93058307569208,31.57500113100853,9.71794142969884e-05,0.1021136790513992,0,0,0
3082,113816.46642249664,2011-01-11 19:24:30,3721.8796033653102,2,13,0.5501165986061096,4.184759616851807,9.400946206037307,8.823990066030388,37.949768705175295,31.57500113100853,9.70840483205393e-05,0.1021136790513992,0,0,0
3083,113846.48157621513,2011-01-11 19:25:00,3751.894757118896,2,13,0.5501165986061096,4.188483238220215,9.405532851066903,8.823990066030388,37.96897154497204,31.57500113100853,6.47544875391759e-05,0.1021136790513992,0,0,0
3084,113876.4968792558,2011-01-11 19:25:30,3781.910060164564,2,13,0.550297200679779,4.192530155181885,9.410119575524629,8.823990066030388,37.98819221542525,31.57500113100853,0.0001295089750783,0.1021136790513992,0,0,0
3085,113906.5119009753,2011-01-11 19:26:00,3811.925081843981,2,13,0.5501165986061096,4.196091651916504,9.414706176048153,8.823990066030388,38.0074298129076,31.57500113100853,6.47544875391759e-05,0.1021136790513992,0,0,0
3086,113935.79277134375,2011-01-11 19:26:30,3841.2059523126863,2,13,0.5501165986061096,4.200138568878174,9.419180590230368,8.823990066030388,38.02621380855781,31.57500113100853,9.70840483205393e-05,0.1021136790513992,0,0,0
3087,113965.80573537876,2011-01-11 19:27:00,30.01522691592893,3,13,0.0,4.102845668792725,9.419180590230368,8.823990066030388,38.02621380855781,31.57500113100853,-0.0004856109735555,0.1021136790513992,0,0,0
3088,113995.82076143408,2011-01-11 19:27:30,60.030252936163976,3,13,0.0,4.090542316436768,9.419180590230368,8.823990066030388,38.02621380855781,31.57500113100853,-0.0002590179501567,0.1021136790513992,0,0,0
3089,114025.8359367364,2011-01-11 19:28:00,90.0454282635183,3,13,0.0,4.08293342590332,9.419180590230368,8.823990066030388,38.02621380855781,31.57500113100853,-0.0001942634553415,0.1021136790513992,0,0,0
3090,114055.80421677124,2011-01-11 19:28:30,120.01370829336192,3,13,0.0,4.077915191650391,9.419180590230368,8.823990066030388,38.02621380855781,31.57500113100853,-0.0001295089750783,0.1021136790513992,0,0,0
3091,114055.81934080436,2011-01-11 19:28:30,0.015441254357013,4,13,1.021326184272766,4.199814796447754,9.419184970940536,8.823990066030388,38.026232206729205,31.57500113100853,0.0,0.1021136790513992,0,0,0
3092,114056.56930702594,2011-01-11 19:28:31,0.76540746591505,4,13,0.9707556366920472,4.199814796447754,9.419391084965955,8.823990066030388,38.0270978363745,31.57500113100853,0.0,0.1021136790513992,0,0,0
3093,114058.42865505836,2011-01-11 19:28:32,2.624755513356365,4,13,0.9203656315803528,4.199653148651123,9.419878548455443,8.823990066030388,38.02914508441793,31.57500113100853,-3.23295607813634e-05,0.1021136790513992,0,0,0
3094,114061.24112671308,2011-01-11 19:28:35,5.437227178120855,4,13,0.8699756264686584,4.199814796447754,9.42057706581912,8.823990066030388,38.03207871141581,31.57500113100853,0.0,0.1021136790513992,0,0,0
3095,114065.11610166296,2011-01-11 19:28:39,9.312202122983436,4,13,0.8197662830352783,4.199653148651123,9.421485631831173,8.823990066030388,38.03589450354779,31.57500113100853,-3.23295607813634e-05,0.1021136790513992,0,0,0
3096,114070.24097921971,2011-01-11 19:28:44,14.437079654677811,4,13,0.7695568799972534,4.199814796447754,9.422615762941025,8.823990066030388,38.04064082556447,31.57500113100853,0.0,0.1021136790513992,0,0,0
3097,114076.80357159418,2011-01-11 19:28:51,20.99967203414664,4,13,0.7195281386375427,4.199814796447754,9.423971604403867,8.823990066030388,38.046335117138575,31.57500113100853,3.23295607813634e-05,0.1021136790513992,0,0,0
3098,114085.5376011482,2011-01-11 19:29:00,29.733701603226503,4,13,0.6691381335258484,4.199814796447754,9.425653920277664,8.823990066030388,38.05340050912045,31.57500113100853,0.0,0.1021136790513992,0,0,0
3099,114097.5688123735,2011-01-11 19:29:12,41.76491282349857,4,13,0.618748128414154,4.199814796447754,9.42780243891526,8.823990066030388,38.06242388587791,31.57500113100853,0.0,0.1021136790513992,0,0,0
3100,114115.5527660546,2011-01-11 19:29:30,59.74886650960856,4,13,0.5687193870544434,4.199814796447754,9.430760483777032,8.823990066030388,38.074847135214775,31.57500113100853,0.0,0.1021136790513992,0,0,0
3101,114145.95865791278,2011-01-11 19:30:00,90.1547583427157,4,13,0.5186905860900879,4.199814796447754,9.435332242396097,8.823990066030388,38.09404766963274,31.57500113100853,0.0,0.1021136790513992,0,0,0
3102,114204.7701169746,2011-01-11 19:30:59,148.96621743460625,4,13,0.4684812128543854,4.199814796447754,9.443353756790248,8.823990066030388,38.12773651220691,31.57500113100853,0.0,0.1021136790513992,0,0,0
3103,114303.36236589498,2011-01-11 19:32:37,247.55846633494247,4,13,0.4184524416923523,4.199653148651123,9.455465877026244,8.823990066030388,38.17860519292524,31.57500113100853,-6.47544875391759e-05,0.1021136790513992,0,0,0
3104,114432.06348269335,2011-01-11 19:34:46,376.2595831233227,4,13,0.3682430684566498,4.199814796447754,9.469514141989352,8.823990066030388,38.23760535830358,31.57500113100853,0.0,0.1021136790513992,0,0,0
3105,114586.9518154315,2011-01-11 19:37:21,531.1479158815047,4,13,0.3182142972946167,4.199653148651123,9.484273024406098,8.823990066030388,38.29959004974551,31.57500113100853,0.0,0.1021136790513992,0,0,0
3106,114773.44878898328,2011-01-11 19:40:28,717.6448894433048,4,13,0.2680049240589142,4.199653148651123,9.499443391440597,8.823990066030388,38.36330285534303,31.57500113100853,-3.23295607813634e-05,0.1021136790513992,0,0,0
3107,115003.3382593236,2011-01-11 19:44:17,947.5343599590518,4,13,0.2179761528968811,4.199814796447754,9.514937657302168,8.823990066030388,38.428375835863605,31.57500113100853,0.0,0.1021136790513992,0,0,0
3108,115301.37809989588,2011-01-11 19:49:15,1245.5742003358373,4,13,0.167947381734848,4.199653148651123,9.530852273315997,8.823990066030388,38.49521417470863,31.57500113100853,-3.23295607813634e-05,0.1021136790513992,0,0,0
3109,115721.24661963237,2011-01-11 19:56:15,1665.4427200923842,4,13,0.1179186180233955,4.199814796447754,9.54735671445694,8.823990066030388,38.564529827779744,31.57500113100853,0.0,0.1021136790513992,0,0,0
3110,116458.46952123096,2011-01-11 20:08:33,2402.665621680959,4,13,0.0678898468613624,4.199814796447754,9.565883672136842,8.823990066030388,38.64233966369991,31.57500113100853,0.0,0.1021136790513992,0,0,0
3111,116926.50908776294,2011-01-11 20:16:21,2870.7051882279684,4,13,0.0498289167881011,4.199814796447754,9.573517792091542,8.823990066030388,38.67440160757191,31.57500113100853,0.0,0.1021136790513992,0,0,0
3112,116956.52169261216,2011-01-11 20:16:51,30.01519128211851,5,13,0.0,4.190749645233154,9.573517792091542,8.823990066030388,38.67440160757191,31.57500113100853,-6.47544875391759e-05,0.1021136790513992,0,0,0
3113,116986.52120183477,2011-01-11 20:17:21,60.01470047965699,5,13,0.0,4.1892924308776855,9.573517792091542,8.823990066030388,38.67440160757191,31.57500113100853,-3.24249267578125e-05,0.1021136790513992,0,0,0
3114,116986.70718453776,2011-01-11 20:17:21,0.187631204694778,6,13,-1.9243103452026844e-05,4.1892924308776855,9.573517792091542,8.823990067033336,38.67440160757191,31.57500113521017,0.0,0.1035472899675369,0,0,0
3115,116991.51967842827,2011-01-11 20:17:26,5.000125105262347,6,13,0.0010644125286489,4.189454555511475,9.573518610142733,8.823990067201015,38.67440503475958,31.57500113591263,-3.23295607813634e-05,0.1035472899675369,0,0,0
3116,117020.48615597408,2011-01-11 20:17:55,28.968262693944908,7,13,-1.0997490882873535,3.989363670349121,9.573518610142733,8.832838866340783,38.67440503475958,31.61053262623642,-0.001230287598446,0.1035472899675369,0,0,0
3117,117050.5013228654,2011-01-11 20:18:25,58.98342959028656,7,13,-1.099568486213684,3.95180606842041,9.573518610142733,8.842007357075254,38.67440503475958,31.646927987507546,-0.0008741855854168,0.1035472899675369,0,0,0
3118,117080.51649590708,2011-01-11 20:18:55,88.99860262191925,7,13,-1.099568486213684,3.9247710704803462,9.573518610142733,8.851175826364987,38.67440503475958,31.683029977847205,-0.0006151676061563,0.1035472899675369,0,0,0
3119,117110.53179990008,2011-01-11 20:19:25,119.01390665504796,7,13,-1.0997490882873535,3.902754783630371,9.573518610142733,8.86034441059031,38.67440503475958,31.71890983478331,-0.0005180359003134,0.1035472899675369,0,0,0
3120,117140.54678072268,2011-01-11 20:19:55,149.02888746259907,7,13,-1.0997490882873535,3.884299755096436,9.573518610142733,8.869512605268469,38.67440503475958,31.754605129413186,-0.0004856586456298,0.1035472899675369,0,0,0
3121,117170.5619330076,2011-01-11 20:20:25,179.0440397324871,7,13,-1.099568486213684,3.8684349060058594,9.573518610142733,8.878680864630866,38.67440503475958,31.790144203720224,-0.0004209041653666,0.1035472899675369,0,0,0
3122,117200.57711357302,2011-01-11 20:20:55,209.05922031794623,7,13,-1.099568486213684,3.854027032852173,9.573518610142733,8.887849058438494,38.67440503475958,31.825543609808225,-0.0003561496851034,0.1035472899675369,0,0,0
3123,117230.59225474024,2011-01-11 20:21:25,239.07436147012555,7,13,-1.0997490882873535,3.840266704559326,9.573518610142733,8.89701722776396,38.67440503475958,31.860814057816818,-0.0003561496851034,0.1035472899675369,0,0,0
3124,117260.60753177106,2011-01-11 20:21:55,269.08963849093124,7,13,-1.1001102924346924,3.827316045761109,9.573518610142733,8.906185729953577,38.67440503475958,31.89596456480355,-0.0003885269106831,0.1035472899675369,0,0,0
3125,117290.6225666634,2011-01-11 20:22:25,299.1046733933033,7,13,-1.099929690361023,3.815012693405152,9.573518610142733,8.915354174972444,38.67440503475958,31.93099968427079,-0.0003561496851034,0.1035472899675369,0,0,0
3126,117320.63775069246,2011-01-11 20:22:55,329.1198574373824,7,13,-1.0997490882873535,3.803194999694824,9.573518610142733,8.924522636553256,38.67440503475958,31.96592385590527,-0.0003237724304199,0.1035472899675369,0,0,0
3127,117350.65288666674,2011-01-11 20:23:25,359.1349934016318,7,13,-1.0997490882873535,3.791701078414917,9.573518610142733,8.933691134024745,38.67440503475958,32.0007411685085,-0.0003237724304199,0.1035472899675369,0,0,0
3128,117380.66825834344,2011-01-11 20:23:55,389.15036506832416,7,13,-1.0997490882873535,3.7808547019958496,9.573518610142733,8.942859672156638,38.67440503475958,32.03545599879432,-0.0002590179501567,0.1035472899675369,0,0,0
3129,117410.68318873532,2011-01-11 20:24:25,419.165295460224,7,13,-1.099568486213684,3.770170211791992,9.573518610142733,8.952028117620348,38.67440503475958,32.07007110354462,-0.0002590179501567,0.1035472899675369,0,0,0
3130,117440.6983570001,2011-01-11 20:24:55,449.1804637199636,7,13,-1.099929690361023,3.7596476078033447,9.573518610142733,8.96119659933698,38.67440503475958,32.10459051550991,-0.0003561496851034,0.1035472899675369,0,0,0
3131,117470.7135086434,2011-01-11 20:25:25,479.1956153632901,7,13,-1.099568486213684,3.749772787094116,9.573518610142733,8.970365067084364,38.67440503475958,32.1390168346021,-0.0002913951757363,0.1035472899675369,0,0,0
3132,117500.72879145366,2011-01-11 20:25:55,509.2108981885622,7,13,-1.099568486213684,3.7403833866119385,9.573518610142733,8.979533598143895,38.67440503475958,32.17335346304347,-0.0002266406954731,0.1035472899675369,0,0,0
3133,117530.7438394286,2011-01-11 20:26:25,539.2259461785527,7,13,-1.0997490882873535,3.730832099914551,9.573518610142733,8.988702025698204,38.67440503475958,32.207603036921526,-0.0002590179501567,0.1035472899675369,0,0,0
3134,117560.75920582715,2011-01-11 20:26:55,569.2413125971652,7,13,-1.0997490882873535,3.721766471862793,9.573518610142733,8.997870572744777,38.67440503475958,32.2417681950928,-0.0002913951757363,0.1035472899675369,0,0,0
3135,117590.77413331182,2011-01-11 20:27:25,599.2562400667819,7,13,-1.099929690361023,3.713024616241455,9.573518610142733,9.007039047453144,38.67440503475958,32.27585013768614,-0.0002266406954731,0.1035472899675369,0,0,0
3136,117620.78928680476,2011-01-11 20:27:55,629.2713935196181,7,13,-1.0997490882873535,3.7037971019744873,9.573518610142733,9.016207585406573,38.67440503475958,32.30985093495707,-0.0002590179501567,0.1035472899675369,0,0,0
3137,117650.80445215224,2011-01-11 20:28:25,659.2865588721121,7,13,-1.0997490882873535,3.695379018783569,9.573518610142733,9.0253761317496,38.67440503475958,32.34377186858095,-0.0002266406954731,0.1035472899675369,0,0,0
3138,117680.81961490326,2011-01-11 20:28:55,689.3017216231223,7,13,-1.099568486213684,3.687122821807861,9.573518610142733,9.03454465811742,38.67440503475958,32.37761474143192,-0.0001942634553415,0.1035472899675369,0,0,0
3139,117710.83488458575,2011-01-11 20:29:25,719.3169913206762,7,13,-1.0997490882873535,3.678866624832153,9.573518610142733,9.043713222062372,38.67440503475958,32.411382006311314,-0.0002266406954731,0.1035472899675369,0,0,0
3140,117740.84994098172,2011-01-11 20:29:55,749.3320477065919,7,13,-1.0997490882873535,3.670934438705444,9.573518610142733,9.052881646810468,38.67440503475958,32.445074805808304,-0.0001618862152099,0.1035472899675369,0,0,0
3141,117770.86507505624,2011-01-11 20:30:25,779.347181776119,7,13,-1.099568486213684,3.663163900375366,9.573518610142733,9.062050167168648,38.67440503475958,32.47869589827409,-0.0001942634553415,0.1035472899675369,0,0,0
3142,117800.8802406343,2011-01-11 20:30:55,809.3623473491625,7,13,-1.0997490882873535,3.655555248260498,9.573518610142733,9.071218669203596,38.67440503475958,32.512245976512496,-0.0001618862152099,0.1035472899675369,0,0,0
3143,117830.89551305864,2011-01-11 20:31:25,839.3776198136125,7,13,-1.0997490882873535,3.64778470993042,9.573518610142733,9.08038729687758,38.67440503475958,32.545726446504915,-0.0002266406954731,0.1035472899675369,0,0,0
3144,117860.91054429188,2011-01-11 20:31:55,869.3926510067398,7,13,-1.0997490882873535,3.6403379440307617,9.573518610142733,9.089555730283395,38.67440503475958,32.57913652221331,-0.0001942634553415,0.1035472899675369,0,0,0
3145,117890.92570568951,2011-01-11 20:32:25,899.407812414402,7,13,-1.0997490882873535,3.633214950561523,9.573518610142733,9.0987242634251,38.67440503475958,32.61247963542426,-0.0001618862152099,0.1035472899675369,0,0,0
3146,117920.94086974378,2011-01-11 20:32:55,929.4229764586354,7,13,-1.099568486213684,3.626091957092285,9.573518610142733,9.10789280697358,38.67440503475958,32.64575697659968,-0.0001618862152099,0.1035472899675369,0,0,0
3147,117950.95608275004,2011-01-11 20:33:25,959.4381894699096,7,13,-1.0997490882873535,3.618807077407837,9.573518610142733,9.117061295912665,38.67440503475958,32.67896906777606,-0.0001942634553415,0.1035472899675369,0,0,0
3148,117980.97119287988,2011-01-11 20:33:55,989.4532995947592,7,13,-1.0997490882873535,3.612169742584229,9.573518610142733,9.126229791867155,38.67440503475958,32.71211766872716,-0.0001942634553415,0.1035472899675369,0,0,0
3149,118010.9887390411,2011-01-11 20:34:25,1019.4708459664856,7,13,-1.0993878841400146,3.60553240776062,9.573518610142733,9.135399048096668,38.67440503475958,32.74520701919579,-0.0001618862152099,0.1035472899675369,0,0,0
3150,118041.00154583534,2011-01-11 20:34:55,1049.4836525652397,7,13,-1.099568486213684,3.598895072937012,9.573518610142733,9.144566790726232,38.67440503475958,32.77823026130252,-0.0001618862152099,0.1035472899675369,0,0,0
3151,118071.01665899776,2011-01-11 20:35:25,1079.4987657176348,7,13,-1.099568486213684,3.5924196243286133,9.573518610142733,9.15373539660582,38.67440503475958,32.81119742887804,-0.0001942634553415,0.1035472899675369,0,0,0
3152,118101.03181170374,2011-01-11 20:35:55,1109.5139184286222,7,13,-1.0997490882873535,3.586268186569214,9.573518610142733,9.162903897411686,38.67440503475958,32.844106672600105,-0.0001618862152099,0.1035472899675369,0,0,0
3153,118131.04703388788,2011-01-11 20:36:25,1139.5291406979702,7,13,-1.099568486213684,3.5802783966064453,9.573518610142733,9.172072504889112,38.67440503475958,32.87695966713837,-0.0001295089750783,0.1035472899675369,0,0,0
3154,118161.06215203273,2011-01-11 20:36:55,1169.544258787671,7,13,-1.0997490882873535,3.5742886066436768,9.573518610142733,9.181241044024732,38.67440503475958,32.90975716625482,-0.0001295089750783,0.1035472899675369,0,0,0
3155,118191.07727093445,2011-01-11 20:37:26,1199.5593776543078,7,13,-1.0993878841400146,3.568784475326538,9.573518610142733,9.190409569499302,38.67440503475958,32.94250134837707,-9.713172767078504e-05,0.1035472899675369,0,0,0
3156,118221.0924290188,2011-01-11 20:37:56,1229.5745357487122,7,13,-1.0997490882873535,3.5629565715789795,9.573518610142733,9.199578101097591,38.67440503475958,32.975193902686705,-0.0001295089750783,0.1035472899675369,0,0,0
3157,118251.1075903162,2011-01-11 20:38:26,1259.5896970360743,7,13,-1.099568486213684,3.557614326477051,9.573518610142733,9.208746588103114,38.67440503475958,33.007836910047054,-0.0001295089750783,0.1035472899675369,0,0,0
3158,118281.1227929466,2011-01-11 20:38:56,1289.6048997567011,7,13,-1.0997490882873535,3.552272081375122,9.573518610142733,9.217915128620982,38.67440503475958,33.040430874336856,-0.0001295089750783,0.1035472899675369,0,0,0
3159,118311.13790487596,2011-01-11 20:39:26,1319.6200115958234,7,13,-1.099568486213684,3.5472536087036133,9.573518610142733,9.227083643274709,38.67440503475958,33.07297700944342,-0.0001295089750783,0.1035472899675369,0,0,0
3160,118341.15305993278,2011-01-11 20:39:56,1349.6351666526573,7,13,-1.099568486213684,3.5420732498168945,9.573518610142733,9.236252212882931,38.67440503475958,33.10547642993122,-0.0001295089750783,0.1035472899675369,0,0,0
3161,118371.16823161104,2011-01-11 20:40:26,1379.6503383309173,7,13,-1.099568486213684,3.5370547771453857,9.573518610142733,9.245420738865382,38.67440503475958,33.13792977630513,-0.0001618862152099,0.1035472899675369,0,0,0
3162,118401.18338331954,2011-01-11 20:40:56,1409.6654900394058,7,13,-1.0997490882873535,3.532521963119507,9.573518610142733,9.254589286899757,38.67440503475958,33.17033860303902,-0.0001295089750783,0.1035472899675369,0,0,0
3163,118431.19852894788,2011-01-11 20:41:26,1439.6806356677412,7,13,-1.0997490882873535,3.527665376663208,9.573518610142733,9.263757835504345,38.67440503475958,33.20270477059854,-0.0001618862152099,0.1035472899675369,0,0,0
3164,118461.21381209895,2011-01-11 20:41:56,1469.6959188238377,7,13,-1.0993878841400146,3.523294448852539,9.573518610142733,9.272926422691116,38.67440503475958,33.23502880831699,-6.47544875391759e-05,0.1035472899675369,0,0,0
3165,118491.2288539336,2011-01-11 20:42:26,1499.7109606835495,7,13,-1.0997490882873535,3.51859974861145,9.573518610142733,9.282094957810829,38.67440503475958,33.26731033853048,-0.0001295089750783,0.1035472899675369,0,0,0
3166,118521.24400798796,2011-01-11 20:42:56,1529.726114712823,7,13,-1.099568486213684,3.514228820800781,9.573518610142733,9.291263533723468,38.67440503475958,33.29955052411482,-9.713172767078504e-05,0.1035472899675369,0,0,0
3167,118551.25915547088,2011-01-11 20:43:26,1559.741262190768,7,13,-1.0997490882873535,3.5095343589782715,9.573518610142733,9.3004321008824,38.67440503475958,33.33174912201792,-9.713172767078504e-05,0.1035472899675369,0,0,0
3168,118581.2743257958,2011-01-11 20:43:56,1589.7564325156543,7,13,-1.099568486213684,3.5050015449523926,9.573518610142733,9.309600657516816,38.67440503475958,33.36390625831342,-0.0001295089750783,0.1035472899675369,0,0,0
3169,118611.28949822592,2011-01-11 20:44:26,1619.771604945788,7,13,-1.099568486213684,3.5007925033569336,9.573518610142733,9.318769266150175,38.67440503475958,33.39602192640053,-6.47544875391759e-05,0.1035472899675369,0,0,0
3170,118641.30464296204,2011-01-11 20:44:56,1649.7867496818997,7,13,-1.0997490882873535,3.4960978031158447,9.573518610142733,9.3279377754046,38.67440503475958,33.42809641542988,-0.0001295089750783,0.1035472899675369,0,0,0
3171,118671.31991992268,2011-01-11 20:45:26,1679.8020266475678,7,13,-1.099568486213684,3.491403102874756,9.573518610142733,9.33710641184324,38.67440503475958,33.46013042922303,-0.0001618862152099,0.1035472899675369,0,0,0
3172,118701.33493231898,2011-01-11 20:45:56,1709.8170390338228,7,13,-1.099929690361023,3.487032175064087,9.573518610142733,9.34627489699518,38.67440503475958,33.492122821182704,-0.0001295089750783,0.1035472899675369,0,0,0
3173,118731.35021539486,2011-01-11 20:46:26,1739.8323221197445,7,13,-1.0997490882873535,3.482337474822998,9.573518610142733,9.355443537382902,38.67440503475958,33.52407303962184,-9.713172767078504e-05,0.1035472899675369,0,0,0
3174,118761.365257029,2011-01-11 20:46:56,1769.8473637739444,7,13,-1.0997490882873535,3.4773190021514893,9.573518610142733,9.364612022243277,38.67440503475958,33.555977855429774,-0.0001295089750783,0.1035472899675369,0,0,0
3175,118791.38060992392,2011-01-11 20:47:26,1799.8627166488018,7,13,-1.099568486213684,3.4724624156951904,9.573518610142733,9.37378063094987,38.67440503475958,33.58783757465127,-9.713172767078504e-05,0.1035472899675369,0,0,0
3176,118821.39559970883,2011-01-11 20:47:56,1829.8777065289644,7,13,-1.099568486213684,3.467282056808472,9.573518610142733,9.382949119676075,38.67440503475958,33.61964943054707,-9.713172767078504e-05,0.1035472899675369,0,0,0
3177,118851.41073534728,2011-01-11 20:48:26,1859.8928420821896,7,13,-1.099929690361023,3.461616039276123,9.573518610142733,9.392117598610518,38.67440503475958,33.65141220257951,-0.0001295089750783,0.1035472899675369,0,0,0
3178,118881.42613455762,2011-01-11 20:48:56,1889.9082414880163,7,13,-1.0997490882873535,3.4557881355285645,9.573518610142733,9.401286191621551,38.67440503475958,33.68312370730859,-0.0001295089750783,0.1035472899675369,0,0,0
3179,118911.4411924974,2011-01-11 20:49:26,1919.92329921728,7,13,-1.0997490882873535,3.449636459350586,9.573518610142733,9.410454732299748,38.67440503475958,33.71478003358147,-0.0001618862152099,0.1035472899675369,0,0,0
3180,118941.45618749032,2011-01-11 20:49:56,1949.938294215198,7,13,-1.0997490882873535,3.442837238311768,9.573518610142733,9.41962321739317,38.67440503475958,33.74637720550928,-0.0001942634553415,0.1035472899675369,0,0,0
3181,118971.47149091694,2011-01-11 20:50:26,1979.95359765184,7,13,-1.099568486213684,3.4357142448425293,9.573518610142733,9.428791801615883,38.67440503475958,33.777910961354685,-0.0001942634553415,0.1035472899675369,0,0,0
3182,119001.48657051068,2011-01-11 20:50:56,2009.9686772556213,7,13,-1.099568486213684,3.4277820587158203,9.573518610142733,9.437960325284864,38.67440503475958,33.809375523937746,-0.0001942634553415,0.1035472899675369,0,0,0
3183,119031.50168325708,2011-01-11 20:51:26,2039.9837899819547,7,13,-1.1001102924346924,3.4187164306640625,9.573518610142733,9.447128878944442,38.67440503475958,33.840762334847135,-0.0002590179501567,0.1035472899675369,0,0,0
3184,119061.51681977772,2011-01-11 20:51:56,2069.998926502591,7,13,-1.0997490882873535,3.408517599105835,9.573518610142733,9.456297474061008,38.67440503475958,33.87206236028904,-0.0002913951757363,0.1035472899675369,0,0,0
3185,119091.53196657896,2011-01-11 20:52:26,2100.014073293825,7,13,-1.0997490882873535,3.3968617916107178,9.573518610142733,9.465465998078974,38.67440503475958,33.90326076503614,-0.0002590179501567,0.1035472899675369,0,0,0
3186,119121.54727262713,2011-01-11 20:52:56,2130.029379357013,7,13,-1.0997490882873535,3.3824539184570312,9.573518610142733,9.474634648106592,38.67440503475958,33.93434060660171,-0.0004209041653666,0.1035472899675369,0,0,0
3187,119151.56229634662,2011-01-11 20:53:26,2160.044403066489,7,13,-1.099929690361023,3.3652939796447754,9.573518610142733,9.483803182547264,38.67440503475958,33.96527692503328,-0.0005180359003134,0.1035472899675369,0,0,0
3188,119181.57796452731,2011-01-11 20:53:56,2190.0600712622227,7,13,-1.0997490882873535,3.3445727825164795,9.573518610142733,9.492971979903572,38.67440503475958,33.99604119917541,-0.0006151676061563,0.1035472899675369,0,0,0
3189,119211.59274204822,2011-01-11 20:54:26,2220.074848793146,7,13,-1.0997490882873535,3.318509101867676,9.573518610142733,9.50214047041262,38.67440503475958,34.02659098130587,-0.0007770538213662,0.1035472899675369,0,0,0
3190,119241.60777011856,2011-01-11 20:54:56,2250.0898768334155,7,13,-1.099568486213684,3.285160541534424,9.573518610142733,9.5113090023186,38.67440503475958,34.05686984701224,-0.0010036944877356,0.1035472899675369,0,0,0
3191,119271.62290751636,2011-01-11 20:55:26,2280.105014231238,7,13,-1.0997490882873535,3.2417752742767334,9.573518610142733,9.520477510798026,38.67440503475958,34.08680039397827,-0.0013274669181555,0.1035472899675369,0,0,0
3192,119301.6384606704,2011-01-11 20:55:56,2310.120567410315,7,13,-1.099568486213684,3.1847915649414062,9.573518610142733,9.529646194920025,38.67440503475958,34.116275294691654,-0.0017159462440758,0.1035472899675369,0,0,0
3193,119331.65321968516,2011-01-11 20:56:26,2340.135326400028,7,13,-1.099929690361023,3.1054675579071045,9.573518610142733,9.53881461835862,38.67440503475958,34.14513038267361,-0.0024282454978674,0.1035472899675369,0,0,0
3194,119361.66851997898,2011-01-11 20:56:56,2370.150626713887,7,13,-1.0993878841400146,2.9905285835266118,9.573518610142733,9.547983295321716,38.67440503475958,34.17311256985541,-0.0036586285568773,0.1035472899675369,0,0,0
3195,119391.68353065598,2011-01-11 20:57:26,2400.165637370832,7,13,-1.0997490882873535,2.8135874271392822,9.573518610142733,9.55715183524787,38.67440503475958,34.1997740674055,-0.0055365087464451,0.1035472899675369,0,0,0
3196,119407.13654442607,2011-01-11 20:57:42,2415.6186511509454,7,13,-1.099568486213684,2.699781894683838,9.573518610142733,9.56187225020322,38.67440503475958,34.212790049599775,-0.0060221194289624,0.1035472899675369,0,0,0
3197,119467.14827107525,2011-01-11 20:58:42,60.01478794264166,8,13,0.0,3.552595853805542,9.573518610142733,9.56187225020322,38.67440503475958,34.212790049599775,0.0013274669181555,0.1035472899675369,0,0,0
3198,119467.3335699022,2011-01-11 20:58:42,0.187423953160184,9,13,-1.9243103452026844e-05,3.552757740020752,9.573518610142733,9.561872251205058,38.67440503475958,34.21279005315906,0.0,0.1021136790513992,0,0,0
3199,119472.16183452326,2011-01-11 20:58:47,5.015688569203245,9,13,0.0005225847125984,3.56085205078125,9.5735194050189,9.561872251289024,38.67440786235365,34.212790053457375,0.0011655807029455,0.1021136790513992,0,0,0
