Data_Point,Test_Time(s),Date_Time,Step_Time(s),Step_Index,Cycle_Index,Current(A),Voltage(V),Charge_Capacity(Ah),Discharge_Capacity(Ah),Charge_Energy(Wh),Discharge_Energy(Wh),dV/dt(V/s),Internal_Resistance(Ohm),Is_FC_Data,AC_Impedance(Ohm),ACI_Phase_Angle(Deg)
10779,415594.0609473393,2011-01-15 07:14:49,30.0150312532774,1,47,0.0,3.627387046813965,32.45992414001035,32.39029019509267,131.5117002279532,115.33107478409072,0.0006475448608398,0.10382841527462,0,0,0
10780,415624.0760689778,2011-01-15 07:15:20,60.030152891822695,1,47,0.0,3.64729905128479,32.45992414001035,32.39029019509267,131.5117002279532,115.33107478409072,0.0004209041653666,0.10382841527462,0,0,0
10781,415654.0911901953,2011-01-15 07:15:50,90.0452741143311,1,47,0.0,3.6615450382232666,32.45992414001035,32.39029019509267,131.5117002279532,115.33107478409072,0.0003885269106831,0.10382841527462,0,0,0
10782,415684.0594112682,2011-01-15 07:16:19,120.01349518723588,1,47,0.0,3.672229528427124,32.45992414001035,32.39029019509267,131.5117002279532,115.33107478409072,0.0002913951757363,0.10382841527462,0,0,0
10783,415714.07212721393,2011-01-15 07:16:50,30.014970922915573,2,47,0.5499359965324402,3.7934818267822266,32.46451036972155,32.39029019509267,131.5290095008195,115.33107478409072,0.0007770538213662,0.10382841527462,0,0,0
10784,415744.0872621256,2011-01-15 07:17:20,60.03010582952898,2,47,0.5501165986061096,3.815174579620361,32.469096716109284,32.39029019509267,131.54646183805718,115.33107478409072,0.0004856586456298,0.10382841527462,0,0,0
10785,415774.1022804115,2011-01-15 07:17:50,90.04512413052531,2,47,0.5501165986061096,3.828934907913208,32.47368304020679,32.39029019509267,131.56399248265737,115.33107478409072,0.0003237724304199,0.10382841527462,0,0,0
10786,415804.1175997729,2011-01-15 07:18:20,120.06044352193156,2,47,0.550297200679779,3.839781045913696,32.478269297641944,32.39029019509267,131.58157804715745,115.33107478409072,0.0003237724304199,0.10382841527462,0,0,0
10787,415834.1325967808,2011-01-15 07:18:50,150.07544051983405,2,47,0.5499359965324402,3.848684787750244,32.48285556018,32.39029019509267,131.5992089892026,115.33107478409072,0.0002266406954731,0.10382841527462,0,0,0
10788,415864.1476497331,2011-01-15 07:19:20,180.09049346717973,2,47,0.5497553944587708,3.856940984725952,32.48744168278196,32.39029019509267,131.61687909302495,115.33107478409072,0.0001942634553415,0.10382841527462,0,0,0
10789,415894.162679984,2011-01-15 07:19:50,210.10552369790864,2,47,0.5499359965324402,3.8642258644104,32.49202715208518,32.39029019509267,131.63458249903024,115.33107478409072,0.0001295089750783,0.10382841527462,0,0,0
10790,415924.1777611216,2011-01-15 07:20:20,240.12060487561303,2,47,0.5501165986061096,3.8715107440948486,32.49661281361319,32.39029019509267,131.6523196520253,115.33107478409072,0.0001618862152099,0.10382841527462,0,0,0
10791,415954.1930265584,2011-01-15 07:20:50,270.13587027244824,2,47,0.5499359965324402,3.877824306488037,32.50119824176381,32.39029019509267,131.67008652138657,115.33107478409072,0.0001618862152099,0.10382841527462,0,0,0
10792,415984.20810702944,2011-01-15 07:21:20,300.1509507634412,2,47,0.5499359965324402,3.883975982666016,32.50578373275809,32.39029019509267,131.68788244032834,115.33107478409072,0.0001618862152099,0.10382841527462,0,0,0
10793,416014.2232403471,2011-01-15 07:21:50,330.1660840660569,2,47,0.5501165986061096,3.889642000198364,32.51036924494306,32.39029019509267,131.70570565029885,115.33107478409072,0.0001295089750783,0.10382841527462,0,0,0
10794,416044.240870668,2011-01-15 07:22:20,360.1837144972856,2,47,0.5501165986061096,3.895469903945923,32.51495523899631,32.39029019509267,131.72355679602134,115.33107478409072,0.0001618862152099,0.10382841527462,0,0,0
10795,416074.25344954414,2011-01-15 07:22:50,390.1962932481724,2,47,0.5499359965324402,3.9006502628326416,32.51954127127671,32.39029019509267,131.74143295534736,115.33107478409072,0.0001618862152099,0.10382841527462,0,0,0
10796,416104.2686939437,2011-01-15 07:23:20,420.2115376727381,2,47,0.5501165986061096,3.90583062171936,32.52412768251295,32.39029019509267,131.75933465604797,115.33107478409072,0.0001618862152099,0.10382841527462,0,0,0
10797,416134.2836785808,2011-01-15 07:23:50,450.22652229479627,2,47,0.5499359965324402,3.910525321960449,32.52871398415038,32.39029019509267,131.7772589589973,115.33107478409072,9.713172767078504e-05,0.10382841527462,0,0,0
10798,416164.2990727687,2011-01-15 07:24:20,480.2419165026682,2,47,0.5497553944587708,3.915219783782959,32.533300472257594,32.39029019509267,131.79520620668072,115.33107478409072,6.47544875391759e-05,0.10382841527462,0,0,0
10799,416194.3139574365,2011-01-15 07:24:50,510.2568012407846,2,47,0.550297200679779,3.920076370239258,32.537886785192114,32.39029019509267,131.8131738540049,115.33107478409072,0.0001295089750783,0.10382841527462,0,0,0
10800,416224.3290078726,2011-01-15 07:25:20,540.2718515816342,2,47,0.5501165986061096,3.924285411834717,32.542473163114295,32.39029019509267,131.8311621131862,115.33107478409072,0.0001295089750783,0.10382841527462,0,0,0
10801,416254.3441242681,2011-01-15 07:25:50,570.2869679771121,2,47,0.5501165986061096,3.928494453430176,32.54705957697132,32.39029019509267,131.84916997841466,115.33107478409072,0.0001618862152099,0.10382841527462,0,0,0
10802,416284.35925928,2011-01-15 07:26:20,600.3021029940004,2,47,0.5501165986061096,3.932379722595215,32.551645980997144,32.39029019509267,131.8671963934277,115.33107478409072,9.713172767078504e-05,0.10382841527462,0,0,0
10803,416314.3743440216,2011-01-15 07:26:50,630.3171877305747,2,47,0.5501165986061096,3.936264991760254,32.556232397107514,32.39029019509267,131.8852407741957,115.33107478409072,0.0001295089750783,0.10382841527462,0,0,0
10804,416344.3894738004,2011-01-15 07:27:20,660.332317539483,2,47,0.5499359965324402,3.939988374710083,32.56081872701283,32.39029019509267,131.90330189660116,115.33107478409072,0.0001295089750783,0.10382841527462,0,0,0
10805,416374.404623564,2011-01-15 07:27:50,690.3474673632746,2,47,0.550297200679779,3.943549871444702,32.56540510260716,32.39029019509267,131.9213797728694,115.33107478409072,0.0001295089750783,0.10382841527462,0,0,0
10806,416404.4198274727,2011-01-15 07:28:20,720.3626712066998,2,47,0.5501165986061096,3.946787595748901,32.56999147935616,32.39029019509267,131.93947351193373,115.33107478409072,9.713172767078504e-05,0.10382841527462,0,0,0
10807,416434.43479408487,2011-01-15 07:28:50,750.3776377988216,2,47,0.5501165986061096,3.9500253200531006,32.57457782016586,32.39029019509267,131.95758232892453,115.33107478409072,6.47544875391759e-05,0.10382841527462,0,0,0
10808,416464.4499150167,2011-01-15 07:29:20,780.3927587406304,2,47,0.5499359965324402,3.95310115814209,32.57916412114615,32.39029019509267,131.9757057976917,115.33107478409072,6.47544875391759e-05,0.10382841527462,0,0,0
10809,416494.46502128185,2011-01-15 07:29:50,810.4078650158857,2,47,0.5501165986061096,3.956338882446289,32.58375049179645,32.39029019509267,131.9938439485717,115.33107478409072,9.713172767078504e-05,0.10382841527462,0,0,0
10810,416524.4804214196,2011-01-15 07:30:20,840.4232651435116,2,47,0.5501165986061096,3.9594147205352783,32.58833696990792,32.39029019509267,132.01199659092316,115.33107478409072,6.47544875391759e-05,0.10382841527462,0,0,0
10811,416554.4952466092,2011-01-15 07:30:50,870.4380903181776,2,47,0.5501165986061096,3.9623286724090576,32.59292333309111,32.39029019509267,132.03016267000453,115.33107478409072,9.713172767078504e-05,0.10382841527462,0,0,0
10812,416584.510391631,2011-01-15 07:31:20,900.4532353400011,2,47,0.5499359965324402,3.965404510498047,32.59750972255208,32.39029019509267,132.0483425349303,115.33107478409072,9.713172767078504e-05,0.10382841527462,0,0,0
10813,416614.52546828747,2011-01-15 07:31:50,930.4683119964373,2,47,0.5499359965324402,3.968156576156616,32.602096174370104,32.39029019509267,132.06653611852676,115.33107478409072,3.237724376958795e-05,0.10382841527462,0,0,0
10814,416644.5407285164,2011-01-15 07:32:20,960.48357224043,2,47,0.5501165986061096,3.971070528030396,32.606682636098896,32.39029019509267,132.08474305626098,115.33107478409072,6.47544875391759e-05,0.10382841527462,0,0,0
10815,416674.55569251714,2011-01-15 07:32:50,990.4985362260556,2,47,0.5501165986061096,3.973984479904175,32.61126907876448,32.39029019509267,132.1029631088657,115.33107478409072,9.713172767078504e-05,0.10382841527462,0,0,0
10816,416704.5708127922,2011-01-15 07:33:20,1020.5136565062156,2,47,0.5501165986061096,3.976736545562744,32.6158554844328,32.39029019509267,132.12119608486222,115.33107478409072,6.47544875391759e-05,0.10382841527462,0,0,0
10817,416734.58592346346,2011-01-15 07:33:50,1050.5287671724143,2,47,0.5501165986061096,3.979650497436523,32.62044194888433,32.39029019509267,132.13944181729872,115.33107478409072,9.713172767078504e-05,0.10382841527462,0,0,0
10818,416764.6011833866,2011-01-15 07:34:20,1080.5440271106452,2,47,0.550297200679779,3.9824025630950928,32.62502828146876,32.39029019509267,132.15770003296203,115.33107478409072,9.713172767078504e-05,0.10382841527462,0,0,0
10819,416794.61616678064,2011-01-15 07:34:50,1110.5590104896048,2,47,0.5501165986061096,3.984992742538452,32.62961460357669,32.39029019509267,132.17597073383612,115.33107478409072,6.47544875391759e-05,0.10382841527462,0,0,0
10820,416824.63139902987,2011-01-15 07:35:20,1140.5742427638886,2,47,0.5501165986061096,3.987906694412232,32.63420092464119,32.39029019509267,132.19425391558846,115.33107478409072,9.713172767078504e-05,0.10382841527462,0,0,0
10821,416854.6465000219,2011-01-15 07:35:50,1170.5893438411888,2,47,0.5501165986061096,3.990496873855591,32.63878722479868,32.39029019509267,132.2125492358884,115.33107478409072,3.237724376958795e-05,0.10382841527462,0,0,0
10822,416884.6614959221,2011-01-15 07:36:20,1200.6043396360933,2,47,0.5499359965324402,3.99308705329895,32.643373492878084,32.39029019509267,132.23085660924593,115.33107478409072,6.47544875391759e-05,0.10382841527462,0,0,0
10823,416914.6766000671,2011-01-15 07:36:50,1230.6194437810393,2,47,0.5501165986061096,3.9956769943237305,32.64795974850766,32.39029019509267,132.2491758882931,115.33107478409072,3.237724376958795e-05,0.10382841527462,0,0,0
10824,416944.6917102972,2011-01-15 07:37:20,1260.6345540061384,2,47,0.5501165986061096,3.99826717376709,32.65254610407987,32.39029019509267,132.26750757906217,115.33107478409072,6.47544875391759e-05,0.10382841527462,0,0,0
10825,416974.7069501403,2011-01-15 07:37:50,1290.649793864323,2,47,0.5501165986061096,4.001019477844238,32.65713248374994,32.39029019509267,132.2858511773098,115.33107478409072,6.47544875391759e-05,0.10382841527462,0,0,0
10826,417004.72197718313,2011-01-15 07:38:20,1320.664820917132,2,47,0.5501165986061096,4.003609657287598,32.66171878624367,32.39029019509267,132.30420628070252,115.33107478409072,9.71794142969884e-05,0.10382841527462,0,0,0
10827,417034.7370597142,2011-01-15 07:38:50,1350.6799034331718,2,47,0.5501165986061096,4.005876064300537,32.66630511914108,32.39029019509267,132.32257318173197,115.33107478409072,3.24249267578125e-05,0.10382841527462,0,0,0
10828,417064.7521857988,2011-01-15 07:39:20,1380.695029537848,2,47,0.5499359965324402,4.008304119110107,32.670891474457314,32.39029019509267,132.34095186076254,115.33107478409072,0.0,0.10382841527462,0,0,0
10829,417094.7672850767,2011-01-15 07:39:50,1410.7101287855887,2,47,0.5499359965324402,4.011056423187256,32.675477781623904,32.39029019509267,132.35934186569463,115.33107478409072,6.47544875391759e-05,0.10382841527462,0,0,0
10830,417124.78266951005,2011-01-15 07:40:20,1440.7255133243625,2,47,0.5501165986061096,4.013646602630615,32.68006416565597,32.39029019509267,132.37774374696957,115.33107478409072,9.71794142969884e-05,0.10382841527462,0,0,0
10831,417154.798073753,2011-01-15 07:40:50,1470.7409175622322,2,47,0.5497553944587708,4.0160746574401855,32.68465057993106,32.39029019509267,132.3961573161792,115.33107478409072,6.47544875391759e-05,0.10382841527462,0,0,0
10832,417184.7993439645,2011-01-15 07:41:20,1500.7421877737593,2,47,0.5501165986061096,4.018664836883545,32.689234811529225,32.39029019509267,132.41457365256446,115.33107478409072,9.70840483205393e-05,0.10382841527462,0,0,0
10833,417214.812181741,2011-01-15 07:41:50,1530.75502557528,2,47,0.5499359965324402,4.020931243896484,32.69382078455713,32.39029019509267,132.4330083522627,115.33107478409072,0.0,0.10382841527462,0,0,0
10834,417244.8272970288,2011-01-15 07:42:20,1560.7701407627474,2,47,0.5499359965324402,4.023521423339844,32.698407058596466,32.39029019509267,132.45145582416637,115.33107478409072,3.23295607813634e-05,0.10382841527462,0,0,0
10835,417274.8426178186,2011-01-15 07:42:50,1590.7854616378513,2,47,0.550297200679779,4.026111602783203,32.7029933778867,32.39029019509267,132.4699149401643,115.33107478409072,9.70840483205393e-05,0.10382841527462,0,0,0
10836,417304.85750931856,2011-01-15 07:43:20,1620.8003530275455,2,47,0.5501165986061096,4.028540134429932,32.70757969118408,32.39029019509267,132.48838554415366,115.33107478409072,3.24249267578125e-05,0.10382841527462,0,0,0
10837,417334.8726480498,2011-01-15 07:43:50,1650.815491868966,2,47,0.5497553944587708,4.030968189239502,32.71216597257392,32.39029019509267,132.5068674197516,115.33107478409072,6.47544875391759e-05,0.10382841527462,0,0,0
10838,417364.88778825954,2011-01-15 07:44:21,1680.8306321038588,2,47,0.5501165986061096,4.033558368682861,32.71675230359919,32.39029019509267,132.52536101438884,115.33107478409072,6.47544875391759e-05,0.10382841527462,0,0,0
10839,417394.90291689045,2011-01-15 07:44:51,1710.8457606997438,2,47,0.5501165986061096,4.036148548126221,32.721338570905026,32.39029019509267,132.54386589706544,115.33107478409072,6.47544875391759e-05,0.10382841527462,0,0,0
10840,417424.91816018726,2011-01-15 07:45:21,1740.861004006524,2,47,0.5501165986061096,4.03873872756958,32.72592493501987,32.39029019509267,132.5623827914301,115.33107478409072,6.47544875391759e-05,0.10382841527462,0,0,0
10841,417454.9330533414,2011-01-15 07:45:51,1770.8758971606158,2,47,0.5501165986061096,4.04116678237915,32.73051127224567,32.39029019509267,132.58091123255755,115.33107478409072,6.47544875391759e-05,0.10382841527462,0,0,0
10842,417484.9481992153,2011-01-15 07:46:21,1800.8910431097504,2,47,0.5501165986061096,4.04375696182251,32.73509757364737,32.39029019509267,132.59945123968987,115.33107478409072,9.70840483205393e-05,0.10382841527462,0,0,0
10843,417514.963332924,2011-01-15 07:46:51,1830.906176632916,2,47,0.5501165986061096,4.046347141265869,32.73968398648118,32.39029019509267,132.61800345564114,115.33107478409072,6.47544875391759e-05,0.10382841527462,0,0,0
10844,417544.978540617,2011-01-15 07:47:21,1860.92138445626,2,47,0.5499359965324402,4.048775672912598,32.74427040106118,32.39029019509267,132.6365675087505,115.33107478409072,6.47544875391759e-05,0.10382841527462,0,0,0
10845,417574.99354768,2011-01-15 07:47:51,1890.936391499198,2,47,0.5501165986061096,4.051527500152588,32.74885679060817,32.39029019509267,132.65514334802347,115.33107478409072,6.47544875391759e-05,0.10382841527462,0,0,0
10846,417605.0086752683,2011-01-15 07:48:21,1920.9515189973472,2,47,0.5501165986061096,4.054117679595947,32.75344309727707,32.39029019509267,132.6737307860477,115.33107478409072,6.47544875391759e-05,0.10382841527462,0,0,0
10847,417635.0239143596,2011-01-15 07:48:51,1950.9667581938832,2,47,0.5501165986061096,4.056707859039307,32.75802952044419,32.39029019509267,132.6923307528673,115.33107478409072,6.47544875391759e-05,0.10382841527462,0,0,0
10848,417665.0390998423,2011-01-15 07:49:21,1980.981943576298,2,47,0.5501165986061096,4.059460163116455,32.762615958074285,32.39029019509267,132.71094300328616,115.33107478409072,9.71794142969884e-05,0.10382841527462,0,0,0
10849,417695.0541576116,2011-01-15 07:49:51,2010.997001455936,2,47,0.5501165986061096,4.062050342559815,32.767202320314205,32.39029019509267,132.72956687101302,115.33107478409072,6.47544875391759e-05,0.10382841527462,0,0,0
10850,417725.0692038222,2011-01-15 07:50:21,2041.0120475512044,2,47,0.5501165986061096,4.064640522003174,32.771788584295024,32.39029019509267,132.74820265745208,115.33107478409072,6.47544875391759e-05,0.10382841527462,0,0,0
10851,417755.0842389602,2011-01-15 07:50:51,2071.0270826991887,2,47,0.5499359965324402,4.067392349243164,32.776374959876854,32.39029019509267,132.7668514081179,115.33107478409072,9.70840483205393e-05,0.10382841527462,0,0,0
10852,417785.0995736547,2011-01-15 07:51:21,2101.042417473935,2,47,0.5501165986061096,4.070306301116943,32.78096125950292,32.39029019509267,132.78551238717765,115.33107478409072,6.47544875391759e-05,0.10382841527462,0,0,0
10853,417815.1144136362,2011-01-15 07:51:51,2131.05725734523,2,47,0.5501165986061096,4.073058605194092,32.785547545334225,32.39029019509267,132.80418585674747,115.33107478409072,6.47544875391759e-05,0.10382841527462,0,0,0
10854,417845.1295148138,2011-01-15 07:52:21,2161.0723585378173,2,47,0.5501165986061096,4.075810432434082,32.7901338205,32.39029019509267,132.82287205968055,115.33107478409072,6.47544875391759e-05,0.10382841527462,0,0,0
10855,417875.1446597955,2011-01-15 07:52:51,2191.087503604753,2,47,0.550297200679779,4.078562736511231,32.79472014510401,32.39029019509267,132.841571282743,115.33107478409072,6.47544875391759e-05,0.10382841527462,0,0,0
10856,417905.159772978,2011-01-15 07:53:21,2221.1026166869738,2,47,0.5499359965324402,4.081314563751221,32.79930640272053,32.39029019509267,132.86028323825596,115.33107478409072,6.47544875391759e-05,0.10382841527462,0,0,0
10857,417935.1747742565,2011-01-15 07:53:51,2251.1176179906074,2,47,0.5499359965324402,4.084228515625,32.80389260206223,32.39029019509267,132.87900799710602,115.33107478409072,9.70840483205393e-05,0.10382841527462,0,0,0
10858,417965.18998134806,2011-01-15 07:54:21,2281.132825052053,2,47,0.5501165986061096,4.087142467498779,32.808478906069475,32.39029019509267,132.89774640959791,115.33107478409072,6.47544875391759e-05,0.10382841527462,0,0,0
10859,417995.2072707093,2011-01-15 07:54:51,2311.15011451348,2,47,0.5501165986061096,4.090218544006348,32.81306544738554,32.39029019509267,132.91649911892114,115.33107478409072,9.71794142969884e-05,0.10382841527462,0,0,0
10860,418025.2202066304,2011-01-15 07:55:21,2341.163050434545,2,47,0.5501165986061096,4.092970371246338,32.81765136983916,32.39029019509267,132.93526273995585,115.33107478409072,6.47544875391759e-05,0.10382841527462,0,0,0
10861,418055.2352392971,2011-01-15 07:55:51,2371.178083106357,2,47,0.5499359965324402,4.096046447753906,32.82223764247607,32.39029019509267,132.95404135483602,115.33107478409072,9.71794142969884e-05,0.10382841527462,0,0,0
10862,418085.2506590136,2011-01-15 07:56:21,2401.193502827817,2,47,0.5499359965324402,4.0989603996276855,32.82682401572192,32.39029019509267,132.97283412300652,115.33107478409072,6.47544875391759e-05,0.10382841527462,0,0,0
10863,418115.2657523416,2011-01-15 07:56:51,2431.208596075604,2,47,0.5499359965324402,4.101874351501465,32.83141036474643,32.39029019509267,132.9916406477672,115.33107478409072,6.47544875391759e-05,0.10382841527462,0,0,0
10864,418145.2806666584,2011-01-15 07:57:21,2461.223510457602,2,47,0.5501165986061096,4.105112075805664,32.83599664620681,32.39029019509267,133.01046068500415,115.33107478409072,9.71794142969884e-05,0.10382841527462,0,0,0
10865,418175.2957565779,2011-01-15 07:57:51,2491.238600291881,2,47,0.5499359965324402,4.108026027679443,32.84058289548752,32.39029019509267,133.02929472292683,115.33107478409072,3.24249267578125e-05,0.10382841527462,0,0,0
10866,418205.31086657743,2011-01-15 07:58:21,2521.253710286406,2,47,0.5499359965324402,4.111263751983643,32.84516970708329,32.39029019509267,133.04814534456176,115.33107478409072,9.71794142969884e-05,0.10382841527462,0,0,0
10867,418235.325932041,2011-01-15 07:58:51,2551.268775764984,2,47,0.5501165986061096,4.114501476287842,32.84975691299046,32.39029019509267,133.06701190319228,115.33107478409072,9.71794142969884e-05,0.10382841527462,0,0,0
10868,418265.3410688774,2011-01-15 07:59:21,2581.2839125813566,2,47,0.550297200679779,4.117577075958252,32.85434386485856,32.39029019509267,133.0858917810529,115.33107478409072,9.71794142969884e-05,0.10382841527462,0,0,0
10869,418295.35630472057,2011-01-15 07:59:51,2611.299148444585,2,47,0.550297200679779,4.120814800262451,32.85893103922152,32.39029019509267,133.10478721728845,115.33107478409072,9.71794142969884e-05,0.10382841527462,0,0,0
10870,418325.3712992323,2011-01-15 08:00:21,2641.314143066566,2,47,0.5499359965324402,4.12405252456665,32.863518210710254,32.39029019509267,133.12369740664047,115.33107478409072,0.0001295089750783,0.10382841527462,0,0,0
10871,418355.3865652206,2011-01-15 08:00:51,2671.3294090298127,2,47,0.550297200679779,4.12729024887085,32.86810540002011,32.39029019509267,133.1426226097568,115.33107478409072,6.47544875391759e-05,0.10382841527462,0,0,0
10872,418385.4015233817,2011-01-15 08:01:21,2701.344367100697,2,47,0.550297200679779,4.13068962097168,32.87269225005465,32.39029019509267,133.1615613748529,115.33107478409072,9.70840483205393e-05,0.10382841527462,0,0,0
10873,418415.4167149796,2011-01-15 08:01:51,2731.3595586935903,2,47,0.5501165986061096,4.133927345275879,32.87727877118728,32.39029019509267,133.18051387854788,115.33107478409072,9.70840483205393e-05,0.10382841527462,0,0,0
10874,418445.4317542027,2011-01-15 08:02:21,2761.374597936781,2,47,0.5499359965324402,4.137165069580078,32.881865287014605,32.39029019509267,133.19948168101726,115.33107478409072,6.47544875391759e-05,0.10382841527462,0,0,0
10875,418475.4471895984,2011-01-15 08:02:51,2791.3900334475925,2,47,0.5501165986061096,4.140888690948486,32.88645146346353,32.39029019509267,133.21846350220244,115.33107478409072,0.0001942634553415,0.10382841527462,0,0,0
10876,418505.4619793096,2011-01-15 08:03:21,2821.404823018523,2,47,0.5499359965324402,4.143640518188477,32.89103716451654,32.39029019509267,133.23745876596942,115.33107478409072,6.47544875391759e-05,0.10382841527462,0,0,0
10877,418535.4771033741,2011-01-15 08:03:51,2851.41994717334,2,47,0.5501165986061096,4.147525787353516,32.895622800183546,32.39029019509267,133.256469884534,115.33107478409072,9.70840483205393e-05,0.10382841527462,0,0,0
10878,418565.4922063211,2011-01-15 08:04:21,2881.4350500551373,2,47,0.5497553944587708,4.150925636291504,32.900208425638574,32.39029019509267,133.27549676831453,115.33107478409072,3.24249267578125e-05,0.10382841527462,0,0,0
10879,418595.5074788256,2011-01-15 08:04:51,2911.450322685,2,47,0.5501165986061096,4.154487133026123,32.904794446955286,32.39029019509267,133.29454133665325,115.33107478409072,9.71794142969884e-05,0.10382841527462,0,0,0
10880,418625.5224391572,2011-01-15 08:05:21,2941.465282881181,2,47,0.5501165986061096,4.158048629760742,32.909380815001334,32.39029019509267,133.31360341413347,115.33107478409072,0.0001295089750783,0.10382841527462,0,0,0
10881,418655.5375600188,2011-01-15 08:05:51,2971.4804038179773,2,47,0.550297200679779,4.161610126495361,32.91396728550372,32.39029019509267,133.33268217995848,115.33107478409072,9.71794142969884e-05,0.10382841527462,0,0,0
10882,418685.55267058976,2011-01-15 08:06:21,3001.495514398964,2,47,0.5501165986061096,4.1651716232299805,32.91855371907122,32.39029019509267,133.35177702401154,115.33107478409072,0.0001295089750783,0.10382841527462,0,0,0
10883,418715.56779604784,2011-01-15 08:06:51,3031.5106397668037,2,47,0.5501165986061096,4.1687331199646,32.92314012312751,32.39029019509267,133.37088811934282,115.33107478409072,9.71794142969884e-05,0.10382841527462,0,0,0
10884,418745.5828975311,2011-01-15 08:07:21,3061.5257412400906,2,47,0.5501165986061096,4.172294616699219,32.92772652265745,32.39029019509267,133.3900158076657,115.33107478409072,9.71794142969884e-05,0.10382841527462,0,0,0
10885,418775.59801140527,2011-01-15 08:07:51,3091.540855114285,2,47,0.550297200679779,4.176017761230469,32.932312924552484,32.39029019509267,133.40916029450264,115.33107478409072,9.70840483205393e-05,0.10382841527462,0,0,0
10886,418805.61311500886,2011-01-15 08:08:21,3121.5559587128687,2,47,0.5501165986061096,4.179741382598877,32.93689939699759,32.39029019509267,133.42832204945282,115.33107478409072,9.71794142969884e-05,0.10382841527462,0,0,0
10887,418835.6282751184,2011-01-15 08:08:51,3151.571118947608,2,47,0.5501165986061096,4.183464527130127,32.94148586023045,32.39029019509267,133.4475007930413,115.33107478409072,6.47544875391759e-05,0.10382841527462,0,0,0
10888,418865.6433365018,2011-01-15 08:09:21,3181.5861803059165,2,47,0.5501165986061096,4.187349796295166,32.94607229446585,32.39029019509267,133.46669666431276,115.33107478409072,0.0001618385285837,0.10382841527462,0,0,0
10889,418895.65844528825,2011-01-15 08:09:51,3211.601288997193,2,47,0.550297200679779,4.191073417663574,32.95065875335482,32.39029019509267,133.48591003970523,115.33107478409072,9.71794142969884e-05,0.10382841527462,0,0,0
10890,418925.67355801456,2011-01-15 08:10:21,3241.616401718514,2,47,0.5501165986061096,4.194796562194824,32.95524511549509,32.39029019509267,133.50514039768893,115.33107478409072,9.70840483205393e-05,0.10382841527462,0,0,0
10891,418955.68869989854,2011-01-15 08:10:51,3271.631543602517,2,47,0.5501165986061096,4.198681831359863,32.95983147420424,32.39029019509267,133.52438820585868,115.33107478409072,9.71794142969884e-05,0.10382841527462,0,0,0
10892,418965.0635882349,2011-01-15 08:11:01,3281.006431968907,2,47,0.550297200679779,4.200138568878174,32.96126399984672,32.39029019509267,133.53040378978025,115.33107478409072,0.0001295089750783,0.10382841527462,0,0,0
10893,418995.0720417432,2011-01-15 08:11:31,30.017299962599093,3,47,0.0,4.094103813171387,32.96126399984672,32.39029019509267,133.53040378978025,115.33107478409072,-0.0005180359003134,0.10382841527462,0,0,0
10894,419025.0849292636,2011-01-15 08:12:01,60.03018747802215,3,47,0.0,4.080343246459961,32.96126399984672,32.39029019509267,133.53040378978025,115.33107478409072,-0.0002914428769145,0.10382841527462,0,0,0
10895,419055.10003727325,2011-01-15 08:12:31,90.04529548759987,3,47,0.0,4.072087287902832,32.96126399984672,32.39029019509267,133.53040378978025,115.33107478409072,-0.0001618385285837,0.10382841527462,0,0,0
10896,419085.0704769706,2011-01-15 08:13:01,120.01573529026189,3,47,0.0,4.0659356117248535,32.96126399984672,32.39029019509267,133.53040378978025,115.33107478409072,-0.0001618385285837,0.10382841527462,0,0,0
10897,419085.0773055592,2011-01-15 08:13:01,0.01562744339739,4,47,1.027105689048767,4.199976921081543,32.961268505908635,32.39029019509267,133.53042271550163,115.33107478409072,-3.23295607813634e-05,0.10382841527462,0,0,0
10898,419085.81168744987,2011-01-15 08:13:02,0.750009369119961,4,47,0.9770769476890564,4.199814796447754,32.96147154736021,32.39029019509267,133.53127544947324,115.33107478409072,-6.47544875391759e-05,0.10382841527462,0,0,0
10899,419087.67105123645,2011-01-15 08:13:04,2.609373130725809,4,47,0.9270481467247008,4.199814796447754,32.96196235555164,32.39029019509267,133.5333367698135,115.33107478409072,-6.47544875391759e-05,0.10382841527462,0,0,0
10900,419090.5772095221,2011-01-15 08:13:07,5.515531406351214,4,47,0.8766582012176514,4.199814796447754,32.962689343717905,32.39029019509267,133.53639000404195,115.33107478409072,0.0,0.10382841527462,0,0,0
10901,419094.4856668654,2011-01-15 08:13:10,9.423988849902834,4,47,0.8266294002532959,4.199814796447754,32.96361275154987,32.39029019509267,133.5402681885949,115.33107478409072,-3.24249267578125e-05,0.10382841527462,0,0,0
10902,419099.6708052257,2011-01-15 08:13:16,14.609127139948797,4,47,0.7764200568199158,4.199814796447754,32.96476589292679,32.39029019509267,133.545111205193,115.33107478409072,0.0,0.10382841527462,0,0,0
10903,419106.38943841687,2011-01-15 08:13:22,21.32776030607052,4,47,0.7263912558555603,4.199814796447754,32.96616629960387,32.39029019509267,133.55099272107685,115.33107478409072,0.0,0.10382841527462,0,0,0
10904,419115.21755079424,2011-01-15 08:13:31,30.15587269849471,4,47,0.6761819124221802,4.199814796447754,32.96788325475483,32.39029019509267,133.55820371503984,115.33107478409072,0.0,0.10382841527462,0,0,0
10905,419127.31096189073,2011-01-15 08:13:43,42.24928377494679,4,47,0.6261531114578247,4.199814796447754,32.970066168361114,32.39029019509267,133.5673716735907,115.33107478409072,-3.24249267578125e-05,0.10382841527462,0,0,0
10906,419145.35765058186,2011-01-15 08:14:01,60.29597249105463,4,47,0.576124370098114,4.199653148651123,32.97307112593482,32.39029019509267,133.5799921080259,115.33107478409072,-6.47544875391759e-05,0.10382841527462,0,0,0
10907,419176.31025013374,2011-01-15 08:14:32,91.24857203298993,4,47,0.5260955691337585,4.199976921081543,32.977789980553645,32.39029019509267,133.5998106817795,115.33107478409072,3.24249267578125e-05,0.10382841527462,0,0,0
10908,419237.7779831776,2011-01-15 08:15:34,152.7163050919214,4,47,0.4760667979717254,4.199814796447754,32.98630019987422,32.39029019509267,133.63555253068023,115.33107478409072,0.0,0.10382841527462,0,0,0
10909,419343.2760562166,2011-01-15 08:17:19,258.21437812085503,4,47,0.4258574247360229,4.199814796447754,32.999478544874144,32.39029019509267,133.69089995040997,115.33107478409072,-3.24249267578125e-05,0.10382841527462,0,0,0
10910,419483.17988403287,2011-01-15 08:19:39,398.1182059170548,4,47,0.3756480515003204,4.199814796447754,33.01504027557523,32.39029019509267,133.7562572923829,115.33107478409072,0.0,0.10382841527462,0,0,0
10911,419652.3645167143,2011-01-15 08:22:28,567.302838628582,4,47,0.3256192803382873,4.199814796447754,33.031497505954064,32.39029019509267,133.82537562353826,115.33107478409072,0.0,0.10382841527462,0,0,0
10912,419854.5485455546,2011-01-15 08:25:50,769.4868674438602,4,47,0.2755905091762543,4.199653148651123,33.04834260182041,32.39029019509267,133.89612290540833,115.33107478409072,-6.47544875391759e-05,0.10382841527462,0,0,0
10913,420102.90369933983,2011-01-15 08:29:59,1017.8420212340756,4,47,0.2253811359405517,4.199814796447754,33.065585392370814,32.39029019509267,133.96854049443664,115.33107478409072,0.0,0.10382841527462,0,0,0
10914,420422.52326505206,2011-01-15 08:35:18,1337.4615869463123,4,47,0.1753523647785186,4.199653148651123,33.08331092719874,32.39029019509267,134.0429855324114,115.33107478409072,-6.47544875391759e-05,0.10382841527462,0,0,0
10915,420862.7815124437,2011-01-15 08:42:39,1777.7198343579382,4,47,0.1251429915428161,4.199653148651123,33.10155490293751,32.39029019509267,134.11960793490405,115.33107478409072,0.0,0.10382841527462,0,0,0
10916,421594.97201796784,2011-01-15 08:54:51,2509.910339867053,4,47,0.0751142129302024,4.199653148651123,33.1214820765521,32.39029019509267,134.20329954677086,115.33107478409072,-6.47544875391759e-05,0.10382841527462,0,0,0
10917,422284.9914880459,2011-01-15 09:06:21,3199.9298099501834,4,47,0.0498289167881011,4.199814796447754,33.13331246095677,32.39029019509267,134.25298563150346,115.33107478409072,0.0,0.10382841527462,0,0,0
10918,422315.0078920792,2011-01-15 09:06:51,30.015313416515006,5,47,0.0,4.189939975738525,33.13331246095677,32.39029019509267,134.25298563150346,115.33107478409072,-3.24249267578125e-05,0.10382841527462,0,0,0
10919,422345.00737740216,2011-01-15 09:07:21,60.01479875458836,5,47,0.0,4.188159465789795,33.13331246095677,32.39029019509267,134.25298563150346,115.33107478409072,-3.23295607813634e-05,0.10382841527462,0,0,0
10920,422345.18094589,2011-01-15 09:07:21,0.18736566789537,6,47,-1.9243103452026844e-05,4.188321113586426,33.13331246095677,32.39029019609419,134.25298563150346,115.33107478828543,0.0,0.1078842133283615,0,0,0
10921,422350.0089776708,2011-01-15 09:07:26,5.015397363428853,6,47,0.0007031940040178,4.188321113586426,33.13331336425976,32.39029019617797,134.25298941488467,115.33107478863631,-3.24249267578125e-05,0.1078842133283615,0,0,0
10922,422366.5130267789,2011-01-15 09:07:43,16.501887847018722,7,47,-1.0997490882873535,3.9882304668426514,33.13331336425976,32.39533032206611,134.25298941488467,115.35127832265464,-0.0017483234405517,0.1078842133283615,0,0,0
10923,422396.5259802989,2011-01-15 09:08:13,46.51484138699528,7,47,-1.099568486213684,3.936426877975464,33.13331336425976,32.40449693222057,134.25298941488467,115.38759064256271,-0.0012627125252038,0.1078842133283615,0,0,0
10924,422426.54106439394,2011-01-15 09:08:43,76.52992546192047,7,47,-1.099568486213684,3.8970887660980233,33.13331336425976,32.4136642860526,134.25298941488467,115.42348988442016,-0.0009389400365762,0.1078842133283615,0,0,0
10925,422456.556179847,2011-01-15 09:09:13,106.54504091003732,7,47,-1.0997490882873535,3.86600661277771,33.13331336425976,32.422831602208134,134.25298941488467,115.45906859351092,-0.0007446765666827,0.1078842133283615,0,0,0
10926,422486.57149406045,2011-01-15 09:09:43,136.56035524383847,7,47,-1.0993878841400146,3.841561794281006,33.13331336425976,32.43199902531853,134.25298941488467,115.49439468531506,-0.0006151676061563,0.1078842133283615,0,0,0
10927,422516.5875925437,2011-01-15 09:10:13,166.5764537219686,7,47,-1.099568486213684,3.82116436958313,33.13331336425976,32.44116671104064,134.25298941488467,115.52951710382833,-0.0005180359003134,0.1078842133283615,0,0,0
10928,422546.6018960933,2011-01-15 09:10:43,196.59075726657207,7,47,-1.0993878841400146,3.803518772125244,33.13331336425976,32.450333781911965,134.25298941488467,115.5644634671244,-0.0004209041653666,0.1078842133283615,0,0,0
10929,422576.6166426871,2011-01-15 09:11:13,226.60550375512813,7,47,-1.099568486213684,3.787653923034668,33.13331336425976,32.45950103183594,134.25298941488467,115.59925775989014,-0.0004532813909463,0.1078842133283615,0,0,0
10930,422606.6317789472,2011-01-15 09:11:43,256.6206400401771,7,47,-1.099568486213684,3.773246049880981,33.13331336425976,32.46866834465886,134.25298941488467,115.6339143630497,-0.0004209041653666,0.1078842133283615,0,0,0
10931,422636.64684322267,2011-01-15 09:12:13,286.6357042906937,7,47,-1.0993878841400146,3.7599713802337646,33.13331336425976,32.47783559357837,134.25298941488467,115.66844335100794,-0.0003561496851034,0.1078842133283615,0,0,0
10932,422666.66195460566,2011-01-15 09:12:43,316.650815673679,7,47,-1.099568486213684,3.747344493865967,33.13331336425976,32.487002915307684,134.25298941488467,115.70285440087645,-0.0003237724304199,0.1078842133283615,0,0,0
10933,422696.6769658692,2011-01-15 09:13:13,346.6658269571856,7,47,-1.099568486213684,3.7356886863708496,33.13331336425976,32.4961702595762,134.25298941488467,115.73715420052794,-0.0002913951757363,0.1078842133283615,0,0,0
10934,422726.69229091454,2011-01-15 09:13:43,376.68115197762114,7,47,-1.099568486213684,3.724680423736572,33.13331336425976,32.505337439834136,134.25298941488467,115.77134872771552,-0.0002913951757363,0.1078842133283615,0,0,0
10935,422756.7072237727,2011-01-15 09:14:13,406.6960849309048,7,47,-1.0993878841400146,3.713834047317505,33.13331336425976,32.514504018392984,134.25298941488467,115.8054410264731,-0.0002913951757363,0.1078842133283615,0,0,0
10936,422786.7223863583,2011-01-15 09:14:43,436.7112474212653,7,47,-1.0992072820663452,3.703635215759277,33.13331336425976,32.52367131583092,134.25298941488467,115.83943907518942,-0.0002266406954731,0.1078842133283615,0,0,0
10937,422816.7374395512,2011-01-15 09:15:13,466.7263006392856,7,47,-1.0993878841400146,3.6937601566314697,33.13331336425976,32.532838557648546,134.25298941488467,115.87334383277936,-0.0002590179501567,0.1078842133283615,0,0,0
10938,422846.7529858882,2011-01-15 09:15:43,496.7418469662852,7,47,-1.099568486213684,3.683885097503662,33.13331336425976,32.542005431796454,134.25298941488467,115.90715722116197,-0.0002266406954731,0.1078842133283615,0,0,0
10939,422876.76780233113,2011-01-15 09:16:13,526.7566634041766,7,47,-1.099568486213684,3.674171924591065,33.13331336425976,32.55117264444223,134.25298941488467,115.94088360972508,-0.0002913951757363,0.1078842133283615,0,0,0
10940,422906.7829190574,2011-01-15 09:16:43,556.7717801254665,7,47,-1.0993878841400146,3.6651065349578857,33.13331336425976,32.56033994124121,134.25298941488467,115.97452445885465,-0.0002266406954731,0.1078842133283615,0,0,0
10941,422936.7981536224,2011-01-15 09:17:13,586.7870147054967,7,47,-1.099568486213684,3.656202793121338,33.13331336425976,32.56950727382133,134.25298941488467,116.00808192882673,-0.0002266406954731,0.1078842133283615,0,0,0
10942,422966.8132785792,2011-01-15 09:17:43,616.8021396522872,7,47,-1.0993878841400146,3.6474609375,33.13331336425976,32.57867462108272,134.25298941488467,116.04155831696116,-0.0001942634553415,0.1078842133283615,0,0,0
10943,422996.8283764937,2011-01-15 09:18:13,646.8172375867547,7,47,-1.099568486213684,3.638880968093872,33.13331336425976,32.58784184258596,134.25298941488467,116.07495557177884,-0.0002266406954731,0.1078842133283615,0,0,0
10944,423026.8433923887,2011-01-15 09:18:43,676.832253476742,7,47,-1.0993878841400146,3.630624771118164,33.13331336425976,32.5970090686462,134.25298941488467,116.10827533666752,-0.0001942634553415,0.1078842133283615,0,0,0
10945,423056.858643134,2011-01-15 09:19:13,706.8475042020111,7,47,-1.0993878841400146,3.622368574142456,33.13331336425976,32.60617638035115,134.25298941488467,116.1415199484222,-0.0002266406954731,0.1078842133283615,0,0,0
10946,423086.87360187655,2011-01-15 09:19:43,736.8624629395571,7,47,-1.0997490882873535,3.614274263381958,33.13331336425976,32.615343611588145,134.25298941488467,116.1746902462294,-0.0002266406954731,0.1078842133283615,0,0,0
10947,423116.8886977107,2011-01-15 09:20:13,766.8775587788026,7,47,-1.0993878841400146,3.60650372505188,33.13331336425976,32.624510952086965,134.25298941488467,116.20778879661324,-0.0001942634553415,0.1078842133283615,0,0,0
10948,423146.90382145456,2011-01-15 09:20:43,796.8926825225947,7,47,-1.099568486213684,3.5990569591522217,33.13331336425976,32.633678242886546,134.25298941488467,116.2408164984403,-0.0001942634553415,0.1078842133283615,0,0,0
10949,423176.9189235444,2011-01-15 09:21:13,826.9077846374811,7,47,-1.0993878841400146,3.5917723178863525,33.13331336425976,32.64284533587622,134.25298941488467,116.2737747318964,-0.0001942157687153,0.1078842133283615,0,0,0
10950,423206.9340458646,2011-01-15 09:21:43,856.9229069577254,7,47,-1.0993878841400146,3.5841636657714844,33.13331336425976,32.65201231241997,134.25298941488467,116.3066650048698,-0.0001942634553415,0.1078842133283615,0,0,0
10951,423236.9492896877,2011-01-15 09:22:13,886.9381507908171,7,47,-1.0993878841400146,3.577364444732666,33.13331336425976,32.66117934186846,134.25298941488467,116.33948952191868,-0.0001942634553415,0.1078842133283615,0,0,0
10952,423266.9643645345,2011-01-15 09:22:43,916.9532256126809,7,47,-1.0993878841400146,3.5704033374786377,33.13331336425976,32.67034634300797,134.25298941488467,116.37225012686883,-0.0001618862152099,0.1078842133283615,0,0,0
10953,423296.9793588859,2011-01-15 09:23:13,946.9682199790246,7,47,-1.0993878841400146,3.5634422302246094,33.13331336425976,32.67951353813581,134.25298941488467,116.4049484605821,-0.0002266406954731,0.1078842133283615,0,0,0
10954,423326.9944846347,2011-01-15 09:23:43,976.9833457027512,7,47,-1.099568486213684,3.556966781616211,33.13331336425976,32.68868082855457,134.25298941488467,116.43758728135248,-0.0002266406954731,0.1078842133283615,0,0,0
10955,423357.0100391472,2011-01-15 09:24:13,1006.9989003254263,7,47,-1.099568486213684,3.5506532192230225,33.13331336425976,32.6978482776616,134.25298941488467,116.47016702808315,-0.0001618862152099,0.1078842133283615,0,0,0
10956,423387.0247057214,2011-01-15 09:24:43,1037.0135668045746,7,47,-1.0997490882873535,3.544339656829834,33.13331336425976,32.707015461690354,134.25298941488467,116.50268793963718,-0.0001942634553415,0.1078842133283615,0,0,0
10957,423417.039814899,2011-01-15 09:25:13,1067.0286759670255,7,47,-1.0993878841400146,3.5385117530822754,33.13331336425976,32.71618281468718,134.25298941488467,116.53515391858672,-0.0001295089750783,0.1078842133283615,0,0,0
10958,423447.0551836835,2011-01-15 09:25:43,1097.044044866822,7,47,-1.099568486213684,3.532683849334717,33.13331336425976,32.725350268843684,134.25298941488467,116.56756675234465,-0.0001618862152099,0.1078842133283615,0,0,0
10959,423477.07231925137,2011-01-15 09:26:13,1127.0611804146488,7,47,-1.0993878841400146,3.527017831802368,33.13331336425976,32.734518204686985,134.25298941488467,116.59992881944773,-0.0001618862152099,0.1078842133283615,0,0,0
10960,423507.0851435192,2011-01-15 09:26:43,1157.0740046022397,7,47,-1.0993878841400146,3.5216755867004395,33.13331336425976,32.74368482754876,134.25298941488467,116.63223571729404,-0.0001942634553415,0.1078842133283615,0,0,0
10961,423537.1002790022,2011-01-15 09:27:13,1187.089140070252,7,47,-1.099568486213684,3.5163333415985107,33.13331336425976,32.75285213296825,134.25298941488467,116.66449531871817,-0.0001295089750783,0.1078842133283615,0,0,0
10962,423567.11538987886,2011-01-15 09:27:43,1217.1042509369506,7,47,-1.0993878841400146,3.511153221130371,33.13331336425976,32.76201944769036,134.25298941488467,116.69670629364386,-6.47544875391759e-05,0.1078842133283615,0,0,0
10963,423597.13050037966,2011-01-15 09:28:13,1247.119361452775,7,47,-1.099568486213684,3.5059728622436523,33.13331336425976,32.77118681158273,134.25298941488467,116.72886996024846,-9.713172767078504e-05,0.1078842133283615,0,0,0
10964,423627.145591773,2011-01-15 09:28:43,1277.1344528409263,7,47,-1.099568486213684,3.5007925033569336,33.13331336425976,32.780354226270624,134.25298941488467,116.76098686626652,-0.0001295089750783,0.1078842133283615,0,0,0
10965,423657.1607475265,2011-01-15 09:29:14,1307.1496086145469,7,47,-1.099568486213684,3.4959359169006348,33.13331336425976,32.78952159834929,134.25298941488467,116.79305818711508,-0.0001295089750783,0.1078842133283615,0,0,0
10966,423687.17587523005,2011-01-15 09:29:44,1337.1647362981585,7,47,-1.0993878841400146,3.490917444229126,33.13331336425976,32.79868897057617,134.25298941488467,116.82508413509235,-0.0001942634553415,0.1078842133283615,0,0,0
10967,423717.190919521,2011-01-15 09:30:14,1367.179780613992,7,47,-1.0997490882873535,3.486060857772827,33.13331336425976,32.80785629647532,134.25298941488467,116.85706506116564,-0.0001618862152099,0.1078842133283615,0,0,0
10968,423747.206041801,2011-01-15 09:30:44,1397.1949028640613,7,47,-1.099568486213684,3.4810423851013184,33.13331336425976,32.81702366557059,134.25298941488467,116.88900124219838,-0.0001618862152099,0.1078842133283615,0,0,0
10969,423777.2211482718,2011-01-15 09:31:14,1427.2100093348035,7,47,-1.099568486213684,3.4760239124298096,33.13331336425976,32.82619090847276,134.25298941488467,116.92088946265308,-0.0001295089750783,0.1078842133283615,0,0,0
10970,423807.2362789579,2011-01-15 09:31:44,1457.225140050973,7,47,-1.099568486213684,3.470681667327881,33.13331336425976,32.83535826578238,134.25298941488467,116.95273052943224,-0.0001618862152099,0.1078842133283615,0,0,0
10971,423837.25137035607,2011-01-15 09:32:14,1487.2402314240876,7,47,-1.099568486213684,3.465339422225952,33.13331336425976,32.84452558073946,134.25298941488467,116.98452357206544,-0.0001618862152099,0.1078842133283615,0,0,0
10972,423867.26651688665,2011-01-15 09:32:44,1517.2553779747216,7,47,-1.099568486213684,3.4599971771240234,33.13331336425976,32.85369291738924,134.25298941488467,117.01626824071076,-0.0001618862152099,0.1078842133283615,0,0,0
10973,423897.2815967912,2011-01-15 09:33:14,1547.2704578541905,7,47,-1.099568486213684,3.4544930458068848,33.13331336425976,32.862860232047765,134.25298941488467,117.04796309594508,-0.0001618862152099,0.1078842133283615,0,0,0
10974,423927.2968658271,2011-01-15 09:33:44,1577.2857268900952,7,47,-1.099568486213684,3.448827028274536,33.13331336425976,32.87202767260261,134.25298941488467,117.0796073074904,-0.0001942634553415,0.1078842133283615,0,0,0
10975,423957.3118186549,2011-01-15 09:34:14,1607.3006797279372,7,47,-1.0993878841400146,3.442837238311768,33.13331336425976,32.881195026345246,134.25298941488467,117.11119767029986,-0.0001618862152099,0.1078842133283615,0,0,0
10976,423987.3269169303,2011-01-15 09:34:44,1637.315777988217,7,47,-1.0993878841400146,3.436523675918579,33.13331336425976,32.89036228337364,134.25298941488467,117.1427312797433,-0.0002266406954731,0.1078842133283615,0,0,0
10977,424017.3420442981,2011-01-15 09:35:14,1667.3309054813535,7,47,-1.0993878841400146,3.4302103519439697,33.13331336425976,32.89952961842623,134.25298941488467,117.17420725931709,-0.0001942634553415,0.1078842133283615,0,0,0
10978,424047.3571560469,2011-01-15 09:35:44,1697.3460171099507,7,47,-1.0997490882873535,3.4232492446899414,33.13331336425976,32.90869695561115,134.25298941488467,117.2056215626116,-0.0002266406954731,0.1078842133283615,0,0,0
10979,424077.37247548345,2011-01-15 09:36:14,1727.3613365564947,7,47,-1.0997490882873535,3.416126251220703,33.13331336425976,32.91786434856817,134.25298941488467,117.23697286702986,-0.0001942634553415,0.1078842133283615,0,0,0
10980,424107.38734928926,2011-01-15 09:36:44,1757.376210367377,7,47,-1.0993878841400146,3.408679485321045,33.13331336425976,32.92703162718494,134.25298941488467,117.26825593310022,-0.0001942634553415,0.1078842133283615,0,0,0
10981,424137.40246716846,2011-01-15 09:37:14,1787.391328236528,7,47,-1.099568486213684,3.400261402130127,33.13331336425976,32.93619901157533,134.25298941488467,117.29946595360484,-0.0002266406954731,0.1078842133283615,0,0,0
10982,424167.4176040751,2011-01-15 09:37:44,1817.406465153151,7,47,-1.0993878841400146,3.391033887863159,33.13331336425976,32.94536637353689,134.25298941488467,117.3305954664548,-0.0002590179501567,0.1078842133283615,0,0,0
10983,424197.4327353677,2011-01-15 09:38:14,1847.4215964507696,7,47,-1.099568486213684,3.380511283874512,33.13331336425976,32.95453367653344,134.25298941488467,117.361635328549,-0.0002913951757363,0.1078842133283615,0,0,0
10984,424227.4478012573,2011-01-15 09:38:44,1877.4366623403712,7,47,-1.099568486213684,3.3688554763793945,33.13331336425976,32.963700987115125,134.25298941488467,117.3925740658965,-0.0003561496851034,0.1078842133283615,0,0,0
10985,424257.46292515146,2011-01-15 09:39:14,1907.451786209476,7,47,-1.0997490882873535,3.355095148086548,33.13331336425976,32.972868279265604,134.25298941488467,117.42339688539464,-0.0003885269106831,0.1078842133283615,0,0,0
10986,424287.4802548784,2011-01-15 09:39:44,1937.4691160665816,7,47,-1.099568486213684,3.338582992553711,33.13331336425976,32.98203632113966,134.25298941488467,117.45408406670416,-0.0004856586456298,0.1078842133283615,0,0,0
10987,424317.4931471856,2011-01-15 09:40:14,1967.482008248635,7,47,-1.099568486213684,3.318509101867676,33.13331336425976,32.99120302924906,134.25298941488467,117.48460065265328,-0.0006151676061563,0.1078842133283615,0,0,0
10988,424347.5082582829,2011-01-15 09:40:44,1997.4971193759832,7,47,-1.099568486213684,3.293416738510132,33.13331336425976,33.00037026405179,134.25298941488467,117.51491275462524,-0.0007446765666827,0.1078842133283615,0,0,0
10989,424377.52336613205,2011-01-15 09:41:14,2027.5122272051112,7,47,-1.099568486213684,3.2621729373931885,33.13331336425976,33.00953753398331,134.25298941488467,117.54496687871216,-0.0008741855854168,0.1078842133283615,0,0,0
10990,424407.5387234931,2011-01-15 09:41:44,2057.5275845761744,7,47,-1.099568486213684,3.221863269805908,33.13331336425976,33.018704880237,134.25298941488467,117.57469609870851,-0.0011979580158367,0.1078842133283615,0,0,0
10991,424437.5536384816,2011-01-15 09:42:14,2087.5424995847343,7,47,-1.0993878841400146,3.16892671585083,33.13331336425976,33.0278721010388,134.25298941488467,117.60400030010751,-0.0015541076427325,0.1078842133283615,0,0,0
10992,424467.5687292583,2011-01-15 09:42:44,2117.557590521762,7,47,-1.0993878841400146,3.0965638160705566,33.13331336425976,33.037039439805284,134.25298941488467,117.6327363239337,-0.0021692751906812,0.1078842133283615,0,0,0
10993,424497.5838699142,2011-01-15 09:43:14,2147.572731002267,7,47,-1.099929690361023,2.9940900802612305,33.13331336425976,33.046206845551104,134.25298941488467,117.66068404842171,-0.0032053471077233,0.1078842133283615,0,0,0
10994,424527.59898775327,2011-01-15 09:43:44,2177.5878488162807,7,47,-1.0993878841400146,2.843860149383545,33.13331336425976,33.05537416925346,134.25298941488467,117.68748552171284,-0.0046299458481371,0.1078842133283615,0,0,0
10995,424549.78615260485,2011-01-15 09:44:06,2199.7750136829486,7,47,-1.099568486213684,2.699781894683838,33.13331336425976,33.062150675900604,134.25298941488467,117.70627953662884,-0.0054717063903808,0.1078842133283615,0,0,0
10996,424609.79354043526,2011-01-15 09:45:06,60.01460191400105,8,47,0.0,3.588858366012573,33.13331336425976,33.062150675900604,134.25298941488467,117.70627953662884,0.0012627125252038,0.1078842133283615,0,0,0
10997,424610.0064802189,2011-01-15 09:45:07,0.203372506863259,9,47,-1.9243103452026844e-05,3.589020252227783,33.13331336425976,33.06215067698769,134.25298941488467,117.70627954053042,0.0,0.1053553819656372,0,0,0
10998,424614.818652563,2011-01-15 09:45:11,5.015544750763441,9,47,0.0008838032954372,3.5964667797088623,33.13331424287555,33.06215067707119,134.25299257204728,117.7062795408301,0.001068401383236,0.1053553819656372,0,0,0
