Data_Point,Test_Time(s),Date_Time,Step_Time(s),Step_Index,Cycle_Index,Current(A),Voltage(V),Charge_Capacity(Ah),Discharge_Capacity(Ah),Charge_Energy(Wh),Discharge_Energy(Wh),dV/dt(V/s),Internal_Resistance(Ohm),Is_FC_Data,AC_Impedance(Ohm),ACI_Phase_Angle(Deg)
2708,100467.90929089452,2011-01-11 15:42:00,30.015167683303,1,12,0.0,3.5827066898345947,8.084836504646754,8.082142544155799,32.64986785107873,28.91986145431232,0.0007770538213662,0.1004928275942802,0,0,0
2709,100497.92445428712,2011-01-11 15:42:30,60.03033105084981,1,12,0.0,3.6052086353302,8.084836504646754,8.082142544155799,32.64986785107873,28.91986145431232,0.0004856586456298,0.1004928275942802,0,0,0
2710,100527.93973905224,2011-01-11 15:43:00,90.04561583099417,1,12,0.0,3.621721029281616,8.084836504646754,8.082142544155799,32.64986785107873,28.91986145431232,0.0003885269106831,0.1004928275942802,0,0,0
2711,100557.90802564844,2011-01-11 15:43:30,120.01390243722815,1,12,0.0,3.634186267852783,8.084836504646754,8.082142544155799,32.64986785107873,28.91986145431232,0.0002913951757363,0.1004928275942802,0,0,0
2712,100587.92597053884,2011-01-11 15:44:00,30.01514262083963,2,12,0.5499359965324402,3.759485721588135,8.089423234230267,8.082142544155799,32.667013350262934,28.91986145431232,0.0008741855854168,0.1004928275942802,0,0,0
2713,100617.94124207096,2011-01-11 15:44:30,60.03041417802832,2,12,0.5501165986061096,3.7847399711608887,8.094010001875825,8.082142544155799,32.68432112903437,28.91986145431232,0.0004856586456298,0.1004928275942802,0,0,0
2714,100647.95629254216,2011-01-11 15:45:00,90.04546464920263,2,12,0.5501165986061096,3.799795389175415,8.09859669625144,8.082142544155799,32.70171767055985,28.91986145431232,0.0003561496851034,0.1004928275942802,0,0,0
2715,100677.97153985892,2011-01-11 15:45:30,120.06071196597676,2,12,0.5501165986061096,3.8098323345184326,8.10318343922594,8.082142544155799,32.71917005632437,28.91986145431232,0.0002266406954731,0.1004928275942802,0,0,0
2716,100707.98674554192,2011-01-11 15:46:01,150.07591762893674,2,12,0.5499359965324402,3.8180885314941406,8.107770197301008,8.082142544155799,32.73666431507406,28.91986145431232,0.0001942634553415,0.1004928275942802,0,0,0
2717,100738.00181899538,2011-01-11 15:46:31,180.09099107236497,2,12,0.5501165986061096,3.825373411178589,8.11235688861131,8.082142544155799,32.75419382013261,28.91986145431232,0.0001618862152099,0.1004928275942802,0,0,0
2718,100768.0169568644,2011-01-11 15:47:01,210.106128966424,2,12,0.5501165986061096,3.8321726322174072,8.116943493269426,8.082142544155799,32.77175510981657,28.91986145431232,0.0001942634553415,0.1004928275942802,0,0,0
2719,100798.03213240729,2011-01-11 15:47:31,240.12130448926555,2,12,0.5501165986061096,3.838324069976807,8.121530124478689,8.082142544155799,32.789346225508766,28.91986145431232,0.0001618862152099,0.1004928275942802,0,0,0
2720,100828.04740167878,2011-01-11 15:48:01,270.1365737808076,2,12,0.5501165986061096,3.844313859939575,8.126116786643824,8.082142544155799,32.806965286586745,28.91986145431232,0.0001295089750783,0.1004928275942802,0,0,0
2721,100858.06243717762,2011-01-11 15:48:31,300.15160926964126,2,12,0.550297200679779,3.849979877471924,8.13070342695053,8.082142544155799,32.82461077119684,28.91986145431232,0.0001618862152099,0.1004928275942802,0,0,0
2722,100888.07760446996,2011-01-11 15:49:01,330.1667765920448,2,12,0.5499359965324402,3.855322122573853,8.13529012324327,8.082142544155799,32.84228170700334,28.91986145431232,0.0001295089750783,0.1004928275942802,0,0,0
2723,100918.09278831354,2011-01-11 15:49:31,360.1819604005367,2,12,0.550297200679779,3.860664367675781,8.139876772690341,8.082142544155799,32.85997662599989,28.91986145431232,0.0001618862152099,0.1004928275942802,0,0,0
2724,100948.10796867344,2011-01-11 15:50:01,390.1971407604337,2,12,0.550297200679779,3.86552095413208,8.14446403298742,8.082142544155799,32.877697172531924,28.91986145431232,0.0001295089750783,0.1004928275942802,0,0,0
2725,100978.12322099767,2011-01-11 15:50:31,420.21239308970047,2,12,0.5501165986061096,3.870377540588379,8.149051506580319,8.082142544155799,32.89544084854204,28.91986145431232,0.0001618862152099,0.1004928275942802,0,0,0
2726,101008.1382786618,2011-01-11 15:51:01,450.2274507437768,2,12,0.5501165986061096,3.875072240829468,8.15363841590079,8.082142544155799,32.913204075045705,28.91986145431232,0.0001618862152099,0.1004928275942802,0,0,0
2727,101038.15344800924,2011-01-11 15:51:31,480.2426200962398,2,12,0.5499359965324402,3.8794431686401367,8.158225015158653,8.082142544155799,32.93098722037489,28.91986145431232,9.713172767078504e-05,0.1004928275942802,0,0,0
2728,101068.1685858682,2011-01-11 15:52:01,510.2577579451865,2,12,0.5501165986061096,3.883975982666016,8.162811574683884,8.082142544155799,32.9487908030787,28.91986145431232,0.0001295089750783,0.1004928275942802,0,0,0
2729,101098.1837753358,2011-01-11 15:52:31,540.27294750802,2,12,0.5501165986061096,3.8880231380462646,8.167398176087817,8.082142544155799,32.96661455809628,28.91986145431232,6.47544875391759e-05,0.1004928275942802,0,0,0
2730,101128.19892349045,2011-01-11 15:53:01,570.2880955724266,2,12,0.550297200679779,3.892232179641724,8.171984843219775,8.082142544155799,32.98445785227228,28.91986145431232,6.47544875391759e-05,0.1004928275942802,0,0,0
2731,101158.2141330481,2011-01-11 15:53:31,600.303305155156,2,12,0.5499359965324402,3.8962793350219727,8.176571527372525,8.082142544155799,33.00231971290903,28.91986145431232,0.0001295089750783,0.1004928275942802,0,0,0
2732,101188.22923964918,2011-01-11 15:54:01,630.3184117562232,2,12,0.550297200679779,3.900164604187012,8.181158195347281,8.082142544155799,33.02019935259269,28.91986145431232,0.0001618862152099,0.1004928275942802,0,0,0
2733,101218.24439953304,2011-01-11 15:54:31,660.3335716150252,2,12,0.5499359965324402,3.903564214706421,8.185744868364049,8.082142544155799,33.03809623265984,28.91986145431232,3.237724376958795e-05,0.1004928275942802,0,0,0
2734,101248.2595860984,2011-01-11 15:55:01,690.348758180388,2,12,0.5499359965324402,3.90712571144104,8.190331464463775,8.082142544155799,33.05600915569085,28.91986145431232,9.713172767078504e-05,0.1004928275942802,0,0,0
2735,101278.27694541894,2011-01-11 15:55:31,720.366117505938,2,12,0.5499359965324402,3.9103634357452393,8.19491840282227,8.082142544155799,33.073939023745744,28.91986145431232,3.237724376958795e-05,0.1004928275942802,0,0,0
2736,101308.28989863812,2011-01-11 15:56:01,750.3790707201024,2,12,0.550297200679779,3.913762807846069,8.199504729455262,8.082142544155799,33.09188143964947,28.91986145431232,9.70840483205393e-05,0.1004928275942802,0,0,0
2737,101338.30505288792,2011-01-11 15:56:31,780.3942249699252,2,12,0.5499359965324402,3.9166767597198486,8.204091373495366,8.082142544155799,33.10983914036564,28.91986145431232,6.47544875391759e-05,0.1004928275942802,0,0,0
2738,101368.32025183916,2011-01-11 15:57:01,810.4094239261699,2,12,0.5499359965324402,3.919428825378418,8.208677986425878,8.082142544155799,33.12781013386943,28.91986145431232,3.237724376958795e-05,0.1004928275942802,0,0,0
2739,101398.33561185683,2011-01-11 15:57:31,840.4247839488418,2,12,0.5499359965324402,3.922342777252197,8.213264670859994,8.082142544155799,33.145794322537576,28.91986145431232,6.47544875391759e-05,0.1004928275942802,0,0,0
2740,101428.35048540703,2011-01-11 15:58:01,870.439657514112,2,12,0.5501165986061096,3.9249329566955566,8.217851225355812,8.082142544155799,33.16379046386269,28.91986145431232,3.237724376958795e-05,0.1004928275942802,0,0,0
2741,101458.36574363602,2011-01-11 15:58:31,900.4549157681453,2,12,0.5501165986061096,3.927523136138916,8.222437942546774,8.082142544155799,33.181799225873206,28.91986145431232,6.47544875391759e-05,0.1004928275942802,0,0,0
2742,101488.38084087876,2011-01-11 15:59:01,930.4700129858262,2,12,0.5501165986061096,3.9299514293670654,8.227024504036944,8.082142544155799,33.199819009691346,28.91986145431232,3.237724376958795e-05,0.1004928275942802,0,0,0
2743,101518.39615487674,2011-01-11 15:59:31,960.485327008853,2,12,0.5501165986061096,3.932541608810425,8.231611167497004,8.082142544155799,33.21785055062513,28.91986145431232,6.47544875391759e-05,0.1004928275942802,0,0,0
2744,101548.41114012536,2011-01-11 16:00:01,990.5003122073476,2,12,0.5499359965324402,3.934808015823364,8.23619778969216,8.082142544155799,33.23589287871415,28.91986145431232,3.237724376958795e-05,0.1004928275942802,0,0,0
2745,101578.42638071538,2011-01-11 16:00:31,1020.515552792344,2,12,0.5501165986061096,3.937074422836304,8.240784545367264,8.082142544155799,33.25394631730749,28.91986145431232,6.47544875391759e-05,0.1004928275942802,0,0,0
2746,101608.44151214832,2011-01-11 16:01:01,1050.5306842403377,2,12,0.550297200679779,3.939502716064453,8.245371159329713,8.082142544155799,33.272009648231005,28.91986145431232,9.713172767078504e-05,0.1004928275942802,0,0,0
2747,101638.4566904932,2011-01-11 16:01:31,1080.5458625751874,2,12,0.5501165986061096,3.941607236862183,8.24995784779789,8.082142544155799,33.290083635048,28.91986145431232,3.237724376958795e-05,0.1004928275942802,0,0,0
2748,101668.47197018568,2011-01-11 16:02:01,1110.5611423077517,2,12,0.5499359965324402,3.943873643875122,8.254544595981422,8.082142544155799,33.308168056034575,28.91986145431232,6.47544875391759e-05,0.1004928275942802,0,0,0
2749,101698.48726711108,2011-01-11 16:02:31,1140.5764392081032,2,12,0.5501165986061096,3.9461400508880615,8.259131306229868,8.082142544155799,33.32626245633731,28.91986145431232,6.47544875391759e-05,0.1004928275942802,0,0,0
2750,101728.50217844547,2011-01-11 16:03:01,1170.591350537493,2,12,0.5499359965324402,3.948244571685791,8.263717915878104,8.082142544155799,33.344366431813974,28.91986145431232,6.47544875391759e-05,0.1004928275942802,0,0,0
2751,101758.51739679508,2011-01-11 16:03:31,1200.60656888206,2,12,0.5501165986061096,3.950349092483521,8.268304546612411,8.082142544155799,33.362480490813944,28.91986145431232,6.47544875391759e-05,0.1004928275942802,0,0,0
2752,101788.53255782678,2011-01-11 16:04:01,1230.621729933835,2,12,0.5501165986061096,3.95261549949646,8.272891256616921,8.082142544155799,33.38060471127462,28.91986145431232,0.0001295089750783,0.1004928275942802,0,0,0
2753,101818.54797597932,2011-01-11 16:04:31,1260.6371480763596,2,12,0.550297200679779,3.9547200202941895,8.277477947681609,8.082142544155799,33.39873866365862,28.91986145431232,6.47544875391759e-05,0.1004928275942802,0,0,0
2754,101848.56287286774,2011-01-11 16:05:01,1290.6520449547331,2,12,0.5501165986061096,3.956824541091919,8.282064587174888,8.082142544155799,33.41688221200586,28.91986145431232,6.47544875391759e-05,0.1004928275942802,0,0,0
2755,101878.57814155276,2011-01-11 16:05:31,1320.6673136347513,2,12,0.5501165986061096,3.958929061889648,8.28665125252892,8.082142544155799,33.435035403585175,28.91986145431232,3.237724376958795e-05,0.1004928275942802,0,0,0
2756,101908.5933225693,2011-01-11 16:06:01,1350.6824947816096,2,12,0.5499359965324402,3.960871696472168,8.291237897638831,8.082142544155799,33.45319822149168,28.91986145431232,3.237724376958795e-05,0.1004928275942802,0,0,0
2757,101938.60851597672,2011-01-11 16:06:31,1380.6976880687253,2,12,0.5501165986061096,3.9631381034851074,8.295824558445682,8.082142544155799,33.47137080491295,28.91986145431232,9.713172767078504e-05,0.1004928275942802,0,0,0
2758,101968.62355155076,2011-01-11 16:07:01,1410.7127236427712,2,12,0.5501165986061096,3.965242624282837,8.300411198551966,8.082142544155799,33.48955311909456,28.91986145431232,6.47544875391759e-05,0.1004928275942802,0,0,0
2759,101998.63875206588,2011-01-11 16:07:31,1440.727924147876,2,12,0.5501165986061096,3.9673471450805664,8.30499800680855,8.082142544155799,33.507745938446334,28.91986145431232,0.0,0.1004928275942802,0,0,0
2760,102028.65395142314,2011-01-11 16:08:01,1470.7431235151455,2,12,0.5499359965324402,3.969451665878296,8.309584698169575,8.082142544155799,33.52594794713372,28.91986145431232,9.713172767078504e-05,0.1004928275942802,0,0,0
2761,102058.66910540228,2011-01-11 16:08:31,1500.758277489281,2,12,0.5501165986061096,3.9717180728912354,8.31417139663589,8.082142544155799,33.54415978144457,28.91986145431232,6.47544875391759e-05,0.1004928275942802,0,0,0
2762,102088.68430259913,2011-01-11 16:09:01,1530.7734746911533,2,12,0.5499359965324402,3.973660707473755,8.318758139051017,8.082142544155799,33.5623815153812,28.91986145431232,3.237724376958795e-05,0.1004928275942802,0,0,0
2763,102118.6994804478,2011-01-11 16:09:31,1560.7886525397914,2,12,0.5499359965324402,3.975765228271485,8.323344896944727,8.082142544155799,33.580613099681514,28.91986145431232,3.237724376958795e-05,0.1004928275942802,0,0,0
2764,102148.71463746448,2011-01-11 16:10:01,1590.8038095615227,2,12,0.550297200679779,3.977869749069214,8.32793160605277,8.082142544155799,33.59885426432239,28.91986145431232,3.237724376958795e-05,0.1004928275942802,0,0,0
2765,102178.72979979948,2011-01-11 16:10:31,1620.8189719015083,2,12,0.5499359965324402,3.980136156082153,8.332518272145231,8.082142544155799,33.61710484679893,28.91986145431232,6.47544875391759e-05,0.1004928275942802,0,0,0
2766,102208.74500429952,2011-01-11 16:11:01,1650.834176391545,2,12,0.550297200679779,3.982564449310303,8.33710486573462,8.082142544155799,33.63536523876259,28.91986145431232,9.713172767078504e-05,0.1004928275942802,0,0,0
2767,102238.76018588748,2011-01-11 16:11:31,1680.8493579795029,2,12,0.5501165986061096,3.9845070838928223,8.341691426553536,8.082142544155799,33.65363528846471,28.91986145431232,6.47544875391759e-05,0.1004928275942802,0,0,0
2768,102268.77531583674,2011-01-11 16:12:01,1710.864487928761,2,12,0.5501165986061096,3.986611604690552,8.346278025020258,8.082142544155799,33.67191524180738,28.91986145431232,6.47544875391759e-05,0.1004928275942802,0,0,0
2769,102298.79048837716,2011-01-11 16:12:31,1740.879660474182,2,12,0.5501165986061096,3.988716125488281,8.350864693533527,8.082142544155799,33.69020527862292,28.91986145431232,6.47544875391759e-05,0.1004928275942802,0,0,0
2770,102328.8056529828,2011-01-11 16:13:01,1770.894825074802,2,12,0.5501165986061096,3.9908206462860103,8.3554512603892,8.082142544155799,33.70850476662172,28.91986145431232,6.47544875391759e-05,0.1004928275942802,0,0,0
2771,102358.82121741991,2011-01-11 16:13:31,1800.9103895319874,2,12,0.5501165986061096,3.99292516708374,8.3600379857002,8.082142544155799,33.726814859606314,28.91986145431232,3.237724376958795e-05,0.1004928275942802,0,0,0
2772,102388.83601258982,2011-01-11 16:14:01,1830.9251846717973,2,12,0.5501165986061096,3.995353221893311,8.364624597041734,8.082142544155799,33.745134444674065,28.91986145431232,6.47544875391759e-05,0.1004928275942802,0,0,0
2773,102418.8512015712,2011-01-11 16:14:31,1860.9403736632069,2,12,0.5501165986061096,3.99729585647583,8.36921119740715,8.082142544155799,33.76346397533252,28.91986145431232,3.237724376958795e-05,0.1004928275942802,0,0,0
2774,102448.86862370328,2011-01-11 16:15:01,1890.9577958855148,2,12,0.5501165986061096,3.9995622634887695,8.373798230923526,8.082142544155799,33.78180521279795,28.91986145431232,6.47544875391759e-05,0.1004928275942802,0,0,0
2775,102478.88154227108,2011-01-11 16:15:31,1920.970714363105,2,12,0.550297200679779,4.001828670501709,8.378384573564045,8.082142544155799,33.80015373113829,28.91986145431232,9.70840483205393e-05,0.1004928275942802,0,0,0
2776,102508.89669921262,2011-01-11 16:16:01,1950.985871304636,2,12,0.5499359965324402,4.003933429718018,8.382971235770171,8.082142544155799,33.818513678654384,28.91986145431232,3.24249267578125e-05,0.1004928275942802,0,0,0
2777,102538.91197361692,2011-01-11 16:16:31,1981.0011457139333,2,12,0.5501165986061096,4.006199836730957,8.387557915014149,8.082142544155799,33.836883884031685,28.91986145431232,3.24249267578125e-05,0.1004928275942802,0,0,0
2778,102568.92701465958,2011-01-11 16:17:01,2011.0161867515965,2,12,0.5499359965324402,4.008304119110107,8.39214453858785,8.082142544155799,33.85526405905255,28.91986145431232,3.23295607813634e-05,0.1004928275942802,0,0,0
2779,102598.9422058966,2011-01-11 16:17:31,2041.03137798359,2,12,0.5501165986061096,4.010732650756836,8.396731211225427,8.082142544155799,33.87365461077888,28.91986145431232,9.71794142969884e-05,0.1004928275942802,0,0,0
2780,102628.95740444685,2011-01-11 16:18:02,2071.046576538836,2,12,0.550297200679779,4.012999057769775,8.40131787302428,8.082142544155799,33.89205549927569,28.91986145431232,6.47544875391759e-05,0.1004928275942802,0,0,0
2781,102658.97252562924,2011-01-11 16:18:32,2101.0616977112186,2,12,0.5499359965324402,4.015265464782715,8.40590452172304,8.082142544155799,33.91046688260682,28.91986145431232,6.47544875391759e-05,0.1004928275942802,0,0,0
2782,102688.98769962828,2011-01-11 16:19:02,2131.076871710263,2,12,0.5501165986061096,4.017693519592285,8.41049114856425,8.082142544155799,33.928888720508745,28.91986145431232,6.47544875391759e-05,0.1004928275942802,0,0,0
2783,102719.00311323447,2011-01-11 16:19:32,2161.092285316481,2,12,0.5497553944587708,4.019798278808594,8.415077834002346,8.082142544155799,33.9473214330264,28.91986145431232,6.47544875391759e-05,0.1004928275942802,0,0,0
2784,102749.01805428296,2011-01-11 16:20:02,2191.107226369953,2,12,0.5497553944587708,4.022388458251953,8.41966444161355,8.082142544155799,33.96576468859192,28.91986145431232,9.71794142969884e-05,0.1004928275942802,0,0,0
2785,102779.0331985128,2011-01-11 16:20:32,2221.1223705998027,2,12,0.550297200679779,4.024816513061523,8.424251088268427,8.082142544155799,33.98421906649644,28.91986145431232,9.70840483205393e-05,0.1004928275942802,0,0,0
2786,102809.04849079164,2011-01-11 16:21:02,2251.137662888661,2,12,0.5499359965324402,4.027245044708252,8.428837726888537,8.082142544155799,34.002684497332545,28.91986145431232,9.71794142969884e-05,0.1004928275942802,0,0,0
2787,102839.06357542294,2011-01-11 16:21:32,2281.152747509948,2,12,0.5499359965324402,4.029511451721191,8.433424352549027,8.082142544155799,34.021161079745454,28.91986145431232,3.24249267578125e-05,0.1004928275942802,0,0,0
2788,102869.07882804294,2011-01-11 16:22:02,2311.168000139964,2,12,0.5501165986061096,4.032101631164551,8.438010967257629,8.082142544155799,34.03964870765744,28.91986145431232,9.71794142969884e-05,0.1004928275942802,0,0,0
2789,102899.09405971572,2011-01-11 16:22:32,2341.1832318177608,2,12,0.5501165986061096,4.034529685974121,8.442597543676962,8.082142544155799,34.058147521055986,28.91986145431232,3.24249267578125e-05,0.1004928275942802,0,0,0
2790,102929.10907209697,2011-01-11 16:23:02,2371.198244274191,2,12,0.5501165986061096,4.036957740783691,8.447184154887244,8.082142544155799,34.07665788647401,28.91986145431232,6.47544875391759e-05,0.1004928275942802,0,0,0
2791,102959.12433570936,2011-01-11 16:23:32,2401.213507806379,2,12,0.5501165986061096,4.039547920227051,8.451770725040063,8.082142544155799,34.09517968654099,28.91986145431232,6.47544875391759e-05,0.1004928275942802,0,0,0
2792,102989.1393549176,2011-01-11 16:24:02,2431.2285270296734,2,12,0.550297200679779,4.042300224304199,8.456357256563853,8.082142544155799,34.1137129231766,28.91986145431232,9.71794142969884e-05,0.1004928275942802,0,0,0
2793,103019.15389966838,2011-01-11 16:24:32,2461.243071549862,2,12,0.5501165986061096,4.0447282791137695,8.46094374405627,8.082142544155799,34.13225772778902,28.91986145431232,9.70840483205393e-05,0.1004928275942802,0,0,0
2794,103049.15417129111,2011-01-11 16:25:02,2491.2433434933987,2,12,0.5501165986061096,4.047156810760498,8.465527969217307,8.082142544155799,34.150805052388456,28.91986145431232,6.47544875391759e-05,0.1004928275942802,0,0,0
2795,103079.1687328237,2011-01-11 16:25:32,2521.2579047753634,2,12,0.5499359965324402,4.049746990203857,8.470114557780652,8.082142544155799,34.169373953256446,28.91986145431232,3.24249267578125e-05,0.1004928275942802,0,0,0
2796,103109.16881551057,2011-01-11 16:26:02,2551.257987627626,2,12,0.5499359965324402,4.052498817443848,8.47469869841618,8.082142544155799,34.18794490854353,28.91986145431232,9.70840483205393e-05,0.1004928275942802,0,0,0
2797,103139.1842397984,2011-01-11 16:26:32,2581.2734119956663,2,12,0.5501165986061096,4.055088996887207,8.47928444516835,8.082142544155799,34.20653443604381,28.91986145431232,6.47544875391759e-05,0.1004928275942802,0,0,0
2798,103169.199141178,2011-01-11 16:27:02,2611.2883132950583,2,12,0.5501165986061096,4.057841300964356,8.48387030900288,8.082142544155799,34.225136788896165,28.91986145431232,6.47544875391759e-05,0.1004928275942802,0,0,0
2799,103199.21430163828,2011-01-11 16:27:32,2641.303473730297,2,12,0.5501165986061096,4.060431480407715,8.48845696182884,8.082142544155799,34.243754977864604,28.91986145431232,3.24249267578125e-05,0.1004928275942802,0,0,0
2800,103229.22949864468,2011-01-11 16:28:02,2671.3186707266573,2,12,0.5501165986061096,4.063183307647705,8.493043583973531,8.082142544155799,34.26238508676731,28.91986145431232,3.23295607813634e-05,0.1004928275942802,0,0,0
2801,103259.24695809976,2011-01-11 16:28:32,2701.3361302820103,2,12,0.5501165986061096,4.0659356117248535,8.497630538494791,8.082142544155799,34.28102938972854,28.91986145431232,6.47544875391759e-05,0.1004928275942802,0,0,0
2802,103289.25982467804,2011-01-11 16:29:02,2731.3489967650144,2,12,0.5501165986061096,4.068849563598633,8.502216791228989,8.082142544155799,34.29968379861307,28.91986145431232,9.71794142969884e-05,0.1004928275942802,0,0,0
2803,103319.27497636144,2011-01-11 16:29:32,2761.3641484484406,2,12,0.5501165986061096,4.071763515472412,8.506803402324545,8.082142544155799,34.31835280333515,28.91986145431232,6.47544875391759e-05,0.1004928275942802,0,0,0
2804,103349.29030469012,2011-01-11 16:30:02,2791.379476792159,2,12,0.5501165986061096,4.074677467346191,8.511390025723218,8.082142544155799,34.337035074012775,28.91986145431232,9.71794142969884e-05,0.1004928275942802,0,0,0
2805,103379.3056986624,2011-01-11 16:30:32,2821.394870749406,2,12,0.550297200679779,4.077591419219971,8.515976676106572,8.082142544155799,34.355730839915445,28.91986145431232,6.47544875391759e-05,0.1004928275942802,0,0,0
2806,103409.32061671856,2011-01-11 16:31:02,2851.4097888256115,2,12,0.5501165986061096,4.080667018890381,8.52056329107694,8.082142544155799,34.37443998081981,28.91986145431232,9.70840483205393e-05,0.1004928275942802,0,0,0
2807,103439.33565200189,2011-01-11 16:31:32,2881.4248240888837,2,12,0.550297200679779,4.08358097076416,8.525149907533969,8.082142544155799,34.39316269968945,28.91986145431232,9.70840483205393e-05,0.1004928275942802,0,0,0
2808,103469.35095138843,2011-01-11 16:32:02,2911.440123510519,2,12,0.5499359965324402,4.08649492263794,8.52973651185981,8.082142544155799,34.411899049625696,28.91986145431232,9.70840483205393e-05,0.1004928275942802,0,0,0
2809,103499.36600403002,2011-01-11 16:32:32,2941.455176122027,2,12,0.5501165986061096,4.089408874511719,8.534323063410016,8.082142544155799,34.43064901123603,28.91986145431232,6.47544875391759e-05,0.1004928275942802,0,0,0
2810,103529.38128785275,2011-01-11 16:33:02,2971.4704599548104,2,12,0.550297200679779,4.092646598815918,8.538909729563374,8.082142544155799,34.44941347481634,28.91986145431232,9.70840483205393e-05,0.1004928275942802,0,0,0
2811,103559.39635216843,2011-01-11 16:33:32,3001.4855242504395,2,12,0.550297200679779,4.095884323120117,8.543496286727532,8.082142544155799,34.46819164999292,28.91986145431232,9.70840483205393e-05,0.1004928275942802,0,0,0
2812,103589.41162584092,2011-01-11 16:34:02,3031.5007979329253,2,12,0.5499359965324402,4.098636627197266,8.548082993884595,8.082142544155799,34.486984734029164,28.91986145431232,3.24249267578125e-05,0.1004928275942802,0,0,0
2813,103619.42667392617,2011-01-11 16:34:32,3061.5158460331904,2,12,0.5501165986061096,4.102035999298096,8.552669574304847,8.082142544155799,34.50579170832345,28.91986145431232,0.0001295089750783,0.1004928275942802,0,0,0
2814,103649.429791156,2011-01-11 16:35:02,3091.518963348268,2,12,0.5501165986061096,4.105112075805664,8.557254338171084,8.082142544155799,34.52460562716807,28.91986145431232,6.47544875391759e-05,0.1004928275942802,0,0,0
2815,103679.44137975913,2011-01-11 16:35:32,3121.530551851152,2,12,0.5501165986061096,4.108187675476074,8.561840441687757,8.082142544155799,34.54343973835391,28.91986145431232,6.47544875391759e-05,0.1004928275942802,0,0,0
2816,103709.45669092002,2011-01-11 16:36:02,3151.5458630270828,2,12,0.5499359965324402,4.111587524414063,8.566427067146181,8.082142544155799,34.5622906728071,28.91986145431232,6.47544875391759e-05,0.1004928275942802,0,0,0
2817,103739.47171583252,2011-01-11 16:36:32,3181.560887919507,2,12,0.5501165986061096,4.114824771881104,8.571013680440958,8.082142544155799,34.58115632695318,28.91986145431232,9.70840483205393e-05,0.1004928275942802,0,0,0
2818,103769.48690083396,2011-01-11 16:37:02,3211.5760729209724,2,12,0.5501165986061096,4.118062496185303,8.57560028844001,8.082142544155799,34.60003688582188,28.91986145431232,9.70840483205393e-05,0.1004928275942802,0,0,0
2819,103799.50205243216,2011-01-11 16:37:32,3241.591224519186,2,12,0.5497553944587708,4.121300220489502,8.580186804975316,8.082142544155799,34.618932109555445,28.91986145431232,6.47544875391759e-05,0.1004928275942802,0,0,0
2820,103829.51749447928,2011-01-11 16:38:02,3271.606666571301,2,12,0.5501165986061096,4.12470006942749,8.584773442744845,8.082142544155799,34.63784290501144,28.91986145431232,9.71794142969884e-05,0.1004928275942802,0,0,0
2821,103859.53239426992,2011-01-11 16:38:32,3301.621566442133,2,12,0.5501165986061096,4.1279377937316895,8.589360002481959,8.082142544155799,34.65676851414019,28.91986145431232,6.47544875391759e-05,0.1004928275942802,0,0,0
2822,103889.54763786242,2011-01-11 16:39:02,3331.636810034625,2,12,0.5501165986061096,4.131175518035889,8.593946583657319,8.082142544155799,34.67570943367892,28.91986145431232,6.47544875391759e-05,0.1004928275942802,0,0,0
2823,103919.56275166642,2011-01-11 16:39:32,3361.6519237784937,2,12,0.550297200679779,4.134898662567139,8.598533180841377,8.082142544155799,34.694665833393735,28.91986145431232,0.0001295089750783,0.1004928275942802,0,0,0
2824,103949.57804837632,2011-01-11 16:40:02,3391.6672204783463,2,12,0.5501165986061096,4.138136386871338,8.603119847607468,8.082142544155799,34.71363820913706,28.91986145431232,6.47544875391759e-05,0.1004928275942802,0,0,0
2825,103979.59304297825,2011-01-11 16:40:32,3421.68221506524,2,12,0.550297200679779,4.141697883605957,8.607706485373477,8.082142544155799,34.732626253364344,28.91986145431232,0.0001295089750783,0.1004928275942802,0,0,0
2826,104009.60822777922,2011-01-11 16:41:02,3451.697399866205,2,12,0.5499359965324402,4.144935607910156,8.61229315966262,8.082142544155799,34.7516304375059,28.91986145431232,3.23295607813634e-05,0.1004928275942802,0,0,0
2827,104039.623456244,2011-01-11 16:41:32,3481.712628356057,2,12,0.5501165986061096,4.148820877075195,8.616879714731562,8.082142544155799,34.77065049941357,28.91986145431232,9.70840483205393e-05,0.1004928275942802,0,0,0
2828,104069.63854298057,2011-01-11 16:42:02,3511.7277150725654,2,12,0.550297200679779,4.152220726013184,8.621466293895088,8.082142544155799,34.78968685172028,28.91986145431232,9.71794142969884e-05,0.1004928275942802,0,0,0
2829,104099.65373876388,2011-01-11 16:42:32,3541.74291085089,2,12,0.550297200679779,4.155782222747803,8.62605285766991,8.082142544155799,34.808739390791025,28.91986145431232,9.71794142969884e-05,0.1004928275942802,0,0,0
2830,104129.6689310886,2011-01-11 16:43:02,3571.7581032407693,2,12,0.5501165986061096,4.159181594848633,8.63063940022681,8.082142544155799,34.82780827360941,28.91986145431232,6.47544875391759e-05,0.1004928275942802,0,0,0
2831,104159.68405428102,2011-01-11 16:43:32,3601.773226368025,2,12,0.5501165986061096,4.163066864013672,8.635225933778932,8.082142544155799,34.84689364004088,28.91986145431232,9.70840483205393e-05,0.1004928275942802,0,0,0
2832,104189.6992063404,2011-01-11 16:44:02,3631.788378427388,2,12,0.550297200679779,4.166628360748291,8.63981248106347,8.082142544155799,34.865995676281656,28.91986145431232,0.0001295089750783,0.1004928275942802,0,0,0
2833,104219.7143799234,2011-01-11 16:44:32,3661.803552015408,2,12,0.550297200679779,4.17051362991333,8.644399012442594,8.082142544155799,34.88511444182482,28.91986145431232,0.0001618385285837,0.1004928275942802,0,0,0
2834,104249.7295498924,2011-01-11 16:45:02,3691.8187219743822,2,12,0.5499359965324402,4.174075126647949,8.648985599322161,8.082142544155799,34.904250461234554,28.91986145431232,9.70840483205393e-05,0.1004928275942802,0,0,0
2835,104279.74471086898,2011-01-11 16:45:32,3721.833882955983,2,12,0.5504778623580933,4.177798748016357,8.65357215045705,8.082142544155799,34.92340331732107,28.91986145431232,9.71794142969884e-05,0.1004928275942802,0,0,0
2836,104309.75987003103,2011-01-11 16:46:02,3751.849042113035,2,12,0.5501165986061096,4.181360244750977,8.658158722352114,8.082142544155799,34.942573519658815,28.91986145431232,6.47544875391759e-05,0.1004928275942802,0,0,0
2837,104339.77505160397,2011-01-11 16:46:32,3781.8642237110175,2,12,0.5501165986061096,4.185245513916016,8.662745411536939,8.082142544155799,34.96176155952578,28.91986145431232,6.47544875391759e-05,0.1004928275942802,0,0,0
2838,104369.79049762596,2011-01-11 16:47:02,3811.87966973804,2,12,0.5501165986061096,4.189130783081055,8.6673320091563,8.082142544155799,34.98096654666431,28.91986145431232,9.71794142969884e-05,0.1004928275942802,0,0,0
2839,104399.80546001262,2011-01-11 16:47:32,3841.8946321948542,2,12,0.5501165986061096,4.192853927612305,8.671918478823123,8.082142544155799,35.00018851012231,28.91986145431232,9.70840483205393e-05,0.1004928275942802,0,0,0
2840,104429.82053380692,2011-01-11 16:48:02,3871.9097058989328,2,12,0.5499359965324402,4.196739196777344,8.676505088725873,8.082142544155799,35.01942886223673,28.91986145431232,9.71794142969884e-05,0.1004928275942802,0,0,0
2841,104453.50794592637,2011-01-11 16:48:26,3895.597118023381,2,12,0.5501165986061096,4.200138568878174,8.680124731163886,8.082142544155799,35.03462552131037,28.91986145431232,0.0001295089750783,0.1004928275942802,0,0,0
2842,104483.5226567888,2011-01-11 16:48:56,30.015171888784355,3,12,0.0,4.103978633880615,8.680124731163886,8.082142544155799,35.03462552131037,28.91986145431232,-0.0004532813909463,0.1004928275942802,0,0,0
2843,104513.5378001214,2011-01-11 16:49:26,60.03031521638545,3,12,0.0,4.091675281524658,8.680124731163886,8.082142544155799,35.03462552131037,28.91986145431232,-0.0002590179501567,0.1004928275942802,0,0,0
2844,104543.55299291229,2011-01-11 16:49:56,90.04550801227676,3,12,0.0,4.084390640258789,8.680124731163886,8.082142544155799,35.03462552131037,28.91986145431232,-0.0001295089750783,0.1004928275942802,0,0,0
2845,104573.52127893709,2011-01-11 16:50:26,120.0137940270366,3,12,0.0,4.079371929168701,8.680124731163886,8.082142544155799,35.03462552131037,28.91986145431232,-0.0001295089750783,0.1004928275942802,0,0,0
2846,104573.5229134197,2011-01-11 16:50:26,2.726796015e-06,4,12,1.018978238105774,4.199814796447754,8.680124731935704,8.082142544155799,35.03462552455186,28.91986145431232,0.0,0.1004928275942802,0,0,0
2847,104574.28829743718,2011-01-11 16:50:27,0.765386759307813,4,12,0.968949556350708,4.199814796447754,8.680334782156514,8.082142544155799,35.035507681370035,28.91986145431232,0.0,0.1004928275942802,0,0,0
2848,104576.11639546996,2011-01-11 16:50:29,2.593484787084734,4,12,0.9189207553863524,4.199814796447754,8.680813160631176,8.082142544155799,35.0375167565488,28.91986145431232,0.0,0.1004928275942802,0,0,0
2849,104578.9288803226,2011-01-11 16:50:32,5.405969674804898,4,12,0.8685307502746582,4.199814796447754,8.68151032169672,8.082142544155799,35.04044467103761,28.91986145431232,3.23295607813634e-05,0.1004928275942802,0,0,0
2850,104582.80396248968,2011-01-11 16:50:36,9.281051907060675,4,12,0.8181408047676086,4.199814796447754,8.68241689712659,8.082142544155799,35.04425210199733,28.91986145431232,3.23295607813634e-05,0.1004928275942802,0,0,0
2851,104587.89750988704,2011-01-11 16:50:41,14.374599229232857,4,12,0.7681120038032532,4.199814796447754,8.683537435208926,8.082142544155799,35.04895811468232,28.91986145431232,0.0,0.1004928275942802,0,0,0
2852,104594.42861986769,2011-01-11 16:50:47,20.905709199851938,4,12,0.7180832624435425,4.199814796447754,8.6848836297507,8.082142544155799,35.0546118492335,28.91986145431232,3.23295607813634e-05,0.1004928275942802,0,0,0
2853,104603.03798463874,2011-01-11 16:50:56,29.51507397590919,4,12,0.668054461479187,4.199653148651123,8.686538555770852,8.082142544155799,35.06156217929295,28.91986145431232,-3.23295607813634e-05,0.1004928275942802,0,0,0
2854,104614.8815702282,2011-01-11 16:51:08,41.35865955535334,4,12,0.6180257201194763,4.199814796447754,8.688649820815947,8.082142544155799,35.070429053320915,28.91986145431232,0.0,0.1004928275942802,0,0,0
2855,104632.57115219942,2011-01-11 16:51:25,59.04824162682378,4,12,0.5679969191551208,4.199814796447754,8.691554871475699,8.082142544155799,35.0826296703914,28.91986145431232,3.23295607813634e-05,0.1004928275942802,0,0,0
2856,104662.45896177714,2011-01-11 16:51:55,88.93605111431567,4,12,0.5179681777954102,4.199653148651123,8.69604256002288,8.082142544155799,35.10147704642796,28.91986145431232,-3.23295607813634e-05,0.1004928275942802,0,0,0
2857,104718.67670739198,2011-01-11 16:52:52,145.15379673416822,4,12,0.4679394066333771,4.199653148651123,8.703702344194854,8.082142544155799,35.133646562729545,28.91986145431232,-3.23295607813634e-05,0.1004928275942802,0,0,0
2858,104814.94089363886,2011-01-11 16:54:28,241.41798297603256,4,12,0.417910635471344,4.199653148651123,8.71551249545793,8.082142544155799,35.18324679033749,28.91986145431232,-3.23295607813634e-05,0.1004928275942802,0,0,0
2859,104940.92343750704,2011-01-11 16:56:34,367.4005269344366,4,12,0.3678818643093109,4.199814796447754,8.729246930069609,8.082142544155799,35.24092864314515,28.91986145431232,0.0,0.1004928275942802,0,0,0
2860,105094.65529654184,2011-01-11 16:59:08,521.1323858639995,4,12,0.3178530931472778,4.199653148651123,8.743873811559148,8.082142544155799,35.30235859339048,28.91986145431232,-3.23295607813634e-05,0.1004928275942802,0,0,0
2861,105279.68373996973,2011-01-11 17:02:13,706.1608293219255,4,12,0.2678243219852447,4.199653148651123,8.758894332248126,8.082142544155799,35.36544175437313,28.91986145431232,0.0,0.1004928275942802,0,0,0
2862,105507.68021904332,2011-01-11 17:06:01,934.1573083654648,4,12,0.2177955508232116,4.199653148651123,8.774230484521755,8.082142544155799,35.429850480744115,28.91986145431232,-3.23295607813634e-05,0.1004928275942802,0,0,0
2863,105800.50408317236,2011-01-11 17:10:53,1226.9811725195873,4,12,0.1677667796611786,4.199653148651123,8.789836710942733,8.082142544155799,35.495393501895656,28.91986145431232,-3.23295607813634e-05,0.1004928275942802,0,0,0
2864,106218.23183240008,2011-01-11 17:17:51,1644.708921722215,4,12,0.1177380084991455,4.199814796447754,8.806236842051199,8.082142544155799,35.56427071263502,28.91986145431232,0.0,0.1004928275942802,0,0,0
2865,106951.64240285644,2011-01-11 17:30:05,2378.119492173571,4,12,0.0677092373371124,4.199814796447754,8.824626484057628,8.082142544155799,35.64150354059157,28.91986145431232,-3.24249267578125e-05,0.1004928275942802,0,0,0
2866,107415.93217281658,2011-01-11 17:37:49,2842.409262143728,4,12,0.0498289167881011,4.199653148651123,8.832199637177034,8.082142544155799,35.67330931557941,28.91986145431232,-3.23295607813634e-05,0.1004928275942802,0,0,0
2867,107445.94580691204,2011-01-11 17:38:19,30.01521736211789,5,12,0.0,4.190911293029785,8.832199637177034,8.082142544155799,35.67330931557941,28.91986145431232,-6.47544875391759e-05,0.1004928275942802,0,0,0
2868,107475.945313072,2011-01-11 17:38:49,60.01472352709831,5,12,0.0,4.189454555511475,8.832199637177034,8.082142544155799,35.67330931557941,28.91986145431232,-3.23295607813634e-05,0.1004928275942802,0,0,0
2869,107476.13227435431,2011-01-11 17:38:49,0.187632487892902,6,12,-1.9243103452026844e-05,4.189454555511475,8.832199637177034,8.082142545158753,35.67330931557941,28.919861458514227,-3.23295607813634e-05,0.1019293591380119,0,0,0
2870,107480.96046485064,2011-01-11 17:38:54,5.015822914031895,6,12,0.0008838032954372,4.189454555511475,8.83220050515431,8.082142545325574,35.67331295202589,28.919861459213116,-3.23295607813634e-05,0.1019293591380119,0,0,0
2871,107510.97471323714,2011-01-11 17:39:24,30.015169903837258,7,12,-1.099568486213684,3.9908206462860103,8.83220050515431,8.091311175738994,35.67331295202589,28.95669069806121,-0.0011331557761877,0.1019293591380119,0,0,0
2872,107540.98989753184,2011-01-11 17:39:54,60.03035419352849,7,12,-1.0997490882873535,3.9540724754333496,8.83220050515431,8.100479744663179,35.67331295202589,28.993102327273245,-0.0008094310760498,0.1019293591380119,0,0,0
2873,107571.0050421276,2011-01-11 17:40:24,90.04549879430272,7,12,-1.0997490882873535,3.927846908569336,8.83220050515431,8.109648309309215,35.67331295202589,29.029229363892256,-0.0006151676061563,0.1019293591380119,0,0,0
2874,107601.02019597142,2011-01-11 17:40:54,120.06065262808848,7,12,-1.099568486213684,3.90664005279541,8.83220050515431,8.11881688221023,35.67331295202589,29.06514222234821,-0.0005180359003134,0.1019293591380119,0,0,0
2875,107631.03538211572,2011-01-11 17:41:24,150.07583878242696,7,12,-1.0997490882873535,3.8888325691223145,8.83220050515431,8.127985408060725,35.67331295202589,29.10087658171513,-0.0004532813909463,0.1019293591380119,0,0,0
2876,107661.05052559872,2011-01-11 17:41:54,180.09098226040285,7,12,-1.099568486213684,3.873129606246948,8.83220050515431,8.13715391498116,35.67331295202589,29.13645752123162,-0.0003885269106831,0.1019293591380119,0,0,0
2877,107691.06569152264,2011-01-11 17:42:24,210.1061481843209,7,12,-1.099929690361023,3.858397960662842,8.83220050515431,8.146322462942084,35.67331295202589,29.171900368544467,-0.0003885269106831,0.1019293591380119,0,0,0
2878,107721.08086792768,2011-01-11 17:42:54,240.12132459437368,7,12,-1.099929690361023,3.844961404800415,8.83220050515431,8.155491043631155,35.67331295202589,29.20721580355749,-0.0003885269106831,0.1019293591380119,0,0,0
2879,107751.09603192176,2011-01-11 17:43:24,270.13648860853203,7,12,-1.0997490882873535,3.832334518432617,8.83220050515431,8.164660020887158,35.67331295202589,29.24241217769568,-0.0002913475036621,0.1019293591380119,0,0,0
2880,107781.11114090378,2011-01-11 17:43:54,300.1515975955458,7,12,-1.0997490882873535,3.82003116607666,8.83220050515431,8.173829255441332,35.67331295202589,29.277494673467658,-0.0002913951757363,0.1019293591380119,0,0,0
2881,107811.12631894792,2011-01-11 17:44:24,330.1667756146087,7,12,-1.0997490882873535,3.808051586151123,8.83220050515431,8.182998424681381,35.67331295202589,29.31246596338315,-0.0003237724304199,0.1019293591380119,0,0,0
2882,107841.14148327283,2011-01-11 17:44:54,360.1819399595916,7,12,-1.0997490882873535,3.796719551086426,8.83220050515431,8.192167755390443,35.67331295202589,29.34733133660175,-0.0002913951757363,0.1019293591380119,0,0,0
2883,107871.15686754094,2011-01-11 17:45:24,390.1973242327031,7,12,-1.0997490882873535,3.7858731746673584,8.83220050515431,8.201337078741721,35.67331295202589,29.382094550101037,-0.0002913951757363,0.1019293591380119,0,0,0
2884,107901.17181542142,2011-01-11 17:45:54,420.2122720931398,7,12,-1.0997490882873535,3.775350570678711,8.83220050515431,8.21050627517945,35.67331295202589,29.416759196091103,-0.0002590179501567,0.1019293591380119,0,0,0
2885,107931.18698315484,2011-01-11 17:46:24,450.22743995188006,7,12,-1.099568486213684,3.7649898529052734,8.83220050515431,8.219675284356644,35.67331295202589,29.4513280286907,-0.0002913951757363,0.1019293591380119,0,0,0
2886,107961.20438355276,2011-01-11 17:46:54,480.2448404249822,7,12,-1.099568486213684,3.755114793777466,8.83220050515431,8.228844522525275,35.67331295202589,29.485804622755083,-0.0002590179501567,0.1019293591380119,0,0,0
2887,107991.21732686723,2011-01-11 17:47:24,510.25778352894906,7,12,-1.0997490882873535,3.7454018592834473,8.83220050515431,8.23801236997893,35.67331295202589,29.520186547425567,-0.0002913951757363,0.1019293591380119,0,0,0
2888,108021.23247013472,2011-01-11 17:47:54,540.2729268014127,7,12,-1.099568486213684,3.7364981174468994,8.83220050515431,8.247180871699806,35.67331295202589,29.55448538070444,-0.0002266406954731,0.1019293591380119,0,0,0
2889,108051.24765637927,2011-01-11 17:48:24,570.2881130359511,7,12,-1.0997490882873535,3.7274324893951416,8.83220050515431,8.256349472759611,35.67331295202589,29.58870172268953,-0.0002913951757363,0.1019293591380119,0,0,0
2890,108081.26279387232,2011-01-11 17:48:54,600.3032505390357,7,12,-1.0997490882873535,3.718690633773804,8.83220050515431,8.265518025526926,35.67331295202589,29.62283704975231,-0.0002266406954731,0.1019293591380119,0,0,0
2891,108111.27801324948,2011-01-11 17:49:24,630.3184699111632,7,12,-1.0997490882873535,3.710110664367676,8.83220050515431,8.274686619385076,35.67331295202589,29.65689269182288,-0.0001942634553415,0.1019293591380119,0,0,0
2892,108141.29312385053,2011-01-11 17:49:55,660.3335805121997,7,12,-1.0997490882873535,3.701368808746338,8.83220050515431,8.28385516930143,35.67331295202589,29.69086924205136,-0.0002266406954731,0.1019293591380119,0,0,0
2893,108171.30832617516,2011-01-11 17:50:25,690.348782861902,7,12,-1.0997490882873535,3.69295072555542,8.83220050515431,8.293023743858193,35.67331295202589,29.72476776451117,-0.0002266406954731,0.1019293591380119,0,0,0
2894,108201.32358737152,2011-01-11 17:50:55,720.3640440332058,7,12,-1.0997490882873535,3.684856414794922,8.83220050515431,8.30219237831033,35.67331295202589,29.75859062395228,-0.0002590179501567,0.1019293591380119,0,0,0
2895,108231.33863841412,2011-01-11 17:51:25,750.3790950808168,7,12,-1.099568486213684,3.677085876464844,8.83220050515431,8.311360899414407,35.67331295202589,29.792339482240344,-0.0001942634553415,0.1019293591380119,0,0,0
2896,108261.35378473418,2011-01-11 17:51:55,780.3942414159135,7,12,-1.099568486213684,3.6693155765533447,8.83220050515431,8.320529465038337,35.67331295202589,29.826016377196385,-0.0001942634553415,0.1019293591380119,0,0,0
2897,108291.36896103896,2011-01-11 17:52:25,810.4094177207038,7,12,-1.099929690361023,3.6615450382232666,8.83220050515431,8.329698022123125,35.67331295202589,29.859623109295345,-0.0002590179501567,0.1019293591380119,0,0,0
2898,108321.38410615102,2011-01-11 17:52:55,840.4245628377648,7,12,-1.0997490882873535,3.654098272323608,8.83220050515431,8.338866628619536,35.67331295202589,29.89316035502925,-0.0001618862152099,0.1019293591380119,0,0,0
2899,108351.3992722604,2011-01-11 17:53:25,870.4397289421327,7,12,-1.099568486213684,3.64648962020874,8.83220050515431,8.348035188506946,35.67331295202589,29.92662906952962,-0.0001942634553415,0.1019293591380119,0,0,0
2900,108381.41443148762,2011-01-11 17:53:55,900.4548881743731,7,12,-1.099568486213684,3.639366626739502,8.83220050515431,8.35720359966749,35.67331295202589,29.96002909732579,-0.0001618862152099,0.1019293591380119,0,0,0
2901,108411.429714749,2011-01-11 17:54:25,930.4701714156822,7,12,-1.0997490882873535,3.6320817470550537,8.83220050515431,8.366372100759543,35.67331295202589,29.993362952871244,-0.0001942634553415,0.1019293591380119,0,0,0
2902,108441.44478410222,2011-01-11 17:54:55,960.4852407639038,7,12,-1.0993878841400146,3.6252825260162354,8.83220050515431,8.375540574318276,35.67331295202589,30.026631500872984,-0.0001295089750783,0.1019293591380119,0,0,0
2903,108471.46119984104,2011-01-11 17:55:25,990.5016565478578,7,12,-1.099568486213684,3.618159532546997,8.83220050515431,8.384709496527389,35.67331295202589,30.0598376001776,-0.0001942634553415,0.1019293591380119,0,0,0
2904,108501.4751199851,2011-01-11 17:55:55,1020.5155766568216,7,12,-1.0997490882873535,3.6113603115081783,8.83220050515431,8.393877691067333,35.67331295202589,30.09297816521929,-0.0001618862152099,0.1019293591380119,0,0,0
2905,108531.49020832064,2011-01-11 17:56:25,1050.5306650224404,7,12,-1.0997490882873535,3.6047229766845694,8.83220050515431,8.403046142455798,35.67331295202589,30.126058220013768,-0.0001942634553415,0.1019293591380119,0,0,0
2906,108561.5054290261,2011-01-11 17:56:55,1080.5458856928035,7,12,-1.099568486213684,3.598247528076172,8.83220050515431,8.412214618413529,35.67331295202589,30.15907801936231,-0.0001618862152099,0.1019293591380119,0,0,0
2907,108591.52071228746,2011-01-11 17:57:25,1110.5611689942623,7,12,-1.0997490882873535,3.5919342041015625,8.83220050515431,8.421383136375034,35.67331295202589,30.192039210113297,-0.0001618385285837,0.1019293591380119,0,0,0
2908,108621.53582483836,2011-01-11 17:57:55,1140.576281660446,7,12,-1.0997490882873535,3.585620641708374,8.83220050515431,8.430551719718371,35.67331295202589,30.224943036530348,-0.0001618862152099,0.1019293591380119,0,0,0
2909,108651.5510923304,2011-01-11 17:58:25,1170.591549202628,7,12,-1.0997490882873535,3.5797927379608154,8.83220050515431,8.439720330390092,35.67331295202589,30.257791398598176,-0.0001618862152099,0.1019293591380119,0,0,0
2910,108681.56611317776,2011-01-11 17:58:55,1200.606569839446,7,12,-1.099568486213684,3.574126720428467,8.83220050515431,8.44888892317357,35.67331295202589,30.29058600716414,-0.0001295089750783,0.1019293591380119,0,0,0
2911,108711.58348713478,2011-01-11 17:59:25,1230.6239438014743,7,12,-1.099929690361023,3.568298816680908,8.83220050515431,8.458058193648998,35.67331295202589,30.323331290699265,-0.0001942634553415,0.1019293591380119,0,0,0
2912,108741.59645830368,2011-01-11 17:59:55,1260.6369149954503,7,12,-1.0997490882873535,3.563118457794189,8.83220050515431,8.467226097957337,35.67331295202589,30.356021096409435,-9.713172767078504e-05,0.1019293591380119,0,0,0
2913,108771.61173912395,2011-01-11 18:00:25,1290.6521958057003,7,12,-1.099568486213684,3.5579380989074707,8.83220050515431,8.476394690355402,35.67331295202589,30.38866464474963,-9.713172767078504e-05,0.1019293591380119,0,0,0
2914,108801.62679294348,2011-01-11 18:00:55,1320.6672496402573,7,12,-1.0997490882873535,3.552595853805542,8.83220050515431,8.485563259236693,35.67331295202589,30.42125997231428,-9.713172767078504e-05,0.1019293591380119,0,0,0
2915,108831.64214229956,2011-01-11 18:01:25,1350.6825989662698,7,12,-1.0997490882873535,3.5472536087036133,8.83220050515431,8.494731967797552,35.67331295202589,30.45380819317146,-0.0001618862152099,0.1019293591380119,0,0,0
2916,108861.65710261604,2011-01-11 18:01:55,1380.6975592777385,7,12,-1.0997490882873535,3.5422351360321045,8.83220050515431,8.503900517467565,35.67331295202589,30.486309614465767,-0.0001618862152099,0.1019293591380119,0,0,0
2917,108891.67225545234,2011-01-11 18:02:25,1410.712712114038,7,12,-1.0997490882873535,3.5373785495758057,8.83220050515431,8.513069152197364,35.67331295202589,30.51876625563457,-0.0001295089750783,0.1019293591380119,0,0,0
2918,108921.6874217873,2011-01-11 18:02:55,1440.7278784539933,7,12,-1.0997490882873535,3.532683849334717,8.83220050515431,8.522237763409102,35.67331295202589,30.55117873824392,-0.0001618862152099,0.1019293591380119,0,0,0
2919,108951.70259531015,2011-01-11 18:03:25,1470.7430519718373,7,12,-1.0997490882873535,3.528312921524048,8.83220050515431,8.53140636453924,35.67331295202589,30.583548788658813,-0.0001295089750783,0.1019293591380119,0,0,0
2920,108981.71774402117,2011-01-11 18:03:55,1500.7582006778432,7,12,-1.0997490882873535,3.523618221282959,8.83220050515431,8.540574994053355,35.67331295202589,30.61587615008743,-9.713172767078504e-05,0.1019293591380119,0,0,0
2921,109011.73292310289,2011-01-11 18:04:25,1530.7733797896294,7,12,-1.099568486213684,3.51908540725708,8.83220050515431,8.549743607273568,35.67331295202589,30.64816137937729,-0.0001295089750783,0.1019293591380119,0,0,0
2922,109041.74808868094,2011-01-11 18:04:55,1560.7885453426234,7,12,-1.0997490882873535,3.514390707015991,8.83220050515431,8.558912247767227,35.67331295202589,30.680405435447,-0.0001295089750783,0.1019293591380119,0,0,0
2923,109071.76323892076,2011-01-11 18:05:25,1590.8036955774392,7,12,-1.0993878841400146,3.5100200176239014,8.83220050515431,8.568080826056534,35.67331295202589,30.71260780835808,-0.0001295089750783,0.1019293591380119,0,0,0
2924,109101.77839483976,2011-01-11 18:05:55,1620.818851496422,7,12,-1.0997490882873535,3.5054872035980225,8.83220050515431,8.577249458622024,35.67331295202589,30.744769125871283,-9.713172767078504e-05,0.1019293591380119,0,0,0
2925,109131.79368379028,2011-01-11 18:06:25,1650.8341404469602,7,12,-1.0997490882873535,3.501116275787353,8.83220050515431,8.586418152170477,35.67331295202589,30.77688901242378,-9.713172767078504e-05,0.1019293591380119,0,0,0
2926,109161.80871897835,2011-01-11 18:06:55,1680.8491756550943,7,12,-1.099568486213684,3.4965834617614746,8.83220050515431,8.595586696985418,35.67331295202589,30.80896690837396,-6.47544875391759e-05,0.1019293591380119,0,0,0
2927,109191.8239041252,2011-01-11 18:07:25,1710.8643607818717,7,12,-1.099929690361023,3.491726875305176,8.83220050515431,8.60475531591257,35.67331295202589,30.841003167175437,-0.0001618862152099,0.1019293591380119,0,0,0
2928,109221.83907932724,2011-01-11 18:07:55,1740.8795360089762,7,12,-1.0997490882873535,3.487032175064087,8.83220050515431,8.613923993240148,35.67331295202589,30.872996898294733,-0.0001618862152099,0.1019293591380119,0,0,0
2929,109251.8544736554,2011-01-11 18:08:25,1770.894930337148,7,12,-1.0997490882873535,3.482175588607788,8.83220050515431,8.623092701918203,35.67331295202589,30.904946364066475,-0.0001295089750783,0.1019293591380119,0,0,0
2930,109281.86936982202,2011-01-11 18:08:55,1800.9098264887102,7,12,-1.099568486213684,3.4771571159362797,8.83220050515431,8.63226116867157,35.67331295202589,30.93684941009345,-0.0001295089750783,0.1019293591380119,0,0,0
2931,109311.88451957564,2011-01-11 18:09:25,1830.9249762623767,7,12,-1.0997490882873535,3.4719767570495605,8.83220050515431,8.641429758875574,35.67331295202589,30.96870621178629,-0.0001295089750783,0.1019293591380119,0,0,0
2932,109341.899667625,2011-01-11 18:09:55,1860.940124286684,7,12,-1.099568486213684,3.466634511947632,8.83220050515431,8.650598270350425,35.67331295202589,31.00051412944713,-9.713172767078504e-05,0.1019293591380119,0,0,0
2933,109371.91499842986,2011-01-11 18:10:25,1890.9554551065737,7,12,-1.0993878841400146,3.460968494415283,8.83220050515431,8.659766854381914,35.67331295202589,31.03227133326823,-9.713172767078504e-05,0.1019293591380119,0,0,0
2934,109401.93003406403,2011-01-11 18:10:55,1920.970490725732,7,12,-1.0997490882873535,3.4546549320220947,8.83220050515431,8.668935365843366,35.67331295202589,31.063974465357383,-0.0002266406954731,0.1019293591380119,0,0,0
2935,109431.94521929607,2011-01-11 18:11:25,1950.985675987847,7,12,-1.0997490882873535,3.4481794834136963,8.83220050515431,8.6781039719653,35.67331295202589,31.09562066018525,-0.0002266406954731,0.1019293591380119,0,0,0
2936,109461.960352719,2011-01-11 18:11:55,1981.000809395725,7,12,-1.0997490882873535,3.441380262374878,8.83220050515431,8.687272592636395,35.67331295202589,31.127205579249377,-0.0001942634553415,0.1019293591380119,0,0,0
2937,109491.9755200464,2011-01-11 18:12:25,2011.0159767081032,7,12,-1.099568486213684,3.43393349647522,8.83220050515431,8.696441126129328,35.67331295202589,31.158723903884432,-0.0001942634553415,0.1019293591380119,0,0,0
2938,109521.9906779754,2011-01-11 18:12:55,2041.031134652133,7,12,-1.099568486213684,3.425353765487671,8.83220050515431,8.705609754577806,35.67331295202589,31.190168810057912,-0.0002266406954731,0.1019293591380119,0,0,0
2939,109552.00586893172,2011-01-11 18:13:25,2071.046325593402,7,12,-1.0997490882873535,3.415640592575073,8.83220050515431,8.714778443669497,35.67331295202589,31.22153127543701,-0.0002590179501567,0.1019293591380119,0,0,0
2940,109582.0209964449,2011-01-11 18:13:55,2101.0614531166134,7,12,-1.0997490882873535,3.404794216156006,8.83220050515431,8.723947073427405,35.67331295202589,31.252799652997645,-0.0003237724304199,0.1019293591380119,0,0,0
2941,109612.03616651916,2011-01-11 18:14:25,2131.0766231808507,7,12,-1.0997490882873535,3.391357660293579,8.83220050515431,8.733115703417306,35.67331295202589,31.28395713463667,-0.0003885269106831,0.1019293591380119,0,0,0
2942,109642.05134238786,2011-01-11 18:14:55,2161.091799084641,7,12,-1.099568486213684,3.375978469848633,8.83220050515431,8.742284342141675,35.67331295202589,31.314983291907023,-0.0004209041653666,0.1019293591380119,0,0,0
2943,109672.06650765514,2011-01-11 18:15:25,2191.106964316836,7,12,-1.0997490882873535,3.356552124023437,8.83220050515431,8.751452975706156,35.67331295202589,31.34585024369275,-0.0005827903514727,0.1019293591380119,0,0,0
2944,109702.08165055668,2011-01-11 18:15:55,2221.1221072334124,7,12,-1.0997490882873535,3.3327550888061523,8.83220050515431,8.76062157293018,35.67331295202589,31.37652089797236,-0.0007122993702068,0.1019293591380119,0,0,0
2945,109732.09690421927,2011-01-11 18:16:25,2251.1373608909894,7,12,-1.099568486213684,3.3028061389923096,8.83220050515431,8.76979016361623,35.67331295202589,31.40694652235892,-0.0009065627818927,0.1019293591380119,0,0,0
2946,109762.112335279,2011-01-11 18:16:55,2281.1527919757705,7,12,-1.099568486213684,3.263953685760498,8.83220050515431,8.778958753567743,35.67331295202589,31.437058679057465,-0.0011655807029455,0.1019293591380119,0,0,0
2947,109792.12730995123,2011-01-11 18:17:25,2311.1677666129426,7,12,-1.099568486213684,3.2126357555389404,8.83220050515431,8.78812718415944,35.67331295202589,31.466760112795807,-0.0015217304462566,0.1019293591380119,0,0,0
2948,109822.14233043267,2011-01-11 18:17:55,2341.1827871043984,7,12,-1.0997490882873535,3.1431868076324463,8.83220050515431,8.797295700488757,35.67331295202589,31.49591419726718,-0.0021045207977294,0.1019293591380119,0,0,0
2949,109852.15749872752,2011-01-11 18:18:25,2371.197955399226,7,12,-1.099568486213684,3.045245885848999,8.83220050515431,8.806464262938878,35.67331295202589,31.524311192588403,-0.0030758380889892,0.1019293591380119,0,0,0
2950,109882.17490935592,2011-01-11 18:18:55,2401.215366117863,7,12,-1.099568486213684,2.8948540687561035,8.83220050515431,8.81563354862274,35.67331295202589,31.55159543583768,-0.0047918320633471,0.1019293591380119,0,0,0
2951,109909.53160283352,2011-01-11 18:19:23,2428.5720595002163,7,12,-1.099929690361023,2.699943780899048,8.83220050515431,8.823990064944308,35.67331295202589,31.575001127156103,-0.0061192512512207,0.1019293591380119,0,0,0
2952,109969.54396815524,2011-01-11 18:20:23,60.01468303117,8,12,0.0,3.5467679500579834,8.83220050515431,8.823990064944308,35.67331295202589,31.575001127156103,0.0013598442310467,0.1019293591380119,0,0,0
2953,109969.73021334095,2011-01-11 18:20:23,0.187621931583331,9,12,-1.9243103452026844e-05,3.5470917224884038,8.83220050515431,8.823990065947205,35.67331295202589,31.57500113071347,0.0,0.1021136790513992,0,0,0
2954,109974.55821323722,2011-01-11 18:20:28,5.015621822850798,9,12,0.0005225847125984,3.5550241470336914,8.832201378091906,8.823990066030388,35.673316052397055,31.57500113100853,0.0011332035064697,0.1021136790513992,0,0,0
