Data_Point,Test_Time(s),Date_Time,Step_Time(s),Step_Index,Cycle_Index,Current(A),Voltage(V),Charge_Capacity(Ah),Discharge_Capacity(Ah),Charge_Energy(Wh),Discharge_Energy(Wh),dV/dt(V/s),Internal_Resistance(Ohm),Is_FC_Data,AC_Impedance(Ohm),ACI_Phase_Angle(Deg)
5355,201176.47628339028,2011-01-12 19:40:42,30.015113147382703,1,23,0.0,3.602294683456421,16.03269676703472,16.00635773874898,64.81121081344845,57.21773961406351,0.0006799221155233,0.10130325704813,0,0,0
5356,201206.4913979863,2011-01-12 19:41:12,60.03022774337579,1,23,0.0,3.623663663864136,16.03269676703472,16.00635773874898,64.81121081344845,57.21773961406351,0.0005180359003134,0.10130325704813,0,0,0
5357,201236.5065405169,2011-01-12 19:41:42,90.04537026897806,1,23,0.0,3.638395309448242,16.03269676703472,16.00635773874898,64.81121081344845,57.21773961406351,0.0003237724304199,0.10130325704813,0,0,0
5358,201266.4747649983,2011-01-12 19:42:12,120.01359475539036,1,23,0.0,3.65005111694336,16.03269676703472,16.00635773874898,64.81121081344845,57.21773961406351,0.0002913951757363,0.10130325704813,0,0,0
5359,201296.4839259104,2011-01-12 19:42:42,30.01511946312348,2,23,0.5501165986061096,3.772436618804932,16.03728318170477,16.00635773874898,64.82842019587825,57.21773961406351,0.0008094310760498,0.10130325704813,0,0,0
5360,201326.49903547383,2011-01-12 19:43:12,60.03022903659891,2,23,0.5501165986061096,3.795586347579956,16.041869595312207,16.00635773874898,64.84578069365736,57.21773961406351,0.0004856586456298,0.10130325704813,0,0,0
5361,201356.5142513573,2011-01-12 19:43:42,90.04544492504395,2,23,0.5501165986061096,3.8095085620880127,16.046456041044294,16.00635773874898,64.86322303791741,57.21773961406351,0.0003237724304199,0.10130325704813,0,0,0
5362,201386.5293577478,2011-01-12 19:44:12,120.06055150104878,2,23,0.5497553944587708,3.81970739364624,16.051042446210005,16.00635773874898,64.88071978743086,57.21773961406351,0.0001942634553415,0.10130325704813,0,0,0
5363,201416.5443851114,2011-01-12 19:44:42,150.07557864909467,2,23,0.5501165986061096,3.828611135482788,16.055628818862665,16.00635773874898,64.89825958384482,57.21773961406351,0.0002266406954731,0.10130325704813,0,0,0
5364,201446.5597181919,2011-01-12 19:45:12,180.09091176470588,2,23,0.5501165986061096,3.836543321609497,16.06021525573899,16.00635773874898,64.91583701323043,57.21773961406351,0.0002590179501567,0.10130325704813,0,0,0
5365,201476.5747846379,2011-01-12 19:45:42,210.1059781956569,2,23,0.5501165986061096,3.843342542648315,16.064801654002142,16.00635773874898,64.93344822947623,57.21773961406351,0.0001942634553415,0.10130325704813,0,0,0
5366,201506.57643626,2011-01-12 19:46:12,240.10762992303896,2,23,0.5499359965324402,3.850141763687134,16.069385969836457,16.00635773874898,64.95108266785957,57.21773961406351,0.0002266406954731,0.10130325704813,0,0,0
5367,201536.5892777959,2011-01-12 19:46:42,270.1204713385669,2,23,0.5499359965324402,3.855969667434693,16.07397194792901,16.00635773874898,64.96875274648633,57.21773961406351,0.0001295089750783,0.10130325704813,0,0,0
5368,201566.60449494244,2011-01-12 19:47:12,300.13568851522257,2,23,0.5501165986061096,3.862121343612671,16.078558303367526,16.00635773874898,64.98645197359286,57.21773961406351,0.0001942634553415,0.10130325704813,0,0,0
5369,201596.6196199995,2011-01-12 19:47:42,330.15081356226284,2,23,0.5499359965324402,3.8674635887146,16.083144658289136,16.00635773874898,65.00417736776535,57.21773961406351,0.0001295089750783,0.10130325704813,0,0,0
5370,201626.6347228462,2011-01-12 19:48:12,360.1659164089731,2,23,0.5499359965324402,3.8726439476013184,16.087731098886344,16.00635773874898,65.02192798554186,57.21773961406351,9.713172767078504e-05,0.10130325704813,0,0,0
5371,201656.6497326711,2011-01-12 19:48:42,390.1809262288318,2,23,0.5501165986061096,3.877986192703247,16.092317416442622,16.00635773874898,65.03970186392512,57.21773961406351,0.0001618862152099,0.10130325704813,0,0,0
5372,201686.6648401443,2011-01-12 19:49:13,420.1960336920478,2,23,0.5501165986061096,3.882842779159546,16.09690384916705,16.00635773874898,65.05749934258354,57.21773961406351,9.713172767078504e-05,0.10130325704813,0,0,0
5373,201716.68000776743,2011-01-12 19:49:43,450.211201315201,2,23,0.5501165986061096,3.8876993656158447,16.10149032615402,16.00635773874898,65.07531944738975,57.21773961406351,9.713172767078504e-05,0.10130325704813,0,0,0
5374,201746.6950942233,2011-01-12 19:50:13,480.2262877760727,2,23,0.5501165986061096,3.8923940658569336,16.10607677943832,16.00635773874898,65.09316116204843,57.21773961406351,0.0001295089750783,0.10130325704813,0,0,0
5375,201776.71022038316,2011-01-12 19:50:43,510.24141392586137,2,23,0.5501165986061096,3.8967649936676025,16.110663301961804,16.00635773874898,65.11102379573335,57.21773961406351,9.713172767078504e-05,0.10130325704813,0,0,0
5376,201806.72532830248,2011-01-12 19:51:13,540.2565218502267,2,23,0.5499359965324402,3.901135921478272,16.115249820395416,16.00635773874898,65.12890640963158,57.21773961406351,0.0001295089750783,0.10130325704813,0,0,0
5377,201836.7404563871,2011-01-12 19:51:43,570.2716499298251,2,23,0.5499359965324402,3.905183076858521,16.119836240942828,16.00635773874898,65.14680792489938,57.21773961406351,9.713172767078504e-05,0.10130325704813,0,0,0
5378,201866.75547984097,2011-01-12 19:52:13,600.2866734137389,2,23,0.550297200679779,3.9092302322387695,16.12442261050286,16.00635773874898,65.16472769590561,57.21773961406351,9.713172767078504e-05,0.10130325704813,0,0,0
5379,201896.77064848665,2011-01-12 19:52:43,630.301842054428,2,23,0.5499359965324402,3.912953615188599,16.1290090679502,16.00635773874898,65.18266565000097,57.21773961406351,9.713172767078504e-05,0.10130325704813,0,0,0
5380,201926.7857570977,2011-01-12 19:53:13,660.3169506705173,2,23,0.5499359965324402,3.916514873504639,16.13359520985691,16.00635773874898,65.20061927570198,57.21773961406351,6.47544875391759e-05,0.10130325704813,0,0,0
5381,201956.8009902191,2011-01-12 19:53:43,690.3321837818871,2,23,0.5501165986061096,3.920076370239258,16.138180731879892,16.00635773874898,65.21858659074672,57.21773961406351,9.713172767078504e-05,0.10130325704813,0,0,0
5382,201986.81600537727,2011-01-12 19:54:13,720.3471989400506,2,23,0.5499359965324402,3.923314094543457,16.14276634291983,16.00635773874898,65.2365697137023,57.21773961406351,6.47544875391759e-05,0.10130325704813,0,0,0
5383,202016.831109432,2011-01-12 19:54:43,750.3623029747216,2,23,0.5501165986061096,3.926551818847656,16.147351852877826,16.00635773874898,65.25456718905814,57.21773961406351,0.0001295089750783,0.10130325704813,0,0,0
5384,202046.846260534,2011-01-12 19:55:13,780.3774540817113,2,23,0.5499359965324402,3.929465770721436,16.15193740871969,16.00635773874898,65.2725790804268,57.21773961406351,3.237724376958795e-05,0.10130325704813,0,0,0
5385,202076.86136135063,2011-01-12 19:55:43,810.3925548933495,2,23,0.5501165986061096,3.932379722595215,16.156523043200657,16.00635773874898,65.2906049690621,57.21773961406351,9.713172767078504e-05,0.10130325704813,0,0,0
5386,202106.87661067743,2011-01-12 19:56:13,840.4078042401832,2,23,0.5501165986061096,3.935293674468994,16.16110886075856,16.00635773874898,65.30864495439191,57.21773961406351,3.237724376958795e-05,0.10130325704813,0,0,0
5387,202136.89169853675,2011-01-12 19:56:43,870.422892104553,2,23,0.550297200679779,3.938207626342773,16.165695437618837,16.00635773874898,65.32670088780615,57.21773961406351,0.0001295089750783,0.10130325704813,0,0,0
5388,202166.9067172137,2011-01-12 19:57:13,900.4379107514112,2,23,0.5501165986061096,3.940635919570923,16.170281966007025,16.00635773874898,65.34476918494146,57.21773961406351,6.47544875391759e-05,0.10130325704813,0,0,0
5389,202196.92184511287,2011-01-12 19:57:43,930.4530386555724,2,23,0.5501165986061096,3.943387985229492,16.174868476877347,16.00635773874898,65.36284969195378,57.21773961406351,6.47544875391759e-05,0.10130325704813,0,0,0
5390,202226.9369555184,2011-01-12 19:58:13,960.4681490711464,2,23,0.550297200679779,3.9461400508880615,16.17945495334332,16.00635773874898,65.38094211618952,57.21773961406351,9.713172767078504e-05,0.10130325704813,0,0,0
5391,202256.9520771018,2011-01-12 19:58:43,990.483270649542,2,23,0.5501165986061096,3.948568344116211,16.184041558018954,16.00635773874898,65.39904684536266,57.21773961406351,6.47544875391759e-05,0.10130325704813,0,0,0
5392,202286.9671958682,2011-01-12 19:59:13,1020.4983894109164,2,23,0.5501165986061096,3.9511585235595694,16.1886280315577,16.00635773874898,65.41716276247966,57.21773961406351,6.47544875391759e-05,0.10130325704813,0,0,0
5393,202316.98453352976,2011-01-12 19:59:43,1050.5157270925229,2,23,0.5501165986061096,3.95358681678772,16.193214915447665,16.00635773874898,65.43529192282602,57.21773961406351,3.237724376958795e-05,0.10130325704813,0,0,0
5394,202346.99746923527,2011-01-12 20:00:13,1080.5286628080755,2,23,0.5501165986061096,3.956176996231079,16.19780115016029,16.00635773874898,65.45342999800003,57.21773961406351,9.713172767078504e-05,0.10130325704813,0,0,0
5395,202377.01254935036,2011-01-12 20:00:43,1110.5437428930566,2,23,0.5501165986061096,3.9584434032440186,16.20238769869001,16.00635773874898,65.4715805323672,57.21773961406351,3.237724376958795e-05,0.10130325704813,0,0,0
5396,202407.02768281332,2011-01-12 20:01:13,1140.5588763811347,2,23,0.5501165986061096,3.961033582687378,16.20697421083271,16.00635773874898,65.48974214272825,57.21773961406351,6.47544875391759e-05,0.10130325704813,0,0,0
5397,202437.04280640176,2011-01-12 20:01:43,1170.573999944477,2,23,0.5501165986061096,3.9634618759155273,16.21156080960404,16.00635773874898,65.50791525234402,57.21773961406351,6.47544875391759e-05,0.10130325704813,0,0,0
5398,202467.0579162108,2011-01-12 20:02:13,1200.5891097535396,2,23,0.5501165986061096,3.9658901691436768,16.21614738730876,16.00635773874898,65.52609929990592,57.21773961406351,9.713172767078504e-05,0.10130325704813,0,0,0
5399,202497.07303531305,2011-01-12 20:02:43,1230.6042288557635,2,23,0.5501165986061096,3.968156576156616,16.220733921455516,16.00635773874898,65.54429419710767,57.21773961406351,3.237724376958795e-05,0.10130325704813,0,0,0
5400,202527.0881466409,2011-01-12 20:03:13,1260.6193401936364,2,23,0.5501165986061096,3.970746755599976,16.225320484087753,16.00635773874898,65.56250014669696,57.21773961406351,9.713172767078504e-05,0.10130325704813,0,0,0
5401,202557.1033044496,2011-01-12 20:03:43,1290.634497992304,2,23,0.5499359965324402,3.972851276397705,16.229906998503555,16.00635773874898,65.58071673479007,57.21773961406351,6.47544875391759e-05,0.10130325704813,0,0,0
5402,202587.11838813857,2011-01-12 20:04:13,1320.6495816812671,2,23,0.5501165986061096,3.975117683410645,16.234493587741,16.00635773874898,65.59894441165684,57.21773961406351,0.0,0.10130325704813,0,0,0
5403,202617.13351124572,2011-01-12 20:04:43,1350.6647047984975,2,23,0.5499359965324402,3.977545976638794,16.239080252496823,16.00635773874898,65.61718313242616,57.21773961406351,3.237724376958795e-05,0.10130325704813,0,0,0
5404,202647.1486317916,2011-01-12 20:05:13,1380.6798253393074,2,23,0.5501165986061096,3.979974269866944,16.243666757346855,16.00635773874898,65.63543141333626,57.21773961406351,6.47544875391759e-05,0.10130325704813,0,0,0
5405,202677.1639020004,2011-01-12 20:05:43,1410.6950955481354,2,23,0.550297200679779,3.982240676879883,16.248253280182574,16.00635773874898,65.65369066797187,57.21773961406351,6.47544875391759e-05,0.10130325704813,0,0,0
5406,202707.1788758757,2011-01-12 20:06:13,1440.7100694284215,2,23,0.5501165986061096,3.9845070838928223,16.252839746697344,16.00635773874898,65.67196019520065,57.21773961406351,6.47544875391759e-05,0.10130325704813,0,0,0
5407,202737.1940028976,2011-01-12 20:06:43,1470.7251964453717,2,23,0.550297200679779,3.986935377120972,16.257426186946002,16.00635773874898,65.6902401509184,57.21773961406351,9.713172767078504e-05,0.10130325704813,0,0,0
5408,202767.2091559645,2011-01-12 20:07:13,1500.7403495423207,2,23,0.5499359965324402,3.988878011703491,16.26201269307257,16.00635773874898,65.70853085193966,57.21773961406351,0.0,0.10130325704813,0,0,0
5409,202797.2245218368,2011-01-12 20:07:43,1530.7557153995342,2,23,0.5501165986061096,3.9913063049316406,16.266599245726677,16.00635773874898,65.7268321675399,57.21773961406351,6.47544875391759e-05,0.10130325704813,0,0,0
5410,202827.2393520139,2011-01-12 20:08:13,1560.7705455866933,2,23,0.5501165986061096,3.99357271194458,16.271185667915965,16.00635773874898,65.74514335964449,57.21773961406351,3.237724376958795e-05,0.10130325704813,0,0,0
5411,202857.2544720785,2011-01-12 20:08:43,1590.7856656262531,2,23,0.5499359965324402,3.9956769943237305,16.27577216128817,16.00635773874898,65.76346512480993,57.21773961406351,3.237724376958795e-05,0.10130325704813,0,0,0
5412,202887.26959170203,2011-01-12 20:09:13,1620.8007852447638,2,23,0.5501165986061096,3.99810528755188,16.28035870205436,16.00635773874898,65.78179737256427,57.21773961406351,6.47544875391759e-05,0.10130325704813,0,0,0
5413,202917.28497349395,2011-01-12 20:09:43,1650.8161670467164,2,23,0.5499359965324402,4.000209808349609,16.28494521640877,16.00635773874898,65.8001397128922,57.21773961406351,3.23295607813634e-05,0.10130325704813,0,0,0
5414,202947.29985395144,2011-01-12 20:10:13,1680.8310475192015,2,23,0.5501165986061096,4.002638339996338,16.289531685742123,16.00635773874898,65.8184922419461,57.21773961406351,6.47544875391759e-05,0.10130325704813,0,0,0
5415,202977.3149756852,2011-01-12 20:10:43,1710.8461692479718,2,23,0.5501165986061096,4.004742622375488,16.294118147715388,16.00635773874898,65.83685501529597,57.21773961406351,3.23295607813634e-05,0.10130325704813,0,0,0
5416,203007.3300753239,2011-01-12 20:11:13,1740.8612688666367,2,23,0.5501165986061096,4.007009029388428,16.29870465344364,16.00635773874898,65.85522836947821,57.21773961406351,3.23295607813634e-05,0.10130325704813,0,0,0
5417,203037.3452299547,2011-01-12 20:11:43,1770.8764235024214,2,23,0.5501165986061096,4.009437561035156,16.30329116507801,16.00635773874898,65.87361209972981,57.21773961406351,9.71794142969884e-05,0.10130325704813,0,0,0
5418,203067.36031493687,2011-01-12 20:12:13,1800.8915084795951,2,23,0.5499359965324402,4.011541843414307,16.307877717278885,16.00635773874898,65.89200637344246,57.21773961406351,6.47544875391759e-05,0.10130325704813,0,0,0
5419,203097.37543662556,2011-01-12 20:12:43,1830.906630173278,2,23,0.5499359965324402,4.013970375061035,16.312464219858953,16.00635773874898,65.91041096541302,57.21773961406351,6.47544875391759e-05,0.10130325704813,0,0,0
5420,203127.39056981285,2011-01-12 20:13:13,1860.9217633505816,2,23,0.5501165986061096,4.016236782073975,16.31705075717427,16.00635773874898,65.92882618653039,57.21773961406351,9.71794142969884e-05,0.10130325704813,0,0,0
5421,203157.4056907797,2011-01-12 20:13:43,1890.9368843224647,2,23,0.5501165986061096,4.018503189086914,16.321637249937993,16.00635773874898,65.94725179260116,57.21773961406351,6.47544875391759e-05,0.10130325704813,0,0,0
5422,203187.4208220924,2011-01-12 20:14:13,1920.9520156651963,2,23,0.5501165986061096,4.0207695960998535,16.326223798582845,16.00635773874898,65.96568819849284,57.21773961406351,6.47544875391759e-05,0.10130325704813,0,0,0
5423,203217.4359183276,2011-01-12 20:14:43,1950.9671118753663,2,23,0.5501165986061096,4.023197650909424,16.330810240700377,16.00635773874898,65.98413497704286,57.21773961406351,6.47544875391759e-05,0.10130325704813,0,0,0
5424,203247.4510488533,2011-01-12 20:15:13,1980.9822424010613,2,23,0.5501165986061096,4.025626182556152,16.3353967805802,16.00635773874898,66.00259294619357,57.21773961406351,6.47544875391759e-05,0.10130325704813,0,0,0
5425,203277.46617795547,2011-01-12 20:15:43,2010.997371503208,2,23,0.5501165986061096,4.027892589569092,16.339983285149508,16.00635773874898,66.0210616924355,57.21773961406351,6.47544875391759e-05,0.10130325704813,0,0,0
5426,203307.48128581463,2011-01-12 20:16:13,2041.0124793573984,2,23,0.5501165986061096,4.030482769012451,16.344569854872,16.00635773874898,66.03954165671908,57.21773961406351,6.47544875391759e-05,0.10130325704813,0,0,0
5427,203337.4964054332,2011-01-12 20:16:43,2071.0275989759093,2,23,0.5501165986061096,4.032587051391602,16.34915634175254,16.00635773874898,66.05803233132517,57.21773961406351,0.0,0.10130325704813,0,0,0
5428,203367.5115394325,2011-01-12 20:17:13,2101.042732975261,2,23,0.550297200679779,4.035338878631592,16.35374283258264,16.00635773874898,66.07653421721673,57.21773961406351,6.47544875391759e-05,0.10130325704813,0,0,0
5429,203397.52691000653,2011-01-12 20:17:43,2131.058103594343,2,23,0.5501165986061096,4.03776741027832,16.35832937112717,16.00635773874898,66.095047607323,57.21773961406351,9.71794142969884e-05,0.10130325704813,0,0,0
5430,203427.5440527172,2011-01-12 20:18:13,2161.0752463501344,2,23,0.550297200679779,4.040195465087891,16.36291625319244,16.00635773874898,66.11357373029853,57.21773961406351,6.47544875391759e-05,0.10130325704813,0,0,0
5431,203457.55702035228,2011-01-12 20:18:43,2191.088213940128,2,23,0.5501165986061096,4.042623996734619,16.36750241976264,16.00635773874898,66.1321083900009,57.21773961406351,6.47544875391759e-05,0.10130325704813,0,0,0
5432,203487.5721393843,2011-01-12 20:19:13,2221.1033329471143,2,23,0.550297200679779,4.045375823974609,16.37208894784469,16.00635773874898,66.15065611050917,57.21773961406351,9.70840483205393e-05,0.10130325704813,0,0,0
5433,203517.58715030196,2011-01-12 20:19:43,2251.1183438496714,2,23,0.5497553944587708,4.047642230987549,16.376675418238715,16.00635773874898,66.16921519545166,57.21773961406351,3.23295607813634e-05,0.10130325704813,0,0,0
5434,203547.60238567897,2011-01-12 20:20:13,2281.1335792517502,2,23,0.5499359965324402,4.050232410430908,16.381261931921507,16.00635773874898,66.18778626841544,57.21773961406351,3.23295607813634e-05,0.10130325704813,0,0,0
5435,203577.6175156232,2011-01-12 20:20:43,2311.1487091859717,2,23,0.550297200679779,4.052984714508057,16.385848394227704,16.00635773874898,66.20636894728038,57.21773961406351,6.47544875391759e-05,0.10130325704813,0,0,0
5436,203607.63253357337,2011-01-12 20:21:14,2341.1637271461186,2,23,0.5501165986061096,4.055574893951416,16.390434870481844,16.00635773874898,66.22496377169882,57.21773961406351,6.47544875391759e-05,0.10130325704813,0,0,0
5437,203637.6477068305,2011-01-12 20:21:44,2371.1789003832628,2,23,0.5501165986061096,4.058326721191406,16.39502166697584,16.00635773874898,66.24357206487451,57.21773961406351,9.70840483205393e-05,0.10130325704813,0,0,0
5438,203667.66268474585,2011-01-12 20:22:14,2401.1938782935936,2,23,0.5501165986061096,4.060755252838135,16.399609032143218,16.00635773874898,66.26219497472154,57.21773961406351,3.24249267578125e-05,0.10130325704813,0,0,0
5439,203697.6779370952,2011-01-12 20:22:44,2431.2091306779976,2,23,0.5501165986061096,4.063507080078125,16.40419619782681,16.00635773874898,66.28082907710828,57.21773961406351,3.23295607813634e-05,0.10130325704813,0,0,0
5440,203727.6929471406,2011-01-12 20:23:14,2461.224140688331,2,23,0.550297200679779,4.066259384155273,16.40878348020136,16.00635773874898,66.29947621812703,57.21773961406351,9.71794142969884e-05,0.10130325704813,0,0,0
5441,203757.70807645828,2011-01-12 20:23:44,2491.2392700010028,2,23,0.5501165986061096,4.069011211395264,16.41337073813657,16.00635773874898,66.31813592820794,57.21773961406351,6.47544875391759e-05,0.10130325704813,0,0,0
5442,203787.7232074552,2011-01-12 20:24:14,2521.254401007897,2,23,0.5501165986061096,4.071925163269043,16.41795803472422,16.00635773874898,66.33680854125016,57.21773961406351,6.47544875391759e-05,0.10130325704813,0,0,0
5443,203817.73843732345,2011-01-12 20:24:44,2551.2696308862087,2,23,0.550297200679779,4.074839115142822,16.422545243609026,16.00635773874898,66.3554936859199,57.21773961406351,9.70840483205393e-05,0.10130325704813,0,0,0
5444,203847.7534324717,2011-01-12 20:25:14,2581.2846260144515,2,23,0.5501165986061096,4.077591419219971,16.42713180512544,16.00635773874898,66.37418912361821,57.21773961406351,0.0001295089750783,0.10130325704813,0,0,0
5445,203877.76870283097,2011-01-12 20:25:44,2611.299896388692,2,23,0.5499359965324402,4.080343246459961,16.431718487905272,16.00635773874898,66.3928982182958,57.21773961406351,6.47544875391759e-05,0.10130325704813,0,0,0
5446,203907.78474016665,2011-01-12 20:26:14,2641.315933714411,2,23,0.5501165986061096,4.08358097076416,16.436305272965228,16.00635773874898,66.41162093942708,57.21773961406351,0.0001295089750783,0.10130325704813,0,0,0
5447,203937.79880538728,2011-01-12 20:26:44,2671.329998925013,2,23,0.5499359965324402,4.08617115020752,16.440891676871626,16.00635773874898,66.43035547713399,57.21773961406351,3.23295607813634e-05,0.10130325704813,0,0,0
5448,203967.81398492013,2011-01-12 20:27:14,2701.345178492936,2,23,0.5499359965324402,4.089085102081299,16.44547824680238,16.00635773874898,66.44910410566358,57.21773961406351,3.23295607813634e-05,0.10130325704813,0,0,0
5449,203997.8290500228,2011-01-12 20:27:44,2731.3602435655016,2,23,0.550297200679779,4.092161178588867,16.450064868327527,16.00635773874898,66.46786662998872,57.21773961406351,9.71794142969884e-05,0.10130325704813,0,0,0
5450,204027.84425325468,2011-01-12 20:28:14,2761.37544689264,2,23,0.5501165986061096,4.095236778259277,16.454651538849717,16.00635773874898,66.4866431831405,57.21773961406351,9.70840483205393e-05,0.10130325704813,0,0,0
5451,204057.8592792047,2011-01-12 20:28:44,2791.390472757488,2,23,0.5501165986061096,4.098312854766846,16.459238148676256,16.00635773874898,66.50543337866225,57.21773961406351,9.71794142969884e-05,0.10130325704813,0,0,0
5452,204087.87439629692,2011-01-12 20:29:14,2821.4055898497027,2,23,0.550297200679779,4.101388454437256,16.463824786802515,16.00635773874898,66.52423768812102,57.21773961406351,9.70840483205393e-05,0.10130325704813,0,0,0
5453,204117.88953730377,2011-01-12 20:29:44,2851.420730856519,2,23,0.5501165986061096,4.104464530944824,16.468411456074943,16.00635773874898,66.54305630660762,57.21773961406351,9.71794142969884e-05,0.10130325704813,0,0,0
5454,204147.90463495752,2011-01-12 20:30:14,2881.4358285353496,2,23,0.5501165986061096,4.107702255249023,16.472998084068145,16.00635773874898,66.5618891125827,57.21773961406351,9.71794142969884e-05,0.10130325704813,0,0,0
5455,204177.91975942312,2011-01-12 20:30:44,2911.4509529758784,2,23,0.5501165986061096,4.110616207122803,16.47758475423226,16.00635773874898,66.58073655920528,57.21773961406351,6.47544875391759e-05,0.10130325704813,0,0,0
5456,204207.9348820492,2011-01-12 20:31:14,2941.4660756018848,2,23,0.5499359965324402,4.114015579223633,16.482171398513998,16.00635773874898,66.59959842062298,57.21773961406351,6.47544875391759e-05,0.10130325704813,0,0,0
5457,204237.95223295368,2011-01-12 20:31:44,2971.4834265866466,2,23,0.5501165986061096,4.117414951324463,16.486758405365098,16.00635773874898,66.6184765446942,57.21773961406351,9.70840483205393e-05,0.10130325704813,0,0,0
5458,204267.9651207348,2011-01-12 20:32:14,3001.496314277507,2,23,0.5501165986061096,4.120328903198242,16.49134468365094,16.00635773874898,66.63736643701836,57.21773961406351,9.70840483205393e-05,0.10130325704813,0,0,0
5459,204297.98023680947,2011-01-12 20:32:44,3031.511430352185,2,23,0.5501165986061096,4.123566627502441,16.495931354690846,16.00635773874898,66.65627284370782,57.21773961406351,3.23295607813634e-05,0.10130325704813,0,0,0
5460,204327.995356844,2011-01-12 20:33:14,3061.526550386733,2,23,0.5499359965324402,4.126804351806641,16.500517948814075,16.00635773874898,66.67519395435251,57.21773961406351,3.23295607813634e-05,0.10130325704813,0,0,0
5461,204358.01069684172,2011-01-12 20:33:44,3091.5418903844966,2,23,0.5501165986061096,4.130204200744629,16.505104676572895,16.00635773874898,66.69413079553802,57.21773961406351,6.47544875391759e-05,0.10130325704813,0,0,0
5462,204388.02560222137,2011-01-12 20:34:14,3121.556795764058,2,23,0.5501165986061096,4.133603572845459,16.509691310155603,16.00635773874898,66.71308252630307,57.21773961406351,9.70840483205393e-05,0.10130325704813,0,0,0
5463,204418.040752797,2011-01-12 20:34:44,3151.5719472068845,2,23,0.5499359965324402,4.137003421783447,16.51427795664879,16.00635773874898,66.7320496845656,57.21773961406351,6.47544875391759e-05,0.10130325704813,0,0,0
5464,204448.0558578442,2011-01-12 20:35:14,3181.5870514119806,2,23,0.5501165986061096,4.140564918518066,16.518864672426652,16.00635773874898,66.7510327217626,57.21773961406351,0.0001295089750783,0.10130325704813,0,0,0
5465,204478.07096551795,2011-01-12 20:35:44,3211.6021590556466,2,23,0.5501165986061096,4.143640518188477,16.523451365112997,16.00635773874898,66.77003127546396,57.21773961406351,6.47544875391759e-05,0.10130325704813,0,0,0
5466,204508.08607433955,2011-01-12 20:36:14,3241.6172678872726,2,23,0.5501165986061096,4.147364139556885,16.52803802629138,16.00635773874898,66.78904582467655,57.21773961406351,6.47544875391759e-05,0.10130325704813,0,0,0
5467,204538.1012040181,2011-01-12 20:36:44,3271.632397555831,2,23,0.5501165986061096,4.150925636291504,16.532624672918224,16.00635773874898,66.80807630876119,57.21773961406351,0.0001295089750783,0.10130325704813,0,0,0
5468,204568.1163178522,2011-01-12 20:37:14,3301.647511394938,2,23,0.5501165986061096,4.154325008392334,16.53721132906776,16.00635773874898,66.82712281809245,57.21773961406351,9.70840483205393e-05,0.10130325704813,0,0,0
5469,204598.13156768025,2011-01-12 20:37:44,3331.6627612279835,2,23,0.5501165986061096,4.158048629760742,16.54179790383362,16.00635773874898,66.84618510490682,57.21773961406351,0.0001295089750783,0.10130325704813,0,0,0
5470,204628.1465544276,2011-01-12 20:38:14,3361.6777479753387,2,23,0.5501165986061096,4.161448001861572,16.546384469375603,16.00635773874898,66.86526376333259,57.21773961406351,0.0001295089750783,0.10130325704813,0,0,0
5471,204658.16170228648,2011-01-12 20:38:44,3391.69289582922,2,23,0.5499359965324402,4.1651716232299805,16.550971129546348,16.00635773874898,66.88435935874642,57.21773961406351,0.0001295089750783,0.10130325704813,0,0,0
5472,204688.17684913788,2011-01-12 20:39:14,3421.7080426856164,2,23,0.5501165986061096,4.1687331199646,16.555557714456803,16.00635773874898,66.90347134539397,57.21773961406351,9.71794142969884e-05,0.10130325704813,0,0,0
5473,204718.19222899,2011-01-12 20:39:44,3451.723422547734,2,23,0.5499359965324402,4.17245626449585,16.56014432309118,16.00635773874898,66.9226001679552,57.21773961406351,9.70840483205393e-05,0.10130325704813,0,0,0
5474,204748.2070354781,2011-01-12 20:40:14,3481.7382290258024,2,23,0.5501165986061096,4.176017761230469,16.564730892183174,16.00635773874898,66.94174575852307,57.21773961406351,6.47544875391759e-05,0.10130325704813,0,0,0
5475,204778.22215388852,2011-01-12 20:40:44,3511.7533474262777,2,23,0.550297200679779,4.179903030395508,16.56931747345067,16.00635773874898,66.96090835670942,57.21773961406351,9.70840483205393e-05,0.10130325704813,0,0,0
5476,204808.23729928632,2011-01-12 20:41:14,3541.7684928240383,2,23,0.5501165986061096,4.183626651763916,16.573904111476544,16.00635773874898,66.98008833493337,57.21773961406351,9.71794142969884e-05,0.10130325704813,0,0,0
5477,204838.2525421921,2011-01-12 20:41:44,3571.783735754881,2,23,0.5499359965324402,4.187188148498535,16.578490802245522,16.00635773874898,66.99928579182176,57.21773961406351,6.47544875391759e-05,0.10130325704813,0,0,0
5478,204868.26753482412,2011-01-12 20:42:14,3601.7987283668526,2,23,0.5501165986061096,4.191235065460205,16.583077457749702,16.00635773874898,67.01850054707509,57.21773961406351,9.70840483205393e-05,0.10130325704813,0,0,0
5479,204898.28264075852,2011-01-12 20:42:44,3631.8138343012574,2,23,0.550297200679779,4.195120334625244,16.587664123504496,16.00635773874898,67.03773291889443,57.21773961406351,0.0001295089750783,0.10130325704813,0,0,0
5480,204928.2977722667,2011-01-12 20:43:14,3661.8289658144154,2,23,0.5501165986061096,4.198681831359863,16.592250737129792,16.00635773874898,67.05698263363922,57.21773961406351,6.47544875391759e-05,0.10130325704813,0,0,0
5481,204936.3913652407,2011-01-12 20:43:22,3669.922558783429,2,23,0.550297200679779,4.200138568878174,16.59348750663096,16.00635773874898,67.06217632889765,57.21773961406351,0.0001618385285837,0.10130325704813,0,0,0
5482,204966.4001962971,2011-01-12 20:43:52,30.015471039359635,3,23,0.0,4.099769592285156,16.59348750663096,16.00635773874898,67.06217632889765,57.21773961406351,-0.0004857063177041,0.10130325704813,0,0,0
5483,204996.4149857477,2011-01-12 20:44:22,60.03026045490299,3,23,0.0,4.086818695068359,16.59348750663096,16.00635773874898,67.06217632889765,57.21773961406351,-0.0002914428769145,0.10130325704813,0,0,0
5484,205026.4166912892,2011-01-12 20:44:52,90.03196609164378,3,23,0.0,4.079048156738281,16.59348750663096,16.00635773874898,67.06217632889765,57.21773961406351,-0.0001619339018361,0.10130325704813,0,0,0
5485,205056.3986040059,2011-01-12 20:45:22,120.01387873315032,3,23,0.0,4.073706150054932,16.59348750663096,16.00635773874898,67.06217632889765,57.21773961406351,-9.70840483205393e-05,0.10130325704813,0,0,0
5486,205056.40935657968,2011-01-12 20:45:23,0.01564635553225,4,23,1.0227711200714111,4.199814796447754,16.593491992633567,16.00635773874898,67.06219516927779,57.21773961406351,0.0,0.10130325704813,0,0,0
5487,205057.206220189,2011-01-12 20:45:23,0.812509994910392,4,23,0.9722005128860474,4.199653148651123,16.593711384804635,16.00635773874898,67.0631165698997,57.21773961406351,-3.23295607813634e-05,0.10130325704813,0,0,0
5488,205059.09679183023,2011-01-12 20:45:25,2.70308161109226,4,23,0.922171711921692,4.199814796447754,16.59420770951104,16.00635773874898,67.0652010465045,57.21773961406351,0.0,0.10130325704813,0,0,0
5489,205061.9405848725,2011-01-12 20:45:28,5.546874773666677,4,23,0.8719623684883118,4.199653148651123,16.59491518442191,16.00635773874898,67.06817231487355,57.21773961406351,-3.23295607813634e-05,0.10130325704813,0,0,0
5490,205065.84687998687,2011-01-12 20:45:32,9.4531697677288,4,23,0.8215723633766174,4.199653148651123,16.59583292757049,16.00635773874898,67.07202666981307,57.21773961406351,-3.23295607813634e-05,0.10130325704813,0,0,0
5491,205071.00284314857,2011-01-12 20:45:37,14.609132929377834,4,23,0.771543562412262,4.199976921081543,16.59697246996808,16.00635773874898,67.07681254386605,57.21773961406351,3.24249267578125e-05,0.10130325704813,0,0,0
5492,205077.66121898984,2011-01-12 20:45:44,21.26750877070545,4,23,0.7215148210525513,4.199814796447754,16.5983511626602,16.00635773874898,67.08260281895491,57.21773961406351,0.0,0.10130325704813,0,0,0
5493,205086.42445293523,2011-01-12 20:45:53,30.030742721089485,4,23,0.6711248159408569,4.199653148651123,16.600043423549703,16.00635773874898,67.08971004455785,57.21773961406351,-6.47544875391759e-05,0.10130325704813,0,0,0
5494,205098.4867671888,2011-01-12 20:46:05,42.09305697469077,4,23,0.6209154725074768,4.199653148651123,16.602203904449265,16.00635773874898,67.09878372782684,57.21773961406351,-3.23295607813634e-05,0.10130325704813,0,0,0
5495,205116.37710681488,2011-01-12 20:46:23,59.983396615796295,4,23,0.5708866715431213,4.199814796447754,16.605156912286887,16.00635773874898,67.11118586783613,57.21773961406351,-3.24249267578125e-05,0.10130325704813,0,0,0
5496,205146.97052859527,2011-01-12 20:46:53,90.5768184012462,4,23,0.5208579301834106,4.199653148651123,16.609775523215426,16.00635773874898,67.13058329590751,57.21773961406351,-3.23295607813634e-05,0.10130325704813,0,0,0
5497,205206.09433024097,2011-01-12 20:47:52,149.70062002182362,4,23,0.4708291292190552,4.199814796447754,16.61787551423238,16.00635773874898,67.16460154207186,57.21773961406351,3.23295607813634e-05,0.10130325704813,0,0,0
5498,205308.2488493698,2011-01-12 20:49:34,251.8551391506524,4,23,0.4208003580570221,4.199653148651123,16.630490863974824,16.00635773874898,67.21758345385916,57.21773961406351,-3.23295607813634e-05,0.10130325704813,0,0,0
5499,205440.27786052992,2011-01-12 20:51:46,383.8841503057621,4,23,0.3707716166973114,4.199814796447754,16.64498708615963,16.00635773874898,67.27846531497168,57.21773961406351,-3.24249267578125e-05,0.10130325704813,0,0,0
5500,205599.52518350293,2011-01-12 20:54:26,543.1314732787871,4,23,0.3207428455352783,4.199814796447754,16.660260310121455,16.00635773874898,67.34261050045187,57.21773961406351,0.0,0.10130325704813,0,0,0
5501,205791.74069295573,2011-01-12 20:57:38,735.3469827315771,4,23,0.2707140743732452,4.199814796447754,16.676025939580988,16.00635773874898,67.40882367865092,57.21773961406351,0.0,0.10130325704813,0,0,0
5502,206027.4242210508,2011-01-12 21:01:34,971.0305108316112,4,23,0.2206852883100509,4.199814796447754,16.692066805174566,16.00635773874898,67.47619271461684,57.21773961406351,0.0,0.10130325704813,0,0,0
5503,206331.23163267973,2011-01-12 21:06:37,1274.8379224706189,4,23,0.1706565171480178,4.199814796447754,16.70850559500972,16.00635773874898,67.54523296634765,57.21773961406351,0.0,0.10130325704813,0,0,0
5504,206756.77134848683,2011-01-12 21:13:43,1700.377638272695,4,23,0.1206277534365654,4.199814796447754,16.725571383873465,16.00635773874898,67.61690647174471,57.21773961406351,0.0,0.10130325704813,0,0,0
5505,207495.52455738207,2011-01-12 21:26:02,2439.1308471879915,4,23,0.0705989822745323,4.199814796447754,16.744697912686387,16.00635773874898,67.69723475203753,57.21773961406351,0.0,0.10130325704813,0,0,0
5506,208035.99994280268,2011-01-12 21:35:02,2979.6062326787533,4,23,0.0498289167881011,4.199653148651123,16.753690603222122,16.00635773874898,67.73500254275743,57.21773961406351,-6.47544875391759e-05,0.10130325704813,0,0,0
5507,208066.0133950364,2011-01-12 21:35:32,30.014936035966564,5,23,0.0,4.190425872802734,16.753690603222122,16.00635773874898,67.73500254275743,57.21773961406351,-6.47544875391759e-05,0.10130325704813,0,0,0
5508,208096.01266822076,2011-01-12 21:36:02,60.014209120037634,5,23,0.0,4.188807010650635,16.753690603222122,16.00635773874898,67.73500254275743,57.21773961406351,-6.47544875391759e-05,0.10130325704813,0,0,0
5509,208096.19977874984,2011-01-12 21:36:03,0.187513852216293,6,23,-0.0005610709195025,4.189939975738525,16.753690603222122,16.006357767973586,67.73500254275743,57.21773973651285,0.0,0.1052602156996727,0,0,0
5510,208101.0278907405,2011-01-12 21:36:07,5.015625847882415,6,23,0.0007031940040178,4.188968658447266,16.753691502816856,16.006357767973586,67.73500631114997,57.21773973651285,-3.24249267578125e-05,0.1052602156996727,0,0,0
5511,208124.55831628983,2011-01-12 21:36:31,23.530851682655232,7,23,-1.099568486213684,3.988878011703491,16.753691502866616,16.013545254108177,67.73500631135842,57.246580923667295,-0.0013921738136559,0.1052602156996727,0,0,0
5512,208154.57343030945,2011-01-12 21:37:01,53.545965722261634,7,23,-1.099568486213684,3.945978164672852,16.753691502866616,16.02271320126573,67.73500631135842,57.28294389941019,-0.0009713172912597,0.1052602156996727,0,0,0
5513,208184.58855061463,2011-01-12 21:37:31,83.56108601244641,7,23,-1.099568486213684,3.9139246940612793,16.753691502866616,16.031881144371717,67.73500631135842,57.31896581441253,-0.0007122993702068,0.1052602156996727,0,0,0
5514,208214.6038360865,2011-01-12 21:38:01,113.57637149433974,7,23,-1.099568486213684,3.888994455337525,16.753691502866616,16.041049117511346,67.73500631135842,57.3547290243781,-0.0006151676061563,0.1052602156996727,0,0,0
5515,208244.61879333536,2011-01-12 21:38:31,143.59132872312534,7,23,-1.0997490882873535,3.8687586784362793,16.753691502866616,16.05021700049856,67.73500631135842,57.39028698214072,-0.0004856586456298,0.1052602156996727,0,0,0
5516,208274.6339055504,2011-01-12 21:39:01,173.60644094820938,7,23,-1.0997490882873535,3.851598739624024,16.753691502866616,16.059384967152173,67.73500631135842,57.42567473936864,-0.0003885269106831,0.1052602156996727,0,0,0
5517,208304.64903501843,2011-01-12 21:39:31,203.62157040624325,7,23,-1.0993878841400146,3.836057662963867,16.753691502866616,16.06855295835754,67.73500631135842,57.46091326916055,-0.0003885269106831,0.1052602156996727,0,0,0
5518,208334.6642000752,2011-01-12 21:40:01,233.6367354780376,7,23,-1.099568486213684,3.8218119144439697,16.753691502866616,16.07772093907937,67.73500631135842,57.4960153292168,-0.0003561496851034,0.1052602156996727,0,0,0
5519,208364.6792739397,2011-01-12 21:40:31,263.6518093324902,7,23,-1.0993878841400146,3.808375358581543,16.753691502866616,16.086888829794407,67.73500631135842,57.53099090009694,-0.0003561496851034,0.1052602156996727,0,0,0
5520,208394.69439229503,2011-01-12 21:41:01,293.6669276978778,7,23,-1.099568486213684,3.795748233795166,16.753691502866616,16.096056780965554,67.73500631135842,57.56584742621688,-0.0003237724304199,0.1052602156996727,0,0,0
5521,208424.70954293088,2011-01-12 21:41:31,323.6820783286807,7,23,-1.099568486213684,3.783768653869629,16.753691502866616,16.10522472479676,67.73500631135842,57.600591551683095,-0.0003237724304199,0.1052602156996727,0,0,0
5522,208454.7246414468,2011-01-12 21:42:01,353.6971768445973,7,23,-1.099568486213684,3.7722747325897217,16.753691502866616,16.114392747815106,67.73500631135842,57.635228409565,-0.0002913951757363,0.1052602156996727,0,0,0
5523,208484.73975614805,2011-01-12 21:42:31,383.7122915508653,7,23,-1.0997490882873535,3.761266469955444,16.753691502866616,16.12356074621088,67.73500631135842,57.669762493344514,-0.0002913951757363,0.1052602156996727,0,0,0
5524,208514.7548708293,2011-01-12 21:43:01,413.7274062370832,7,23,-1.099568486213684,3.750744104385376,16.753691502866616,16.132728416799235,67.73500631135842,57.70419668345136,-0.0002913951757363,0.1052602156996727,0,0,0
5525,208544.7699879516,2011-01-12 21:43:31,443.7425233443351,7,23,-1.0993878841400146,3.740545272827149,16.753691502866616,16.141895676820962,67.73500631135842,57.7385346443844,-0.0002590179501567,0.1052602156996727,0,0,0
5526,208574.78525468672,2011-01-12 21:44:01,473.7577900945433,7,23,-1.099568486213684,3.730508327484131,16.753691502866616,16.15106309737758,67.73500631135842,57.77278098378228,-0.0003237724304199,0.1052602156996727,0,0,0
5527,208604.80023465212,2011-01-12 21:44:31,503.77277004495824,7,23,-1.0993878841400146,3.721280813217163,16.753691502866616,16.160230340409875,67.73500631135842,57.80693886294026,-0.0002590179501567,0.1052602156996727,0,0,0
5528,208634.81538372405,2011-01-12 21:45:01,533.7879191319133,7,23,-1.0997490882873535,3.7120532989501953,16.753691502866616,16.16939803303416,67.73500631135842,57.84101241914457,-0.0002590179501567,0.1052602156996727,0,0,0
5529,208664.8304713228,2011-01-12 21:45:31,563.803006710571,7,23,-1.099568486213684,3.703149557113648,16.753691502866616,16.178566034233796,67.73500631135842,57.8750032853706,-0.0002266406954731,0.1052602156996727,0,0,0
5530,208694.84581352104,2011-01-12 21:46:01,593.8183489388939,7,23,-1.0997490882873535,3.6940839290618896,16.753691502866616,16.187734170789575,67.73500631135842,57.9089130356864,-0.0002590179501567,0.1052602156996727,0,0,0
5531,208724.8613083397,2011-01-12 21:46:31,623.8338437525061,7,23,-1.0997490882873535,3.685665845870972,16.753691502866616,16.19690226937105,67.73500631135842,57.94274333899848,-0.0001942634553415,0.1052602156996727,0,0,0
5532,208754.8758542383,2011-01-12 21:47:01,653.8483896260681,7,23,-1.0997490882873535,3.6772477626800537,16.753691502866616,16.20607009582232,67.73500631135842,57.9764956544079,-0.0002590179501567,0.1052602156996727,0,0,0
5533,208784.89109128944,2011-01-12 21:47:31,683.8636267023196,7,23,-1.099568486213684,3.6693155765533447,16.753691502866616,16.21523811189274,67.73500631135842,58.01017242858065,-0.0001942634553415,0.1052602156996727,0,0,0
5534,208814.90609169085,2011-01-12 21:48:01,713.8786270786421,7,23,-1.099568486213684,3.661221265792847,16.753691502866616,16.224406152138755,67.73500631135842,58.04377489160156,-0.0002266406954731,0.1052602156996727,0,0,0
5535,208844.92122639195,2011-01-12 21:48:31,743.8937618048059,7,23,-1.0997490882873535,3.653288841247559,16.753691502866616,16.23357417696929,67.73500631135842,58.0773044905436,-0.0001942634553415,0.1052602156996727,0,0,0
5536,208874.93632107836,2011-01-12 21:49:01,773.9088564961905,7,23,-1.0993878841400146,3.645518302917481,16.753691502866616,16.242742125277665,67.73500631135842,58.11076222420724,-0.0001942634553415,0.1052602156996727,0,0,0
5537,208904.95143240612,2011-01-12 21:49:32,803.923967819026,7,23,-1.099568486213684,3.6380715370178223,16.753691502866616,16.251910087853297,67.73500631135842,58.14414981266949,-0.0001618862152099,0.1052602156996727,0,0,0
5538,208934.96669781304,2011-01-12 21:50:02,833.939233235911,7,23,-1.099568486213684,3.630624771118164,16.753691502866616,16.261078115677098,67.73500631135842,58.17746914685117,-0.0001942634553415,0.1052602156996727,0,0,0
5539,208964.9816744903,2011-01-12 21:50:32,863.9542098780807,7,23,-1.099568486213684,3.623178005218506,16.753691502866616,16.27024604816055,67.73500631135842,58.21072051541701,-0.0002590179501567,0.1052602156996727,0,0,0
5540,208994.99679730172,2011-01-12 21:51:02,893.9693326895493,7,23,-1.0997490882873535,3.616055011749268,16.753691502866616,16.279414113687576,67.73500631135842,58.24390613669548,-0.0001942634553415,0.1052602156996727,0,0,0
5541,209025.0120487087,2011-01-12 21:51:32,923.9845841366174,7,23,-1.099568486213684,3.609255790710449,16.753691502866616,16.288582123490443,67.73500631135842,58.27702655578547,-0.0001618862152099,0.1052602156996727,0,0,0
5542,209055.0270946536,2011-01-12 21:52:02,953.999630061461,7,23,-1.099568486213684,3.602294683456421,16.753691502866616,16.29775010163027,67.73500631135842,58.31008375572705,-0.0001942634553415,0.1052602156996727,0,0,0
5543,209085.042149596,2011-01-12 21:52:32,984.0146849837288,7,23,-1.0997490882873535,3.5956573486328125,16.753691502866616,16.30691812286021,67.73500631135842,58.34307968088648,-0.0001618862152099,0.1052602156996727,0,0,0
5544,209115.05727330965,2011-01-12 21:53:02,1014.029808697446,7,23,-1.099568486213684,3.589182138442993,16.753691502866616,16.316086129058714,67.73500631135842,58.37601552007684,-0.0001942634553415,0.1052602156996727,0,0,0
5545,209145.0727733613,2011-01-12 21:53:32,1044.045308879438,7,23,-1.0997490882873535,3.5828685760498047,16.753691502866616,16.32525431965337,67.73500631135842,58.40889341711255,-0.0001942634553415,0.1052602156996727,0,0,0
5546,209175.08763437028,2011-01-12 21:54:02,1074.060169773127,7,23,-1.0997490882873535,3.576716899871826,16.753691502866616,16.334423021552855,67.73500631135842,58.4417159888154,-0.0001942634553415,0.1052602156996727,0,0,0
5547,209205.1019053437,2011-01-12 21:54:32,1104.0744407415405,7,23,-1.099929690361023,3.5707271099090576,16.753691502866616,16.34354877326238,67.73500631135842,58.47432923023082,-0.0001942634553415,0.1052602156996727,0,0,0
5548,209235.10229748185,2011-01-12 21:55:02,1134.0748328996883,7,23,-1.099929690361023,3.565061092376709,16.753691502866616,16.35275504859534,67.73500631135842,58.507176765431744,-0.0001295089750783,0.1052602156996727,0,0,0
5549,209265.1172551918,2011-01-12 21:55:32,1164.0897905795985,7,23,-1.099568486213684,3.5595569610595703,16.753691502866616,16.361923058657982,67.73500631135842,58.53983603124541,-0.0001295089750783,0.1052602156996727,0,0,0
5550,209295.1325177967,2011-01-12 21:56:02,1194.1050531945,7,23,-1.099568486213684,3.554052829742432,16.753691502866616,16.3710911481144,67.73500631135842,58.57244558289998,-0.0001618862152099,0.1052602156996727,0,0,0
5551,209325.14753355127,2011-01-12 21:56:32,1224.1200689591751,7,23,-1.099568486213684,3.548872470855713,16.753691502866616,16.380259203376077,67.73500631135842,58.60500592122997,-0.0001618862152099,0.1052602156996727,0,0,0
5552,209355.1626848989,2011-01-12 21:57:02,1254.1352203167896,7,23,-1.099568486213684,3.543692111968994,16.753691502866616,16.389427352441796,67.73500631135842,58.637518306212336,-0.0001295089750783,0.1052602156996727,0,0,0
5553,209385.1777381871,2011-01-12 21:57:32,1284.1502735799222,7,23,-1.0997490882873535,3.5388355255126958,16.753691502866616,16.398595349792906,67.73500631135842,58.669983530366,-9.713172767078504e-05,0.1052602156996727,0,0,0
5554,209415.1928901312,2011-01-12 21:58:02,1314.1654255440485,7,23,-1.099568486213684,3.5334932804107666,16.753691502866616,16.407763481446953,67.73500631135842,58.70240281116877,-0.0001618862152099,0.1052602156996727,0,0,0
5555,209445.20799207065,2011-01-12 21:58:32,1344.1805274584349,7,23,-1.0997490882873535,3.528636693954468,16.753691502866616,16.416931614409464,67.73500631135842,58.7347766522733,-0.0001295089750783,0.1052602156996727,0,0,0
5556,209475.22308799007,2011-01-12 21:59:02,1374.1956234079553,7,23,-1.099568486213684,3.523941993713379,16.753691502866616,16.426099743624903,67.73500631135842,58.76710615686594,-9.713172767078504e-05,0.1052602156996727,0,0,0
5557,209505.2383563643,2011-01-12 21:59:32,1404.210891782211,7,23,-1.099568486213684,3.51924729347229,16.753691502866616,16.435267885883494,67.73500631135842,58.799392632633065,-0.0001295089750783,0.1052602156996727,0,0,0
5558,209535.25333950773,2011-01-12 22:00:02,1434.225875010796,7,23,-1.099568486213684,3.514552593231201,16.753691502866616,16.444435945397835,67.73500631135842,58.83163653685343,-0.0001618862152099,0.1052602156996727,0,0,0
5559,209565.27057485929,2011-01-12 22:00:32,1464.2431103623646,7,23,-1.099568486213684,3.5101819038391118,16.753691502866616,16.45360463684956,67.73500631135842,58.863840410367175,-0.0001295089750783,0.1052602156996727,0,0,0
5560,209595.28356237392,2011-01-12 22:01:02,1494.2560977667415,7,23,-1.099568486213684,3.5054872035980225,16.753691502866616,16.462772098956936,67.73500631135842,58.89599800686315,-0.0001618862152099,0.1052602156996727,0,0,0
5561,209625.29879521465,2011-01-12 22:01:32,1524.271330737762,7,23,-1.099568486213684,3.501116275787353,16.753691502866616,16.471940220070675,67.73500631135842,58.92811592359641,-9.713172767078504e-05,0.1052602156996727,0,0,0
5562,209655.3138351345,2011-01-12 22:02:02,1554.2863705523766,7,23,-1.099568486213684,3.4960978031158447,16.753691502866616,16.48110829087688,67.73500631135842,58.96019185427782,-0.0001618862152099,0.1052602156996727,0,0,0
5563,209685.3291831473,2011-01-12 22:02:32,1584.3017185400536,7,23,-1.0993878841400146,3.4918887615203857,16.753691502866616,16.490276515709844,67.73500631135842,58.992225849332286,-9.713172767078504e-05,0.1052602156996727,0,0,0
5564,209715.34421052583,2011-01-12 22:03:02,1614.316745948749,7,23,-1.099568486213684,3.487032175064087,16.753691502866616,16.499444592399335,67.73500631135842,59.02421687067599,-0.0001295089750783,0.1052602156996727,0,0,0
5565,209745.35919492235,2011-01-12 22:03:32,1644.331730345245,7,23,-1.0997490882873535,3.482337474822998,16.753691502866616,16.508612659031265,67.73500631135842,59.056164334047054,-0.0001295089750783,0.1052602156996727,0,0,0
5566,209775.3743201348,2011-01-12 22:04:02,1674.346855527623,7,23,-1.0997490882873535,3.4773190021514893,16.753691502866616,16.517780666428816,67.73500631135842,59.08806703764216,-0.0001295089750783,0.1052602156996727,0,0,0
5567,209805.38946274063,2011-01-12 22:04:32,1704.3619981584873,7,23,-1.099568486213684,3.4721386432647705,16.753691502866616,16.526948753102964,67.73500631135842,59.11992443701156,-0.0001295089750783,0.1052602156996727,0,0,0
5568,209835.40458364732,2011-01-12 22:05:02,1734.3771190551836,7,23,-1.099568486213684,3.4671201705932617,16.753691502866616,16.536116821647987,67.73500631135842,59.15173461795846,-9.713172767078504e-05,0.1052602156996727,0,0,0
5569,209865.41967100045,2011-01-12 22:05:32,1764.3922064032663,7,23,-1.0997490882873535,3.461454153060913,16.753691502866616,16.545284876058716,67.73500631135842,59.18349550099326,-0.0001618862152099,0.1052602156996727,0,0,0
5570,209895.4348036514,2011-01-12 22:06:02,1794.4073390442334,7,23,-1.0997490882873535,3.4556262493133545,16.753691502866616,16.55445305396091,67.73500631135842,59.21520513653379,-0.0001618862152099,0.1052602156996727,0,0,0
5571,209925.45009817585,2011-01-12 22:06:32,1824.422633593726,7,23,-1.0997490882873535,3.449636459350586,16.753691502866616,16.56362121557476,67.73500631135842,59.246860789220285,-0.0001618862152099,0.1052602156996727,0,0,0
5572,209955.46504711892,2011-01-12 22:07:02,1854.4375825168115,7,23,-1.0997490882873535,3.4434847831726074,16.753691502866616,16.572789297019984,67.73500631135842,59.27846005926427,-0.0001618862152099,0.1052602156996727,0,0,0
5573,209985.48016872245,2011-01-12 22:07:32,1884.4527041152564,7,23,-1.0997490882873535,3.436523675918579,16.753691502866616,16.581957421659112,67.73500631135842,59.30999926515012,-0.0002266406954731,0.1052602156996727,0,0,0
5574,210015.49528197508,2011-01-12 22:08:02,1914.467817392964,7,23,-1.0993878841400146,3.42956280708313,16.753691502866616,16.591125535468134,67.73500631135842,59.34147422538574,-0.0001618862152099,0.1052602156996727,0,0,0
5575,210045.51071537065,2011-01-12 22:08:32,1944.4832507784784,7,23,-1.099568486213684,3.421306610107422,16.753691502866616,16.60029373880233,67.73500631135842,59.372879522377,-0.0002590179501567,0.1052602156996727,0,0,0
5576,210075.5255184252,2011-01-12 22:09:02,1974.4980538179773,7,23,-1.0993878841400146,3.412564754486084,16.753691502866616,16.609461752895466,67.73500631135842,59.404205966718514,-0.0002590179501567,0.1052602156996727,0,0,0
5577,210105.54063316152,2011-01-12 22:09:32,2004.51316855432,7,23,-1.0997490882873535,3.4022040367126465,16.753691502866616,16.618629883226987,67.73500631135842,59.4354450589919,-0.0002590179501567,0.1052602156996727,0,0,0
5578,210135.55576792275,2011-01-12 22:10:02,2034.5283033155715,7,23,-1.099568486213684,3.3900625705718994,16.753691502866616,16.627798022190394,67.73500631135842,59.46658326034652,-0.0003561496851034,0.1052602156996727,0,0,0
5579,210165.5710330339,2011-01-12 22:10:32,2064.543568441732,7,23,-1.0997490882873535,3.3761403560638428,16.753691502866616,16.636966263975847,67.73500631135842,59.49760290882136,-0.0004209041653666,0.1052602156996727,0,0,0
5580,210195.586001626,2011-01-12 22:11:02,2094.558537043863,7,23,-1.099568486213684,3.359142303466797,16.753691502866616,16.646134410769577,67.73500631135842,59.528480054708,-0.0004856586456298,0.1052602156996727,0,0,0
5581,210225.601096974,2011-01-12 22:11:32,2124.573632366822,7,23,-1.099568486213684,3.338259220123291,16.753691502866616,16.655302452290822,67.73500631135842,59.55918446373505,-0.0006151676061563,0.1052602156996727,0,0,0
5582,210255.61637203497,2011-01-12 22:12:02,2154.588907467843,7,23,-1.0993878841400146,3.3121955394744877,16.753691502866616,16.664470562209704,67.73500631135842,59.58967459841032,-0.0007446765666827,0.1052602156996727,0,0,0
5583,210285.63140711776,2011-01-12 22:12:32,2184.6039425105646,7,23,-1.099568486213684,3.2786850929260254,16.753691502866616,16.673638587619163,67.73500631135842,59.61989325024491,-0.0009713172912597,0.1052602156996727,0,0,0
5584,210315.64662769792,2011-01-12 22:13:02,2214.619163110753,7,23,-1.099568486213684,3.235137939453125,16.753691502866616,16.682806717996876,67.73500631135842,59.6497620212539,-0.0012950897216796,0.1052602156996727,0,0,0
5585,210345.66161604927,2011-01-12 22:13:32,2244.634151447068,7,23,-1.099568486213684,3.177506685256958,16.753691502866616,16.691974821228865,67.73500631135842,59.67917091955238,-0.0017159938579425,0.1052602156996727,0,0,0
5586,210375.67689060897,2011-01-12 22:14:02,2274.6494260167647,7,23,-1.099568486213684,3.098344564437866,16.753691502866616,16.70114302744839,67.73500631135842,59.70795984216318,-0.0024282454978674,0.1052602156996727,0,0,0
5587,210405.691898915,2011-01-12 22:14:32,2304.664434317838,7,23,-1.099568486213684,2.983405590057373,16.753691502866616,16.71031114149562,67.73500631135842,59.7358749410433,-0.0036262511275708,0.1052602156996727,0,0,0
5588,210435.7069917768,2011-01-12 22:15:02,2334.6795271696383,7,23,-1.099568486213684,2.8118066787719727,16.753691502866616,16.719479258249017,67.73500631135842,59.76248932064619,-0.0052774907089769,0.1052602156996727,0,0,0
5589,210451.5192277492,2011-01-12 22:15:18,2350.491763167047,7,23,-1.099568486213684,2.699943780899048,16.753691502866616,16.724309095022736,67.73500631135842,59.77580390214145,-0.0058278562501072,0.1052602156996727,0,0,0
5590,210511.54190700236,2011-01-12 22:16:18,60.014749130910886,8,23,0.0,3.564413547515869,16.753691502866616,16.724309095022736,67.73500631135842,59.77580390214145,0.0012627125252038,0.1052602156996727,0,0,0
5591,210511.72258231428,2011-01-12 22:16:19,0.187502122983436,9,23,-1.9243103452026844e-05,3.564575433731079,16.753691502866616,16.724309096024992,67.73500631135842,59.77580390571406,0.0,0.10130325704813,0,0,0
5592,210516.55066804448,2011-01-12 22:16:23,5.015587878250408,9,23,0.0001613661734154,3.572507858276367,16.753692283286327,16.724309096192087,67.73500909677227,59.77580390630969,0.0011332035064697,0.10130325704813,0,0,0
