Data_Point,Test_Time(s),Date_Time,Step_Time(s),Step_Index,Cycle_Index,Current(A),Voltage(V),Charge_Capacity(Ah),Discharge_Capacity(Ah),Charge_Energy(Wh),Discharge_Energy(Wh),dV/dt(V/s),Internal_Resistance(Ohm),Is_FC_Data,AC_Impedance(Ohm),ACI_Phase_Angle(Deg)
2459,90873.34212248772,2011-01-11 13:02:04,30.01515130748944,1,11,0.0,3.581735372543335,7.334492253865547,7.334959115702933,29.61404996985359,26.244002808656976,0.0007770538213662,0.1018374562263488,0,0,0
2460,90903.35729727872,2011-01-11 13:02:34,60.03032608346957,1,11,0.0,3.60456109046936,7.334492253865547,7.334959115702933,29.61404996985359,26.244002808656976,0.0005504131549969,0.1018374562263488,0,0,0
2461,90933.3726349206,2011-01-11 13:03:05,90.04566375042414,1,11,0.0,3.6209115982055664,7.334492253865547,7.334959115702933,29.61404996985359,26.244002808656976,0.0004209041653666,0.1018374562263488,0,0,0
2462,90963.34075667098,2011-01-11 13:03:34,120.01378549577409,1,11,0.0,3.633214950561523,7.334492253865547,7.334959115702933,29.61404996985359,26.244002808656976,0.0002590179501567,0.1018374562263488,0,0,0
2463,90993.35894730996,2011-01-11 13:04:05,30.01515898662821,2,11,0.550297200679779,3.759323835372925,7.339078879348524,7.334959115702933,29.6311928285098,26.244002808656976,0.0009713172912597,0.1018374562263488,0,0,0
2464,91023.37422252628,2011-01-11 13:04:35,60.03043421296153,2,11,0.5501165986061096,3.784578084945679,7.343665504919194,7.334959115702933,29.64849871009965,26.244002808656976,0.0005180359003134,0.1018374562263488,0,0,0
2465,91053.38925220062,2011-01-11 13:05:05,90.04546387727876,2,11,0.5501165986061096,3.799471616744995,7.348252145413235,7.334959115702933,29.665894188036315,26.244002808656976,0.0003237724304199,0.1018374562263488,0,0,0
2466,91083.40446774825,2011-01-11 13:05:35,120.06067942487428,2,11,0.5499359965324402,3.809670448303223,7.352838810818299,7.334959115702933,29.68334549669452,26.244002808656976,0.0002590179501567,0.1018374562263488,0,0,0
2467,91113.41970017288,2011-01-11 13:06:05,150.07591185955766,2,11,0.5501165986061096,3.81792664527893,7.35742546796974,7.334959115702933,29.700838397164965,26.244002808656976,0.0001942634553415,0.1018374562263488,0,0,0
2468,91143.43472121572,2011-01-11 13:06:35,180.0909328923625,2,11,0.5501165986061096,3.825049638748169,7.362012065631816,7.334959115702933,29.718366424530178,26.244002808656976,0.0001618862152099,0.1018374562263488,0,0,0
2469,91173.45002244184,2011-01-11 13:07:05,210.1062341335328,2,11,0.5501165986061096,3.832010746002197,7.366598631112413,7.334959115702933,29.735926275937317,26.244002808656976,0.0002266406954731,0.1018374562263488,0,0,0
2470,91203.4650513994,2011-01-11 13:07:35,240.1212630660261,2,11,0.5499359965324402,3.8380002975463863,7.371185112564973,7.334959115702933,29.753515417797686,26.244002808656976,0.0001618862152099,0.1018374562263488,0,0,0
2471,91233.48018954908,2011-01-11 13:08:05,270.13640123075976,2,11,0.5501165986061096,3.843828201293945,7.375771744848423,7.334959115702933,29.77113262761913,26.244002808656976,0.0001618862152099,0.1018374562263488,0,0,0
2472,91263.49547278036,2011-01-11 13:08:35,300.1516845522687,2,11,0.5501165986061096,3.849494218826294,7.380358227660487,7.334959115702933,29.78877522122703,26.244002808656976,0.0001295089750783,0.1018374562263488,0,0,0
2473,91293.51051786813,2011-01-11 13:09:05,330.16672953977604,2,11,0.5499359965324402,3.8546745777130127,7.384943925159998,7.334959115702933,29.806439559313407,26.244002808656976,0.0001295089750783,0.1018374562263488,0,0,0
2474,91323.527970812,2011-01-11 13:09:35,360.18418249367653,2,11,0.5501165986061096,3.859854936599731,7.389530025992963,7.334959115702933,29.82412945640647,26.244002808656976,0.0001295089750783,0.1018374562263488,0,0,0
2475,91353.54084289396,2011-01-11 13:10:05,390.1970545605972,2,11,0.5499359965324402,3.86454963684082,7.39411623518932,7.334959115702933,29.84184307650182,26.244002808656976,9.713172767078504e-05,0.1018374562263488,0,0,0
2476,91383.55599607113,2011-01-11 13:10:35,420.2122077427589,2,11,0.550297200679779,3.869406223297119,7.398702803986813,7.334959115702933,29.85958030905978,26.244002808656976,6.47544875391759e-05,0.1018374562263488,0,0,0
2477,91413.57115512287,2011-01-11 13:11:05,450.2273667945496,2,11,0.5501165986061096,3.874100923538208,7.403289352277256,7.334959115702933,29.877339069387283,26.244002808656976,0.0001295089750783,0.1018374562263488,0,0,0
2478,91443.58653527574,2011-01-11 13:11:35,480.2427469423794,2,11,0.5501165986061096,3.878795623779297,7.407875953812133,7.334959115702933,29.89511897583744,26.244002808656976,0.0001295089750783,0.1018374562263488,0,0,0
2479,91473.60150056462,2011-01-11 13:12:05,510.2577122412782,2,11,0.550297200679779,3.883166551589966,7.412462504404315,7.334959115702933,29.912919204906533,26.244002808656976,0.0001295089750783,0.1018374562263488,0,0,0
2480,91503.61666160636,2011-01-11 13:12:35,540.272873288041,2,11,0.5499359965324402,3.8875374794006343,7.417049063639754,7.334959115702933,29.930739545469265,26.244002808656976,0.0001295089750783,0.1018374562263488,0,0,0
2481,91533.63181158052,2011-01-11 13:13:05,570.2880232571949,2,11,0.5501165986061096,3.8917465209960938,7.421635640304611,7.334959115702933,29.948579538825367,26.244002808656976,6.47544875391759e-05,0.1018374562263488,0,0,0
2482,91563.6472116831,2011-01-11 13:13:35,600.3034233597582,2,11,0.5501165986061096,3.895469903945923,7.426222299060743,7.334959115702933,29.96643857348771,26.244002808656976,0.0001295089750783,0.1018374562263488,0,0,0
2483,91593.66210712287,2011-01-11 13:14:05,630.3183187895215,2,11,0.5501165986061096,3.899517059326172,7.430808808652228,7.334959115702933,29.98431482981855,26.244002808656976,9.713172767078504e-05,0.1018374562263488,0,0,0
2484,91623.67725883138,2011-01-11 13:14:35,660.3334704980105,2,11,0.5501165986061096,3.903240442276001,7.435395390356736,7.334959115702933,30.002208721394737,26.244002808656976,0.0001295089750783,0.1018374562263488,0,0,0
2485,91653.6924732311,2011-01-11 13:15:05,690.3486849979951,2,11,0.5501165986061096,3.90680193901062,7.439981993550648,7.334959115702933,30.02011918308288,26.244002808656976,0.0001295089750783,0.1018374562263488,0,0,0
2486,91683.70758857898,2011-01-11 13:15:35,720.3638002506246,2,11,0.5501165986061096,3.9100396633148193,7.444568552277033,7.334959115702933,30.038045189332657,26.244002808656976,9.713172767078504e-05,0.1018374562263488,0,0,0
2487,91713.72276621206,2011-01-11 13:16:05,750.3789779037755,2,11,0.5501165986061096,3.9131155014038086,7.449155139963994,7.334959115702933,30.055986227321537,26.244002808656976,9.713172767078504e-05,0.1018374562263488,0,0,0
2488,91743.7380160702,2011-01-11 13:16:35,780.394227736821,2,11,0.5501165986061096,3.9163529872894287,7.453741692723247,7.334959115702933,30.07394130691445,26.244002808656976,0.0001295089750783,0.1018374562263488,0,0,0
2489,91773.75304813548,2011-01-11 13:17:05,810.4092598071347,2,11,0.5497553944587708,3.919105052947998,7.458328209226313,7.334959115702933,30.091909837742893,26.244002808656976,6.47544875391759e-05,0.1018374562263488,0,0,0
2490,91803.768247207,2011-01-11 13:17:35,840.4244588736544,2,11,0.5501165986061096,3.921857118606568,7.462914819364158,7.334959115702933,30.10989186629494,26.244002808656976,3.237724376958795e-05,0.1018374562263488,0,0,0
2491,91833.7833664546,2011-01-11 13:18:05,870.4395781262531,2,11,0.5501165986061096,3.9246091842651367,7.467501315649808,7.334959115702933,30.12788590452829,26.244002808656976,6.47544875391759e-05,0.1018374562263488,0,0,0
2492,91863.79879302312,2011-01-11 13:18:35,900.4550046997903,2,11,0.5501165986061096,3.927037477493286,7.472087885371392,7.334959115702933,30.145892234616955,26.244002808656976,3.237724376958795e-05,0.1018374562263488,0,0,0
2493,91893.81367809208,2011-01-11 13:19:05,930.4698897687312,2,11,0.5499359965324402,3.929789543151856,7.476674453542237,7.334959115702933,30.16391035502922,26.244002808656976,6.47544875391759e-05,0.1018374562263488,0,0,0
2494,91923.82905604444,2011-01-11 13:19:35,960.4852677361272,2,11,0.5499359965324402,3.932055950164795,7.481261069407607,7.334959115702933,30.18194015473809,26.244002808656976,3.237724376958795e-05,0.1018374562263488,0,0,0
2495,91953.84399135358,2011-01-11 13:20:05,990.5002030302446,2,11,0.550297200679779,3.9346461296081534,7.485847674091878,7.334959115702933,30.1999811667263,26.244002808656976,9.713172767078504e-05,0.1018374562263488,0,0,0
2496,91983.85927533174,2011-01-11 13:20:35,1020.5154870134028,2,11,0.5501165986061096,3.9369125366210938,7.490434219327003,7.334959115702933,30.21803289085568,26.244002808656976,6.47544875391759e-05,0.1018374562263488,0,0,0
2497,92013.87431921148,2011-01-11 13:21:05,1050.530530883124,2,11,0.5499359965324402,3.939178943634033,7.495020790225704,7.334959115702933,30.236095559880862,26.244002808656976,3.237724376958795e-05,0.1018374562263488,0,0,0
2498,92043.8894828948,2011-01-11 13:21:35,1080.5456945714704,2,11,0.5501165986061096,3.941607236862183,7.499607334808091,7.334959115702933,30.254168800988325,26.244002808656976,3.237724376958795e-05,0.1018374562263488,0,0,0
2499,92073.9047474746,2011-01-11 13:22:05,1110.5609591663067,2,11,0.550297200679779,3.944035530090332,7.504193916977329,7.334959115702933,30.27225275237444,26.244002808656976,9.713172767078504e-05,0.1018374562263488,0,0,0
2500,92103.91978175045,2011-01-11 13:22:35,1140.575993437105,2,11,0.550297200679779,3.946301937103272,7.50878048322148,7.334959115702933,30.290347170180173,26.244002808656976,3.237724376958795e-05,0.1018374562263488,0,0,0
2501,92133.935018556,2011-01-11 13:23:05,1170.5912303429316,2,11,0.5501165986061096,3.948406457901001,7.513367067439531,7.334959115702933,30.308451949952904,26.244002808656976,3.237724376958795e-05,0.1018374562263488,0,0,0
2502,92163.9501099241,2011-01-11 13:23:35,1200.6063216157963,2,11,0.5501165986061096,3.950672864913941,7.51795360569067,7.334959115702933,30.326566923397323,26.244002808656976,3.237724376958795e-05,0.1018374562263488,0,0,0
2503,92193.96526441954,2011-01-11 13:24:05,1230.6214761112312,2,11,0.5499359965324402,3.95277738571167,7.522540139410699,7.334959115702933,30.344692161064675,26.244002808656976,3.237724376958795e-05,0.1018374562263488,0,0,0
2504,92223.98041129098,2011-01-11 13:24:35,1260.6366229826644,2,11,0.5501165986061096,3.9552056789398193,7.527126738961736,7.334959115702933,30.362827837690592,26.244002808656976,6.47544875391759e-05,0.1018374562263488,0,0,0
2505,92253.99580722814,2011-01-11 13:25:05,1290.6520190351337,2,11,0.5501165986061096,3.957310199737549,7.531713377578381,7.334959115702933,30.380973797992844,26.244002808656976,6.47544875391759e-05,0.1018374562263488,0,0,0
2506,92284.0107363569,2011-01-11 13:25:35,1320.6669480335606,2,11,0.5501165986061096,3.959576606750488,7.536299934984749,7.334959115702933,30.39912943459229,26.244002808656976,6.47544875391759e-05,0.1018374562263488,0,0,0
2507,92314.02589404029,2011-01-11 13:26:05,1350.682105716941,2,11,0.550297200679779,3.9616811275482178,7.540886494458462,7.334959115702933,30.41729505997994,26.244002808656976,3.237724376958795e-05,0.1018374562263488,0,0,0
2508,92344.04106220478,2011-01-11 13:26:35,1380.6972738964805,2,11,0.550297200679779,3.963947534561157,7.545473083294831,7.334959115702933,30.43547063674179,26.244002808656976,9.713172767078504e-05,0.1018374562263488,0,0,0
2509,92374.05621121151,2011-01-11 13:27:05,1410.7124228881985,2,11,0.5501165986061096,3.966052055358887,7.550059680860082,7.334959115702933,30.453656125868832,26.244002808656976,6.47544875391759e-05,0.1018374562263488,0,0,0
2510,92404.07168312308,2011-01-11 13:27:35,1440.727894809757,2,11,0.5499359965324402,3.9679946899414062,7.554646357470657,7.334959115702933,30.47185170431989,26.244002808656976,6.47544875391759e-05,0.1018374562263488,0,0,0
2511,92434.08652775624,2011-01-11 13:28:05,1470.7427394429194,2,11,0.5501165986061096,3.970422983169556,7.559232936476367,7.334959115702933,30.490056684380104,26.244002808656976,9.713172767078504e-05,0.1018374562263488,0,0,0
2512,92464.10169251224,2011-01-11 13:28:35,1500.7579041788767,2,11,0.5504778623580933,3.972365617752075,7.563819619910551,7.334959115702933,30.508271882583536,26.244002808656976,3.237724376958795e-05,0.1018374562263488,0,0,0
2513,92494.11910558675,2011-01-11 13:29:05,1530.7753172583978,2,11,0.5501165986061096,3.9744701385498047,7.568406653942219,7.334959115702933,30.526498167502737,26.244002808656976,6.47544875391759e-05,0.1018374562263488,0,0,0
2514,92524.13204012436,2011-01-11 13:29:35,1560.7882518260897,2,11,0.5501165986061096,3.976574659347534,7.572992920304543,7.334959115702933,30.544731047114556,26.244002808656976,6.47544875391759e-05,0.1018374562263488,0,0,0
2515,92554.14719661982,2011-01-11 13:30:05,1590.803408311484,2,11,0.5501165986061096,3.9788410663604736,7.577579618817689,7.334959115702933,30.562974957379524,26.244002808656976,0.0001295089750783,0.1018374562263488,0,0,0
2516,92584.1622690958,2011-01-11 13:30:35,1620.8184807925136,2,11,0.5501165986061096,3.980783700942993,7.582166458321971,7.334959115702933,30.581229506286267,26.244002808656976,3.237724376958795e-05,0.1018374562263488,0,0,0
2517,92614.177963161,2011-01-11 13:31:05,1650.8341748276473,2,11,0.5501165986061096,3.9827263355255127,7.586753969559753,7.334959115702933,30.599496431210472,26.244002808656976,0.0,0.1018374562263488,0,0,0
2518,92644.19263369527,2011-01-11 13:31:35,1680.848845361902,2,11,0.550297200679779,3.985154628753662,7.59134116489543,7.334959115702933,30.617771684876228,26.244002808656976,9.713172767078504e-05,0.1018374562263488,0,0,0
2519,92674.20777525344,2011-01-11 13:32:06,1710.8639870053055,2,11,0.5501165986061096,3.9870972633361816,7.595928610283751,7.334959115702933,30.636057621011755,26.244002808656976,3.237724376958795e-05,0.1018374562263488,0,0,0
2520,92704.22293708216,2011-01-11 13:32:36,1740.8791487488047,2,11,0.550297200679779,3.989363670349121,7.600516018812535,7.334959115702933,30.65435303782301,26.244002808656976,6.47544875391759e-05,0.1018374562263488,0,0,0
2521,92734.23808111151,2011-01-11 13:33:06,1770.8942927731423,2,11,0.5501165986061096,3.9913063049316406,7.605103368359555,7.334959115702933,30.67265789184669,26.244002808656976,6.47544875391759e-05,0.1018374562263488,0,0,0
2522,92764.25328732084,2011-01-11 13:33:36,1800.9094989874766,2,11,0.5499359965324402,3.99357271194458,7.609690625380485,7.334959115702933,30.69097219699747,26.244002808656976,9.713172767078504e-05,0.1018374562263488,0,0,0
2523,92794.26869005998,2011-01-11 13:34:06,1830.9249018268608,2,11,0.5499359965324402,3.9956769943237305,7.614277324794946,7.334959115702933,30.70929402601122,26.244002808656976,6.47544875391759e-05,0.1018374562263488,0,0,0
2524,92824.28356208642,2011-01-11 13:34:36,1860.939773753046,2,11,0.5501165986061096,3.99778151512146,7.618863991475103,7.334959115702933,30.72762560987149,26.244002808656976,6.47544875391759e-05,0.1018374562263488,0,0,0
2525,92854.29884846052,2011-01-11 13:35:06,1890.9550601422009,2,11,0.5499359965324402,3.99972414970398,7.62345061225542,7.334959115702933,30.74596676579313,26.244002808656976,3.237724376958795e-05,0.1018374562263488,0,0,0
2526,92884.31394582358,2011-01-11 13:35:36,1920.9701574902065,2,11,0.5501165986061096,4.002152442932129,7.628037173647933,7.334959115702933,30.76431768151963,26.244002808656976,6.47544875391759e-05,0.1018374562263488,0,0,0
2527,92914.32917440866,2011-01-11 13:36:06,1950.985386095345,2,11,0.5501165986061096,4.0042572021484375,7.632623849067139,7.334959115702933,30.782679065933973,26.244002808656976,3.24249267578125e-05,0.1018374562263488,0,0,0
2528,92944.34435139516,2011-01-11 13:36:36,1981.00056309186,2,11,0.5501165986061096,4.006361484527588,7.637210534147633,7.334959115702933,30.80105045218476,26.244002808656976,3.23295607813634e-05,0.1018374562263488,0,0,0
2529,92974.35952766986,2011-01-11 13:37:06,2011.0157393766,2,11,0.5501165986061096,4.008627891540527,7.641797277439417,7.334959115702933,30.81943206801826,26.244002808656976,3.23295607813634e-05,0.1018374562263488,0,0,0
2530,93004.37454764002,2011-01-11 13:37:36,2041.030759311669,2,11,0.5501165986061096,4.010894298553467,7.646383951516594,7.334959115702933,30.837823427588337,26.244002808656976,9.70840483205393e-05,0.1018374562263488,0,0,0
2531,93034.38981164338,2011-01-11 13:38:06,2071.0460233300687,2,11,0.550297200679779,4.013160705566406,7.650970677191913,7.334959115702933,30.85622530937664,26.244002808656976,6.47544875391759e-05,0.1018374562263488,0,0,0
2532,93064.40497388312,2011-01-11 13:38:36,2101.061185569805,2,11,0.5501165986061096,4.015265464782715,7.655557331101067,7.334959115702933,30.874637340649866,26.244002808656976,0.0,0.1018374562263488,0,0,0
2533,93094.42002846955,2011-01-11 13:39:06,2131.0762401662605,2,11,0.5499359965324402,4.017531871795654,7.660144024947203,7.334959115702933,30.89306006111083,26.244002808656976,0.0,0.1018374562263488,0,0,0
2534,93124.43518109534,2011-01-11 13:39:36,2161.091392787023,2,11,0.550297200679779,4.019959926605225,7.664730702924616,7.334959115702933,30.91149317501417,26.244002808656976,3.23295607813634e-05,0.1018374562263488,0,0,0
2535,93154.45033639776,2011-01-11 13:40:06,2191.106548099494,2,11,0.5501165986061096,4.022226333618164,7.669317320205002,7.334959115702933,30.929936787035032,26.244002808656976,3.23295607813634e-05,0.1018374562263488,0,0,0
2536,93184.46550824144,2011-01-11 13:40:36,2221.121719933141,2,11,0.5501165986061096,4.024816513061523,7.673903930768367,7.334959115702933,30.948391164546297,26.244002808656976,9.70840483205393e-05,0.1018374562263488,0,0,0
2537,93214.48064455156,2011-01-11 13:41:06,2251.136856243252,2,11,0.5499359965324402,4.026921272277832,7.678490573759332,7.334959115702933,30.96685660097753,26.244002808656976,0.0,0.1018374562263488,0,0,0
2538,93244.49803879412,2011-01-11 13:41:36,2281.1542505910884,2,11,0.5501165986061096,4.029511451721191,7.683077649138305,7.334959115702933,30.98533484824421,26.244002808656976,3.24249267578125e-05,0.1018374562263488,0,0,0
2539,93274.510978244,2011-01-11 13:42:06,2311.167189910623,2,11,0.5501165986061096,4.032101631164551,7.687663970392197,7.334959115702933,31.00382111598572,26.244002808656976,9.71794142969884e-05,0.1018374562263488,0,0,0
2540,93304.526135777,2011-01-11 13:42:36,2341.182347468691,2,11,0.5501165986061096,4.034367561340332,7.692250759332345,7.334959115702933,31.02232058740347,26.244002808656976,6.46591215627268e-05,0.1018374562263488,0,0,0
2541,93334.54129624231,2011-01-11 13:43:06,2371.1975079139547,2,11,0.5501165986061096,4.036957740783691,7.696837495653488,7.334959115702933,31.040831187534017,26.244002808656976,6.47544875391759e-05,0.1018374562263488,0,0,0
2542,93364.55667287136,2011-01-11 13:43:36,2401.2128845680777,2,11,0.5499359965324402,4.039224147796631,7.701424243663652,7.334959115702933,31.05935327980348,26.244002808656976,3.23295607813634e-05,0.1018374562263488,0,0,0
2543,93394.57164257125,2011-01-11 13:44:06,2431.227854242882,2,11,0.550297200679779,4.041976451873779,7.706010923197624,7.334959115702933,31.07788648826857,26.244002808656976,6.47544875391759e-05,0.1018374562263488,0,0,0
2544,93424.58687109116,2011-01-11 13:44:36,2461.243082782859,2,11,0.5501165986061096,4.044566631317139,7.710597556056434,7.334959115702933,31.096431232651028,26.244002808656976,6.47544875391759e-05,0.1018374562263488,0,0,0
2545,93454.6019123945,2011-01-11 13:45:06,2491.258124066134,2,11,0.5501165986061096,4.047156810760498,7.715184206336871,7.334959115702933,31.1149877954784,26.244002808656976,9.71794142969884e-05,0.1018374562263488,0,0,0
2546,93484.61707403771,2011-01-11 13:45:36,2521.273285699358,2,11,0.5499359965324402,4.049584865570068,7.71977093849392,7.334959115702933,31.13355666437397,26.244002808656976,0.0,0.1018374562263488,0,0,0
2547,93514.6322478463,2011-01-11 13:46:06,2551.288459517953,2,11,0.5501165986061096,4.052337169647217,7.724357679876426,7.334959115702933,31.15213760864396,26.244002808656976,3.24249267578125e-05,0.1018374562263488,0,0,0
2548,93544.64739287816,2011-01-11 13:46:36,2581.303604539776,2,11,0.550297200679779,4.055251121520996,7.728944387224438,7.334959115702933,31.17073064543111,26.244002808656976,9.71794142969884e-05,0.1018374562263488,0,0,0
2549,93574.66255456152,2011-01-11 13:47:06,2611.318766228138,2,11,0.5499359965324402,4.057517528533936,7.733531099740607,7.334959115702933,31.189335996301736,26.244002808656976,3.24249267578125e-05,0.1018374562263488,0,0,0
2550,93604.67778430448,2011-01-11 13:47:36,2641.3339959761247,2,11,0.550297200679779,4.060431480407715,7.738117832930786,7.334959115702933,31.207953927512367,26.244002808656976,6.47544875391759e-05,0.1018374562263488,0,0,0
2551,93634.6928739984,2011-01-11 13:48:06,2671.349085665042,2,11,0.5501165986061096,4.063183307647705,7.742704592924685,7.334959115702933,31.226584119341503,26.244002808656976,9.70840483205393e-05,0.1018374562263488,0,0,0
2552,93664.70816149532,2011-01-11 13:48:36,2701.3643731619577,2,11,0.550297200679779,4.066097259521484,7.74729138355579,7.334959115702933,31.24522724777124,26.244002808656976,0.0001295089750783,0.1018374562263488,0,0,0
2553,93694.72319578618,2011-01-11 13:49:06,2731.379407452805,2,11,0.5501165986061096,4.068687438964844,7.751878015987222,7.334959115702933,31.26388251720341,26.244002808656976,9.70840483205393e-05,0.1018374562263488,0,0,0
2554,93724.73836521884,2011-01-11 13:49:36,2761.394576905518,2,11,0.5501165986061096,4.071601390838623,7.75646471507627,7.334959115702933,31.28255096101537,26.244002808656976,0.0001295089750783,0.1018374562263488,0,0,0
2555,93754.75350424073,2011-01-11 13:50:06,2791.409715922376,2,11,0.5499359965324402,4.074353694915772,7.76105141568538,7.334959115702933,31.30123254385297,26.244002808656976,9.71794142969884e-05,0.1018374562263488,0,0,0
2556,93784.7689754154,2011-01-11 13:50:36,2821.4251870970725,2,11,0.550297200679779,4.077429294586182,7.765638087637941,7.334959115702933,31.319927345358945,26.244002808656976,9.70840483205393e-05,0.1018374562263488,0,0,0
2557,93814.78385299067,2011-01-11 13:51:06,2851.4400646923878,2,11,0.5501165986061096,4.080343246459961,7.770224717977281,7.334959115702933,31.33863527818373,26.244002808656976,9.70840483205393e-05,0.1018374562263488,0,0,0
2558,93844.79900346608,2011-01-11 13:51:36,2881.455215152765,2,11,0.5501165986061096,4.083095550537109,7.774811430074972,7.334959115702933,31.35735680663237,26.244002808656976,9.71794142969884e-05,0.1018374562263488,0,0,0
2559,93874.81415067836,2011-01-11 13:52:06,2911.4703623650485,2,11,0.5499359965324402,4.08617115020752,7.779398121497833,7.334959115702933,31.376091791775057,26.244002808656976,6.47544875391759e-05,0.1018374562263488,0,0,0
2560,93904.82944153866,2011-01-11 13:52:36,2941.4856532253466,2,11,0.550297200679779,4.089085102081299,7.783984781169515,7.334959115702933,31.3948402832001,26.244002808656976,6.47544875391759e-05,0.1018374562263488,0,0,0
2561,93934.84446849625,2011-01-11 13:53:06,2971.5006801728923,2,11,0.550297200679779,4.091999053955078,7.788571436363768,7.334959115702933,31.413602509209937,26.244002808656976,6.47544875391759e-05,0.1018374562263488,0,0,0
2562,93964.859634365,2011-01-11 13:53:36,3001.515846051698,2,11,0.5501165986061096,4.095236778259277,7.793158121357459,7.334959115702933,31.43237871112307,26.244002808656976,9.70840483205393e-05,0.1018374562263488,0,0,0
2563,93994.8747954619,2011-01-11 13:54:06,3031.531007133548,2,11,0.550297200679779,4.098312854766846,7.797744827606945,7.334959115702933,31.45116898359441,26.244002808656976,9.71794142969884e-05,0.1018374562263488,0,0,0
2564,94024.88996975668,2011-01-11 13:54:36,3061.5461814233167,2,11,0.5501165986061096,4.101388454437256,7.802331545671247,7.334959115702933,31.469973429535266,26.244002808656976,9.70840483205393e-05,0.1018374562263488,0,0,0
2565,94054.9051123274,2011-01-11 13:55:06,3091.561323994031,2,11,0.5499359965324402,4.104302406311035,7.806918299106693,7.334959115702933,31.48879227266068,26.244002808656976,9.70840483205393e-05,0.1018374562263488,0,0,0
2566,94084.9204026614,2011-01-11 13:55:36,3121.57661435308,2,11,0.550297200679779,4.107540130615234,7.811505049343879,7.334959115702933,31.50762553459753,26.244002808656976,6.47544875391759e-05,0.1018374562263488,0,0,0
2567,94114.93543447104,2011-01-11 13:56:06,3151.591646137682,2,11,0.550297200679779,4.110777854919434,7.816091723209802,7.334959115702933,31.52647303177094,26.244002808656976,6.47544875391759e-05,0.1018374562263488,0,0,0
2568,94144.9505877685,2011-01-11 13:56:36,3181.606799430118,2,11,0.5501165986061096,4.114015579223633,7.820678452964569,7.334959115702933,31.54533536456412,26.244002808656976,9.70840483205393e-05,0.1018374562263488,0,0,0
2569,94174.96587194712,2011-01-11 13:57:06,3211.622083628813,2,11,0.5501165986061096,4.117091178894043,7.825265249472433,7.334959115702933,31.56421282934072,26.244002808656976,6.47544875391759e-05,0.1018374562263488,0,0,0
2570,94204.98091860884,2011-01-11 13:57:36,3241.6371302754555,2,11,0.550297200679779,4.120652675628662,7.82985196419379,7.334959115702933,31.583104849955603,26.244002808656976,0.0001295089750783,0.1018374562263488,0,0,0
2571,94234.99609182093,2011-01-11 13:58:06,3271.6523035075884,2,11,0.550297200679779,4.123890399932861,7.834438741169779,7.334959115702933,31.60201221748697,26.244002808656976,9.70840483205393e-05,0.1018374562263488,0,0,0
2572,94265.0112245521,2011-01-11 13:58:36,3301.6674362187296,2,11,0.5501165986061096,4.1271281242370605,7.839025453654212,7.334959115702933,31.620934434764973,26.244002808656976,9.70840483205393e-05,0.1018374562263488,0,0,0
2573,94295.02639475168,2011-01-11 13:59:06,3331.682606418304,2,11,0.5501165986061096,4.130527973175049,7.84361216184823,7.334959115702933,31.63987200114931,26.244002808656976,9.71794142969884e-05,0.1018374562263488,0,0,0
2574,94325.04191421672,2011-01-11 13:59:36,3361.698126008668,2,11,0.5504778623580933,4.134089469909668,7.848199033856225,7.334959115702933,31.658825784036388,26.244002808656976,0.0001619339018361,0.1018374562263488,0,0,0
2575,94355.05670913098,2011-01-11 14:00:06,3391.712920797603,2,11,0.5501165986061096,4.137327194213867,7.852785718166228,7.334959115702933,31.677794415020337,26.244002808656976,9.71794142969884e-05,0.1018374562263488,0,0,0
2576,94385.07187113512,2011-01-11 14:00:36,3421.7280828067646,2,11,0.5499359965324402,4.140726566314697,7.857372520878016,7.334959115702933,31.696779312937448,26.244002808656976,0.0001295089750783,0.1018374562263488,0,0,0
2577,94415.0893017333,2011-01-11 14:01:06,3451.745513500185,2,11,0.5501165986061096,4.1441264152526855,7.861959656513688,7.334959115702933,31.71578137300333,26.244002808656976,9.71794142969884e-05,0.1018374562263488,0,0,0
2578,94445.10225678203,2011-01-11 14:01:36,3481.7584684737344,2,11,0.5501165986061096,4.147849559783936,7.866546075787071,7.334959115702933,31.734796909629765,26.244002808656976,9.70840483205393e-05,0.1018374562263488,0,0,0
2579,94475.11739276133,2011-01-11 14:02:06,3511.7736044279586,2,11,0.5499359965324402,4.151249408721924,7.871132731345887,7.334959115702933,31.753829499779997,26.244002808656976,6.47544875391759e-05,0.1018374562263488,0,0,0
2580,94505.13251875072,2011-01-11 14:02:36,3541.7887304624605,2,11,0.5499359965324402,4.154810905456543,7.875719422583554,7.334959115702933,31.772878432612263,26.244002808656976,9.71794142969884e-05,0.1018374562263488,0,0,0
2581,94535.14766682514,2011-01-11 14:03:06,3571.8038784917794,2,11,0.5499359965324402,4.158534049987793,7.880306132233311,7.334959115702933,31.791943848369467,26.244002808656976,9.70840483205393e-05,0.1018374562263488,0,0,0
2582,94565.1628454056,2011-01-11 14:03:36,3601.819057072242,2,11,0.5501165986061096,4.162095546722412,7.884892806013556,7.334959115702933,31.81102561956678,26.244002808656976,0.0001295089750783,0.1018374562263488,0,0,0
2583,94595.17798438238,2011-01-11 14:04:07,3631.834196079074,2,11,0.5501165986061096,4.165657043457031,7.889479491633352,7.334959115702933,31.830124048891943,26.244002808656976,3.23295607813634e-05,0.1018374562263488,0,0,0
2584,94625.19314728877,2011-01-11 14:04:37,3661.849358955397,2,11,0.5499359965324402,4.16921854019165,7.894066238328272,7.334959115702933,31.849239431084168,26.244002808656976,9.70840483205393e-05,0.1018374562263488,0,0,0
2585,94655.20847216384,2011-01-11 14:05:07,3691.8646838404943,2,11,0.5501165986061096,4.1731038093566895,7.898653017010008,7.334959115702933,31.868371717619183,26.244002808656976,0.0001295089750783,0.1018374562263488,0,0,0
2586,94685.22351105114,2011-01-11 14:05:37,3721.879722722786,2,11,0.550297200679779,4.176827430725098,7.903239652384544,7.334959115702933,31.887520391173048,26.244002808656976,0.0001295089750783,0.1018374562263488,0,0,0
2587,94715.23863331624,2011-01-11 14:06:07,3751.894844982881,2,11,0.5501165986061096,4.180388927459717,7.907826378560459,7.334959115702933,31.906686567240897,26.244002808656976,9.71794142969884e-05,0.1018374562263488,0,0,0
2588,94745.2537914758,2011-01-11 14:06:37,3781.91000314746,2,11,0.5501165986061096,4.184274196624756,7.912413031617374,7.334959115702933,31.92586963586857,26.244002808656976,9.71794142969884e-05,0.1018374562263488,0,0,0
2589,94775.26904612586,2011-01-11 14:07:07,3811.9252577924985,2,11,0.5501165986061096,4.187997341156006,7.916999735603679,7.334959115702933,31.94507017182919,26.244002808656976,9.70840483205393e-05,0.1018374562263488,0,0,0
2590,94805.28411714829,2011-01-11 14:07:37,3841.94032893018,2,11,0.5501165986061096,4.191882610321045,7.921586365151026,7.334959115702933,31.96428784307128,26.244002808656976,9.70840483205393e-05,0.1018374562263488,0,0,0
2591,94835.29926910235,2011-01-11 14:08:07,3871.955480794056,2,11,0.5501165986061096,4.195767879486084,7.926173053000046,7.334959115702933,31.983523321366807,26.244002808656976,9.71794142969884e-05,0.1018374562263488,0,0,0
2592,94865.31459682954,2011-01-11 14:08:37,3901.970808621488,2,11,0.5501165986061096,4.199491024017334,7.930759710661842,7.334959115702933,32.002776431384774,26.244002808656976,6.47544875391759e-05,0.1018374562263488,0,0,0
2593,94867.40816497554,2011-01-11 14:08:39,3904.064376667232,2,11,0.5501165986061096,4.200138568878174,7.931079644637554,7.334959115702933,32.0041200732006,26.244002808656976,0.0001618385285837,0.1018374562263488,0,0,0
2594,94897.42428320216,2011-01-11 14:09:09,30.01494008104815,3,11,0.0,4.103816986083984,7.931079644637554,7.334959115702933,32.0041200732006,26.244002808656976,-0.0004208564641885,0.1018374562263488,0,0,0
2595,94927.43944088552,2011-01-11 14:09:39,60.030097744378295,3,11,0.0,4.091351509094238,7.931079644637554,7.334959115702933,32.0041200732006,26.244002808656976,-0.0002590179501567,0.1018374562263488,0,0,0
2596,94957.45473412676,2011-01-11 14:10:09,90.04539102069775,3,11,0.0,4.08390474319458,7.931079644637554,7.334959115702933,32.0041200732006,26.244002808656976,-0.0001619339018361,0.1018374562263488,0,0,0
2597,94987.42302290344,2011-01-11 14:10:39,120.01367977729107,3,11,0.0,4.07888650894165,7.931079644637554,7.334959115702933,32.0041200732006,26.244002808656976,-9.70840483205393e-05,0.1018374562263488,0,0,0
2598,94987.42594190309,2011-01-11 14:10:39,2.616521176e-06,4,11,1.02006196975708,4.199814796447754,7.931079645378946,7.334959115702933,32.004120076314315,26.244002808656976,0.0,0.1018374562263488,0,0,0
2599,94988.2385973054,2011-01-11 14:10:40,0.812658053918998,4,11,0.9691301584243774,4.199814796447754,7.931302847803456,7.334959115702933,32.00505747957482,26.244002808656976,0.0,0.1018374562263488,0,0,0
2600,94990.09786481212,2011-01-11 14:10:42,2.671925560628027,4,11,0.9189207553863524,4.199653148651123,7.931789395899329,7.334959115702933,32.007100864130656,26.244002808656976,-3.23295607813634e-05,0.1018374562263488,0,0,0
2601,94992.9414172397,2011-01-11 14:10:45,5.515477963154323,4,11,0.8683501482009888,4.199653148651123,7.932494262479083,7.334959115702933,32.01006115257858,26.244002808656976,-3.23295607813634e-05,0.1018374562263488,0,0,0
2602,94996.84760948268,2011-01-11 14:10:48,9.421670206129122,4,11,0.8181408047676086,4.199653148651123,7.933408123581486,7.334959115702933,32.01389917720145,26.244002808656976,-6.47544875391759e-05,0.1018374562263488,0,0,0
2603,95001.92581028662,2011-01-11 14:10:54,14.4998710301058,4,11,0.7681120038032532,4.199814796447754,7.934525713103658,7.334959115702933,32.01859282134711,26.244002808656976,3.23295607813634e-05,0.1018374562263488,0,0,0
2604,95008.58209390848,2011-01-11 14:11:00,21.15615464195379,4,11,0.7180832624435425,4.199814796447754,7.935897851763745,7.334959115702933,32.024355521735664,26.244002808656976,0.0,0.1018374562263488,0,0,0
2605,95017.2222906974,2011-01-11 14:11:09,29.79635142084889,4,11,0.668054461479187,4.199653148651123,7.937558746487878,7.334959115702933,32.03133093809666,26.244002808656976,-3.23295607813634e-05,0.1018374562263488,0,0,0
2606,95029.25337580335,2011-01-11 14:11:21,41.82743653181776,4,11,0.6176644563674927,4.199814796447754,7.939703532300304,7.334959115702933,32.04033862678559,26.244002808656976,3.23295607813634e-05,0.1018374562263488,0,0,0
2607,95047.26894762156,2011-01-11 14:11:39,59.84300846031648,4,11,0.567635715007782,4.199814796447754,7.942660882605742,7.334959115702933,32.0527589300085,26.244002808656976,0.0,0.1018374562263488,0,0,0
2608,95077.83074883382,2011-01-11 14:12:09,90.40480955728124,4,11,0.5176069736480713,4.199814796447754,7.94724644751916,7.334959115702933,32.07201743026199,26.244002808656976,3.23295607813634e-05,0.1018374562263488,0,0,0
2609,95136.5798285822,2011-01-11 14:13:08,149.1538893056541,4,11,0.4675781726837158,4.199653148651123,7.955242731465036,7.334959115702933,32.10560024469345,26.244002808656976,0.0,0.1018374562263488,0,0,0
2610,95235.2348094148,2011-01-11 14:14:47,247.80887017335516,4,11,0.4175494015216827,4.199491024017334,7.967337941193526,7.334959115702933,32.15639770687488,26.244002808656976,-6.47544875391759e-05,0.1018374562263488,0,0,0
2611,95363.3419560568,2011-01-11 14:16:55,375.9160168003332,4,11,0.3675206303596496,4.199653148651123,7.981290867869312,7.334959115702933,32.214997256674074,26.244002808656976,-3.23295607813634e-05,0.1018374562263488,0,0,0
2612,95517.85523406816,2011-01-11 14:19:29,530.4292948016596,4,11,0.3174918591976166,4.199653148651123,7.995973388345339,7.334959115702933,32.27666101532899,26.244002808656976,0.0,0.1018374562263488,0,0,0
2613,95702.727590018,2011-01-11 14:22:34,715.3016507615133,4,11,0.2674630880355835,4.199814796447754,8.010968532923162,7.334959115702933,32.33963772468252,26.244002808656976,0.0,0.1018374562263488,0,0,0
2614,95930.38015766857,2011-01-11 14:26:22,942.9542184120425,4,11,0.2172537147998809,4.199814796447754,8.026267233989788,7.334959115702933,32.403889070052955,26.244002808656976,0.0,0.1018374562263488,0,0,0
2615,96228.51607844223,2011-01-11 14:31:20,1241.0901391656898,4,11,0.1672249436378479,4.199653148651123,8.042126784187763,7.334959115702933,32.470495652327934,26.244002808656976,-3.23295607813634e-05,0.1018374562263488,0,0,0
2616,96652.94720448751,2011-01-11 14:38:25,1665.521265426525,4,11,0.1171961799263954,4.199814796447754,8.058726009545321,7.334959115702933,32.54020923091028,26.244002808656976,0.0,0.1018374562263488,0,0,0
2617,97403.54487327627,2011-01-11 14:50:55,2416.11893400475,4,11,0.0671674087643623,4.199814796447754,8.07740147394768,7.334959115702933,32.618642645891484,26.244002808656976,-3.24249267578125e-05,0.1018374562263488,0,0,0
2618,97861.80345515496,2011-01-11 14:58:33,2874.3775159034826,4,11,0.0498289167881011,4.199814796447754,8.084834772520594,7.334959115702933,32.64986114268908,26.244002808656976,3.23295607813634e-05,0.1018374562263488,0,0,0
2619,97891.8190841582,2011-01-11 14:59:04,30.01514724235788,5,11,0.0,4.191073417663574,8.084834772520594,7.334959115702933,32.64986114268908,26.244002808656976,0.0,0.1018374562263488,0,0,0
2620,97921.81862079412,2011-01-11 14:59:34,60.01468381311885,5,11,0.0,4.1896162033081055,8.084834772520594,7.334959115702933,32.64986114268908,26.244002808656976,0.0,0.1018374562263488,0,0,0
2621,97922.0076454594,2011-01-11 14:59:34,0.187604262546655,6,11,-0.0018253359012305,4.190263748168945,8.084834772520594,7.334959210825375,32.64986114268908,26.244003207245097,0.0,0.1043562516570091,0,0,0
2622,97926.8355649954,2011-01-11 14:59:39,5.015523768469107,6,11,0.0007031940040178,4.189454555511475,8.08483565490539,7.334959220759573,32.6498648395017,26.24400324887482,-3.23295607813634e-05,0.1043562516570091,0,0,0
2623,97956.85218749865,2011-01-11 15:00:09,30.01512757834912,7,11,-1.0997490882873535,3.990658760070801,8.08483565490539,7.344128031917458,32.6498648395017,26.280831285305712,-0.0011331557761877,0.1043562516570091,0,0,0
2624,97986.86734073592,2011-01-11 15:00:39,60.030280840710695,7,11,-1.0997490882873535,3.95423436164856,8.08483565490539,7.353296716033933,32.6498648395017,26.31724381757281,-0.0008094310760498,0.1043562516570091,0,0,0
2625,98016.88272810676,2011-01-11 15:01:09,90.0456682115426,7,11,-1.0997490882873535,3.927846908569336,8.08483565490539,7.362465379664219,32.6498648395017,26.353372190670324,-0.0006151676061563,0.1043562516570091,0,0,0
2626,98046.8976720374,2011-01-11 15:01:39,120.06061212714766,7,11,-1.099568486213684,3.90728759765625,8.08483565490539,7.371633950289116,32.6498648395017,26.389287390014378,-0.0004856586456298,0.1043562516570091,0,0,0
2627,98076.91296111324,2011-01-11 15:02:09,150.0759012280607,7,11,-1.099568486213684,3.889965772628784,8.08483565490539,7.380802611442936,32.6498648395017,26.42502961678106,-0.0004209041653666,0.1043562516570091,0,0,0
2628,98106.9280023414,2011-01-11 15:02:39,180.09094242111107,7,11,-1.0997490882873535,3.874262809753418,8.08483565490539,7.389971152727737,32.6498648395017,26.46062246167896,-0.0004532813909463,0.1043562516570091,0,0,0
2629,98136.92804005116,2011-01-11 15:03:09,210.0909802712144,7,11,-1.099568486213684,3.860340595245361,8.08483565490539,7.399135192024271,32.6498648395017,26.496062729580636,-0.0003561496851034,0.1043562516570091,0,0,0
2630,98166.94290864402,2011-01-11 15:03:39,240.10584884905452,7,11,-1.0997490882873535,3.8467421531677246,8.08483565490539,7.408303804524287,32.6498648395017,26.53139336226042,-0.0003237724304199,0.1043562516570091,0,0,0
2631,98196.95792876456,2011-01-11 15:04:09,270.1208689645733,7,11,-1.0997490882873535,3.833791255950928,8.08483565490539,7.417472438552865,32.6498648395017,26.566602150236985,-0.0003237724304199,0.1043562516570091,0,0,0
2632,98226.9731524374,2011-01-11 15:04:39,300.13609261736946,7,11,-1.0997490882873535,3.82132625579834,8.08483565490539,7.426641097753199,32.6498648395017,26.601695271054236,-0.0003561496851034,0.1043562516570091,0,0,0
2633,98256.9882966472,2011-01-11 15:05:09,330.1512368321817,7,11,-1.099929690361023,3.8093466758728023,8.08483565490539,7.435809775555907,32.6498648395017,26.63667777566347,-0.0003561496851034,0.1043562516570091,0,0,0
2634,98287.00352131751,2011-01-11 15:05:39,360.1664615275764,7,11,-1.099568486213684,3.798176527023315,8.08483565490539,7.44497837767218,32.6498648395017,26.671553845857336,-0.0003237724304199,0.1043562516570091,0,0,0
2635,98317.01863937217,2011-01-11 15:06:09,390.181579547102,7,11,-1.0997490882873535,3.787492036819458,8.08483565490539,7.454147007389804,32.6498648395017,26.70632863966024,-0.0002913951757363,0.1043562516570091,0,0,0
2636,98347.03392663348,2011-01-11 15:06:39,420.1968668184553,7,11,-1.099568486213684,3.7768075466156006,8.08483565490539,7.463315703372487,32.6498648395017,26.741005717219217,-0.0002913951757363,0.1043562516570091,0,0,0
2637,98377.04895576648,2011-01-11 15:07:09,450.2118958511984,7,11,-1.0997490882873535,3.766608715057373,8.08483565490539,7.472484326751321,32.6498648395017,26.77558730416763,-0.0002913951757363,0.1043562516570091,0,0,0
2638,98407.06417078777,2011-01-11 15:07:39,480.227110962707,7,11,-1.099568486213684,3.756895542144776,8.08483565490539,7.481653022419404,32.6498648395017,26.810077534909222,-0.0002266406954731,0.1043562516570091,0,0,0
2639,98437.07928360932,2011-01-11 15:08:09,510.2422238193652,7,11,-1.0997490882873535,3.747344493865967,8.08483565490539,7.490821668136173,32.6498648395017,26.844478257412845,-0.0002590179501567,0.1043562516570091,0,0,0
2640,98467.09467394254,2011-01-11 15:08:39,540.2576141575928,7,11,-1.0997490882873535,3.737631320953369,8.08483565490539,7.499990427949639,32.6498648395017,26.878792023811812,-0.0002913951757363,0.1043562516570091,0,0,0
2641,98497.1096553616,2011-01-11 15:09:09,570.2725955716555,7,11,-1.0997490882873535,3.728727579116821,8.08483565490539,7.509159021088287,32.6498648395017,26.913020696464407,-0.0002266406954731,0.1043562516570091,0,0,0
2642,98527.12477790742,2011-01-11 15:09:39,600.2877180823746,7,11,-1.099568486213684,3.7199857234954834,8.08483565490539,7.518327671847503,32.6498648395017,26.94716818061748,-0.0002266406954731,0.1043562516570091,0,0,0
2643,98557.13995361072,2011-01-11 15:10:09,630.3028938157408,7,11,-1.099568486213684,3.7112438678741455,8.08483565490539,7.527496375062877,32.6498648395017,26.981236030853648,-0.0002266406954731,0.1043562516570091,0,0,0
2644,98587.15520640112,2011-01-11 15:10:39,660.3181465911193,7,11,-1.099568486213684,3.7029876708984375,8.08483565490539,7.536665027514983,32.6498648395017,27.0152251178784,-0.0001942634553415,0.1043562516570091,0,0,0
2645,98617.1702375692,2011-01-11 15:11:09,690.3331777692093,7,11,-1.0997490882873535,3.6947314739227295,8.08483565490539,7.545833591585748,32.6498648395017,27.04913736178516,-0.0001942634553415,0.1043562516570091,0,0,0
2646,98647.18544759304,2011-01-11 15:11:39,720.3483877679756,7,11,-1.0997490882873535,3.6864752769470215,8.08483565490539,7.555002262738384,32.6498648395017,27.08297454638432,-0.0001942634553415,0.1043562516570091,0,0,0
2647,98677.20062462465,2011-01-11 15:12:09,750.3635647995775,7,11,-1.099929690361023,3.678380966186523,8.08483565490539,7.564170985972837,32.6498648395017,27.11673774426428,-0.0002266406954731,0.1043562516570091,0,0,0
2648,98707.2157908944,2011-01-11 15:12:39,780.3787310693574,7,11,-1.099568486213684,3.6707725524902335,8.08483565490539,7.57333976135517,32.6498648395017,27.150428602148025,-0.0001942634553415,0.1043562516570091,0,0,0
2649,98737.23091660308,2011-01-11 15:13:09,810.3938567880718,7,11,-1.0997490882873535,3.6628401279449454,8.08483565490539,7.58250860254978,32.6498648395017,27.18404835080737,-0.0002266406954731,0.1043562516570091,0,0,0
2650,98767.24610427624,2011-01-11 15:13:39,840.4090444662081,7,11,-1.0997490882873535,3.655393362045288,8.08483565490539,7.591677392702141,32.6498648395017,27.21759792728229,-0.0002266406954731,0.1043562516570091,0,0,0
2651,98797.26125941324,2011-01-11 15:14:09,870.4241995932169,7,11,-1.099568486213684,3.64810848236084,8.08483565490539,7.600846098346024,32.6498648395017,27.2510791196184,-0.0001618862152099,0.1043562516570091,0,0,0
2652,98827.27642418428,2011-01-11 15:14:39,900.4393643592492,7,11,-1.099929690361023,3.640823602676392,8.08483565490539,7.61001475572562,32.6498648395017,27.284492644691166,-0.0001942634553415,0.1043562516570091,0,0,0
2653,98857.29157885516,2011-01-11 15:15:09,930.4545190551836,7,11,-1.0997490882873535,3.6338624954223633,8.08483565490539,7.61918339915614,32.6498648395017,27.317841695812145,-0.0001618862152099,0.1043562516570091,0,0,0
2654,98887.30676363608,2011-01-11 15:15:39,960.4697038360993,7,11,-1.099568486213684,3.627063274383545,8.08483565490539,7.628352105925154,32.6498648395017,27.3511277916873,-0.0001618862152099,0.1043562516570091,0,0,0
2655,98917.32193961005,2011-01-11 15:16:09,990.48487982009,7,11,-1.099568486213684,3.6201021671295166,8.08483565490539,7.637520802808865,32.6498648395017,27.384350259141453,-0.0001618862152099,0.1043562516570091,0,0,0
2656,98947.33705730375,2011-01-11 15:16:39,1020.4999975087912,7,11,-1.099568486213684,3.613464832305908,8.08483565490539,7.646689501956717,32.6498648395017,27.417510369657588,-0.0001942634553415,0.1043562516570091,0,0,0
2657,98977.35223066622,2011-01-11 15:17:09,1050.5151708411736,7,11,-1.0997490882873535,3.6069893836975098,8.08483565490539,7.655858209234852,32.6498648395017,27.450611000546267,-0.0001618862152099,0.1043562516570091,0,0,0
2658,99007.3676226686,2011-01-11 15:17:39,1080.5305628535737,7,11,-1.099929690361023,3.6005139350891118,8.08483565490539,7.665026932190482,32.6498648395017,27.483653994824536,-0.0001942634553415,0.1043562516570091,0,0,0
2659,99037.38268128004,2011-01-11 15:18:09,1110.545621485086,7,11,-1.0997490882873535,3.5945241451263428,8.08483565490539,7.674195631621853,32.6498648395017,27.51664026268276,-0.0001942634553415,0.1043562516570091,0,0,0
2660,99067.397710393,2011-01-11 15:18:39,1140.5606505829917,7,11,-1.0997490882873535,3.5885345935821533,8.08483565490539,7.683364358353233,32.6498648395017,27.549571477356043,-0.0001942634553415,0.1043562516570091,0,0,0
2661,99097.41508754798,2011-01-11 15:19:09,1170.5780277580277,7,11,-1.0993878841400146,3.583030462265014,8.08483565490539,7.692533750994768,32.6498648395017,27.582451344649424,-0.0001942634553415,0.1043562516570091,0,0,0
2662,99127.42809351362,2011-01-11 15:19:39,1200.5910337086275,7,11,-1.099568486213684,3.577364444732666,8.08483565490539,7.701701873282286,32.6498648395017,27.615274579211476,-0.0001295089750783,0.1043562516570091,0,0,0
2663,99157.44320431516,2011-01-11 15:20:09,1230.6061445151763,7,11,-1.0997490882873535,3.5716984272003174,8.08483565490539,7.710870582713064,32.6498648395017,27.648048526760924,-0.0001942634553415,0.1043562516570091,0,0,0
2664,99187.45837324156,2011-01-11 15:20:39,1260.6213134415773,7,11,-1.099568486213684,3.5666799545288086,8.08483565490539,7.720039299526385,32.6498648395017,27.680772688729885,-9.713172767078504e-05,0.1043562516570091,0,0,0
2665,99217.47351862428,2011-01-11 15:21:09,1290.636458799238,7,11,-1.099568486213684,3.56133770942688,8.08483565490539,7.729208045596341,32.6498648395017,27.713448568753183,-0.0001618862152099,0.1043562516570091,0,0,0
2666,99247.48871202167,2011-01-11 15:21:39,1320.6516521064036,7,11,-1.0997490882873535,3.556157350540161,8.08483565490539,7.738376720367575,32.6498648395017,27.74607763298973,-0.0001942634553415,0.1043562516570091,0,0,0
2667,99277.5038511037,2011-01-11 15:22:10,1350.666791193436,7,11,-1.0997490882873535,3.5513007640838623,8.08483565490539,7.74754548525194,32.6498648395017,27.77866147710656,-0.0001618862152099,0.1043562516570091,0,0,0
2668,99307.51901564415,2011-01-11 15:22:40,1380.681955743931,7,11,-1.099568486213684,3.5464441776275635,8.08483565490539,7.756714221025558,32.6498648395017,27.811200265783597,-0.0001295089750783,0.1043562516570091,0,0,0
2669,99337.53422249507,2011-01-11 15:23:10,1410.6971626199145,7,11,-1.099929690361023,3.5415875911712646,8.08483565490539,7.765882973715756,32.6498648395017,27.84369454707591,-0.0001295089750783,0.1043562516570091,0,0,0
2670,99367.54938885008,2011-01-11 15:23:40,1440.7123289698943,7,11,-1.0997490882873535,3.536892890930176,8.08483565490539,7.775051744247773,32.6498648395017,27.876145518634548,-9.713172767078504e-05,0.1043562516570091,0,0,0
2671,99397.5644320732,2011-01-11 15:24:10,1470.7273722581665,7,11,-1.0997490882873535,3.532360076904297,8.08483565490539,7.784220580597081,32.6498648395017,27.908554561058985,-0.0001618862152099,0.1043562516570091,0,0,0
2672,99427.5796819313,2011-01-11 15:24:40,1500.7426221162743,7,11,-1.0997490882873535,3.527989149093628,8.08483565490539,7.793390159467286,32.6498648395017,27.94092512405773,-0.0001295089750783,0.1043562516570091,0,0,0
2673,99457.59484671736,2011-01-11 15:25:10,1530.7577868371943,7,11,-1.099568486213684,3.523618221282959,8.08483565490539,7.802559737314329,32.6498648395017,27.9732551641759,-9.713172767078504e-05,0.1043562516570091,0,0,0
2674,99487.6100041752,2011-01-11 15:25:40,1560.7729443902494,7,11,-1.0997490882873535,3.51908540725708,8.08483565490539,7.811729259608286,32.6498648395017,28.0055444141969,-0.0001618862152099,0.1043562516570091,0,0,0
2675,99517.62509201452,2011-01-11 15:26:10,1590.7880322245444,7,11,-1.0997490882873535,3.514876365661621,8.08483565490539,7.820898757990709,32.6498648395017,28.03779332087565,-0.0001295089750783,0.1043562516570091,0,0,0
2676,99547.6405946426,2011-01-11 15:26:40,1620.8035348375952,7,11,-1.0997490882873535,3.5105056762695312,8.08483565490539,7.830067629250023,32.6498648395017,28.07000016174713,-0.0001295089750783,0.1043562516570091,0,0,0
2677,99577.65550480408,2011-01-11 15:27:10,1650.8184449088496,7,11,-1.0997490882873535,3.5059728622436523,8.08483565490539,7.839236300273186,32.6498648395017,28.10216561084857,-0.0001618862152099,0.1043562516570091,0,0,0
2678,99607.67069583556,2011-01-11 15:27:40,1680.8336360355809,7,11,-1.0997490882873535,3.5016019344329834,8.08483565490539,7.84840509170589,32.6498648395017,28.134291429162587,-0.0001295089750783,0.1043562516570091,0,0,0
2679,99637.68581568464,2011-01-11 15:28:10,1710.8487558846664,7,11,-1.0997490882873535,3.4970691204071045,8.08483565490539,7.8575738140762,32.6498648395017,28.16637686542669,-0.0001295089750783,0.1043562516570091,0,0,0
2680,99667.70100418486,2011-01-11 15:28:40,1740.8639443848515,7,11,-1.0997490882873535,3.4926981925964355,8.08483565490539,7.866742570312987,32.6498648395017,28.19842061208629,-6.47544875391759e-05,0.1043562516570091,0,0,0
2681,99697.71614672548,2011-01-11 15:29:10,1770.879086910454,7,11,-1.0997490882873535,3.4878416061401367,8.08483565490539,7.87591133770121,32.6498648395017,28.230422550106447,-0.0001295089750783,0.1043562516570091,0,0,0
2682,99727.73132574704,2011-01-11 15:29:40,1800.8942658568278,7,11,-1.099568486213684,3.483146905899048,8.08483565490539,7.885080132131592,32.6498648395017,28.262381232540445,-0.0001295089750783,0.1043562516570091,0,0,0
2683,99757.7465174101,2011-01-11 15:30:10,1830.9094576101209,7,11,-1.0997490882873535,3.477966547012329,8.08483565490539,7.894248857403342,32.6498648395017,28.29429394476673,-0.0001295089750783,0.1043562516570091,0,0,0
2684,99787.76162456254,2011-01-11 15:30:40,1860.9245647375,7,11,-1.0997490882873535,3.4727861881256104,8.08483565490539,7.903417595406022,32.6498648395017,28.32615922483089,-0.0001295089750783,0.1043562516570091,0,0,0
2685,99817.77677996024,2011-01-11 15:31:10,1890.9397201502204,7,11,-1.0997490882873535,3.4674439430236816,8.08483565490539,7.912586394692679,32.6498648395017,28.35797653166554,-0.0001618862152099,0.1043562516570091,0,0,0
2686,99847.7942729088,2011-01-11 15:31:40,1920.9572131238624,7,11,-1.0997490882873535,3.461777925491333,8.08483565490539,7.921755870327088,32.6498648395017,28.38974612811089,-0.0001618862152099,0.1043562516570091,0,0,0
2687,99877.80712491577,2011-01-11 15:32:10,1950.9700650255247,7,11,-1.0997490882873535,3.4557881355285645,8.08483565490539,7.930923823611915,32.6498648395017,28.42145646861658,-0.0001618862152099,0.1043562516570091,0,0,0
2688,99907.82228371192,2011-01-11 15:32:40,1980.985223886841,7,11,-1.099568486213684,3.449150800704956,8.08483565490539,7.940092583271894,32.6498648395017,28.453112003275216,-0.0001618862152099,0.1043562516570091,0,0,0
2689,99937.83744748044,2011-01-11 15:33:10,2011.0003876804496,7,11,-1.0997490882873535,3.4420278072357178,8.08483565490539,7.949261293551738,32.6498648395017,28.48470371442013,-0.0001618862152099,0.1043562516570091,0,0,0
2690,99967.85281001938,2011-01-11 15:33:40,2041.0157501041056,7,11,-1.0997490882873535,3.4340953826904297,8.08483565490539,7.958430036855014,32.6498648395017,28.516226844190022,-0.0002266406954731,0.1043562516570091,0,0,0
2691,99997.86788612945,2011-01-11 15:34:10,2071.03082633448,7,11,-1.099568486213684,3.425353765487671,8.08483565490539,7.967598741618557,32.6498648395017,28.54767363523685,-0.0002590179501567,0.1043562516570091,0,0,0
2692,100027.88281558402,2011-01-11 15:34:40,2101.0457556737565,7,11,-1.0997490882873535,3.415154933929444,8.08483565490539,7.976767351643703,32.6498648395017,28.579033385433213,-0.0002590179501567,0.1043562516570091,0,0,0
2693,100057.89806641456,2011-01-11 15:35:10,2131.061006504287,7,11,-1.099568486213684,3.403499126434326,8.08483565490539,7.985936009018658,32.6498648395017,28.61029312883977,-0.0003237724304199,0.1043562516570091,0,0,0
2694,100087.91335528488,2011-01-11 15:35:40,2161.0762954999386,7,11,-1.099568486213684,3.389576911926269,8.08483565490539,7.995104682542968,32.6498648395017,28.641435829478183,-0.0003885269106831,0.1043562516570091,0,0,0
2695,100117.92858695264,2011-01-11 15:36:10,2191.0915271677104,7,11,-1.0997490882873535,3.372578859329224,8.08483565490539,8.004273360907728,32.6498648395017,28.67243909317675,-0.0005504131549969,0.1043562516570091,0,0,0
2696,100147.94355766002,2011-01-11 15:36:40,2221.1064978349887,7,11,-1.0997490882873535,3.3518574237823486,8.08483565490539,8.013441995833821,32.6498648395017,28.703270555926192,-0.0006151676061563,0.1043562516570091,0,0,0
2697,100177.95891278048,2011-01-11 15:37:10,2251.1218529905304,7,11,-1.099568486213684,3.326279640197754,8.08483565490539,8.022610643876568,32.6498648395017,28.733890440042902,-0.0007446765666827,0.1043562516570091,0,0,0
2698,100207.97390794884,2011-01-11 15:37:40,2281.1368480736605,7,11,-1.0997490882873535,3.292931079864502,8.08483565490539,8.031779270526288,32.6498648395017,28.764240973647627,-0.0009713172912597,0.1043562516570091,0,0,0
2699,100237.98905995808,2011-01-11 15:38:10,2311.152000052824,7,11,-1.0997490882873535,3.248898267745972,8.08483565490539,8.04094786759077,32.6498648395017,28.79423967144572,-0.0013274669181555,0.1043562516570091,0,0,0
2700,100268.00434053272,2011-01-11 15:38:40,2341.1672806525494,7,11,-1.099568486213684,3.191104888916016,8.08483565490539,8.05011654564042,32.6498648395017,28.82377644775632,-0.0017483711708337,0.1043562516570091,0,0,0
2701,100298.01937945012,2011-01-11 15:39:10,2371.1823195498782,7,11,-1.099929690361023,3.111457109451294,8.08483565490539,8.059285172009604,32.6498648395017,28.85268940071098,-0.0024282932281494,0.1043562516570091,0,0,0
2702,100328.0345748976,2011-01-11 15:39:40,2401.19751508259,7,11,-1.099568486213684,2.9947376251220703,8.08483565490539,8.068453930448195,32.6498648395017,28.88072067424012,-0.0036586285568773,0.1043562516570091,0,0,0
2703,100358.0497143706,2011-01-11 15:40:10,2431.212654560597,7,11,-1.099568486213684,2.8126161098480225,8.08483565490539,8.07762257883087,32.6498648395017,28.907400368947627,-0.0056336401030421,0.1043562516570091,0,0,0
2704,100372.84647844454,2011-01-11 15:40:25,2446.0094185392823,7,11,-1.0997490882873535,2.699943780899048,8.08483565490539,8.082142496161074,32.6498648395017,28.919861284396955,-0.0061840056441724,0.1043562516570091,0,0,0
2705,100432.86104922088,2011-01-11 15:41:25,60.01471950206669,8,11,0.0,3.5389974117279053,8.08483565490539,8.082142496161074,32.6498648395017,28.919861284396955,0.0013274669181555,0.1043562516570091,0,0,0
2706,100433.049370429,2011-01-11 15:41:25,0.1873392370215,9,11,-0.0009222895023413,3.540292501449585,8.08483565490539,8.082142544155799,32.6498648395017,28.91986145431232,0.0,0.1004928275942802,0,0,0
2707,100437.87741106685,2011-01-11 15:41:30,5.015379889879392,9,11,0.0007031940040178,3.547739267349243,8.084836504646754,8.082142544155799,32.64986785107873,28.91986145431232,0.0011979580158367,0.1004928275942802,0,0,0
