Data_Point,Test_Time(s),Date_Time,Step_Time(s),Step_Index,Cycle_Index,Current(A),Voltage(V),Charge_Capacity(Ah),Discharge_Capacity(Ah),Charge_Energy(Wh),Discharge_Energy(Wh),dV/dt(V/s),Internal_Resistance(Ohm),Is_FC_Data,AC_Impedance(Ohm),ACI_Phase_Angle(Deg)
3688,138440.8369073789,2011-01-12 02:14:58,30.015019809756623,1,16,0.0,3.597438097000122,11.04633558541742,11.029899723850251,44.63935800533333,39.45802791830708,0.0006475448608398,0.1013949364423751,0,0,0
3689,138470.85209185904,2011-01-12 02:15:28,60.03020430496005,1,16,0.0,3.618968963623047,11.04633558541742,11.029899723850251,44.63935800533333,39.45802791830708,0.0004856586456298,0.1013949364423751,0,0,0
3690,138500.86720751767,2011-01-12 02:15:58,90.04531993352664,1,16,0.0,3.634186267852783,11.04633558541742,11.029899723850251,44.63935800533333,39.45802791830708,0.0003561496851034,0.1013949364423751,0,0,0
3691,138530.83550475544,2011-01-12 02:16:28,120.0136171712576,1,16,0.0,3.645842075347901,11.04633558541742,11.029899723850251,44.63935800533333,39.45802791830708,0.0002913951757363,0.1013949364423751,0,0,0
3692,138560.85031597724,2011-01-12 02:16:58,30.015156736019,2,16,0.550297200679779,3.7696845531463614,11.050922976188833,11.029899723850251,44.65655549698817,39.45802791830708,0.0009065627818927,0.1013949364423751,0,0,0
3693,138590.86546712436,2011-01-12 02:17:28,60.03030785804621,2,16,0.550297200679779,3.793158054351807,11.055510406325302,11.029899723850251,44.67390710586966,39.45802791830708,0.0004856586456298,0.1013949364423751,0,0,0
3694,138620.88065740396,2011-01-12 02:17:58,90.04549817275362,2,16,0.5501165986061096,3.8070802688598633,11.060097770094524,11.029899723850251,44.69134194734684,39.45802791830708,0.0002913951757363,0.1013949364423751,0,0,0
3695,138650.8957857843,2011-01-12 02:18:28,120.0606265430766,2,16,0.550297200679779,3.817440986633301,11.064684460283155,11.029899723850251,44.708828512297785,39.45802791830708,0.0002913951757363,0.1013949364423751,0,0,0
3696,138680.91094429474,2011-01-12 02:18:58,150.075785053518,2,16,0.550297200679779,3.825697183609009,11.0692712016362,11.029899723850251,44.72635758717775,39.45802791830708,0.0001942634553415,0.1013949364423751,0,0,0
3697,138710.9261095821,2011-01-12 02:19:28,180.0909503408495,2,16,0.550297200679779,3.833305597305298,11.07385855947804,11.029899723850251,44.74392541498416,39.45802791830708,0.0002265930233988,0.1013949364423751,0,0,0
3698,138740.94127069903,2011-01-12 02:19:58,210.1061114577871,2,16,0.5501165986061096,3.840104818344116,11.078445939516278,11.029899723850251,44.76152630038471,39.45802791830708,0.0001618862152099,0.1013949364423751,0,0,0
3699,138770.9564322671,2011-01-12 02:20:28,240.12127300579908,2,16,0.5501165986061096,3.846580266952514,11.083033291266092,11.029899723850251,44.77915733224667,39.45802791830708,0.0001618862152099,0.1013949364423751,0,0,0
3700,138800.97157617615,2011-01-12 02:20:58,270.1364169399118,2,16,0.550297200679779,3.852570056915283,11.08762065794904,11.029899723850251,44.79681701936688,39.45802791830708,0.0001295089750783,0.1013949364423751,0,0,0
3701,138830.98674836065,2011-01-12 02:21:28,300.1515891043833,2,16,0.5501165986061096,3.858236074447632,11.092207996352665,11.029899723850251,44.81450352119953,39.45802791830708,0.0001295089750783,0.1013949364423751,0,0,0
3702,138861.0018973273,2011-01-12 02:21:58,330.16673808607607,2,16,0.5501165986061096,3.8637402057647705,11.096795341834529,11.029899723850251,44.8322156031708,39.45802791830708,0.0001295089750783,0.1013949364423751,0,0,0
3703,138891.01717334063,2011-01-12 02:22:28,360.1820140893458,2,16,0.5501165986061096,3.868920564651489,11.1013827018463,11.029899723850251,44.84995201566012,39.45802791830708,0.0001295089750783,0.1013949364423751,0,0,0
3704,138921.0321925338,2011-01-12 02:22:58,390.1970332875782,2,16,0.550297200679779,3.874100923538208,11.105970013349744,11.029899723850251,44.86771163228443,39.45802791830708,0.0001295089750783,0.1013949364423751,0,0,0
3705,138951.04847027373,2011-01-12 02:23:28,420.2133110375089,2,16,0.5504778623580933,3.878795623779297,11.110557468481383,11.029899723850251,44.88549425829862,39.45802791830708,0.0001295089750783,0.1013949364423751,0,0,0
3706,138981.06268761348,2011-01-12 02:23:58,450.2275283822759,2,16,0.5501165986061096,3.8834903240203857,11.115144715485735,11.029899723850251,44.90329800693935,39.45802791830708,9.713172767078504e-05,0.1013949364423751,0,0,0
3707,139011.077672817,2011-01-12 02:24:28,480.24251357074553,2,16,0.550297200679779,3.8880231380462646,11.119732081013003,11.029899723850251,44.92112335817092,39.45802791830708,0.0001295089750783,0.1013949364423751,0,0,0
3708,139041.09284060056,2011-01-12 02:24:58,510.2576813643233,2,16,0.5501165986061096,3.892232179641724,11.124319464327806,11.029899723850251,44.9389692208192,39.45802791830708,9.713172767078504e-05,0.1013949364423751,0,0,0
3709,139071.10796643957,2011-01-12 02:25:28,540.272807198325,2,16,0.5499359965324402,3.8962793350219727,11.128906818082749,11.029899723850251,44.95683448408875,39.45802791830708,3.237724376958795e-05,0.1013949364423751,0,0,0
3710,139101.12316222288,2011-01-12 02:25:58,570.288002981662,2,16,0.5501165986061096,3.900488376617432,11.133494177087224,11.029899723850251,44.97471858008495,39.45802791830708,9.713172767078504e-05,0.1013949364423751,0,0,0
3711,139131.13828184138,2011-01-12 02:26:29,600.3031226001727,2,16,0.5501165986061096,3.9045355319976807,11.138081472137763,11.029899723850251,44.99262066942808,39.45802791830708,9.713172767078504e-05,0.1013949364423751,0,0,0
3712,139161.15347563478,2011-01-12 02:26:59,630.3183164887874,2,16,0.550297200679779,3.9082589149475098,11.142668841940022,11.029899723850251,45.01054049036902,39.45802791830708,9.713172767078504e-05,0.1013949364423751,0,0,0
3713,139191.16859504278,2011-01-12 02:27:29,660.3334358015362,2,16,0.550297200679779,3.911658525466919,11.147256191044432,11.029899723850251,45.028476825511696,39.45802791830708,9.713172767078504e-05,0.1013949364423751,0,0,0
3714,139221.18389262483,2011-01-12 02:27:59,690.3487333885993,2,16,0.5501165986061096,3.914896011352539,11.151843614331945,11.029899723850251,45.04642931973195,39.45802791830708,6.47544875391759e-05,0.1013949364423751,0,0,0
3715,139251.19892401845,2011-01-12 02:28:29,720.3637647722015,2,16,0.5501165986061096,3.918295621871948,11.156430910503746,11.029899723850251,45.06439628129798,39.45802791830708,9.713172767078504e-05,0.1013949364423751,0,0,0
3716,139281.21406498016,2011-01-12 02:28:59,750.378905743931,2,16,0.550297200679779,3.921209573745728,11.161018247935516,11.029899723850251,45.08237782076984,39.45802791830708,3.237724376958795e-05,0.1013949364423751,0,0,0
3717,139311.2292323677,2011-01-12 02:29:29,780.3940731314971,2,16,0.5501165986061096,3.924123525619507,11.165605538510912,11.029899723850251,45.10037291404091,39.45802791830708,3.237724376958795e-05,0.1013949364423751,0,0,0
3718,139341.24439629668,2011-01-12 02:29:59,810.4092370554304,2,16,0.550297200679779,3.927037477493286,11.170192929872645,11.029899723850251,45.118381571154366,39.45802791830708,6.47544875391759e-05,0.1013949364423751,0,0,0
3719,139371.25947886787,2011-01-12 02:30:29,840.4243196215954,2,16,0.550297200679779,3.9299514293670654,11.174780286226271,11.029899723850251,45.13640281708469,39.45802791830708,0.0001295089750783,0.1013949364423751,0,0,0
3720,139401.27492822817,2011-01-12 02:30:59,870.4397689769116,2,16,0.5501165986061096,3.9327034950256343,11.179367694662895,11.029899723850251,45.15443660997514,39.45802791830708,0.0001295089750783,0.1013949364423751,0,0,0
3721,139431.28983601875,2011-01-12 02:31:29,900.4546767775071,2,16,0.550297200679779,3.935131788253784,11.183955020160177,11.029899723850251,45.17248203737424,39.45802791830708,9.713172767078504e-05,0.1013949364423751,0,0,0
3722,139461.30502461415,2011-01-12 02:31:59,930.469865377942,2,16,0.5501165986061096,3.9375600814819336,11.188542397997736,11.029899723850251,45.19053933760628,39.45802791830708,6.47544875391759e-05,0.1013949364423751,0,0,0
3723,139491.32015673383,2011-01-12 02:32:29,960.4849974976096,2,16,0.550297200679779,3.939988374710083,11.193129851976074,11.029899723850251,45.2086085248122,39.45802791830708,3.237724376958795e-05,0.1013949364423751,0,0,0
3724,139521.33531891843,2011-01-12 02:32:59,990.5001596771956,2,16,0.550297200679779,3.9425785541534415,11.197717204040972,11.029899723850251,45.22668854673313,39.45802791830708,9.713172767078504e-05,0.1013949364423751,0,0,0
3725,139551.35048555915,2011-01-12 02:33:29,1020.5153263229124,2,16,0.5504778623580933,3.945006847381592,11.202304613973556,11.029899723850251,45.244779905318495,39.45802791830708,6.47544875391759e-05,0.1013949364423751,0,0,0
3726,139581.36563437042,2011-01-12 02:33:59,1050.5304751341807,2,16,0.550297200679779,3.9472732543945312,11.206891984305534,11.029899723850251,45.262882064659685,39.45802791830708,9.713172767078504e-05,0.1013949364423751,0,0,0
3727,139611.3807836729,2011-01-12 02:34:29,1080.545624526898,2,16,0.5501165986061096,3.949539661407471,11.21147942542971,11.029899723850251,45.28099532922561,39.45802791830708,3.237724376958795e-05,0.1013949364423751,0,0,0
3728,139641.39593289018,2011-01-12 02:34:59,1110.5607736539528,2,16,0.550297200679779,3.95196795463562,11.216066812472382,11.029899723850251,45.29911923630203,39.45802791830708,6.47544875391759e-05,0.1013949364423751,0,0,0
3729,139671.41125863243,2011-01-12 02:35:29,1140.5760995114747,2,16,0.550297200679779,3.95423436164856,11.220654236746674,11.029899723850251,45.31725398130807,39.45802791830708,6.47544875391759e-05,0.1013949364423751,0,0,0
3730,139701.42837644604,2011-01-12 02:35:59,1170.5932172799903,2,16,0.5504778623580933,3.956662654876709,11.22524195727819,11.029899723850251,45.33540045204106,39.45802791830708,6.47544875391759e-05,0.1013949364423751,0,0,0
3731,139731.4414129528,2011-01-12 02:36:29,1200.6062537165706,2,16,0.5501165986061096,3.958929061889648,11.229829043279548,11.029899723850251,45.35355483959696,39.45802791830708,6.47544875391759e-05,0.1013949364423751,0,0,0
3732,139761.45656994949,2011-01-12 02:36:59,1230.6214107132391,2,16,0.550297200679779,3.961033582687378,11.234416442641304,11.029899723850251,45.3717209425481,39.45802791830708,3.237724376958795e-05,0.1013949364423751,0,0,0
3733,139791.47171515174,2011-01-12 02:37:29,1260.6365559105,2,16,0.5501165986061096,3.963299989700317,11.239003850636443,11.029899723850251,45.3898974622156,39.45802791830708,6.47544875391759e-05,0.1013949364423751,0,0,0
3734,139821.4870486934,2011-01-12 02:37:59,1290.6518894571857,2,16,0.550297200679779,3.965566396713257,11.243591249041671,11.029899723850251,45.40808420112087,39.45802791830708,3.237724376958795e-05,0.1013949364423751,0,0,0
3735,139851.5020052405,2011-01-12 02:38:29,1320.6668459992595,2,16,0.550297200679779,3.9676709175109854,11.248178688041452,11.029899723850251,45.42628129508515,39.45802791830708,6.47544875391759e-05,0.1013949364423751,0,0,0
3736,139881.5171895352,2011-01-12 02:38:59,1350.6820302939634,2,16,0.5501165986061096,3.969937324523926,11.25276611093538,11.029899723850251,45.44448839220221,39.45802791830708,3.237724376958795e-05,0.1013949364423751,0,0,0
3737,139911.5323222313,2011-01-12 02:39:29,1380.69716299508,2,16,0.5501165986061096,3.972203731536865,11.257353563645156,11.029899723850251,45.462705725562685,39.45802791830708,3.237724376958795e-05,0.1013949364423751,0,0,0
3738,139941.5475029371,2011-01-12 02:39:59,1410.7123436958266,2,16,0.5501165986061096,3.9744701385498047,11.26194094652048,11.029899723850251,45.48093277891688,39.45802791830708,9.713172767078504e-05,0.1013949364423751,0,0,0
3739,139971.56263714694,2011-01-12 02:40:29,1440.7274779107158,2,16,0.5501165986061096,3.976574659347534,11.266528400764017,11.029899723850251,45.499170146384,39.45802791830708,3.237724376958795e-05,0.1013949364423751,0,0,0
3740,140001.57781590786,2011-01-12 02:40:59,1470.7426566666152,2,16,0.550297200679779,3.9788410663604736,11.271115942986317,11.029899723850251,45.51741747143013,39.45802791830708,9.713172767078504e-05,0.1013949364423751,0,0,0
3741,140031.59293873937,2011-01-12 02:41:29,1500.7577795031464,2,16,0.5499359965324402,3.980783700942993,11.27570327367917,11.029899723850251,45.53567421776067,39.45802791830708,3.237724376958795e-05,0.1013949364423751,0,0,0
3742,140061.60824363463,2011-01-12 02:41:59,1530.773084398424,2,16,0.5501165986061096,3.9830501079559326,11.28029060971946,11.029899723850251,45.55394087852623,39.45802791830708,6.47544875391759e-05,0.1013949364423751,0,0,0
3743,140091.6232943464,2011-01-12 02:42:29,1560.788135100173,2,16,0.550297200679779,3.985154628753662,11.284877932252826,11.029899723850251,45.57221742218477,39.45802791830708,6.47544875391759e-05,0.1013949364423751,0,0,0
3744,140121.63854052033,2011-01-12 02:42:59,1590.803381279111,2,16,0.550297200679779,3.9874210357666016,11.289465351306584,11.029899723850251,45.590504214278624,39.45802791830708,6.47544875391759e-05,0.1013949364423751,0,0,0
3745,140151.65357602923,2011-01-12 02:43:29,1620.8184168782195,2,16,0.5501165986061096,3.989363670349121,11.294052672666718,11.029899723850251,45.60880041510836,39.45802791830708,6.47544875391759e-05,0.1013949364423751,0,0,0
3746,140181.66876082018,2011-01-12 02:43:59,1650.8336015789353,2,16,0.550297200679779,3.9917919635772714,11.298639985433647,11.029899723850251,45.62710642822135,39.45802791830708,0.0001295089750783,0.1013949364423751,0,0,0
3747,140211.68387849885,2011-01-12 02:44:29,1680.8487192626235,2,16,0.550297200679779,3.99373459815979,11.303227396639038,11.029899723850251,45.64542266735628,39.45802791830708,3.237724376958795e-05,0.1013949364423751,0,0,0
3748,140241.69925915796,2011-01-12 02:44:59,1710.8640999066904,2,16,0.5501165986061096,3.995838880538941,11.307814822051428,11.029899723850251,45.66374883744942,39.45802791830708,3.237724376958795e-05,0.1013949364423751,0,0,0
3749,140271.7142093492,2011-01-12 02:45:29,1740.879050092924,2,16,0.550297200679779,3.99826717376709,11.312402201649473,11.029899723850251,45.68208478844292,39.45802791830708,6.47544875391759e-05,0.1013949364423751,0,0,0
3750,140301.72938409008,2011-01-12 02:45:59,1770.8942248388291,2,16,0.550297200679779,4.000209808349609,11.316989548817412,11.029899723850251,45.70043042243197,39.45802791830708,0.0,0.1013949364423751,0,0,0
3751,140331.74450095673,2011-01-12 02:46:29,1800.9093417205188,2,16,0.550297200679779,4.002476215362549,11.321576906538883,11.029899723850251,45.718786225722376,39.45802791830708,3.23295607813634e-05,0.1013949364423751,0,0,0
3752,140361.75979120051,2011-01-12 02:46:59,1830.9246319642805,2,16,0.5501165986061096,4.004742622375488,11.326164316546626,11.029899723850251,45.73715232471258,39.45802791830708,6.47544875391759e-05,0.1013949364423751,0,0,0
3753,140391.77480923085,2011-01-12 02:47:29,1860.939649994602,2,16,0.550297200679779,4.006847381591797,11.330751657346704,11.029899723850251,45.75552826207412,39.45802791830708,6.47544875391759e-05,0.1013949364423751,0,0,0
3754,140421.79021479702,2011-01-12 02:47:59,1890.9550556510071,2,16,0.5501165986061096,4.008951663970947,11.33533909659612,11.029899723850251,45.77391479024758,39.45802791830708,3.23295607813634e-05,0.1013949364423751,0,0,0
3755,140451.8051211189,2011-01-12 02:48:29,1920.96996187768,2,16,0.5501165986061096,4.011541843414307,11.339926425019392,11.029899723850251,45.79231114629003,39.45802791830708,9.70840483205393e-05,0.1013949364423751,0,0,0
3756,140481.8202739953,2011-01-12 02:48:59,1950.9851147540792,2,16,0.550297200679779,4.013646602630615,11.34451380800957,11.029899723850251,45.81071812565498,39.45802791830708,6.47544875391759e-05,0.1013949364423751,0,0,0
3757,140511.83545473113,2011-01-12 02:49:29,1981.0002954899128,2,16,0.550297200679779,4.0160746574401855,11.349101201616753,11.029899723850251,45.82913557611534,39.45802791830708,9.70840483205393e-05,0.1013949364423751,0,0,0
3758,140541.8506098381,2011-01-12 02:49:59,2011.0154505868472,2,16,0.550297200679779,4.018179416656494,11.353688577073902,11.029899723850251,45.84756348352253,39.45802791830708,6.47544875391759e-05,0.1013949364423751,0,0,0
3759,140571.8657442886,2011-01-12 02:50:29,2041.0305850523607,2,16,0.550297200679779,4.0206074714660645,11.35827602098296,11.029899723850251,45.86600216907823,39.45802791830708,3.23295607813634e-05,0.1013949364423751,0,0,0
3760,140601.88103640202,2011-01-12 02:50:59,2071.04587714072,2,16,0.5501165986061096,4.023036003112793,11.362863422890118,11.029899723850251,45.88445151268736,39.45802791830708,9.71794142969884e-05,0.1013949364423751,0,0,0
3761,140631.89605110904,2011-01-12 02:51:29,2101.060891867809,2,16,0.550297200679779,4.025302410125732,11.36745077781217,11.029899723850251,45.90291147487406,39.45802791830708,6.47544875391759e-05,0.1013949364423751,0,0,0
3762,140661.91122252666,2011-01-12 02:51:59,2131.0760632603565,2,16,0.550297200679779,4.027730464935303,11.372038072191604,11.029899723850251,45.92138201713132,39.45802791830708,6.47544875391759e-05,0.1013949364423751,0,0,0
3763,140691.9263679094,2011-01-12 02:52:29,2161.091208648092,2,16,0.550297200679779,4.030158996582031,11.376625484112967,11.029899723850251,45.93986399693473,39.45802791830708,3.24249267578125e-05,0.1013949364423751,0,0,0
3764,140721.94154063525,2011-01-12 02:52:59,2191.1063813890005,2,16,0.5501165986061096,4.032425403594971,11.38121286754996,11.029899723850251,45.95835690752735,39.45802791830708,3.24249267578125e-05,0.1013949364423751,0,0,0
3765,140751.95668598288,2011-01-12 02:53:29,2221.121526746661,2,16,0.550297200679779,4.034853458404541,11.38580024198648,11.029899723850251,45.976861068804766,39.45802791830708,3.24249267578125e-05,0.1013949364423751,0,0,0
3766,140781.9720710179,2011-01-12 02:53:59,2251.1369117616214,2,16,0.5501165986061096,4.0374436378479,11.390387700062826,11.029899723850251,45.99537690368613,39.45802791830708,6.47544875391759e-05,0.1013949364423751,0,0,0
3767,140811.9871680902,2011-01-12 02:54:29,2281.1520088339403,2,16,0.550297200679779,4.04003381729126,11.394975148006248,11.029899723850251,46.01390421417676,39.45802791830708,0.0001295089750783,0.1013949364423751,0,0,0
3768,140842.0021450131,2011-01-12 02:54:59,2311.166985751797,2,16,0.5501165986061096,4.04246187210083,11.39956246040168,11.029899723850251,46.032442469921016,39.45802791830708,3.23295607813634e-05,0.1013949364423751,0,0,0
3769,140872.01972674797,2011-01-12 02:55:29,2341.184567606959,2,16,0.5501165986061096,4.044890403747559,11.40415017509538,11.029899723850251,46.05099406848536,39.45802791830708,3.24249267578125e-05,0.1013949364423751,0,0,0
3770,140902.0326124238,2011-01-12 02:55:59,2371.19745318756,2,16,0.5501165986061096,4.047642230987549,11.408737148044928,11.029899723850251,46.069554477947726,39.45802791830708,9.70840483205393e-05,0.1013949364423751,0,0,0
3771,140932.04764619833,2011-01-12 02:56:29,2401.212486962121,2,16,0.5501165986061096,4.050232410430908,11.413324517422913,11.029899723850251,46.0881284972297,39.45802791830708,6.47544875391759e-05,0.1013949364423751,0,0,0
3772,140962.06277730048,2011-01-12 02:56:59,2431.2276180642525,2,16,0.5499359965324402,4.052660942077637,11.417911917830168,11.029899723850251,46.10671459882998,39.45802791830708,3.24249267578125e-05,0.1013949364423751,0,0,0
3773,140992.07793565054,2011-01-12 02:57:29,2461.2427764142944,2,16,0.5501165986061096,4.055251121520996,11.422499324454916,11.029899723850251,46.12531287216166,39.45802791830708,0.0,0.1013949364423751,0,0,0
3774,141022.09310170478,2011-01-12 02:57:59,2491.2579424635246,2,16,0.5501165986061096,4.058165073394775,11.42708670292034,11.029899723850251,46.14392324096593,39.45802791830708,6.47544875391759e-05,0.1013949364423751,0,0,0
3775,141052.1082386314,2011-01-12 02:58:30,2521.2730793951846,2,16,0.550297200679779,4.060755252838135,11.43167411009161,11.029899723850251,46.16254609826511,39.45802791830708,3.24249267578125e-05,0.1013949364423751,0,0,0
3776,141082.12342477072,2011-01-12 02:59:00,2551.2882655294734,2,16,0.550297200679779,4.063669204711914,11.436261497052229,11.029899723850251,46.18118104393116,39.45802791830708,9.71794142969884e-05,0.1013949364423751,0,0,0
3777,141112.1385508754,2011-01-12 02:59:30,2581.3033916391623,2,16,0.550297200679779,4.066421031951904,11.440848823030434,11.029899723850251,46.19982856498182,39.45802791830708,6.47544875391759e-05,0.1013949364423751,0,0,0
3778,141142.1538704272,2011-01-12 03:00:00,2611.3187111909683,2,16,0.5501165986061096,4.069334983825684,11.445436205613124,11.029899723850251,46.21848907773431,39.45802791830708,9.70840483205393e-05,0.1013949364423751,0,0,0
3779,141172.16886396144,2011-01-12 03:00:30,2641.3337047252385,2,16,0.550297200679779,4.071925163269043,11.450023549545993,11.029899723850251,46.237162276983625,39.45802791830708,6.47544875391759e-05,0.1013949364423751,0,0,0
3780,141202.18415508742,2011-01-12 03:01:00,2671.348995836161,2,16,0.5501165986061096,4.074839115142822,11.454610884451206,11.029899723850251,46.25584839045407,39.45802791830708,6.47544875391759e-05,0.1013949364423751,0,0,0
3781,141232.19919586944,2011-01-12 03:01:30,2701.3640366332243,2,16,0.550297200679779,4.077753067016602,11.459198165081396,11.029899723850251,46.27454739542092,39.45802791830708,9.70840483205393e-05,0.1013949364423751,0,0,0
3782,141262.21435680595,2011-01-12 03:02:00,2731.379197539637,2,16,0.5501165986061096,4.080667018890381,11.463785544340167,11.029899723850251,46.29326014426642,39.45802791830708,9.70840483205393e-05,0.1013949364423751,0,0,0
3783,141292.2294938178,2011-01-12 03:02:30,2761.39433457656,2,16,0.5501165986061096,4.08358097076416,11.468372859761354,11.029899723850251,46.31198593433486,39.45802791830708,6.47544875391759e-05,0.1013949364423751,0,0,0
3784,141322.2447819162,2011-01-12 03:03:00,2791.409622674975,2,16,0.5501165986061096,4.08649492263794,11.472960142191612,11.029899723850251,46.3307251172274,39.45802791830708,6.47544875391759e-05,0.1013949364423751,0,0,0
3785,141352.2598271844,2011-01-12 03:03:30,2821.424667948194,2,16,0.5501165986061096,4.089570999145508,11.477547424905788,11.029899723850251,46.34947787531051,39.45802791830708,9.71794142969884e-05,0.1013949364423751,0,0,0
3786,141382.2750972178,2011-01-12 03:04:00,2851.439937956522,2,16,0.550297200679779,4.092646598815918,11.482134814895764,11.029899723850251,46.36824483511956,39.45802791830708,0.0001295089750783,0.1013949364423751,0,0,0
3787,141412.2901164762,2011-01-12 03:04:30,2881.454957239968,2,16,0.5501165986061096,4.095560550689697,11.486722126135351,11.029899723850251,46.38702532540873,39.45802791830708,6.47544875391759e-05,0.1013949364423751,0,0,0
3788,141442.30527347288,2011-01-12 03:05:00,2911.470114231623,2,16,0.550297200679779,4.098636627197266,11.491309451695166,11.029899723850251,46.40581996686666,39.45802791830708,9.71794142969884e-05,0.1013949364423751,0,0,0
3789,141472.32044392807,2011-01-12 03:05:30,2941.485284686835,2,16,0.5499359965324402,4.101712226867676,11.495896827460603,11.029899723850251,46.42462909913554,39.45802791830708,6.47544875391759e-05,0.1013949364423751,0,0,0
3790,141502.3357196707,2011-01-12 03:06:00,2971.500560409405,2,16,0.550297200679779,4.104949951171875,11.500484230143478,11.029899723850251,46.44345262309161,39.45802791830708,6.47544875391759e-05,0.1013949364423751,0,0,0
3791,141532.3507362524,2011-01-12 03:06:30,3001.515577016179,2,16,0.5501165986061096,4.108187675476074,11.505071611734731,11.029899723850251,46.46229063371207,39.45802791830708,9.70840483205393e-05,0.1013949364423751,0,0,0
3792,141562.36603748353,2011-01-12 03:07:00,3031.530878227274,2,16,0.550297200679779,4.111425399780273,11.509658986361377,11.029899723850251,46.48114316207363,39.45802791830708,9.70840483205393e-05,0.1013949364423751,0,0,0
3793,141592.38105452643,2011-01-12 03:07:30,3061.5458952851723,2,16,0.5501165986061096,4.114339351654053,11.51424632598791,11.029899723850251,46.50001018400787,39.45802791830708,3.23295607813634e-05,0.1013949364423751,0,0,0
3794,141622.39833512573,2011-01-12 03:08:00,3091.5631758694744,2,16,0.550297200679779,4.117738723754883,11.518834020443412,11.029899723850251,46.51889343303021,39.45802791830708,9.70840483205393e-05,0.1013949364423751,0,0,0
3795,141652.41137830412,2011-01-12 03:08:30,3121.576219067908,2,16,0.5501165986061096,4.120976448059082,11.523421025441118,11.029899723850251,46.537788728799136,39.45802791830708,9.70840483205393e-05,0.1013949364423751,0,0,0
3796,141682.42652579714,2011-01-12 03:09:00,3151.5913665608905,2,16,0.550297200679779,4.124214172363281,11.528008371258752,11.029899723850251,46.55670041999287,39.45802791830708,9.70840483205393e-05,0.1013949364423751,0,0,0
3797,141712.44168794662,2011-01-12 03:09:30,3181.606528705389,2,16,0.550297200679779,4.1274518966674805,11.532595754959791,11.029899723850251,46.57562736444715,39.45802791830708,6.47544875391759e-05,0.1013949364423751,0,0,0
3798,141742.45705845545,2011-01-12 03:10:00,3211.621899219208,2,16,0.5501165986061096,4.130851745605469,11.53718308854908,11.029899723850251,46.59456943981456,39.45802791830708,9.71794142969884e-05,0.1013949364423751,0,0,0
3799,141772.4720385412,2011-01-12 03:10:30,3241.636879294935,2,16,0.550297200679779,4.134251117706299,11.541770461532014,11.029899723850251,46.613527162126985,39.45802791830708,9.70840483205393e-05,0.1013949364423751,0,0,0
3800,141802.48715098682,2011-01-12 03:11:00,3271.651991755606,2,16,0.550297200679779,4.137650966644287,11.54635783812842,11.029899723850251,46.63250045264532,39.45802791830708,9.71794142969884e-05,0.1013949364423751,0,0,0
3801,141832.50231190326,2011-01-12 03:11:30,3301.66715266202,2,16,0.550297200679779,4.141212463378906,11.550945235249875,11.029899723850251,46.651489490481616,39.45802791830708,0.0001295089750783,0.1013949364423751,0,0,0
3802,141862.5174715716,2011-01-12 03:12:00,3331.6823123303466,2,16,0.5501165986061096,4.144611835479736,11.555532684959063,11.029899723850251,46.6704946573082,39.45802791830708,0.0001295089750783,0.1013949364423751,0,0,0
3803,141892.5326993697,2011-01-12 03:12:30,3361.697540223712,2,16,0.5501165986061096,4.148173332214356,11.56012005662338,11.029899723850251,46.689515871433066,39.45802791830708,6.47544875391759e-05,0.1013949364423751,0,0,0
3804,141922.54777055752,2011-01-12 03:13:00,3391.712611321293,2,16,0.5501165986061096,4.151734828948975,11.564707381592864,11.029899723850251,46.70855306768057,39.45802791830708,9.70840483205393e-05,0.1013949364423751,0,0,0
3805,141952.56293212555,2011-01-12 03:13:30,3421.727772889355,2,16,0.5501165986061096,4.155296325683594,11.569294749727458,11.029899723850251,46.72760675755072,39.45802791830708,9.70840483205393e-05,0.1013949364423751,0,0,0
3806,141982.57823804842,2011-01-12 03:14:00,3451.7430788071806,2,16,0.5501165986061096,4.158857822418213,11.573882135504045,11.029899723850251,46.7466769031757,39.45802791830708,6.47544875391759e-05,0.1013949364423751,0,0,0
3807,142012.5932406553,2011-01-12 03:14:30,3481.758081419076,2,16,0.550297200679779,4.162581443786621,11.578469484587758,11.029899723850251,46.76576330906117,39.45802791830708,0.0001295089750783,0.1013949364423751,0,0,0
3808,142042.6086530084,2011-01-12 03:15:00,3511.7734937521204,2,16,0.550297200679779,4.165980815887451,11.583056896217112,11.029899723850251,46.784866485146345,39.45802791830708,6.47544875391759e-05,0.1013949364423751,0,0,0
3809,142072.62358735013,2011-01-12 03:15:30,3541.78842820414,2,16,0.550297200679779,4.16986608505249,11.58764413975496,11.029899723850251,46.80398554904825,39.45802791830708,0.0001295089750783,0.1013949364423751,0,0,0
3810,142102.63885282716,2011-01-12 03:16:00,3571.80369359095,2,16,0.550297200679779,4.173265933990479,11.592231478355792,11.029899723850251,46.82312172161034,39.45802791830708,9.71794142969884e-05,0.1013949364423751,0,0,0
3811,142132.6538610681,2011-01-12 03:16:30,3601.818701826861,2,16,0.550297200679779,4.177151203155518,11.596818801562575,11.029899723850251,46.84227470801116,39.45802791830708,9.71794142969884e-05,0.1013949364423751,0,0,0
3812,142162.66923094032,2011-01-12 03:17:00,3631.834071774268,2,16,0.550297200679779,4.180874347686768,11.601406174722875,11.029899723850251,46.861444997148766,39.45802791830708,0.0001295089750783,0.1013949364423751,0,0,0
3813,142192.6841863646,2011-01-12 03:17:30,3661.8490271283817,2,16,0.550297200679779,4.184597969055176,11.605993566181033,11.029899723850251,46.88063259785389,39.45802791830708,9.71794142969884e-05,0.1013949364423751,0,0,0
3814,142222.69936407288,2011-01-12 03:18:00,3691.8642048316574,2,16,0.550297200679779,4.188321113586426,11.610580936579446,11.029899723850251,46.899837316050586,39.45802791830708,9.70840483205393e-05,0.1013949364423751,0,0,0
3815,142252.71451001702,2011-01-12 03:18:30,3721.879350760742,2,16,0.5501165986061096,4.192044734954834,11.61516829775038,11.029899723850251,46.91905948416766,39.45802791830708,9.71794142969884e-05,0.1013949364423751,0,0,0
3816,142282.72976129365,2011-01-12 03:19:00,3751.8946020574353,2,16,0.5501165986061096,4.195929527282715,11.619755750507975,11.029899723850251,46.938299638107125,39.45802791830708,9.70840483205393e-05,0.1013949364423751,0,0,0
3817,142312.65104581125,2011-01-12 03:19:30,3781.815886559965,2,16,0.550297200679779,4.200138568878174,11.62432880006794,11.029899723850251,46.95749706349066,39.45802791830708,0.0001618385285837,0.1013949364423751,0,0,0
3818,142342.66242599106,2011-01-12 03:20:00,30.015091052315,3,16,0.0,4.102198123931885,11.62432880006794,11.029899723850251,46.95749706349066,39.45802791830708,-0.0004856109735555,0.1013949364423751,0,0,0
3819,142372.67771335767,2011-01-12 03:20:30,60.03037842391807,3,16,0.0,4.090056419372559,11.62432880006794,11.029899723850251,46.95749706349066,39.45802791830708,-0.0002590179501567,0.1013949364423751,0,0,0
3820,142402.6927355634,2011-01-12 03:21:00,90.0454006296462,3,16,0.0,4.0822858810424805,11.62432880006794,11.029899723850251,46.95749706349066,39.45802791830708,-0.0001619339018361,0.1013949364423751,0,0,0
3821,142432.66114013363,2011-01-12 03:21:30,120.01380518484532,3,16,0.0,4.077105522155762,11.62432880006794,11.029899723850251,46.95749706349066,39.45802791830708,-0.0001295089750783,0.1013949364423751,0,0,0
3822,142432.67472261397,2011-01-12 03:21:30,0.015529313828311,4,16,1.018617033958435,4.199814796447754,11.62433322173738,11.029899723850251,46.95751563332492,39.45802791830708,3.23295607813634e-05,0.1013949364423751,0,0,0
3823,142433.51845142577,2011-01-12 03:21:31,0.859258135661186,4,16,0.9685882925987244,4.199814796447754,11.62456475624448,11.029899723850251,46.958488042263966,39.45802791830708,3.23295607813634e-05,0.1013949364423751,0,0,0
3824,142435.4247440736,2011-01-12 03:21:33,2.765550768453685,4,16,0.9178370833396912,4.199653148651123,11.625063266613164,11.029899723850251,46.96058168781731,39.45802791830708,0.0,0.1013949364423751,0,0,0
3825,142438.3152530614,2011-01-12 03:21:36,5.656059771276103,4,16,0.867627739906311,4.199814796447754,11.62577917134074,11.029899723850251,46.963588351138114,39.45802791830708,3.23295607813634e-05,0.1013949364423751,0,0,0
3826,142442.23707072772,2011-01-12 03:21:40,9.577877442626235,4,16,0.8175989389419556,4.199814796447754,11.626696097736348,11.029899723850251,46.96743929840166,39.45802791830708,0.0,0.1013949364423751,0,0,0
3827,142447.42450785218,2011-01-12 03:21:45,14.765314552037385,4,16,0.7673895955085754,4.199814796447754,11.627836740396504,11.029899723850251,46.97222978629704,39.45802791830708,0.0,0.1013949364423751,0,0,0
3828,142454.11191086314,2011-01-12 03:21:52,21.452717563003176,4,16,0.71736079454422,4.199814796447754,11.629213897438095,11.029899723850251,46.978013618946754,39.45802791830708,0.0,0.1013949364423751,0,0,0
3829,142462.95549378288,2011-01-12 03:22:01,30.296300467704125,4,16,0.6673320531845093,4.199976921081543,11.630911659559148,11.029899723850251,46.98514396343786,39.45802791830708,3.24249267578125e-05,0.1013949364423751,0,0,0
3830,142475.04905089329,2011-01-12 03:22:13,42.38985758814275,4,16,0.6173032522201538,4.199814796447754,11.633064348843806,11.029899723850251,46.99418491664675,39.45802791830708,-3.24249267578125e-05,0.1013949364423751,0,0,0
3831,142493.18926195585,2011-01-12 03:22:31,60.53006865572658,4,16,0.5670939087867737,4.199814796447754,11.6360396241966,11.029899723850251,47.006680626562726,39.45802791830708,0.0,0.1013949364423751,0,0,0
3832,142524.26706762498,2011-01-12 03:23:02,91.60787441006816,4,16,0.5168845057487488,4.199976921081543,11.64069950852146,11.029899723850251,47.02625140059165,39.45802791830708,3.24249267578125e-05,0.1013949364423751,0,0,0
3833,142584.5785808784,2011-01-12 03:24:02,151.91938759330947,4,16,0.4668557345867157,4.199976921081543,11.64890021828462,11.029899723850251,47.060693048241056,39.45802791830708,3.24249267578125e-05,0.1013949364423751,0,0,0
3834,142684.67077122434,2011-01-12 03:25:42,252.01157793924853,4,16,0.4168269634246826,4.199814796447754,11.661148960820796,11.029899723850251,47.112135830584286,39.45802791830708,0.0,0.1013949364423751,0,0,0
3835,142814.60612636447,2011-01-12 03:27:52,381.94693307435455,4,16,0.3667981922626495,4.199653148651123,11.675268641732012,11.029899723850251,47.1714362969107,39.45802791830708,-3.23295607813634e-05,0.1013949364423751,0,0,0
3836,142970.6662916499,2011-01-12 03:30:28,538.0070983697832,4,16,0.3167694211006164,4.199814796447754,11.690065415793988,11.029899723850251,47.23358048725788,39.45802791830708,0.0,0.1013949364423751,0,0,0
3837,143159.6632896618,2011-01-12 03:33:37,727.0040963817513,4,16,0.2667406499385834,4.199653148651123,11.705350914034618,11.029899723850251,47.297777063647295,39.45802791830708,-3.23295607813634e-05,0.1013949364423751,0,0,0
3838,143392.19087022453,2011-01-12 03:37:30,959.5316769394492,4,16,0.2167118936777115,4.199814796447754,11.720910324991037,11.029899723850251,47.36312340292773,39.45802791830708,0.0,0.1013949364423751,0,0,0
3839,143692.592427682,2011-01-12 03:42:30,1259.9332343918693,4,16,0.1666831225156784,4.199653148651123,11.736826433969297,11.029899723850251,47.42996858098872,39.45802791830708,0.0,0.1013949364423751,0,0,0
3840,144121.91385098273,2011-01-12 03:49:40,1689.2546576826091,4,16,0.1166543513536453,4.199653148651123,11.75354320079194,11.029899723850251,47.50017639177612,39.45802791830708,-3.23295607813634e-05,0.1013949364423751,0,0,0
3841,144875.99561806646,2011-01-12 04:02:14,2443.3364247763657,4,16,0.0666255801916122,4.199814796447754,11.772203128522705,11.029899723850251,47.57854523179271,39.45802791830708,-3.24249267578125e-05,0.1013949364423751,0,0,0
3842,145327.8950339418,2011-01-12 04:09:46,2895.235840641676,4,16,0.0498289167881011,4.199814796447754,11.779497602165591,11.029899723850251,47.60918092505619,39.45802791830708,0.0,0.1013949364423751,0,0,0
3843,145357.9068220077,2011-01-12 04:10:16,30.015298885298744,5,16,0.0,4.190749645233154,11.779497602165591,11.029899723850251,47.60918092505619,39.45802791830708,-9.70840483205393e-05,0.1013949364423751,0,0,0
3844,145387.9063551299,2011-01-12 04:10:46,60.014832007464754,5,16,0.0,4.189454555511475,11.779497602165591,11.029899723850251,47.60918092505619,39.45802791830708,-3.23295607813634e-05,0.1013949364423751,0,0,0
3845,145388.09137909109,2011-01-12 04:10:46,0.187507200638514,6,16,-1.9243103452026844e-05,4.1892924308776855,11.779497602165591,11.029899724852536,47.60918092505619,39.45802792250594,0.0,0.1036408320069313,0,0,0
3846,145392.91943884655,2011-01-12 04:10:51,5.015566961118481,6,16,0.0012450218200683,4.189454555511475,11.77949873298646,11.029899724936383,47.60918566261771,39.4580279228572,-3.23295607813634e-05,0.1036408320069313,0,0,0
3847,145421.10421927818,2011-01-12 04:11:19,28.18705557543416,7,16,-1.0997490882873535,3.989363670349121,11.77949873298646,11.038509194505265,47.60918566261771,39.49259671058896,-0.0012626647949218,0.1036408320069313,0,0,0
3848,145451.1195094317,2011-01-12 04:11:49,58.20234573398316,7,16,-1.099568486213684,3.9511585235595694,11.77949873298646,11.047676974728748,47.60918566261771,39.52898536395588,-0.0008418083307333,0.1036408320069313,0,0,0
3849,145481.134691551,2011-01-12 04:12:19,88.21752783822758,7,16,-1.099568486213684,3.922828435897827,11.77949873298646,11.05684463786341,47.60918566261771,39.56507250996141,-0.0006475448608398,0.1036408320069313,0,0,0
3850,145511.14969230327,2011-01-12 04:12:49,118.23252858547455,7,16,-1.099568486213684,3.9006502628326416,11.77949873298646,11.066012231122574,47.60918566261771,39.60093003288615,-0.0005180359003134,0.1036408320069313,0,0,0
3851,145541.1650014291,2011-01-12 04:13:19,148.2478377313458,7,16,-1.099568486213684,3.882033348083496,11.77949873298646,11.075179941916774,47.60918566261771,39.63660174399418,-0.0004856586456298,0.1036408320069313,0,0,0
3852,145571.18001763988,2011-01-12 04:13:49,178.2628539220827,7,16,-1.099568486213684,3.86568284034729,11.77949873298646,11.084347625799118,47.60918566261771,39.67211463050574,-0.0004209041653666,0.1036408320069313,0,0,0
3853,145601.19513235116,2011-01-12 04:14:19,208.277968723588,7,16,-1.0997490882873535,3.8507893085479736,11.77949873298646,11.093515274702492,47.60918566261771,39.707485139270055,-0.0003885269106831,0.1036408320069313,0,0,0
3854,145631.21030560334,2011-01-12 04:14:49,238.293141910608,7,16,-1.099568486213684,3.837028980255127,11.77949873298646,11.102682908573728,47.60918566261771,39.74272463479063,-0.0003885269106831,0.1036408320069313,0,0,0
3855,145661.225437317,2011-01-12 04:15:19,268.30827361925105,7,16,-1.0997490882873535,3.824078321456909,11.77949873298646,11.111850622047024,47.60918566261771,39.77784193324698,-0.0003885269106831,0.1036408320069313,0,0,0
3856,145691.2406159576,2011-01-12 04:15:49,298.3234522548505,7,16,-1.099568486213684,3.811613082885742,11.77949873298646,11.121018312209864,47.60918566261771,39.81284228561649,-0.0003237724304199,0.1036408320069313,0,0,0
3857,145721.25588062764,2011-01-12 04:16:19,328.3387169298868,7,16,-1.0993878841400146,3.799633502960205,11.77949873298646,11.1301859776412,47.60918566261771,39.8477298769388,-0.0003237724304199,0.1036408320069313,0,0,0
3858,145751.27126101605,2011-01-12 04:16:49,358.3540973183164,7,16,-1.099568486213684,3.788139581680298,11.77949873298646,11.139353778149186,47.60918566261771,39.88251009014978,-0.0002590179501567,0.1036408320069313,0,0,0
3859,145781.28606581493,2011-01-12 04:17:19,388.3689021171999,7,16,-1.0997490882873535,3.7768075466156006,11.77949873298646,11.14852137957856,47.60918566261771,39.91718653667035,-0.0003237724304199,0.1036408320069313,0,0,0
3860,145811.30122542812,2011-01-12 04:17:49,418.3840617303896,7,16,-1.0997490882873535,3.766284942626953,11.77949873298646,11.157689095159457,47.60918566261771,39.95176404354412,-0.0002913951757363,0.1036408320069313,0,0,0
3861,145841.31858571607,2011-01-12 04:18:19,448.4014221887627,7,16,-1.099568486213684,3.7560861110687256,11.77949873298646,11.166857499591686,47.60918566261771,39.986247689540136,-0.0002590179501567,0.1036408320069313,0,0,0
3862,145871.3315272461,2011-01-12 04:18:49,478.4143635333446,7,16,-1.099568486213684,3.745887517929077,11.77949873298646,11.176024490535587,47.60918566261771,40.02063205661163,-0.0002590179501567,0.1036408320069313,0,0,0
3863,145901.34668570643,2011-01-12 04:19:19,508.4295219936611,7,16,-1.099568486213684,3.7364981174468994,11.77949873298646,11.185192166452277,47.60918566261771,40.05492881956394,-0.0002266406954731,0.1036408320069313,0,0,0
3864,145931.36194251187,2011-01-12 04:19:49,538.4447788141214,7,16,-1.0997490882873535,3.7267849445343018,11.77949873298646,11.194359886276338,47.60918566261771,40.08913863135962,-0.0002913951757363,0.1036408320069313,0,0,0
3865,145961.37698280768,2011-01-12 04:20:19,568.4598191099356,7,16,-1.099568486213684,3.717719316482544,11.77949873298646,11.203527451546442,47.60918566261771,40.12326308771625,-0.0001942634553415,0.1036408320069313,0,0,0
3866,145991.39215019022,2011-01-12 04:20:49,598.474986492489,7,16,-1.099568486213684,3.708815574645996,11.77949873298646,11.212695114924207,47.60918566261771,40.15730512143528,-0.0002590179501567,0.1036408320069313,0,0,0
3867,146021.40725891158,2011-01-12 04:21:20,628.490095208828,7,16,-1.099568486213684,3.700073719024658,11.77949873298646,11.221862586081237,47.60918566261771,40.19126533025938,-0.0002266406954731,0.1036408320069313,0,0,0
3868,146051.422428645,2011-01-12 04:21:50,658.5052649322157,7,16,-1.0997490882873535,3.69165563583374,11.77949873298646,11.231030070670291,47.60918566261771,40.22514679399297,-0.0001942634553415,0.1036408320069313,0,0,0
3869,146081.43758638852,2011-01-12 04:22:20,688.5204226907831,7,16,-1.0997490882873535,3.683075666427612,11.77949873298646,11.240197552314411,47.60918566261771,40.25895079923814,-0.0002590179501567,0.1036408320069313,0,0,0
3870,146111.45287919868,2011-01-12 04:22:50,718.5357154859033,7,16,-1.099568486213684,3.674819469451904,11.77949873298646,11.249365055939414,47.60918566261771,40.29267919759258,-0.0002266406954731,0.1036408320069313,0,0,0
3871,146141.46788305868,2011-01-12 04:23:20,748.5507193559333,7,16,-1.099568486213684,3.667049169540405,11.77949873298646,11.258532586658283,47.60918566261771,40.32633294889728,-0.0001618862152099,0.1036408320069313,0,0,0
3872,146171.4830405616,2011-01-12 04:23:50,778.5658768638762,7,16,-1.0997490882873535,3.6589548587799072,11.77949873298646,11.267700238436976,47.60918566261771,40.35991418037382,-0.0002590179501567,0.1036408320069313,0,0,0
3873,146201.49819072124,2011-01-12 04:24:20,808.5810270184924,7,16,-1.0997490882873535,3.651184320449829,11.77949873298646,11.276867853661017,47.60918566261771,40.39342293596896,-0.0002266406954731,0.1036408320069313,0,0,0
3874,146231.51336159252,2011-01-12 04:24:50,838.5961978947531,7,16,-1.0993878841400146,3.643737554550171,11.77949873298646,11.286035452473875,47.60918566261771,40.42686095409041,-0.0001618862152099,0.1036408320069313,0,0,0
3875,146261.52850244893,2011-01-12 04:25:20,868.6113387511951,7,16,-1.099568486213684,3.636128902435303,11.77949873298646,11.295203015052913,47.60918566261771,40.46023055436987,-0.0002590179501567,0.1036408320069313,0,0,0
3876,146291.54389545883,2011-01-12 04:25:50,898.626731746044,7,16,-1.099568486213684,3.6291677951812735,11.77949873298646,11.304370655817452,47.60918566261771,40.49353378374092,-0.0001618862152099,0.1036408320069313,0,0,0
3877,146321.5588285725,2011-01-12 04:26:20,928.6416648747648,7,16,-1.0993878841400146,3.622206687927246,11.77949873298646,11.313538154745505,47.60918566261771,40.52677158721303,-0.0001618862152099,0.1036408320069313,0,0,0
3878,146351.57410661085,2011-01-12 04:26:50,958.6569429131066,7,16,-1.099568486213684,3.615083694458008,11.77949873298646,11.322705797094873,47.60918566261771,40.55994581744316,-0.0002266406954731,0.1036408320069313,0,0,0
3879,146381.58912092188,2011-01-12 04:27:20,988.6719572241584,7,16,-1.0993878841400146,3.6084463596344,11.77949873298646,11.331873362955362,47.60918566261771,40.59305681638522,-0.0002266406954731,0.1036408320069313,0,0,0
3880,146411.60427600378,2011-01-12 04:27:50,1018.6871123060552,7,16,-1.099568486213684,3.601809024810791,11.77949873298646,11.341040936627474,47.60918566261771,40.626106674422914,-0.0001618862152099,0.1036408320069313,0,0,0
3881,146441.61946217818,2011-01-12 04:28:20,1048.7022984804437,7,16,-1.099568486213684,3.5951716899871826,11.77949873298646,11.350208603001406,47.60918566261771,40.6590971073252,-0.0001942634553415,0.1036408320069313,0,0,0
3882,146471.6345975359,2011-01-12 04:28:50,1078.7174338381813,7,16,-1.0993878841400146,3.589182138442993,11.77949873298646,11.359376241669256,47.60918566261771,40.69202918201079,-0.0001295089750783,0.1036408320069313,0,0,0
3883,146501.6498753136,2011-01-12 04:29:20,1108.7327115958235,7,16,-1.0993878841400146,3.583030462265014,11.77949873298646,11.36854389366636,47.60918566261771,40.72490386812859,-0.0001295089750783,0.1036408320069313,0,0,0
3884,146531.66496825565,2011-01-12 04:29:50,1138.7478045228108,7,16,-1.0997490882873535,3.576716899871826,11.77949873298646,11.377711523645962,47.60918566261771,40.75772197417732,-0.0001942634553415,0.1036408320069313,0,0,0
3885,146561.680059734,2011-01-12 04:30:20,1168.7628960212376,7,16,-1.099568486213684,3.570888996124268,11.77949873298646,11.38687914229888,47.60918566261771,40.79048510001448,-0.0001618862152099,0.1036408320069313,0,0,0
3886,146591.69751361522,2011-01-12 04:30:50,1198.7803500077114,7,16,-1.0997490882873535,3.565061092376709,11.77949873298646,11.396047807210469,47.60918566261771,40.82319852857554,-0.0001618862152099,0.1036408320069313,0,0,0
3887,146621.71037016847,2011-01-12 04:31:20,1228.79320646573,7,16,-1.099568486213684,3.5597188472747803,11.77949873298646,11.405215485253477,47.60918566261771,40.855856621731576,-0.0001295089750783,0.1036408320069313,0,0,0
3888,146651.7255222128,2011-01-12 04:31:50,1258.8083585150684,7,16,-1.0997490882873535,3.554052829742432,11.77949873298646,11.414383952027952,47.60918566261771,40.888467184383565,-0.0001618862152099,0.1036408320069313,0,0,0
3889,146681.74068045258,2011-01-12 04:32:20,1288.8235167498226,7,16,-1.099929690361023,3.548710584640503,11.77949873298646,11.423552330348386,47.60918566261771,40.92102872023785,-0.0001618862152099,0.1036408320069313,0,0,0
3890,146711.75604560305,2011-01-12 04:32:50,1318.8388819052873,7,16,-1.099568486213684,3.543853998184204,11.77949873298646,11.432720493500934,47.60918566261771,40.953542568370885,-0.0001295089750783,0.1036408320069313,0,0,0
3891,146741.7710320647,2011-01-12 04:33:20,1348.8538683518923,7,16,-1.099568486213684,3.5388355255126958,11.77949873298646,11.441888111924332,47.60918566261771,40.98600862956684,-0.0001295089750783,0.1036408320069313,0,0,0
3892,146771.7861514526,2011-01-12 04:33:50,1378.868987754866,7,16,-1.0993878841400146,3.5339789390563965,11.77949873298646,11.45105584390293,47.60918566261771,41.01842955201329,-0.0001618862152099,0.1036408320069313,0,0,0
3893,146801.8013044443,2011-01-12 04:34:20,1408.8841407315151,7,16,-1.099568486213684,3.528960466384888,11.77949873298646,11.460223537399406,47.60918566261771,41.05080582318099,-0.0001295089750783,0.1036408320069313,0,0,0
3894,146831.8164741677,2011-01-12 04:34:50,1438.899310454903,7,16,-1.0993878841400146,3.524427652359009,11.77949873298646,11.469391191298628,47.60918566261771,41.08313798955084,-0.0001618862152099,0.1036408320069313,0,0,0
3895,146861.8316159815,2011-01-12 04:35:20,1468.9144522837687,7,16,-1.0993878841400146,3.51973295211792,11.77949873298646,11.478558909131436,47.60918566261771,41.11542767466213,-0.0001618862152099,0.1036408320069313,0,0,0
3896,146891.84676824138,2011-01-12 04:35:50,1498.929604543632,7,16,-1.0993878841400146,3.515200138092041,11.77949873298646,11.487726613973944,47.60918566261771,41.14767522652676,-0.0001295089750783,0.1036408320069313,0,0,0
3897,146921.861926431,2011-01-12 04:36:20,1528.9447627332736,7,16,-1.099568486213684,3.510667562484741,11.77949873298646,11.496894335324129,47.60918566261771,41.179880744688624,-9.713172767078504e-05,0.1036408320069313,0,0,0
3898,146951.8771069513,2011-01-12 04:36:50,1558.9599432535704,7,16,-1.099568486213684,3.5061347484588623,11.77949873298646,11.5060620331228,47.60918566261771,41.212044553530845,-0.0001295089750783,0.1036408320069313,0,0,0
3899,146981.89224813358,2011-01-12 04:37:20,1588.9750844358248,7,16,-1.099568486213684,3.5012781620025635,11.77949873298646,11.515229785964516,47.60918566261771,41.24416656981615,-0.0001942634553415,0.1036408320069313,0,0,0
3900,147011.90763913342,2011-01-12 04:37:50,1618.990475420664,7,16,-1.099568486213684,3.496745347976685,11.77949873298646,11.524397539397778,47.60918566261771,41.27624650649138,-0.0001618862152099,0.1036408320069313,0,0,0
3901,147041.92254357567,2011-01-12 04:38:20,1649.0053798779263,7,16,-1.099568486213684,3.492374420166016,11.77949873298646,11.533565167459845,47.60918566261771,41.30828388007777,-0.0001295089750783,0.1036408320069313,0,0,0
3902,147071.93774416097,2011-01-12 04:38:50,1679.0205804632317,7,16,-1.0997490882873535,3.4876797199249268,11.77949873298646,11.542732900571378,47.60918566261771,41.34027970848956,-0.0001295089750783,0.1036408320069313,0,0,0
3903,147101.95286056146,2011-01-12 04:39:20,1709.0356968637218,7,16,-1.099568486213684,3.482985019683838,11.77949873298646,11.551900638566872,47.60918566261771,41.37223268825029,-9.713172767078504e-05,0.1036408320069313,0,0,0
3904,147131.9683673449,2011-01-12 04:39:50,1739.0512036471666,7,16,-1.099568486213684,3.477966547012329,11.77949873298646,11.561068359313472,47.60918566261771,41.40414065515122,-0.0001618862152099,0.1036408320069313,0,0,0
3905,147161.9831959431,2011-01-12 04:40:20,1769.0660322403528,7,16,-1.099568486213684,3.4727861881256104,11.77949873298646,11.570235979664949,47.60918566261771,41.4360022030531,-0.0001295089750783,0.1036408320069313,0,0,0
3906,147191.9983392206,2011-01-12 04:40:50,1799.081175507804,7,16,-1.099568486213684,3.467605829238892,11.77949873298646,11.579403629165402,47.60918566261771,41.46781621703236,-0.0001295089750783,0.1036408320069313,0,0,0
3907,147222.0134729643,2011-01-12 04:41:20,1829.0963092665568,7,16,-1.099568486213684,3.462101697921753,11.77949873298646,11.588571316237502,47.60918566261771,41.49958063198836,-0.0001295089750783,0.1036408320069313,0,0,0
3908,147252.02886780375,2011-01-12 04:41:50,1859.1117041761777,7,16,-1.0997490882873535,3.4561119079589844,11.77949873298646,11.597739069314825,47.60918566261771,41.5312932835204,-0.0001618862152099,0.1036408320069313,0,0,0
3909,147282.04378023086,2011-01-12 04:42:20,1889.1266165331288,7,16,-1.099568486213684,3.450122117996216,11.77949873298646,11.606906736281026,47.60918566261771,41.56295121398279,-0.0001618862152099,0.1036408320069313,0,0,0
3910,147312.05996643263,2011-01-12 04:42:50,1919.142802805068,7,16,-1.0993878841400146,3.4436466693878174,11.77949873298646,11.616074700714254,47.60918566261771,41.59455254304456,-0.0001618862152099,0.1036408320069313,0,0,0
3911,147342.0740984748,2011-01-12 04:43:20,1949.15693477706,7,16,-1.099568486213684,3.436523675918579,11.77949873298646,11.625242092624193,47.60918566261771,41.62608901288642,-0.0001942634553415,0.1036408320069313,0,0,0
3912,147372.08928531082,2011-01-12 04:43:50,1979.172121613097,7,16,-1.099568486213684,3.42859148979187,11.77949873298646,11.634409785779445,47.60918566261771,41.6575587846474,-0.0002266406954731,0.1036408320069313,0,0,0
3913,147402.10442303948,2011-01-12 04:44:20,2009.187259321694,7,16,-1.0997490882873535,3.420011520385742,11.77949873298646,11.643577542947984,47.60918566261771,41.68895332434658,-0.0002590179501567,0.1036408320069313,0,0,0
3914,147432.11958980048,2011-01-12 04:44:50,2039.2024261929728,7,16,-1.099568486213684,3.4102983474731445,11.77949873298646,11.652745239751438,47.60918566261771,41.72026314638868,-0.0002266406954731,0.1036408320069313,0,0,0
3915,147462.1347235442,2011-01-12 04:45:20,2069.2175598464632,7,16,-1.0993878841400146,3.3989663124084477,11.77949873298646,11.661912896565775,47.60918566261771,41.751476159568696,-0.0002590179501567,0.1036408320069313,0,0,0
3916,147492.14994683108,2011-01-12 04:45:50,2099.232783223573,7,16,-1.099568486213684,3.3856916427612305,11.77949873298646,11.671080636241822,47.60918566261771,41.78257699560488,-0.0003561496851034,0.1036408320069313,0,0,0
3917,147522.16505254997,2011-01-12 04:46:20,2129.2478888321666,7,16,-1.0997490882873535,3.3695030212402344,11.77949873298646,11.68024837289361,47.60918566261771,41.813543592522336,-0.0004532813909463,0.1036408320069313,0,0,0
3918,147552.1802219776,2011-01-12 04:46:50,2159.263058279867,7,16,-1.0997490882873535,3.3497531414031982,11.77949873298646,11.689416141096617,47.60918566261771,41.84434663343604,-0.0005503654247149,0.1036408320069313,0,0,0
3919,147582.19537612717,2011-01-12 04:47:20,2189.2782125196645,7,16,-1.0993878841400146,3.325308322906494,11.77949873298646,11.698583899131306,47.60918566261771,41.87494816558855,-0.0007122993702068,0.1036408320069313,0,0,0
3920,147612.21049602638,2011-01-12 04:47:50,2219.2933323286497,7,16,-1.099568486213684,3.294388055801392,11.77949873298646,11.707751586299464,47.60918566261771,41.90529837231586,-0.0009389400365762,0.1036408320069313,0,0,0
3921,147642.22565371476,2011-01-12 04:48:20,2249.3084900170425,7,16,-1.099568486213684,3.2547261714935303,11.77949873298646,11.716919399164333,47.60918566261771,41.93532673520371,-0.0011979580158367,0.1036408320069313,0,0,0
3922,147672.24102795287,2011-01-12 04:48:50,2279.323864255144,7,16,-1.099568486213684,3.202760696411133,11.77949873298646,11.726087205249618,47.60918566261771,41.96493789787537,-0.0015541076427325,0.1036408320069313,0,0,0
3923,147702.25597900126,2011-01-12 04:49:20,2309.3388153035257,7,16,-1.099568486213684,3.131692886352539,11.77949873298646,11.735254873140738,47.60918566261771,41.99399046267831,-0.0021368979942053,0.1036408320069313,0,0,0
3924,147732.27113303053,2011-01-12 04:49:50,2339.353969332799,7,16,-1.099568486213684,3.0308380126953125,11.77949873298646,11.744422642586068,47.60918566261771,42.02226824067027,-0.0031405924819409,0.1036408320069313,0,0,0
3925,147762.2885471276,2011-01-12 04:50:20,2369.3713836153183,7,16,-1.099568486213684,2.8775322437286377,11.77949873298646,11.753591063838597,47.60918566261771,42.04940143090964,-0.0047918320633471,0.1036408320069313,0,0,0
3926,147787.70778668387,2011-01-12 04:50:46,2394.790622971097,7,16,-1.0993878841400146,2.699943780899048,11.77949873298646,11.761355023959974,47.60918566261771,42.07107350518048,-0.005892610643059,0.1036408320069313,0,0,0
3927,147847.72661232483,2011-01-12 04:51:46,60.01483522047256,8,16,0.0,3.557128667831421,11.77949873298646,11.761355023959974,47.60918566261771,42.07107350518048,0.0013274669181555,0.1036408320069313,0,0,0
3928,147847.91884710337,2011-01-12 04:51:46,0.187446133440267,9,16,-1.9243103452026844e-05,3.557290554046631,11.77949873298646,11.761355024961931,47.60918566261771,42.07107350874474,0.0,0.1037345305085182,0,0,0
3929,147852.74691681864,2011-01-12 04:51:51,5.015515848730683,9,16,0.0010644125286489,3.565222978591919,11.77949982469818,11.761355025045852,47.60918955105651,42.07107350904327,0.0011655807029455,0.1037345305085182,0,0,0
