Data_Point,Test_Time(s),Date_Time,Step_Time(s),Step_Index,Cycle_Index,Current(A),Voltage(V),Charge_Capacity(Ah),Discharge_Capacity(Ah),Charge_Energy(Wh),Discharge_Energy(Wh),dV/dt(V/s),Internal_Resistance(Ohm),Is_FC_Data,AC_Impedance(Ohm),ACI_Phase_Angle(Deg)
5830,219904.7611791678,2011-01-13 00:52:53,30.01508148847898,1,25,0.0,3.60666561126709,17.471415087574574,17.439538816208866,70.64654903546182,62.32297528121848,0.0006799221155233,0.102924108505249,0,0,0
5831,219934.7763106559,2011-01-13 00:53:23,60.03021299662235,1,25,0.0,3.627387046813965,17.471415087574574,17.439538816208866,70.64654903546182,62.32297528121848,0.0004532813909463,0.102924108505249,0,0,0
5832,219964.79141215928,2011-01-13 00:53:53,90.04531449497209,1,25,0.0,3.642280578613281,17.471415087574574,17.439538816208866,70.64654903546182,62.32297528121848,0.0003237724304199,0.102924108505249,0,0,0
5833,219994.759670064,2011-01-13 00:54:23,120.01357238463557,1,25,0.0,3.653450727462769,17.471415087574574,17.439538816208866,70.64654903546182,62.32297528121848,0.0002590179501567,0.102924108505249,0,0,0
5834,220024.7716679723,2011-01-13 00:54:53,30.01553858771091,2,25,0.5499359965324402,3.775836229324341,17.476001817292786,17.439538816208866,70.66377508687566,62.32297528121848,0.0008418083307333,0.102924108505249,0,0,0
5835,220054.78636569428,2011-01-13 00:55:23,60.0302362946883,2,25,0.5501165986061096,3.798338413238525,17.48058836603814,17.439538816208866,70.68114970070651,62.32297528121848,0.0004532813909463,0.102924108505249,0,0,0
5836,220084.80149059097,2011-01-13 00:55:53,90.04536118132884,2,25,0.5501165986061096,3.812098741531372,17.485175088621986,17.439538816208866,70.69860572990814,62.32297528121848,0.0002590179501567,0.102924108505249,0,0,0
5837,220114.81661059544,2011-01-13 00:56:23,120.06048119582653,2,25,0.5501165986061096,3.82262134552002,17.489761694504434,17.439538816208866,70.71611589252193,62.32297528121848,0.0001942634553415,0.102924108505249,0,0,0
5838,220144.83188123527,2011-01-13 00:56:53,150.07575183572905,2,25,0.5501165986061096,3.831363201141357,17.494348301436162,17.439538816208866,70.73366929060876,62.32297528121848,0.0001942634553415,0.102924108505249,0,0,0
5839,220174.8469000125,2011-01-13 00:57:23,180.0907706078997,2,25,0.5501165986061096,3.8392953872680655,17.498934931032732,17.439538816208866,70.75126050889196,62.32297528121848,0.0002266406954731,0.102924108505249,0,0,0
5840,220204.86210522932,2011-01-13 00:57:53,210.10597582976035,2,25,0.550297200679779,3.8464183807373047,17.503521606168018,17.439538816208866,70.76888615315956,62.32297528121848,0.0002590179501567,0.102924108505249,0,0,0
5841,220234.8772165572,2011-01-13 00:58:23,240.1210871676332,2,25,0.5499359965324402,3.853055715560913,17.50810820236809,17.439538816208866,70.78654309167285,62.32297528121848,0.0001942634553415,0.102924108505249,0,0,0
5842,220264.8922180513,2011-01-13 00:58:53,270.1360886517166,2,25,0.5499359965324402,3.859207391738892,17.512694792771413,17.439538816208866,70.80422954837859,62.32297528121848,0.0001618862152099,0.102924108505249,0,0,0
5843,220294.90745636064,2011-01-13 00:59:23,300.15132697106634,2,25,0.5501165986061096,3.86519718170166,17.517281386857988,17.439538816208866,70.8219439639289,62.32297528121848,0.0001618862152099,0.102924108505249,0,0,0
5844,220324.9224590026,2011-01-13 00:59:53,330.1663295929856,2,25,0.5501165986061096,3.870701313018799,17.52186804093835,17.439538816208866,70.83968509990635,62.32297528121848,0.0001618862152099,0.102924108505249,0,0,0
5845,220354.937575764,2011-01-13 01:00:23,360.181446359388,2,25,0.5501165986061096,3.8762054443359375,17.526454631431566,17.439538816208866,70.85745108119323,62.32297528121848,0.0001618862152099,0.102924108505249,0,0,0
5846,220384.9527229061,2011-01-13 01:00:53,390.196593521546,2,25,0.5501165986061096,3.881385803222656,17.531041220255563,17.439538816208866,70.87524116206431,62.32297528121848,0.0001942634553415,0.102924108505249,0,0,0
5847,220414.9678135173,2011-01-13 01:01:23,420.2116840976743,2,25,0.5501165986061096,3.886242389678955,17.53562790530331,17.439538816208866,70.89305482404791,62.32297528121848,0.0001295089750783,0.102924108505249,0,0,0
5848,220444.9829369353,2011-01-13 01:01:53,450.2268075256794,2,25,0.5501165986061096,3.890937089920044,17.54021452230317,17.439538816208866,70.91089060280657,62.32297528121848,9.713172767078504e-05,0.102924108505249,0,0,0
5849,220474.99813335523,2011-01-13 01:02:23,480.2420039556279,2,25,0.5499359965324402,3.895631790161133,17.5448011169535,17.439538816208866,70.9287477603318,62.32297528121848,0.0001618862152099,0.102924108505249,0,0,0
5850,220505.01318296927,2011-01-13 01:02:53,510.25705355964095,2,25,0.5501165986061096,3.900164604187012,17.549387739346624,17.439538816208866,70.94662583740191,62.32297528121848,0.0001295089750783,0.102924108505249,0,0,0
5851,220535.0282936204,2011-01-13 01:03:23,540.2721642108023,2,25,0.550297200679779,3.9045355319976807,17.55397434559911,17.439538816208866,70.96452402710516,62.32297528121848,0.0001295089750783,0.102924108505249,0,0,0
5852,220565.0434065172,2011-01-13 01:03:53,570.2872771075604,2,25,0.5501165986061096,3.9085826873779297,17.558560954123934,17.439538816208866,70.98244146868007,62.32297528121848,0.0001295089750783,0.102924108505249,0,0,0
5853,220595.05855533847,2011-01-13 01:04:23,600.3024259589284,2,25,0.5501165986061096,3.9124679565429688,17.56314757999524,17.439538816208866,71.00037756933752,62.32297528121848,9.713172767078504e-05,0.102924108505249,0,0,0
5854,220625.0736607215,2011-01-13 01:04:53,630.317531311885,2,25,0.5501165986061096,3.9163529872894287,17.567734228946733,17.439538816208866,71.0183315342997,62.32297528121848,0.0001618862152099,0.102924108505249,0,0,0
5855,220655.09118620612,2011-01-13 01:05:23,660.3350569268794,2,25,0.5501165986061096,3.919752597808838,17.572321171601043,17.439538816208866,71.03630362777574,62.32297528121848,9.713172767078504e-05,0.102924108505249,0,0,0
5856,220685.10384752785,2011-01-13 01:05:53,690.3477181232456,2,25,0.5501165986061096,3.923314094543457,17.57690722924911,17.439538816208866,71.0542884387789,62.32297528121848,9.713172767078504e-05,0.102924108505249,0,0,0
5857,220715.11900961224,2011-01-13 01:06:23,720.3628802075943,2,25,0.550297200679779,3.926551818847656,17.581493755611326,17.439538816208866,71.07229056345359,62.32297528121848,9.713172767078504e-05,0.102924108505249,0,0,0
5858,220745.1341191005,2011-01-13 01:06:53,750.3779898261821,2,25,0.5501165986061096,3.929789543151856,17.586080316529124,17.439538816208866,71.09030765738339,62.32297528121848,9.713172767078504e-05,0.102924108505249,0,0,0
5859,220775.14922797217,2011-01-13 01:07:23,780.3930985725963,2,25,0.5499359965324402,3.9327034950256343,17.590666247585617,17.439538816208866,71.1083363885484,62.32297528121848,6.47544875391759e-05,0.102924108505249,0,0,0
5860,220805.16439139488,2011-01-13 01:07:53,810.4082619952804,2,25,0.5501165986061096,3.935941219329834,17.595252058644228,17.439538816208866,71.12637845892111,62.32297528121848,9.713172767078504e-05,0.102924108505249,0,0,0
5861,220835.17948615644,2011-01-13 01:08:24,840.4233567768903,2,25,0.550297200679779,3.9386932849884033,17.599838528171954,17.439538816208866,71.14443656339104,62.32297528121848,9.713172767078504e-05,0.102924108505249,0,0,0
5862,220865.1946458849,2011-01-13 01:08:54,870.4385164803048,2,25,0.550297200679779,3.9414453506469727,17.60442510786812,17.439538816208866,71.16250808876198,62.32297528121848,6.47544875391759e-05,0.102924108505249,0,0,0
5863,220895.2097333583,2011-01-13 01:09:24,900.4536039537,2,25,0.5501165986061096,3.944359302520752,17.60901167459559,17.439538816208866,71.18059216487694,62.32297528121848,9.713172767078504e-05,0.102924108505249,0,0,0
5864,220925.2248589166,2011-01-13 01:09:54,930.468729527052,2,25,0.5499359965324402,3.946787595748901,17.613598294608877,17.439538816208866,71.19868893546538,62.32297528121848,3.237724376958795e-05,0.102924108505249,0,0,0
5865,220955.2399698936,2011-01-13 01:10:24,960.483840499013,2,25,0.5501165986061096,3.949539661407471,17.61818488104461,17.439538816208866,71.21679770415761,62.32297528121848,9.713172767078504e-05,0.102924108505249,0,0,0
5866,220985.25513322104,2011-01-13 01:10:54,990.4990038264598,2,25,0.550297200679779,3.95229172706604,17.622771487226192,17.439538816208866,71.23491861644385,62.32297528121848,9.713172767078504e-05,0.102924108505249,0,0,0
5867,221015.2702457168,2011-01-13 01:11:24,1020.5141163322436,2,25,0.5499359965324402,3.95455813407898,17.627358035611255,17.439538816208866,71.25305115090484,62.32297528121848,3.237724376958795e-05,0.102924108505249,0,0,0
5868,221045.2853298268,2011-01-13 01:11:54,1050.5292004372436,2,25,0.550297200679779,3.957472085952759,17.631944631301444,17.439538816208866,71.27119564782906,62.32297528121848,0.0001295089750783,0.102924108505249,0,0,0
5869,221075.30046618707,2011-01-13 01:12:24,1080.5443367924674,2,25,0.5499359965324402,3.959900379180908,17.636531244289355,17.439538816208866,71.28935192365662,62.32297528121848,6.47544875391759e-05,0.102924108505249,0,0,0
5870,221105.31571437092,2011-01-13 01:12:54,1110.5595849713902,2,25,0.550297200679779,3.9623286724090576,17.641117937255206,17.439538816208866,71.30752005908201,62.32297528121848,6.47544875391759e-05,0.102924108505249,0,0,0
5871,221135.3308034333,2011-01-13 01:13:24,1140.5746740537957,2,25,0.550297200679779,3.964756965637207,17.645704563070193,17.439538816208866,71.32569930330628,62.32297528121848,6.47544875391759e-05,0.102924108505249,0,0,0
5872,221165.34581913787,2011-01-13 01:13:54,1170.5896897332582,2,25,0.550297200679779,3.967185258865357,17.650291238647213,17.439538816208866,71.34389010677688,62.32297528121848,9.713172767078504e-05,0.102924108505249,0,0,0
5873,221195.36093574387,2011-01-13 01:14:24,1200.604806339261,2,25,0.5501165986061096,3.969775438308716,17.654877834276686,17.439538816208866,71.36209178964856,62.32297528121848,6.47544875391759e-05,0.102924108505249,0,0,0
5874,221225.3760770815,2011-01-13 01:14:54,1230.619947701965,2,25,0.5501165986061096,3.9720418453216553,17.659464507264417,17.439538816208866,71.38030498808945,62.32297528121848,3.237724376958795e-05,0.102924108505249,0,0,0
5875,221255.3912154768,2011-01-13 01:15:24,1260.6350860772234,2,25,0.5501165986061096,3.9744701385498047,17.664051185889573,17.439538816208866,71.39852924047618,62.32297528121848,6.47544875391759e-05,0.102924108505249,0,0,0
5876,221285.4062888902,2011-01-13 01:15:54,1290.6501594905765,2,25,0.5501165986061096,3.976898431777954,17.668637876099226,17.439538816208866,71.41676449176393,62.32297528121848,6.47544875391759e-05,0.102924108505249,0,0,0
5877,221315.42140787712,2011-01-13 01:16:24,1320.6652784825255,2,25,0.5501165986061096,3.979326725006104,17.673224505662187,17.439538816208866,71.43501000100544,62.32297528121848,3.237724376958795e-05,0.102924108505249,0,0,0
5878,221345.43651728012,2011-01-13 01:16:54,1350.680387880564,2,25,0.5499359965324402,3.981593132019043,17.67781113869129,17.439538816208866,71.45326671382281,62.32297528121848,6.47544875391759e-05,0.102924108505249,0,0,0
5879,221375.45179116816,2011-01-13 01:17:24,1380.695661783599,2,25,0.5499359965324402,3.983697652816773,17.682397746531866,17.439538816208866,71.47153402929928,62.32297528121848,0.0,0.102924108505249,0,0,0
5880,221405.46679470732,2011-01-13 01:17:54,1410.7106653027547,2,25,0.5499359965324402,3.986125946044922,17.68698424832453,17.439538816208866,71.48981159781354,62.32297528121848,3.237724376958795e-05,0.102924108505249,0,0,0
5881,221435.48193294727,2011-01-13 01:18:24,1440.7258035527009,2,25,0.550297200679779,3.9885542392730713,17.691570802810094,17.439538816208866,71.50809999682835,62.32297528121848,6.47544875391759e-05,0.102924108505249,0,0,0
5882,221465.4992563433,2011-01-13 01:18:54,1470.7431270489528,2,25,0.5501165986061096,3.9908206462860103,17.696157722875935,17.439538816208866,71.52640037122848,62.32297528121848,6.47544875391759e-05,0.102924108505249,0,0,0
5883,221495.51229931612,2011-01-13 01:19:24,1500.7561700318486,2,25,0.5499359965324402,3.99308705329895,17.70074404237622,17.439538816208866,71.54470887180862,62.32297528121848,6.47544875391759e-05,0.102924108505249,0,0,0
5884,221525.5273086448,2011-01-13 01:19:54,1530.7711792502082,2,25,0.5499359965324402,3.995353221893311,17.705330577624288,17.439538816208866,71.56302868163115,62.32297528121848,3.237724376958795e-05,0.102924108505249,0,0,0
5885,221555.54239192777,2011-01-13 01:20:24,1560.7862625281473,2,25,0.5501165986061096,3.99778151512146,17.709917156337497,17.439538816208866,71.58135914732858,62.32297528121848,9.713172767078504e-05,0.102924108505249,0,0,0
5886,221585.5577412688,2011-01-13 01:20:54,1590.801611979472,2,25,0.5501165986061096,3.9998860359191895,17.714503778788842,17.439538816208866,71.59970014630984,62.32297528121848,3.237724376958795e-05,0.102924108505249,0,0,0
5887,221615.5726368189,2011-01-13 01:21:24,1620.8165074142478,2,25,0.5501165986061096,4.002314567565918,17.71909030958189,17.439538816208866,71.61805130570076,62.32297528121848,6.47544875391759e-05,0.102924108505249,0,0,0
5888,221645.587777164,2011-01-13 01:21:54,1650.831647769441,2,25,0.5501165986061096,4.004418849945068,17.72367693133984,17.439538816208866,71.63641324734887,62.32297528121848,3.23295607813634e-05,0.102924108505249,0,0,0
5889,221675.6029991276,2011-01-13 01:22:24,1680.8468697681144,2,25,0.5501165986061096,4.006685256958008,17.728263554381105,17.439538816208866,71.65478568231055,62.32297528121848,6.47544875391759e-05,0.102924108505249,0,0,0
5890,221705.61810213976,2011-01-13 01:22:54,1710.8619728554245,2,25,0.5501165986061096,4.008951663970947,17.732850117918563,17.439538816208866,71.6731683984914,62.32297528121848,3.23295607813634e-05,0.102924108505249,0,0,0
5891,221735.6331181049,2011-01-13 01:23:24,1740.876988790524,2,25,0.5501165986061096,4.011380195617676,17.73743670958577,17.439538816208866,71.69156174319997,62.32297528121848,3.24249267578125e-05,0.102924108505249,0,0,0
5892,221765.64823435503,2011-01-13 01:23:54,1770.8921049504147,2,25,0.5501165986061096,4.013808250427246,17.74202328287108,17.439538816208866,71.70996553918711,62.32297528121848,9.70840483205393e-05,0.102924108505249,0,0,0
5893,221795.6633531114,2011-01-13 01:24:24,1800.9072237017645,2,25,0.5501165986061096,4.0160746574401855,17.746609859381685,17.439538816208866,71.72837998670654,62.32297528121848,6.47544875391759e-05,0.102924108505249,0,0,0
5894,221825.6786134105,2011-01-13 01:24:54,1830.922484015932,2,25,0.550297200679779,4.018341064453125,17.751196505252732,17.439538816208866,71.74680542506658,62.32297528121848,6.47544875391759e-05,0.102924108505249,0,0,0
5895,221855.6936572552,2011-01-13 01:25:24,1860.9375278856537,2,25,0.550297200679779,4.0207695960998535,17.755783070176534,17.439538816208866,71.76524111139362,62.32297528121848,6.47544875391759e-05,0.102924108505249,0,0,0
5896,221885.7087223528,2011-01-13 01:25:54,1890.9525929532065,2,25,0.5501165986061096,4.023036003112793,17.760369595112348,17.439538816208866,71.78368741663624,62.32297528121848,6.47544875391759e-05,0.102924108505249,0,0,0
5897,221915.72382854787,2011-01-13 01:26:24,1920.9676991532745,2,25,0.5501165986061096,4.025464057922363,17.76495619185178,17.439538816208866,71.80214482597304,62.32297528121848,9.70840483205393e-05,0.102924108505249,0,0,0
5898,221945.739275412,2011-01-13 01:26:54,1950.9831460173816,2,25,0.5501165986061096,4.027730464935303,17.769542794051986,17.439538816208866,71.82061323962807,62.32297528121848,3.23295607813634e-05,0.102924108505249,0,0,0
5899,221975.7540745417,2011-01-13 01:27:24,1980.9979451371107,2,25,0.550297200679779,4.030158996582031,17.77412935410163,17.439538816208866,71.83909250970667,62.32297528121848,6.47544875391759e-05,0.102924108505249,0,0,0
5900,222005.76918756377,2011-01-13 01:27:54,2011.0130581641936,2,25,0.550297200679779,4.032749176025391,17.778715853472686,17.439538816208866,71.85758258364338,62.32297528121848,6.47544875391759e-05,0.102924108505249,0,0,0
5901,222035.7843128865,2011-01-13 01:28:24,2041.0281834969464,2,25,0.5501165986061096,4.035015106201172,17.78330237107069,17.439538816208866,71.87608385496885,62.32297528121848,6.47544875391759e-05,0.102924108505249,0,0,0
5902,222065.79958378203,2011-01-13 01:28:54,2071.0434543974984,2,25,0.550297200679779,4.0374436378479,17.787888946154833,17.439538816208866,71.89459660443379,62.32297528121848,3.24249267578125e-05,0.102924108505249,0,0,0
5903,222095.8145522388,2011-01-13 01:29:24,2101.0584228342177,2,25,0.5501165986061096,4.04003381729126,17.79247549756892,17.439538816208866,71.91312060004331,62.32297528121848,9.71794142969884e-05,0.102924108505249,0,0,0
5904,222125.82971154625,2011-01-13 01:29:54,2131.0735821516705,2,25,0.5499359965324402,4.04246187210083,17.797062113206625,17.439538816208866,71.93165614520046,62.32297528121848,6.47544875391759e-05,0.102924108505249,0,0,0
5905,222155.8447849546,2011-01-13 01:30:24,2161.088655560011,2,25,0.5501165986061096,4.0450520515441895,17.80164873386977,17.439538816208866,71.9502032942363,62.32297528121848,9.70840483205393e-05,0.102924108505249,0,0,0
5906,222185.8599236156,2011-01-13 01:30:54,2191.103794236019,2,25,0.5501165986061096,4.047480583190918,17.80623534047795,17.439538816208866,71.96876197532785,62.32297528121848,0.0,0.102924108505249,0,0,0
5907,222215.87502163523,2011-01-13 01:31:24,2221.118892255699,2,25,0.5501165986061096,4.050232410430908,17.810821921565196,17.439538816208866,71.98733231369057,62.32297528121848,9.70840483205393e-05,0.102924108505249,0,0,0
5908,222245.890146156,2011-01-13 01:31:54,2251.13401678144,2,25,0.5501165986061096,4.052660942077637,17.815408532682056,17.439538816208866,72.00591446373724,62.32297528121848,3.24249267578125e-05,0.102924108505249,0,0,0
5909,222275.90528936827,2011-01-13 01:32:24,2281.1491599887413,2,25,0.5504778623580933,4.055251121520996,17.819995116317823,17.439538816208866,72.0245083837277,62.32297528121848,3.24249267578125e-05,0.102924108505249,0,0,0
5910,222305.92046601395,2011-01-13 01:32:54,2311.1643367095685,2,25,0.550297200679779,4.058002948760986,17.824581786398408,17.439538816208866,72.04311466602647,62.32297528121848,6.47544875391759e-05,0.102924108505249,0,0,0
5911,222335.9355075077,2011-01-13 01:33:24,2341.1793781031183,2,25,0.5501165986061096,4.060593128204346,17.8291684495195,17.439538816208866,72.06173314344807,62.32297528121848,6.47544875391759e-05,0.102924108505249,0,0,0
5912,222365.9508300821,2011-01-13 01:33:54,2371.194700777708,2,25,0.550297200679779,4.063183307647705,17.833754974141254,17.439538816208866,72.08036286420214,62.32297528121848,6.47544875391759e-05,0.102924108505249,0,0,0
5913,222395.9657447347,2011-01-13 01:34:24,2401.209615335143,2,25,0.550297200679779,4.0659356117248535,17.83834149067057,17.439538816208866,72.09900506088213,62.32297528121848,6.47544875391759e-05,0.102924108505249,0,0,0
5914,222425.98089051343,2011-01-13 01:34:54,2431.224761113853,2,25,0.5501165986061096,4.068849563598633,17.842928056149038,17.439538816208866,72.11766003173294,62.32297528121848,9.71794142969884e-05,0.102924108505249,0,0,0
5915,222455.99598500432,2011-01-13 01:35:24,2461.2398555997256,2,25,0.5501165986061096,4.071439743041992,17.847514615562055,17.439538816208866,72.1363276644182,62.32297528121848,9.71794142969884e-05,0.102924108505249,0,0,0
5916,222486.01112553492,2011-01-13 01:35:54,2491.254996155418,2,25,0.5499359965324402,4.074191570281982,17.852101182299855,17.439538816208866,72.15500813757636,62.32297528121848,6.47544875391759e-05,0.102924108505249,0,0,0
5917,222516.02623563475,2011-01-13 01:36:24,2521.27010624518,2,25,0.5499359965324402,4.076943874359131,17.856687839321403,17.439538816208866,72.17370198607287,62.32297528121848,3.24249267578125e-05,0.102924108505249,0,0,0
5918,222546.0415596727,2011-01-13 01:36:54,2551.285430273142,2,25,0.5499359965324402,4.079695701599121,17.86127442646395,17.439538816208866,72.19240851523038,62.32297528121848,3.23295607813634e-05,0.102924108505249,0,0,0
5919,222576.0587579719,2011-01-13 01:37:24,2581.3026286876525,2,25,0.5501165986061096,4.0827717781066895,17.8658613148322,17.439538816208866,72.21112930686176,62.32297528121848,6.47544875391759e-05,0.102924108505249,0,0,0
5920,222606.07159576844,2011-01-13 01:37:54,2611.3154663688733,2,25,0.5501165986061096,4.085685729980469,17.870447546381804,17.439538816208866,72.22986082220208,62.32297528121848,3.24249267578125e-05,0.102924108505249,0,0,0
5921,222636.08671948212,2011-01-13 01:38:24,2641.3305900825903,2,25,0.5501165986061096,4.088761329650879,17.8750341629308,17.439538816208866,72.24860734190236,62.32297528121848,9.70840483205393e-05,0.102924108505249,0,0,0
5922,222666.1018714664,2011-01-13 01:38:54,2671.345742071779,2,25,0.5501165986061096,4.091675281524658,17.879620698759314,17.439538816208866,72.2673671403186,62.32297528121848,6.47544875391759e-05,0.102924108505249,0,0,0
5923,222696.1169744434,2011-01-13 01:39:24,2701.3608450638512,2,25,0.5499359965324402,4.0945892333984375,17.884207291176175,17.439538816208866,72.28614080322373,62.32297528121848,6.47544875391759e-05,0.102924108505249,0,0,0
5924,222726.13207446304,2011-01-13 01:39:54,2731.3759450634657,2,25,0.5499359965324402,4.097665309906006,17.88879388228829,17.439538816208866,72.3049283022159,62.32297528121848,6.47544875391759e-05,0.102924108505249,0,0,0
5925,222756.1473237397,2011-01-13 01:40:25,2761.391194345137,2,25,0.5501165986061096,4.100740909576416,17.893380452491407,17.439538816208866,72.32372969194353,62.32297528121848,6.47544875391759e-05,0.102924108505249,0,0,0
5926,222786.1623275145,2011-01-13 01:40:55,2791.406198109905,2,25,0.550297200679779,4.103978633880615,17.897967015477107,17.439538816208866,72.34254507956292,62.32297528121848,0.0001295089750783,0.102924108505249,0,0,0
5927,222816.17742631616,2011-01-13 01:41:25,2821.4212969115333,2,25,0.5501165986061096,4.1068925857543945,17.902553551922672,17.439538816208866,72.3613745757045,62.32297528121848,6.47544875391759e-05,0.102924108505249,0,0,0
5928,222846.19257803969,2011-01-13 01:41:55,2851.43644863506,2,25,0.550297200679779,4.110130310058594,17.907140088901667,17.439538816208866,72.38021836216264,62.32297528121848,6.47544875391759e-05,0.102924108505249,0,0,0
5929,222876.2076720945,2011-01-13 01:42:25,2881.451542689858,2,25,0.5501165986061096,4.113206386566162,17.91172667928972,17.439538816208866,72.39907677085917,62.32297528121848,6.47544875391759e-05,0.102924108505249,0,0,0
5930,222906.2228218581,2011-01-13 01:42:55,2911.466692478562,2,25,0.550297200679779,4.116605758666992,17.91631323721109,17.439538816208866,72.4179496752663,62.32297528121848,0.0001295089750783,0.102924108505249,0,0,0
5931,222936.23790594807,2011-01-13 01:43:25,2941.4817765384496,2,25,0.5501165986061096,4.119681358337402,17.920899863399747,17.439538816208866,72.43683763312717,62.32297528121848,9.70840483205393e-05,0.102924108505249,0,0,0
5932,222966.25304089976,2011-01-13 01:43:55,2971.4969115202507,2,25,0.5501165986061096,4.122919082641602,17.925486516594532,17.439538816208866,72.45574057177765,62.32297528121848,9.70840483205393e-05,0.102924108505249,0,0,0
5933,222996.26816991167,2011-01-13 01:44:25,3001.512040517135,2,25,0.5501165986061096,4.126156806945801,17.93007381104298,17.439538816208866,72.47466104546405,62.32297528121848,9.70840483205393e-05,0.102924108505249,0,0,0
5934,223026.2835339745,2011-01-13 01:44:55,3031.527404569851,2,25,0.5501165986061096,4.12939453125,17.93466120902157,17.439538816208866,72.49359711489423,62.32297528121848,3.23295607813634e-05,0.102924108505249,0,0,0
5935,223056.29840890312,2011-01-13 01:45:25,3061.5422794985197,2,25,0.5501165986061096,4.132956027984619,17.939248499883416,17.439538816208866,72.51254799774469,62.32297528121848,9.70840483205393e-05,0.102924108505249,0,0,0
5936,223086.313632987,2011-01-13 01:45:55,3091.5575035974275,2,25,0.5501165986061096,4.136193752288818,17.943835775573646,17.439538816208866,72.53151411623558,62.32297528121848,9.70840483205393e-05,0.102924108505249,0,0,0
5937,223116.328667338,2011-01-13 01:46:25,3121.57253795845,2,25,0.5501165986061096,4.1397552490234375,17.948422395887775,17.439538816208866,72.55049298103741,62.32297528121848,0.0001295089750783,0.102924108505249,0,0,0
5938,223146.34378213447,2011-01-13 01:46:55,3151.587652759956,2,25,0.5501165986061096,4.142992973327637,17.953009013559743,17.439538816208866,72.5694875203891,62.32297528121848,0.0001295089750783,0.102924108505249,0,0,0
5939,223176.35887283596,2011-01-13 01:47:25,3181.6027434313214,2,25,0.5501165986061096,4.146554470062256,17.957595505879286,17.439538816208866,72.58849739623517,62.32297528121848,9.70840483205393e-05,0.102924108505249,0,0,0
5940,223206.3739842339,2011-01-13 01:47:55,3211.6178548544062,2,25,0.5501165986061096,4.149954319000244,17.962182027816155,17.439538816208866,72.60752344488587,62.32297528121848,9.71794142969884e-05,0.102924108505249,0,0,0
5941,223236.3891909796,2011-01-13 01:48:25,3241.6330616752525,2,25,0.5501165986061096,4.153515815734863,17.966768505302223,17.439538816208866,72.62656537543225,62.32297528121848,9.71794142969884e-05,0.102924108505249,0,0,0
5942,223266.4042377616,2011-01-13 01:48:55,3271.64810837202,2,25,0.5501165986061096,4.157077312469482,17.971355009810747,17.439538816208866,72.64562353894743,62.32297528121848,9.71794142969884e-05,0.102924108505249,0,0,0
5943,223296.41935198664,2011-01-13 01:49:25,3301.6632226021006,2,25,0.5501165986061096,4.160638809204102,17.975941538625875,17.439538816208866,72.66469818593342,62.32297528121848,6.47544875391759e-05,0.102924108505249,0,0,0
5944,223326.4346094236,2011-01-13 01:49:55,3331.678480059147,2,25,0.5501165986061096,4.164200305938721,17.98052804041551,17.439538816208866,72.68378914226741,62.32297528121848,6.47544875391759e-05,0.102924108505249,0,0,0
5945,223356.4495922212,2011-01-13 01:50:25,3361.693462821571,2,25,0.5501165986061096,4.16776180267334,17.98511448001834,17.439538816208866,72.70289634919855,62.32297528121848,9.71794142969884e-05,0.102924108505249,0,0,0
5946,223386.46472410523,2011-01-13 01:50:55,3391.708594705651,2,25,0.5499359965324402,4.17148494720459,17.98970093462852,17.439538816208866,72.72202035554345,62.32297528121848,9.70840483205393e-05,0.102924108505249,0,0,0
5947,223416.4664387444,2011-01-13 01:51:25,3421.7103093648784,2,25,0.5501165986061096,4.175046443939209,17.994285356467984,17.439538816208866,72.74115268039014,62.32297528121848,9.70840483205393e-05,0.102924108505249,0,0,0
5948,223446.47933107687,2011-01-13 01:51:55,3451.7232016722446,2,25,0.5501165986061096,4.178931713104248,17.998871482879398,17.439538816208866,72.76030903086999,62.32297528121848,9.70840483205393e-05,0.102924108505249,0,0,0
5949,223476.49438164328,2011-01-13 01:52:25,3481.7382522637186,2,25,0.5499359965324402,4.182493209838867,18.00345801690141,17.439538816208866,72.77948415795943,62.32297528121848,6.47544875391759e-05,0.102924108505249,0,0,0
5950,223506.50966563143,2011-01-13 01:52:55,3511.753536266927,2,25,0.5499359965324402,4.186378479003906,18.008044541304848,17.439538816208866,72.79867643201871,62.32297528121848,6.47544875391759e-05,0.102924108505249,0,0,0
5951,223536.52467634852,2011-01-13 01:53:25,3541.7685469639714,2,25,0.5501165986061096,4.190263748168945,18.01263089893944,17.439538816208866,72.81788542333649,62.32297528121848,9.70840483205393e-05,0.102924108505249,0,0,0
5952,223566.54006933336,2011-01-13 01:53:55,3571.783939963833,2,25,0.5501165986061096,4.194149017333984,18.01721734733675,17.439538816208866,72.83711232624522,62.32297528121848,0.0001295089750783,0.102924108505249,0,0,0
5953,223596.55490564075,2011-01-13 01:54:25,3601.7987762411703,2,25,0.5501165986061096,4.197872161865234,18.02180374878792,17.439538816208866,72.85635658974178,62.32297528121848,0.0001618385285837,0.102924108505249,0,0,0
5954,223613.1172181296,2011-01-13 01:54:41,3618.361088724976,2,25,0.550297200679779,4.200138568878174,18.02433454269256,17.439538816208866,72.8669832334095,62.32297528121848,9.70840483205393e-05,0.102924108505249,0,0,0
5955,223643.12704248817,2011-01-13 01:55:12,30.015072471004657,3,25,0.0,4.0992841720581055,18.02433454269256,17.439538816208866,72.8669832334095,62.32297528121848,-0.0004208564641885,0.102924108505249,0,0,0
5956,223673.14218514407,2011-01-13 01:55:42,60.03021519209414,3,25,0.0,4.086009502410889,18.02433454269256,17.439538816208866,72.8669832334095,62.32297528121848,-0.0002913475036621,0.102924108505249,0,0,0
5957,223703.1572868479,2011-01-13 01:56:12,90.04531680071872,3,25,0.0,4.077915191650391,18.02433454269256,17.439538816208866,72.8669832334095,62.32297528121848,-0.0001942634553415,0.102924108505249,0,0,0
5958,223733.12573563337,2011-01-13 01:56:42,120.01376561622814,3,25,0.0,4.072734832763672,18.02433454269256,17.439538816208866,72.8669832334095,62.32297528121848,-9.70840483205393e-05,0.102924108505249,0,0,0
5959,223733.1381486657,2011-01-13 01:56:42,0.015754580261575,4,25,1.025841474533081,4.199814796447754,18.0243390320542,17.439538816208866,72.86700208789692,62.32297528121848,0.0,0.102924108505249,0,0,0
5960,223733.856844166,2011-01-13 01:56:43,0.734450060535488,4,25,0.9745483994483948,4.199814796447754,18.02453730369162,17.439538816208866,72.86783478649149,62.32297528121848,0.0,0.102924108505249,0,0,0
5961,223735.71606542243,2011-01-13 01:56:44,2.593671301937135,4,25,0.9243390560150146,4.199814796447754,18.02502673653175,17.439538816208866,72.86989030186012,62.32297528121848,0.0,0.102924108505249,0,0,0
5962,223738.52853208972,2011-01-13 01:56:47,5.40613806448379,4,25,0.8743102550506592,4.199814796447754,18.02572834297367,17.439538816208866,72.87283691971571,62.32297528121848,0.0,0.102924108505249,0,0,0
5963,223742.40346858377,2011-01-13 01:56:51,9.28107448834017,4,25,0.824100911617279,4.199814796447754,18.026641160954032,17.439538816208866,72.87667058442523,62.32297528121848,0.0,0.102924108505249,0,0,0
5964,223747.49727854048,2011-01-13 01:56:56,14.37488444006601,4,25,0.7737109065055847,4.199491024017334,18.02777028173331,17.439538816208866,72.88141268809082,62.32297528121848,-6.47544875391759e-05,0.102924108505249,0,0,0
5965,223754.1220100498,2011-01-13 01:57:03,20.999615954378605,4,25,0.7236821055412292,4.199814796447754,18.02914622516372,17.439538816208866,72.88719141083826,62.32297528121848,0.0,0.102924108505249,0,0,0
5966,223762.79373782864,2011-01-13 01:57:11,29.67134371317746,4,25,0.6732921600341797,4.199814796447754,18.03082620039144,17.439538816208866,72.89424702940059,62.32297528121848,0.0,0.102924108505249,0,0,0
5967,223774.79353780745,2011-01-13 01:57:23,41.67114368695827,4,25,0.6230827569961548,4.199814796447754,18.032982319503624,17.439538816208866,72.90330236715289,62.32297528121848,-3.24249267578125e-05,0.102924108505249,0,0,0
5968,223792.4494883187,2011-01-13 01:57:41,59.327094223294985,4,25,0.5728733539581299,4.199814796447754,18.035906821676672,17.439538816208866,72.91558478233416,62.32297528121848,3.23295607813634e-05,0.102924108505249,0,0,0
5969,223822.5271181018,2011-01-13 01:58:11,89.40472400636972,4,25,0.5228446125984192,4.199814796447754,18.04046511369445,17.439538816208866,72.934728830268,62.32297528121848,0.0,0.102924108505249,0,0,0
5970,223880.99514578693,2011-01-13 01:59:10,147.87275167648602,4,25,0.4728158414363861,4.199814796447754,18.04850801318449,17.439538816208866,72.96850763053233,62.32297528121848,0.0,0.102924108505249,0,0,0
5971,223982.02441431003,2011-01-13 02:00:51,248.90202019456183,4,25,0.422787070274353,4.199653148651123,18.061035235716936,17.439538816208866,73.02111983081707,62.32297528121848,0.0,0.102924108505249,0,0,0
5972,224114.0535633137,2011-01-13 02:03:03,380.9311692283075,4,25,0.3727582991123199,4.199814796447754,18.07560469008732,17.439538816208866,73.08230903993284,62.32297528121848,0.0,0.102924108505249,0,0,0
5973,224275.0819990377,2011-01-13 02:05:44,541.9596049423178,4,25,0.3227295279502868,4.199814796447754,18.0911434179958,17.439538816208866,73.14756902511496,62.32297528121848,3.23295607813634e-05,0.102924108505249,0,0,0
5974,224468.20372373276,2011-01-13 02:08:57,735.0813296072519,4,25,0.2727007567882538,4.199976921081543,18.107084713255155,17.439538816208866,73.2145197913559,62.32297528121848,3.24249267578125e-05,0.102924108505249,0,0,0
5975,224704.0123590936,2011-01-13 02:12:53,970.8899650633116,4,25,0.2226720005273819,4.199814796447754,18.12326957704085,17.439538816208866,73.2824934575814,62.32297528121848,0.0,0.102924108505249,0,0,0
5976,225008.5227796521,2011-01-13 02:17:57,1275.400385636895,4,25,0.1726432293653488,4.199814796447754,18.139921079525504,17.439538816208866,73.35242691377312,62.32297528121848,-3.24249267578125e-05,0.102924108505249,0,0,0
5977,225434.0937023564,2011-01-13 02:25:03,1700.9713082609735,4,25,0.1226144582033157,4.199653148651123,18.157205955207697,17.439538816208866,73.42502003639417,62.32297528121848,-3.23295607813634e-05,0.102924108505249,0,0,0
5978,226151.1753688097,2011-01-13 02:37:00,2418.0529746892257,4,25,0.0725856870412826,4.199653148651123,18.176207930587797,17.439538816208866,73.50482514680107,62.32297528121848,-6.47544875391759e-05,0.102924108505249,0,0,0
5979,226751.54031077772,2011-01-13 02:47:00,3018.4179166622966,4,25,0.0498289167881011,4.199814796447754,18.186348426498988,17.439538816208866,73.54741354559084,62.32297528121848,0.0,0.102924108505249,0,0,0
5980,226781.55621949132,2011-01-13 02:47:30,30.01511820498781,5,25,0.0,4.190263748168945,18.186348426498988,17.439538816208866,73.54741354559084,62.32297528121848,-6.47544875391759e-05,0.102924108505249,0,0,0
5981,226811.55573632292,2011-01-13 02:48:00,60.01463505660261,5,25,0.0,4.188807010650635,18.186348426498988,17.439538816208866,73.54741354559084,62.32297528121848,-6.47544875391759e-05,0.102924108505249,0,0,0
5982,226811.7450791894,2011-01-13 02:48:01,0.187553290508652,6,25,-1.9243103452026844e-05,4.188807010650635,18.186348426498988,17.439538817211396,73.54741354559084,62.32297528541788,0.0,0.1068796068429946,0,0,0
5983,226816.57319920504,2011-01-13 02:48:06,5.015673311175545,6,25,0.0007031940040178,4.188807010650635,18.18634928935364,17.439538817378164,73.54741716003292,62.322975286116446,-3.23295607813634e-05,0.1068796068429946,0,0,0
5984,226839.105828148,2011-01-13 02:48:28,22.530870677303437,7,25,-1.0997490882873535,3.988716125488281,18.186349289389085,17.44642079034775,73.54741716018141,62.35058660946662,-0.0014245510101318,0.1068796068429946,0,0,0
5985,226869.1210867529,2011-01-13 02:48:58,52.54612929724853,7,25,-1.099568486213684,3.944683074951172,18.186349289389085,17.45558880627318,73.54741716018141,62.38694395177895,-0.0010360718006268,0.1068796068429946,0,0,0
5986,226899.1360740516,2011-01-13 02:49:28,82.56111658595267,7,25,-1.0997490882873535,3.911820411682129,18.186349289389085,17.464756770997905,73.54741716018141,62.42295136771311,-0.0007770061492919,0.1068796068429946,0,0,0
5987,226929.1511940661,2011-01-13 02:49:58,112.57623662551282,7,25,-1.099568486213684,3.886242389678955,18.186349289389085,17.473924749580306,73.54741716018141,62.45869264963026,-0.0006151676061563,0.1068796068429946,0,0,0
5988,226959.1663109528,2011-01-13 02:50:28,142.5913534821401,7,25,-1.0993878841400146,3.86568284034729,18.186349289389085,17.483092686043786,73.54741716018141,62.494224293173,-0.0005180359003134,0.1068796068429946,0,0,0
5989,226989.18146783923,2011-01-13 02:50:58,172.60651038858384,7,25,-1.0997490882873535,3.8478753566741934,18.186349289389085,17.492260666482316,73.54741716018141,62.529582220400975,-0.0004856586456298,0.1068796068429946,0,0,0
5990,227019.1965536936,2011-01-13 02:51:28,202.62159625296897,7,25,-1.099568486213684,3.832496404647827,18.186349289389085,17.501428671086124,73.54741716018141,62.56478782184417,-0.0003561019839253,0.1068796068429946,0,0,0
5991,227049.21182837355,2011-01-13 02:51:58,232.6368709229156,7,25,-1.0997490882873535,3.8177647590637207,18.186349289389085,17.5105966942107,73.54741716018141,62.59985546883901,-0.0003885269106831,0.1068796068429946,0,0,0
5992,227079.2267858229,2011-01-13 02:52:28,262.65182835721333,7,25,-1.099568486213684,3.804490089416504,18.186349289389085,17.519764569761083,73.54741716018141,62.63479466077781,-0.0003561496851034,0.1068796068429946,0,0,0
5993,227109.24192472943,2011-01-13 02:52:58,292.6669672537709,7,25,-1.099568486213684,3.791701078414917,18.186349289389085,17.528932495400532,73.54741716018141,62.66961455581155,-0.0002913951757363,0.1068796068429946,0,0,0
5994,227139.2570244684,2011-01-13 02:53:28,322.6820669977482,7,25,-1.099568486213684,3.77972149848938,18.186349289389085,17.538100417010153,73.54741716018141,62.70432134339724,-0.0002913951757363,0.1068796068429946,0,0,0
5995,227169.27214965585,2011-01-13 02:53:58,352.69719218012585,7,25,-1.099568486213684,3.7683894634246826,18.186349289389085,17.54726841555675,73.54741716018141,62.73892122754049,-0.0002913951757363,0.1068796068429946,0,0,0
5996,227199.2873254794,2011-01-13 02:54:28,382.7123680137419,7,25,-1.099568486213684,3.757381200790405,18.186349289389085,17.556436394749838,73.54741716018141,62.77341822786665,-0.0002590179501567,0.1068796068429946,0,0,0
5997,227229.30244333352,2011-01-13 02:54:58,412.72748586284274,7,25,-1.099568486213684,3.746858835220337,18.186349289389085,17.565604410903475,73.54741716018141,62.807816718100334,-0.0002266406954731,0.1068796068429946,0,0,0
5998,227259.3174981405,2011-01-13 02:55:28,442.7425406798482,7,25,-1.099929690361023,3.7364981174468994,18.186349289389085,17.57477236533006,73.54741716018141,62.84212008260281,-0.0002913951757363,0.1068796068429946,0,0,0
5999,227289.3326275835,2011-01-13 02:55:58,472.75767011281965,7,25,-1.0993878841400146,3.7267849445343018,18.186349289389085,17.583940270782442,73.54741716018141,62.87633203010562,-0.0002266406954731,0.1068796068429946,0,0,0
6000,227319.34774175345,2011-01-13 02:56:28,502.7727842877634,7,25,-1.0997490882873535,3.717233657836914,18.186349289389085,17.59310829529637,73.54741716018141,62.910455464047146,-0.0002590179501567,0.1068796068429946,0,0,0
6001,227349.3630759217,2011-01-13 02:56:58,532.7881184810605,7,25,-1.099568486213684,3.7080061435699454,18.186349289389085,17.602276306702592,73.54741716018141,62.94449227739834,-0.0002590179501567,0.1068796068429946,0,0,0
6002,227379.3809825713,2011-01-13 02:57:28,562.8060252008853,7,25,-1.0997490882873535,3.6987786293029785,18.186349289389085,17.61144510889611,73.54741716018141,62.9784478269026,-0.0002913951757363,0.1068796068429946,0,0,0
6003,227409.3931710846,2011-01-13 02:57:58,592.8182137292174,7,25,-1.0997490882873535,3.6901986598968506,18.186349289389085,17.620612224165754,73.54741716018141,63.01231551102629,-0.0001942634553415,0.1068796068429946,0,0,0
6004,227439.40823699927,2011-01-13 02:58:28,622.8332795536568,7,25,-1.0997490882873535,3.681294918060303,18.186349289389085,17.629780130170808,73.54741716018141,63.04610581611061,-0.0002266406954731,0.1068796068429946,0,0,0
6005,227469.4233539612,2011-01-13 02:58:58,652.848396510534,7,25,-1.099568486213684,3.6732006072998047,18.186349289389085,17.63894817221942,73.54741716018141,63.07981885323562,-0.0001942634553415,0.1068796068429946,0,0,0
6006,227499.4384587627,2011-01-13 02:59:28,682.8635013171289,7,25,-1.099568486213684,3.664782762527466,18.186349289389085,17.648116197812083,73.54741716018141,63.11345589387333,-0.0002590179501567,0.1068796068429946,0,0,0
6007,227529.4536139098,2011-01-13 02:59:58,712.8786564491502,7,25,-1.099568486213684,3.656688451766968,18.186349289389085,17.657284185855964,73.54741716018141,63.14701848555227,-0.0001942634553415,0.1068796068429946,0,0,0
6008,227559.46870099724,2011-01-13 03:00:29,742.8937435265585,7,25,-1.099568486213684,3.6489179134368896,18.186349289389085,17.66645214509441,73.54741716018141,63.18050822140232,-0.0002266406954731,0.1068796068429946,0,0,0
6009,227589.48384820952,2011-01-13 03:00:59,772.9088907388413,7,25,-1.099568486213684,3.6413092613220215,18.186349289389085,17.675620041771566,73.54741716018141,63.21392592909785,-0.0001942634553415,0.1068796068429946,0,0,0
6010,227619.498973016,2011-01-13 03:01:29,802.9240155502946,7,25,-1.0997490882873535,3.633700609207153,18.186349289389085,17.68478796918923,73.54741716018141,63.24727375797524,-0.0001942634553415,0.1068796068429946,0,0,0
6011,227649.5141848844,2011-01-13 03:01:59,832.9392275039329,7,25,-1.099568486213684,3.626415729522705,18.186349289389085,17.693956007785843,73.54741716018141,63.2805536681702,-0.0001942634553415,0.1068796068429946,0,0,0
6012,227679.52930636756,2011-01-13 03:02:29,862.9543489219285,7,25,-1.099568486213684,3.619130849838257,18.186349289389085,17.703123976137068,73.54741716018141,63.31376628594192,-0.0001942634553415,0.1068796068429946,0,0,0
6013,227709.5443492047,2011-01-13 03:02:59,892.9693917440391,7,25,-1.099568486213684,3.6120078563690186,18.186349289389085,17.712292000159195,73.54741716018141,63.346913531717945,-0.0001942634553415,0.1068796068429946,0,0,0
6014,227739.55942919943,2011-01-13 03:03:29,922.98447172877,7,25,-1.099568486213684,3.60488486289978,18.186349289389085,17.7214600489262,73.54741716018141,63.37999631137867,-0.0002266406954731,0.1068796068429946,0,0,0
6015,227769.57457172003,2011-01-13 03:03:59,952.9996142543724,7,25,-1.0997490882873535,3.598247528076172,18.186349289389085,17.730628005583956,73.54741716018141,63.413015901672765,-0.0001942634553415,0.1068796068429946,0,0,0
6016,227799.5896549629,2011-01-13 03:04:29,983.0146975022363,7,25,-1.0997490882873535,3.5917723178863525,18.186349289389085,17.739795991473148,73.54741716018141,63.445974409634914,-0.0001618385285837,0.1068796068429946,0,0,0
6017,227829.60493832952,2011-01-13 03:04:59,1013.0299808838952,7,25,-1.0993878841400146,3.585296869277954,18.186349289389085,17.74896408122573,73.54741716018141,63.47887356212634,-0.0001942634553415,0.1068796068429946,0,0,0
6018,227859.62010472463,2011-01-13 03:05:29,1043.0451472639502,7,25,-1.0997490882873535,3.578821420669556,18.186349289389085,17.758132119517033,73.54741716018141,63.51171414257217,-0.0001942634553415,0.1068796068429946,0,0,0
6019,227889.63514216832,2011-01-13 03:05:59,1073.0601847176813,7,25,-1.099568486213684,3.572669744491577,18.186349289389085,17.767300188879883,73.54741716018141,63.54449775398519,-0.0001942634553415,0.1068796068429946,0,0,0
6020,227919.6501433717,2011-01-13 03:06:29,1103.07518591104,7,25,-1.099568486213684,3.5666799545288086,18.186349289389085,17.776468198246263,73.54741716018141,63.5772255755124,-0.0001618862152099,0.1068796068429946,0,0,0
6021,227949.66526702023,2011-01-13 03:06:59,1133.0903095545823,7,25,-1.0997490882873535,3.56085205078125,18.186349289389085,17.785636145092244,73.54741716018141,63.60989921603058,-0.0001942634553415,0.1068796068429946,0,0,0
6022,227979.68039071892,2011-01-13 03:07:29,1163.1054332783249,7,25,-1.099568486213684,3.5555098056793213,18.186349289389085,17.79480419844715,73.54741716018141,63.64252143704344,-0.0001618862152099,0.1068796068429946,0,0,0
6023,228009.69561764988,2011-01-13 03:07:59,1193.120660194253,7,25,-1.099568486213684,3.5500056743621826,18.186349289389085,17.803972243283724,73.54741716018141,63.67509261651821,-0.0001618862152099,0.1068796068429946,0,0,0
6024,228039.71065159488,2011-01-13 03:08:29,1223.135694239489,7,25,-1.099568486213684,3.544663429260254,18.186349289389085,17.813140251424617,73.54741716018141,63.707613593446666,-9.713172767078504e-05,0.1068796068429946,0,0,0
6025,228069.72586702212,2011-01-13 03:08:59,1253.15090957656,7,25,-1.099568486213684,3.539483070373535,18.186349289389085,17.82230828566705,73.54741716018141,63.7400863030461,-9.713172767078504e-05,0.1068796068429946,0,0,0
6026,228099.7408522708,2011-01-13 03:09:29,1283.1658948101422,7,25,-1.099568486213684,3.5344645977020264,18.186349289389085,17.831476288206424,73.54741716018141,63.77251221147018,-0.0001295089750783,0.1068796068429946,0,0,0
6027,228129.7559790121,2011-01-13 03:09:59,1313.1810215463925,7,25,-1.0993878841400146,3.5294461250305176,18.186349289389085,17.840644296564985,73.54741716018141,63.80489222993175,-0.0001295089750783,0.1068796068429946,0,0,0
6028,228159.7710941344,2011-01-13 03:10:29,1343.196136663685,7,25,-1.099568486213684,3.5245895385742188,18.186349289389085,17.849812287792602,73.54741716018141,63.83722769610276,-0.0001295089750783,0.1068796068429946,0,0,0
6029,228189.78842915932,2011-01-13 03:10:59,1373.2134717037077,7,25,-1.099568486213684,3.51989483833313,18.186349289389085,17.858980978929143,73.54741716018141,63.86952184446098,-0.0001295089750783,0.1068796068429946,0,0,0
6030,228219.80135863431,2011-01-13 03:11:29,1403.2264011636696,7,25,-1.099568486213684,3.515200138092041,18.186349289389085,17.86814831576681,73.54741716018141,63.90176804356953,-0.0001618862152099,0.1068796068429946,0,0,0
6031,228249.81649326527,2011-01-13 03:11:59,1433.2415358196583,7,25,-1.099568486213684,3.5105056762695312,18.186349289389085,17.87731641464195,73.54741716018141,63.93397418093316,-0.0001295089750783,0.1068796068429946,0,0,0
6032,228279.83157582645,2011-01-13 03:12:29,1463.2566183607605,7,25,-1.0997490882873535,3.5058109760284424,18.186349289389085,17.886484468456118,73.54741716018141,63.96613749290498,-0.0001295089750783,0.1068796068429946,0,0,0
6033,228309.846916546,2011-01-13 03:12:59,1493.2719590702984,7,25,-1.0993878841400146,3.501440048217773,18.186349289389085,17.89565260614952,73.54741716018141,63.9982590288608,-6.47544875391759e-05,0.1068796068429946,0,0,0
6034,228339.8618068981,2011-01-13 03:13:29,1523.2868494324316,7,25,-1.0997490882873535,3.4965834617614746,18.186349289389085,17.90482116953591,73.54741716018141,64.03033907096896,-0.0001618862152099,0.1068796068429946,0,0,0
6035,228369.87694441623,2011-01-13 03:13:59,1553.3019869806287,7,25,-1.0997490882873535,3.4918887615203857,18.186349289389085,17.913990057838216,73.54741716018141,64.06237705912704,-9.713172767078504e-05,0.1068796068429946,0,0,0
6036,228399.89206179412,2011-01-13 03:14:29,1583.3171043284804,7,25,-1.0997490882873535,3.487032175064087,18.186349289389085,17.923158830802294,73.54741716018141,64.0943713542326,-0.0001618862152099,0.1068796068429946,0,0,0
6037,228429.90732289024,2011-01-13 03:14:59,1613.3323654546716,7,25,-1.0997490882873535,3.482337474822998,18.186349289389085,17.932327701857425,73.54741716018141,64.12632264708635,-0.0001295089750783,0.1068796068429946,0,0,0
6038,228459.92231351227,2011-01-13 03:15:29,1643.347356051621,7,25,-1.0997490882873535,3.477480888366699,18.186349289389085,17.941495827091643,73.54741716018141,64.15822681134676,-0.0001295089750783,0.1068796068429946,0,0,0
6039,228489.93740961212,2011-01-13 03:15:59,1673.3624521665536,7,25,-1.099568486213684,3.4723005294799805,18.186349289389085,17.950663777007033,73.54741716018141,64.19008451079945,-0.0001295089750783,0.1068796068429946,0,0,0
6040,228519.95254879445,2011-01-13 03:16:29,1703.3775913287732,7,25,-1.099568486213684,3.467282056808472,18.186349289389085,17.959831744535446,73.54741716018141,64.22189508465158,-9.713172767078504e-05,0.1068796068429946,0,0,0
6041,228549.9677832492,2011-01-13 03:16:59,1733.3928257834912,7,25,-1.099568486213684,3.461777925491333,18.186349289389085,17.968999681791225,73.54741716018141,64.25365682211145,-0.0001618862152099,0.1068796068429946,0,0,0
6042,228579.9827622472,2011-01-13 03:17:29,1763.4078048065949,7,25,-1.099568486213684,3.4562737941741943,18.186349289389085,17.978167545145457,73.54741716018141,64.2853681543766,-9.713172767078504e-05,0.1068796068429946,0,0,0
6043,228609.997892417,2011-01-13 03:17:59,1793.4229349463278,7,25,-1.099568486213684,3.450122117996216,18.186349289389085,17.987335503392146,73.54741716018141,64.31702706484367,-0.0001942634553415,0.1068796068429946,0,0,0
6044,228640.01313354337,2011-01-13 03:18:29,1823.4381760826984,7,25,-1.099568486213684,3.443808555603028,18.186349289389085,17.996503424782535,73.54741716018141,64.34863044020214,-0.0001942634553415,0.1068796068429946,0,0,0
6045,228670.0284698519,2011-01-13 03:18:59,1853.45351239628,7,25,-1.0997490882873535,3.437333106994629,18.186349289389085,18.005671539297317,73.54741716018141,64.3801755205346,-0.0001942634553415,0.1068796068429946,0,0,0
6046,228700.0432463703,2011-01-13 03:19:29,1883.4682889096675,7,25,-1.0997490882873535,3.43004846572876,18.186349289389085,18.01483938512035,73.54741716018141,64.41165657093937,-0.0002266406954731,0.1068796068429946,0,0,0
6047,228730.05835997887,2011-01-13 03:19:59,1913.4834025131868,7,25,-1.099568486213684,3.422439813613892,18.186349289389085,18.024007446554783,73.54741716018141,64.44306980808015,-0.0001942634553415,0.1068796068429946,0,0,0
6048,228760.07348356728,2011-01-13 03:20:29,1943.498526116629,7,25,-1.0997490882873535,3.413374185562134,18.186349289389085,18.033175483278903,73.54741716018141,64.4744059837371,-0.0002590179501567,0.1068796068429946,0,0,0
6049,228790.08874549044,2011-01-13 03:20:59,1973.5137880347943,7,25,-1.0997490882873535,3.403499126434326,18.186349289389085,18.04234359810066,73.54741716018141,64.50565642005196,-0.0003237724304199,0.1068796068429946,0,0,0
6050,228820.103855906,2011-01-13 03:21:29,2003.528898445356,7,25,-1.0997490882873535,3.392328977584839,18.186349289389085,18.051511641438346,73.54741716018141,64.53681059293247,-0.0003237724304199,0.1068796068429946,0,0,0
6051,228850.11897993556,2011-01-13 03:21:59,2033.544022484885,7,25,-1.0997490882873535,3.379054307937622,18.186349289389085,18.0606796959548,73.54741716018141,64.56785310279467,-0.0003885269106831,0.1068796068429946,0,0,0
6052,228880.13399668265,2011-01-13 03:22:29,2063.5590392269964,7,25,-1.099568486213684,3.363189458847046,18.186349289389085,18.069847673929505,73.54741716018141,64.5987629469747,-0.0004856586456298,0.1068796068429946,0,0,0
6053,228910.14912732865,2011-01-13 03:22:59,2093.5741698629654,7,25,-1.0997490882873535,3.34424901008606,18.186349289389085,18.0790157094594,73.54741716018141,64.62951302008157,-0.0005504131549969,0.1068796068429946,0,0,0
6054,228940.1641989525,2011-01-13 03:23:29,2123.5892414768346,7,25,-1.099568486213684,3.3206136226654053,18.186349289389085,18.088183709478265,73.54741716018141,64.66006905867472,-0.0007122993702068,0.1068796068429946,0,0,0
6055,228970.17932061607,2011-01-13 03:23:59,2153.6043631404423,7,25,-1.099568486213684,3.2908265590667725,18.186349289389085,18.09735170952372,73.54741716018141,64.69038105337357,-0.0008418083307333,0.1068796068429946,0,0,0
6056,229000.19445002903,2011-01-13 03:24:29,2183.6194925583764,7,25,-1.0997490882873535,3.252459764480591,18.186349289389085,18.10651972356036,73.54741716018141,64.72038305349116,-0.0011332035064697,0.1068796068429946,0,0,0
6057,229030.20959029903,2011-01-13 03:24:59,2213.6346328233444,7,25,-1.0997490882873535,3.202436923980713,18.186349289389085,18.115687714551424,73.54741716018141,64.74998276556587,-0.0014893531333655,0.1068796068429946,0,0,0
6058,229060.2248383176,2011-01-13 03:25:29,2243.6498808919923,7,25,-1.099568486213684,3.1342830657958984,18.186349289389085,18.124855811484423,73.54741716018141,64.77904667299555,-0.0020721436012536,0.1068796068429946,0,0,0
6059,229090.23983373653,2011-01-13 03:25:59,2273.6648762808845,7,25,-1.099568486213684,3.03860855102539,18.186349289389085,18.134023806175566,73.54741716018141,64.80737093270899,-0.002978706266731,0.1068796068429946,0,0,0
6060,229120.25492090412,2011-01-13 03:26:29,2303.679963438493,7,25,-1.0997490882873535,2.896149158477783,18.186349289389085,18.14319182352812,73.54741716018141,64.83462009213838,-0.0044680596329271,0.1068796068429946,0,0,0
6061,229149.95772102132,2011-01-13 03:26:59,2333.3827635456832,7,25,-1.0997490882873535,2.699943780899048,18.186349289389085,18.152264432487563,73.54741716018141,64.86003946863075,-0.005730724427849,0.1068796068429946,0,0,0
6062,229209.96642894635,2011-01-13 03:27:59,60.01457248064407,8,25,0.0,3.5681369304656982,18.186349289389085,18.152264432487563,73.54741716018141,64.86003946863075,0.0012950897216796,0.1068796068429946,0,0,0
6063,229210.1493283499,2011-01-13 03:27:59,0.187539175329282,9,25,-1.9243103452026844e-05,3.568298816680908,18.186349289389085,18.15226443349001,73.54741716018141,64.8600394722078,0.0,0.1036408320069313,0,0,0
6064,229214.9772142019,2011-01-13 03:28:04,5.015425017350936,9,25,0.0007031940040178,3.5760693550109863,18.1863501094608,18.15226443365621,73.54742009010818,64.86003947280085,0.0011332035064697,0.1036408320069313,0,0,0
