Data_Point,Test_Time(s),Date_Time,Step_Time(s),Step_Index,Cycle_Index,Current(A),Voltage(V),Charge_Capacity(Ah),Discharge_Capacity(Ah),Charge_Energy(Wh),Discharge_Energy(Wh),dV/dt(V/s),Internal_Resistance(Ohm),Is_FC_Data,AC_Impedance(Ohm),ACI_Phase_Angle(Deg)
5115,191796.49633389688,2011-01-12 17:04:21,30.01509630540732,1,22,0.0,3.598571300506592,15.30727424815937,15.284669419854442,61.87141586534998,54.64425693823968,0.0006799221155233,0.1027383208274841,0,0,0
5116,191826.5114652797,2011-01-12 17:04:51,60.03022769325087,1,22,0.0,3.619940280914306,15.30727424815937,15.284669419854442,61.87141586534998,54.64425693823968,0.0004532813909463,0.1027383208274841,0,0,0
5117,191856.5265961513,2011-01-12 17:05:21,90.04535856480767,1,22,0.0,3.635481357574463,15.30727424815937,15.284669419854442,61.87141586534998,54.64425693823968,0.0003885269106831,0.1027383208274841,0,0,0
5118,191886.49482520905,2011-01-12 17:05:51,120.0135876176008,1,22,0.0,3.64713716506958,15.30727424815937,15.284669419854442,61.87141586534998,54.64425693823968,0.0002913951757363,0.1027383208274841,0,0,0
5119,191916.5035754448,2011-01-12 17:06:21,30.015119458110984,2,22,0.5501165986061096,3.7700083255767822,15.3118608905694,15.284669419854442,61.88861353268192,54.64425693823968,0.0008418083307333,0.1027383208274841,0,0,0
5120,191946.51885245056,2011-01-12 17:06:51,60.03039655911657,2,22,0.550297200679779,3.7934818267822266,15.316447542773162,15.284669419854442,61.90596427612999,54.64425693823968,0.0005180359003134,0.1027383208274841,0,0,0
5121,191976.53383321292,2011-01-12 17:07:21,90.0453772313304,2,22,0.5501165986061096,3.807404041290283,15.321034148233922,15.284669419854442,61.92339735404786,54.64425693823968,0.0003237724304199,0.1027383208274841,0,0,0
5122,192006.54896347303,2011-01-12 17:07:51,120.06050746630062,2,22,0.5501165986061096,3.817602872848511,15.325620783430098,15.284669419854442,61.94088489405416,54.64425693823968,0.0002266406954731,0.1027383208274841,0,0,0
5123,192036.5641182341,2011-01-12 17:08:21,150.07566222739752,2,22,0.5501165986061096,3.826182842254639,15.330207397982866,15.284669419854442,61.95841482276524,54.64425693823968,0.0002266406954731,0.1027383208274841,0,0,0
5124,192066.57923115592,2011-01-12 17:08:51,180.0907751742805,2,22,0.5499359965324402,3.8336293697357178,15.334794074613368,15.284669419854442,61.97598187381453,54.64425693823968,0.0001618385285837,0.1027383208274841,0,0,0
5125,192096.5943530501,2011-01-12 17:09:21,210.105897038388,2,22,0.5501165986061096,3.840752363204956,15.339380667719952,15.284669419854442,61.99358190297431,54.64425693823968,0.0001618862152099,0.1027383208274841,0,0,0
5126,192126.60947508467,2011-01-12 17:09:51,240.1210190779327,2,22,0.5501165986061096,3.8472278118133545,15.3439673083719,15.284669419854442,62.011212971819575,54.64425693823968,0.0001942634553415,0.1027383208274841,0,0,0
5127,192156.62461715413,2011-01-12 17:10:21,270.1361611423856,2,22,0.5501165986061096,3.853217601776123,15.348553930329638,15.284669419854442,62.02887281602457,54.64425693823968,0.0001295089750783,0.1027383208274841,0,0,0
5128,192186.639746953,2011-01-12 17:10:51,300.151290971344,2,22,0.5501165986061096,3.859207391738892,15.353140516057747,15.284669419854442,62.0465595771653,54.64425693823968,0.0001618862152099,0.1027383208274841,0,0,0
5129,192216.6548673234,2011-01-12 17:11:21,330.16641131666614,2,22,0.5501165986061096,3.86454963684082,15.35772714730806,15.284669419854442,62.0642723989317,54.64425693823968,0.0001295089750783,0.1027383208274841,0,0,0
5130,192246.67002680624,2011-01-12 17:11:51,360.1815708245936,2,22,0.5501165986061096,3.869729995727539,15.362313810722606,15.284669419854442,62.082009981845225,54.64425693823968,6.47544875391759e-05,0.1027383208274841,0,0,0
5131,192276.68517229924,2011-01-12 17:12:21,390.1967162825041,2,22,0.5501165986061096,3.874910354614258,15.366900512745024,15.284669419854442,62.09977155405166,54.64425693823968,0.0001618862152099,0.1027383208274841,0,0,0
5132,192306.70027521616,2011-01-12 17:12:51,420.21181920440176,2,22,0.5499359965324402,3.8796050548553462,15.371487107738908,15.284669419854442,62.1175555749176,54.64425693823968,9.713172767078504e-05,0.1027383208274841,0,0,0
5133,192336.71538163675,2011-01-12 17:13:21,450.2269256250193,2,22,0.5501165986061096,3.884623527526856,15.37607373974178,15.284669419854442,62.1353618905022,54.64425693823968,0.0001295089750783,0.1027383208274841,0,0,0
5134,192366.73063434195,2011-01-12 17:13:51,480.242178360298,2,22,0.5501165986061096,3.889318227767944,15.38066041608232,15.284669419854442,62.15318967036973,54.64425693823968,0.0001618862152099,0.1027383208274841,0,0,0
5135,192396.74564022705,2011-01-12 17:14:21,510.257184215275,2,22,0.550297200679779,3.8935272693634033,15.38524709810191,15.284669419854442,62.17103817176902,54.64425693823968,9.713172767078504e-05,0.1027383208274841,0,0,0
5136,192426.76098746285,2011-01-12 17:14:51,540.272531471128,2,22,0.5501165986061096,3.897898197174072,15.389833857361632,15.284669419854442,62.188906787032906,54.64425693823968,0.0001618862152099,0.1027383208274841,0,0,0
5137,192456.77819848372,2011-01-12 17:15:21,570.2897425822821,2,22,0.5501165986061096,3.901945352554321,15.394420840779585,15.284669419854442,62.20679547824627,54.64425693823968,0.0001295089750783,0.1027383208274841,0,0,0
5138,192486.7911568808,2011-01-12 17:15:51,600.3027008941516,2,22,0.5499359965324402,3.90583062171936,15.399007156346247,15.284669419854442,62.22469994414714,54.64425693823968,9.713172767078504e-05,0.1027383208274841,0,0,0
5139,192516.80618054012,2011-01-12 17:16:21,630.3177245434777,2,22,0.5499359965324402,3.9095540046691895,15.403593730337114,15.284669419854442,62.24262299822236,54.64425693823968,9.713172767078504e-05,0.1027383208274841,0,0,0
5140,192546.82131459465,2011-01-12 17:16:51,660.3328585829297,2,22,0.5499359965324402,3.9132773876190186,15.408180452525654,15.284669419854442,62.260563553870895,54.64425693823968,0.0001295089750783,0.1027383208274841,0,0,0
5141,192576.83640601288,2011-01-12 17:17:21,690.3479500111818,2,22,0.5499359965324402,3.916514873504639,15.412767112813732,15.284669419854442,62.2785199735615,54.64425693823968,6.47544875391759e-05,0.1027383208274841,0,0,0
5142,192606.85153477412,2011-01-12 17:17:51,720.3630787875165,2,22,0.550297200679779,3.920076370239258,15.417353756332432,15.284669419854442,62.2964917594416,54.64425693823968,0.0001295089750783,0.1027383208274841,0,0,0
5143,192636.86681530875,2011-01-12 17:18:22,750.3783593421296,2,22,0.550297200679779,3.923152208328247,15.42194048185908,15.284669419854442,62.31447857736248,54.64425693823968,9.713172767078504e-05,0.1027383208274841,0,0,0
5144,192666.88182763485,2011-01-12 17:18:52,780.3933716531972,2,22,0.550297200679779,3.9260661602020255,15.426527075698322,15.284669419854442,62.33247903749563,54.64425693823968,6.47544875391759e-05,0.1027383208274841,0,0,0
5145,192696.89691815584,2011-01-12 17:19:22,810.4084621441132,2,22,0.5501165986061096,3.9289801120758057,15.431113770953948,15.284669419854442,62.350493462303085,54.64425693823968,6.47544875391759e-05,0.1027383208274841,0,0,0
5146,192726.91204720785,2011-01-12 17:19:52,840.4235912011475,2,22,0.550297200679779,3.931732177734375,15.435700470376716,15.284669419854442,62.36852102086526,54.64425693823968,6.47544875391759e-05,0.1027383208274841,0,0,0
5147,192756.9271824002,2011-01-12 17:20:22,870.438726393473,2,22,0.550297200679779,3.934484243392944,15.440287185665513,15.284669419854442,62.386561376506,54.64425693823968,3.237724376958795e-05,0.1027383208274841,0,0,0
5148,192786.94233595327,2011-01-12 17:20:52,900.4538799465593,2,22,0.550297200679779,3.9372363090515137,15.4448739026723,15.284669419854442,62.40461407855575,54.64425693823968,9.713172767078504e-05,0.1027383208274841,0,0,0
5149,192816.9574282687,2011-01-12 17:21:22,930.4689722670348,2,22,0.5501165986061096,3.939826488494873,15.44946059417194,15.284669419854442,62.42267883761584,54.64425693823968,6.47544875391759e-05,0.1027383208274841,0,0,0
5150,192846.9725535464,2011-01-12 17:21:52,960.4840975496622,2,22,0.5501165986061096,3.942416667938232,15.454047247671516,15.284669419854442,62.44075537850043,54.64425693823968,3.237724376958795e-05,0.1027383208274841,0,0,0
5151,192876.9877055456,2011-01-12 17:22:22,990.4992495589006,2,22,0.5501165986061096,3.944844961166382,15.458633963386497,15.284669419854442,62.458843907331854,54.64425693823968,3.237724376958795e-05,0.1027383208274841,0,0,0
5152,192907.00296306275,2011-01-12 17:22:52,1020.5145070560474,2,22,0.5501165986061096,3.9472732543945312,15.463220722338336,15.284669419854442,62.47694405510682,54.64425693823968,6.47544875391759e-05,0.1027383208274841,0,0,0
5153,192937.01793833156,2011-01-12 17:23:22,1050.529482324794,2,22,0.5501165986061096,3.94986343383789,15.46780737437116,15.284669419854442,62.49505508223715,54.64425693823968,6.47544875391759e-05,0.1027383208274841,0,0,0
5154,192967.0330776742,2011-01-12 17:23:52,1080.5446216674636,2,22,0.5501165986061096,3.95229172706604,15.472394100495457,15.284669419854442,62.51317769487069,54.64425693823968,6.47544875391759e-05,0.1027383208274841,0,0,0
5155,192997.04819311728,2011-01-12 17:24:22,1110.559737105555,2,22,0.5501165986061096,3.9547200202941895,15.476980791744465,15.284669419854442,62.53131141337729,54.64425693823968,3.237724376958795e-05,0.1027383208274841,0,0,0
5156,193027.06333653512,2011-01-12 17:24:52,1140.5748805283938,2,22,0.5501165986061096,3.956986427307129,15.481567544058771,15.284669419854442,62.549456462982576,54.64425693823968,0.0,0.1027383208274841,0,0,0
5157,193057.0784734066,2011-01-12 17:25:22,1170.5900173999044,2,22,0.5501165986061096,3.959576606750488,15.48615423399316,15.284669419854442,62.56761215724736,54.64425693823968,6.47544875391759e-05,0.1027383208274841,0,0,0
5158,193087.0936030752,2011-01-12 17:25:52,1200.6051470885127,2,22,0.5499359965324402,3.961843013763428,15.490741007686044,15.284669419854442,62.58577915332904,54.64425693823968,6.47544875391759e-05,0.1027383208274841,0,0,0
5159,193117.1087062527,2011-01-12 17:26:22,1230.6202502660476,2,22,0.5501165986061096,3.964271306991577,15.495327723665008,15.284669419854442,62.60395671733926,54.64425693823968,3.237724376958795e-05,0.1027383208274841,0,0,0
5160,193147.12438934052,2011-01-12 17:26:52,1260.6359334391095,2,22,0.550297200679779,3.966699600219727,15.499914522292304,15.284669419854442,62.622145405000005,54.64425693823968,6.47544875391759e-05,0.1027383208274841,0,0,0
5161,193177.13897358972,2011-01-12 17:27:22,1290.650517583053,2,22,0.5501165986061096,3.968966007232666,15.504501090428068,15.284669419854442,62.640343863513934,54.64425693823968,6.47544875391759e-05,0.1027383208274841,0,0,0
5162,193207.1541061405,2011-01-12 17:27:52,1320.6656501388077,2,22,0.5501165986061096,3.9712324142456055,15.50908781814304,15.284669419854442,62.65855362408986,54.64425693823968,9.713172767078504e-05,0.1027383208274841,0,0,0
5163,193237.1692234232,2011-01-12 17:28:22,1350.680767436534,2,22,0.5499359965324402,3.973660707473755,15.513674552788505,15.284669419854442,62.67677395472069,54.64425693823968,9.713172767078504e-05,0.1027383208274841,0,0,0
5164,193267.18657801696,2011-01-12 17:28:52,1380.6981220052285,2,22,0.5501165986061096,3.975765228271485,15.518261623555189,15.284669419854442,62.69500602678488,54.64425693823968,6.47544875391759e-05,0.1027383208274841,0,0,0
5165,193297.19953653435,2011-01-12 17:29:22,1410.7110805276227,2,22,0.5501165986061096,3.977707862854004,15.522848018523137,15.284669419854442,62.71324567888023,54.64425693823968,0.0,0.1027383208274841,0,0,0
5166,193327.21461198776,2011-01-12 17:29:52,1440.726155976048,2,22,0.5501165986061096,3.9802980422973633,15.527434686837092,15.284669419854442,62.73149648735164,54.64425693823968,9.713172767078504e-05,0.1027383208274841,0,0,0
5167,193357.2297377165,2011-01-12 17:30:22,1470.7412817047873,2,22,0.5501165986061096,3.9824025630950928,15.532021277596009,15.284669419854442,62.74975754366941,54.64425693823968,3.237724376958795e-05,0.1027383208274841,0,0,0
5168,193387.2452224751,2011-01-12 17:30:52,1500.7567665084518,2,22,0.5501165986061096,3.984830856323242,15.53660793043718,15.284669419854442,62.76802899587943,54.64425693823968,6.47544875391759e-05,0.1027383208274841,0,0,0
5169,193417.26000573023,2011-01-12 17:31:22,1530.7715497235415,2,22,0.550297200679779,3.9870972633361816,15.541194574445989,15.284669419854442,62.78631064294111,54.64425693823968,6.47544875391759e-05,0.1027383208274841,0,0,0
5170,193447.2751290229,2011-01-12 17:31:52,1560.7866730162095,2,22,0.5501165986061096,3.989039897918701,15.545781287455211,15.284669419854442,62.80460272185616,54.64425693823968,3.237724376958795e-05,0.1027383208274841,0,0,0
5171,193477.2902722653,2011-01-12 17:32:22,1590.8018162636108,2,22,0.5501165986061096,3.9913063049316406,15.550367951457332,15.284669419854442,62.82290477682809,54.64425693823968,3.237724376958795e-05,0.1027383208274841,0,0,0
5172,193507.30543033968,2011-01-12 17:32:52,1620.8169743580154,2,22,0.5501165986061096,3.99357271194458,15.5549546300999,15.284669419854442,62.84121714969666,54.64425693823968,3.237724376958795e-05,0.1027383208274841,0,0,0
5173,193537.3205106452,2011-01-12 17:33:22,1650.8320546334712,2,22,0.5499359965324402,3.9956769943237305,15.559541287070452,15.284669419854442,62.85953965375284,54.64425693823968,0.0,0.1027383208274841,0,0,0
5174,193567.33563025368,2011-01-12 17:33:52,1680.8471742670197,2,22,0.5499359965324402,3.99794340133667,15.564127930933758,15.284669419854442,62.87787240604589,54.64425693823968,0.0,0.1027383208274841,0,0,0
5175,193597.3508938761,2011-01-12 17:34:22,1710.8624378994573,2,22,0.5499359965324402,4.000209808349609,15.568714413707175,15.284669419854442,62.89621458798641,54.64425693823968,6.47544875391759e-05,0.1027383208274841,0,0,0
5176,193627.3660893687,2011-01-12 17:34:52,1740.8776334772815,2,22,0.5499359965324402,4.002638339996338,15.573300166131126,15.284669419854442,62.91456402298894,54.64425693823968,9.71794142969884e-05,0.1027383208274841,0,0,0
5177,193657.38115179967,2011-01-12 17:35:22,1770.892695838089,2,22,0.5499359965324402,4.004742622375488,15.577885996502566,15.284669419854442,62.93292404815782,54.64425693823968,9.70840483205393e-05,0.1027383208274841,0,0,0
5178,193687.3961546572,2011-01-12 17:35:52,1800.9076986755451,2,22,0.5501165986061096,4.007009029388428,15.582471768225115,15.284669419854442,62.951294230001984,54.64425693823968,3.23295607813634e-05,0.1027383208274841,0,0,0
5179,193717.4113208518,2011-01-12 17:36:22,1830.922864850088,2,22,0.5504778623580933,4.009599208831787,15.58705780323346,15.284669419854442,62.96967589811206,54.64425693823968,0.0001295089750783,0.1027383208274841,0,0,0
5180,193747.42669277912,2011-01-12 17:36:52,1860.9382368024924,2,22,0.5501165986061096,4.011541843414307,15.591644479378592,15.284669419854442,62.98807063829378,54.64425693823968,6.47544875391759e-05,0.1027383208274841,0,0,0
5181,193777.4415379085,2011-01-12 17:37:22,1890.9530819018169,2,22,0.5501165986061096,4.013808250427246,15.5962310444885,15.284669419854442,63.0064753842554,54.64425693823968,9.70840483205393e-05,0.1027383208274841,0,0,0
5182,193807.45666017864,2011-01-12 17:37:52,1920.9682041719363,2,22,0.5501165986061096,4.0160746574401855,15.60081772818689,15.284669419854442,63.02489114586916,54.64425693823968,3.23295607813634e-05,0.1027383208274841,0,0,0
5183,193837.4717909249,2011-01-12 17:38:22,1950.9833349181808,2,22,0.5501165986061096,4.018503189086914,15.605404399923506,15.284669419854442,63.04331745855617,54.64425693823968,9.71794142969884e-05,0.1027383208274841,0,0,0
5184,193867.48706819632,2011-01-12 17:38:52,1980.9986122046485,2,22,0.5501165986061096,4.0207695960998535,15.609991057013676,15.284669419854442,63.0617542994464,54.64425693823968,3.24249267578125e-05,0.1027383208274841,0,0,0
5185,193897.50217074231,2011-01-12 17:39:22,2011.013714755621,2,22,0.5501165986061096,4.023197650909424,15.614577670813986,15.284669419854442,63.08020176534815,54.64425693823968,3.23295607813634e-05,0.1027383208274841,0,0,0
5186,193927.517202562,2011-01-12 17:39:52,2041.0287465552608,2,22,0.5499359965324402,4.025464057922363,15.61916431559514,15.284669419854442,63.09866017664669,54.64425693823968,3.23295607813634e-05,0.1027383208274841,0,0,0
5187,193957.53242660072,2011-01-12 17:40:22,2071.0439706190814,2,22,0.550297200679779,4.027892589569092,15.62375096616819,15.284669419854442,63.11712943694532,54.64425693823968,3.24249267578125e-05,0.1027383208274841,0,0,0
5188,193987.54743949827,2011-01-12 17:40:52,2101.058983491548,2,22,0.550297200679779,4.030320644378662,15.62833758403242,15.284669419854442,63.135609555229735,54.64425693823968,6.47544875391759e-05,0.1027383208274841,0,0,0
5189,194017.5626780933,2011-01-12 17:41:22,2131.0742221066357,2,22,0.5499359965324402,4.032749176025391,15.632924178931775,15.284669419854442,63.15410058050647,54.64425693823968,3.24249267578125e-05,0.1027383208274841,0,0,0
5190,194047.5776728757,2011-01-12 17:41:52,2161.089216863953,2,22,0.5501165986061096,4.035177230834961,15.637511189613573,15.284669419854442,63.17260442520392,54.64425693823968,6.47544875391759e-05,0.1027383208274841,0,0,0
5191,194077.5929297663,2011-01-12 17:42:22,2191.1044737696257,2,22,0.5501165986061096,4.0374436378479,15.642098483775753,15.284669419854442,63.191120690093165,54.64425693823968,6.47544875391759e-05,0.1027383208274841,0,0,0
5192,194107.60797784152,2011-01-12 17:42:52,2221.119521839816,2,22,0.550297200679779,4.040195465087891,15.646685851952654,15.284669419854442,63.20964861335052,54.64425693823968,6.47544875391759e-05,0.1027383208274841,0,0,0
5193,194137.623169259,2011-01-12 17:43:22,2251.13471325226,2,22,0.5504778623580933,4.04278564453125,15.65127316787799,15.284669419854442,63.22818784807479,54.64425693823968,6.47544875391759e-05,0.1027383208274841,0,0,0
5194,194167.63819333937,2011-01-12 17:43:52,2281.1497373276475,2,22,0.5504778623580933,4.0452141761779785,15.655860029524774,15.284669419854442,63.24673692148129,54.64425693823968,6.47544875391759e-05,0.1027383208274841,0,0,0
5195,194197.6533160356,2011-01-12 17:44:22,2311.1648600188164,2,22,0.5501165986061096,4.047804355621338,15.660446611164284,15.284669419854442,63.26529663474786,54.64425693823968,9.71794142969884e-05,0.1027383208274841,0,0,0
5196,194227.66845033565,2011-01-12 17:44:52,2341.1799943239303,2,22,0.5501165986061096,4.050394535064697,15.665033244961592,15.284669419854442,63.28386851250591,54.64425693823968,9.71794142969884e-05,0.1027383208274841,0,0,0
5197,194257.683566676,2011-01-12 17:45:22,2371.195110694346,2,22,0.5501165986061096,4.052984714508057,15.669619852488522,15.284669419854442,63.302452229049095,54.64425693823968,3.24249267578125e-05,0.1027383208274841,0,0,0
5198,194287.69870617907,2011-01-12 17:45:52,2401.2102501723525,2,22,0.5499359965324402,4.055736541748047,15.674206508025817,15.284669419854442,63.32104842020085,54.64425693823968,6.47544875391759e-05,0.1027383208274841,0,0,0
5199,194317.71382217857,2011-01-12 17:46:22,2431.225366191894,2,22,0.5501165986061096,4.058488845825195,15.67879321280946,15.284669419854442,63.33965712223734,54.64425693823968,3.24249267578125e-05,0.1027383208274841,0,0,0
5200,194347.72919874245,2011-01-12 17:46:52,2461.2407427658163,2,22,0.5499359965324402,4.061079025268555,15.68337989122104,15.284669419854442,63.35827799162928,54.64425693823968,9.71794142969884e-05,0.1027383208274841,0,0,0
5201,194377.74636631008,2011-01-12 17:47:22,2491.257910308384,2,22,0.5501165986061096,4.063992977142334,15.687966794850194,15.284669419854442,63.376912139669706,54.64425693823968,9.71794142969884e-05,0.1027383208274841,0,0,0
5202,194407.75924781556,2011-01-12 17:47:52,2521.270791904053,2,22,0.550297200679779,4.066583156585693,15.692553079975662,15.284669419854442,63.39555651509567,54.64425693823968,9.71794142969884e-05,0.1027383208274841,0,0,0
5203,194437.77433878765,2011-01-12 17:48:22,2551.2858827709056,2,22,0.5501165986061096,4.069334983825684,15.697139624783077,15.284669419854442,63.41421462277145,54.64425693823968,3.23295607813634e-05,0.1027383208274841,0,0,0
5204,194467.7894733484,2011-01-12 17:48:52,2581.3010173366697,2,22,0.5501165986061096,4.072248935699463,15.701726206390829,15.284669419854442,63.432885680108335,54.64425693823968,9.70840483205393e-05,0.1027383208274841,0,0,0
5205,194497.80463264583,2011-01-12 17:49:22,2611.3161766641474,2,22,0.5501165986061096,4.075162887573242,15.706312792436943,15.284669419854442,63.45156971330787,54.64425693823968,0.0001295089750783,0.1027383208274841,0,0,0
5206,194527.8197139037,2011-01-12 17:49:52,2641.331257896989,2,22,0.550297200679779,4.077915191650391,15.710899349521252,15.284669419854442,63.47026679767674,54.64425693823968,3.24249267578125e-05,0.1027383208274841,0,0,0
5207,194557.83483431416,2011-01-12 17:50:23,2671.3463783024613,2,22,0.5501165986061096,4.080990791320801,15.7154858953066,15.284669419854442,63.48897717118332,54.64425693823968,0.0001295089750783,0.1027383208274841,0,0,0
5208,194587.84995022847,2011-01-12 17:50:53,2701.3614942217523,2,22,0.5501165986061096,4.08390474319458,15.72007248912098,15.284669419854442,63.50770109370433,54.64425693823968,0.0001295089750783,0.1027383208274841,0,0,0
5209,194617.8652553744,2011-01-12 17:51:23,2731.3767993676547,2,22,0.5501165986061096,4.086818695068359,15.72465905296128,15.284669419854442,63.52643844216168,54.64425693823968,6.47544875391759e-05,0.1027383208274841,0,0,0
5210,194647.88023466812,2011-01-12 17:51:53,2761.391778651408,2,22,0.5501165986061096,4.089732646942139,15.729245593737168,15.284669419854442,63.54518934896731,54.64425693823968,6.47544875391759e-05,0.1027383208274841,0,0,0
5211,194677.8956525099,2011-01-12 17:52:23,2791.407196533283,2,22,0.5501165986061096,4.092646598815918,15.733832222023825,15.284669419854442,63.563954332274704,54.64425693823968,3.23295607813634e-05,0.1027383208274841,0,0,0
5212,194707.91052630576,2011-01-12 17:52:53,2821.422070304065,2,22,0.5501165986061096,4.095884323120117,15.738418755106885,15.284669419854442,63.58273277348293,54.64425693823968,0.0001295089750783,0.1027383208274841,0,0,0
5213,194737.9256086113,2011-01-12 17:53:23,2851.4371526446685,2,22,0.550297200679779,4.0987982749938965,15.743005384436673,15.284669419854442,63.60152563263667,54.64425693823968,6.47544875391759e-05,0.1027383208274841,0,0,0
5214,194767.9410383878,2011-01-12 17:53:53,2881.452582476326,2,22,0.5501165986061096,4.101874351501465,15.747592010325077,15.284669419854442,63.62033265074221,54.64425693823968,6.47544875391759e-05,0.1027383208274841,0,0,0
5215,194797.9558502142,2011-01-12 17:54:23,2911.467394217512,2,22,0.5501165986061096,4.105112075805664,15.752178472935537,15.284669419854442,63.639153261150334,54.64425693823968,6.47544875391759e-05,0.1027383208274841,0,0,0
5216,194827.97123892332,2011-01-12 17:54:53,2941.482782936704,2,22,0.550297200679779,4.108187675476074,15.75676505900564,15.284669419854442,63.65798880032092,54.64425693823968,6.47544875391759e-05,0.1027383208274841,0,0,0
5217,194857.9861274359,2011-01-12 17:55:23,2971.4976714492277,2,22,0.5501165986061096,4.111425399780273,15.761351538675871,15.284669419854442,63.67683835031213,54.64425693823968,9.70840483205393e-05,0.1027383208274841,0,0,0
5218,194888.0012029144,2011-01-12 17:55:53,3001.512746922715,2,22,0.5499359965324402,4.114501476287842,15.765938130305187,15.284669419854442,63.69570300440624,54.64425693823968,6.47544875391759e-05,0.1027383208274841,0,0,0
5219,194918.016355866,2011-01-12 17:56:23,3031.5278998592644,2,22,0.5501165986061096,4.117738723754883,15.770524703816998,15.284669419854442,63.71458231485516,54.64425693823968,6.47544875391759e-05,0.1027383208274841,0,0,0
5220,194948.03150098305,2011-01-12 17:56:53,3061.543045011413,2,22,0.5499359965324402,4.121138572692871,15.775111280719774,15.284669419854442,63.73347653890078,54.64425693823968,9.71794142969884e-05,0.1027383208274841,0,0,0
5221,194978.04666823024,2011-01-12 17:57:23,3091.5582122536166,2,22,0.5501165986061096,4.12437629699707,15.779697886958274,15.284669419854442,63.75238583781576,54.64425693823968,9.71794142969884e-05,0.1027383208274841,0,0,0
5222,195008.06173897692,2011-01-12 17:57:53,3121.573282970249,2,22,0.5501165986061096,4.1277756690979,15.78428444454882,15.284669419854442,63.77131010597272,54.64425693823968,0.0001295089750783,0.1027383208274841,0,0,0
5223,195038.07685758296,2011-01-12 17:58:23,3151.5884016163363,2,22,0.550297200679779,4.131175518035889,15.788871008918315,15.284669419854442,63.79024972256454,54.64425693823968,0.0001295089750783,0.1027383208274841,0,0,0
5224,195068.0919995371,2011-01-12 17:58:53,3181.6035435304143,2,22,0.5499359965324402,4.134413242340088,15.793457544363214,15.284669419854442,63.80920464392502,54.64425693823968,6.47544875391759e-05,0.1027383208274841,0,0,0
5225,195098.1071274363,2011-01-12 17:59:23,3211.618671474675,2,22,0.5501165986061096,4.137974739074707,15.79804413088796,15.284669419854442,63.828175375161045,54.64425693823968,0.0001295089750783,0.1027383208274841,0,0,0
5226,195128.1223652293,2011-01-12 17:59:53,3241.633909242651,2,22,0.5501165986061096,4.141212463378906,15.80263075236647,15.284669419854442,63.847161951273,54.64425693823968,9.71794142969884e-05,0.1027383208274841,0,0,0
5227,195158.1373671545,2011-01-12 18:00:23,3271.6489111778587,2,22,0.5499359965324402,4.144773960113525,15.807217401923976,15.284669419854442,63.86616439895848,54.64425693823968,6.47544875391759e-05,0.1027383208274841,0,0,0
5228,195188.15472244,2011-01-12 18:00:53,3301.666266643789,2,22,0.5499359965324402,4.148173332214356,15.811804296246372,15.284669419854442,63.88518413281848,54.64425693823968,6.47544875391759e-05,0.1027383208274841,0,0,0
5229,195218.1676177398,2011-01-12 18:01:23,3331.6791617330887,2,22,0.5501165986061096,4.151573181152344,15.816390501920145,15.284669419854442,63.9042169894992,54.64425693823968,3.24249267578125e-05,0.1027383208274841,0,0,0
5230,195248.1828817181,2011-01-12 18:01:53,3361.6944257214136,2,22,0.5501165986061096,4.155458450317383,15.820977056650406,15.284669419854442,63.92326737342362,54.64425693823968,0.0001619339018361,0.1027383208274841,0,0,0
5231,195278.1978702499,2011-01-12 18:02:23,3391.7094142331657,2,22,0.5497553944587708,4.158857822418213,15.825563576940167,15.284669419854442,63.94233391645561,54.64425693823968,6.47544875391759e-05,0.1027383208274841,0,0,0
5232,195308.21333440716,2011-01-12 18:02:53,3421.724878415436,2,22,0.5501165986061096,4.162257671356201,15.830150222428577,15.284669419854442,63.96141732241591,54.64425693823968,6.47544875391759e-05,0.1027383208274841,0,0,0
5233,195338.228108715,2011-01-12 18:03:23,3451.7396527082883,2,22,0.5501165986061096,4.16614294052124,15.834736721445068,15.284669419854442,63.98051658093858,54.64425693823968,0.0001295089750783,0.1027383208274841,0,0,0
5234,195368.24323039863,2011-01-12 18:03:53,3481.754774401971,2,22,0.5501165986061096,4.169704437255859,15.839323219444813,15.284669419854442,63.99963248513883,54.64425693823968,9.71794142969884e-05,0.1027383208274841,0,0,0
5235,195398.25839296923,2011-01-12 18:04:23,3511.7699369524817,2,22,0.5501165986061096,4.173427581787109,15.84390977072196,15.284669419854442,64.01876551691764,54.64425693823968,0.0001295089750783,0.1027383208274841,0,0,0
5236,195428.2735001417,2011-01-12 18:04:53,3541.785044129985,2,22,0.5501165986061096,4.1769890785217285,15.84849636137788,15.284669419854442,64.03791572115972,54.64425693823968,6.47544875391759e-05,0.1027383208274841,0,0,0
5237,195458.2886095949,2011-01-12 18:05:23,3571.8001535781486,2,22,0.550297200679779,4.181036472320557,15.853082882778876,15.284669419854442,64.05708276773055,54.64425693823968,0.0001295089750783,0.1027383208274841,0,0,0
5238,195488.30374455664,2011-01-12 18:05:53,3601.8152885398995,2,22,0.5501165986061096,4.184597969055176,15.857669455733603,15.284669419854442,64.0762672951955,54.64425693823968,6.47544875391759e-05,0.1027383208274841,0,0,0
5239,195518.3188753279,2011-01-12 18:06:23,3631.8304194014313,2,22,0.5501165986061096,4.188483238220215,15.862256072129306,15.284669419854442,64.0954691603632,54.64425693823968,0.0001295089750783,0.1027383208274841,0,0,0
5240,195548.33413176745,2011-01-12 18:06:53,3661.845675750717,2,22,0.5501165986061096,4.192206382751465,15.866842720301577,15.284669419854442,64.11468865848269,54.64425693823968,9.70840483205393e-05,0.1027383208274841,0,0,0
5241,195578.3491202692,2011-01-12 18:07:23,3691.8606642524446,2,22,0.5501165986061096,4.196091651916504,15.871429391694877,15.284669419854442,64.13392581829054,54.64425693823968,0.0001295089750783,0.1027383208274841,0,0,0
5242,195608.3643049799,2011-01-12 18:07:53,3721.875848988247,2,22,0.5501165986061096,4.199976921081543,15.876015935848033,15.284669419854442,64.15318013528285,54.64425693823968,0.0001619339018361,0.1027383208274841,0,0,0
5243,195608.64551063595,2011-01-12 18:07:53,3722.1570546192047,2,22,0.5501165986061096,4.200138568878174,15.876058906927392,15.284669419854442,64.1533606122422,54.64425693823968,9.70840483205393e-05,0.1027383208274841,0,0,0
5244,195638.65361821288,2011-01-12 18:08:23,30.01527227898763,3,22,0.0,4.101388454437256,15.876058906927392,15.284669419854442,64.1533606122422,54.64425693823968,-0.0004532813909463,0.1027383208274841,0,0,0
5245,195668.6685843639,2011-01-12 18:08:53,60.0302384149727,3,22,0.0,4.088599681854248,15.876058906927392,15.284669419854442,64.1533606122422,54.64425693823968,-0.0002913475036621,0.1027383208274841,0,0,0
5246,195698.68370447363,2011-01-12 18:09:23,90.04535852470772,3,22,0.0,4.08082914352417,15.876058906927392,15.284669419854442,64.1533606122422,54.64425693823968,-0.0001618385285837,0.1027383208274841,0,0,0
5247,195728.65196882945,2011-01-12 18:09:53,120.0136229055492,3,22,0.0,4.075648784637451,15.876058906927392,15.284669419854442,64.1533606122422,54.64425693823968,-9.70840483205393e-05,0.1027383208274841,0,0,0
5248,195728.66257132572,2011-01-12 18:09:54,0.015765061383756,4,22,1.0265638828277588,4.199976921081543,15.876063402438998,15.284669419854442,64.1533794932872,54.64425693823968,0.0,0.1027383208274841,0,0,0
5249,195729.349979328,2011-01-12 18:09:54,0.703173118772942,4,22,0.9754514694213868,4.199814796447754,15.876253050338793,15.284669419854442,64.15417597413743,54.64425693823968,-3.24249267578125e-05,0.1027383208274841,0,0,0
5250,195731.17801619336,2011-01-12 18:09:56,2.531209888876894,4,22,0.9247002601623536,4.199814796447754,15.876734450705236,15.284669419854442,64.1561977484709,54.64425693823968,-3.24249267578125e-05,0.1027383208274841,0,0,0
5251,195733.95926444972,2011-01-12 18:09:59,5.312458240537956,4,22,0.8743102550506592,4.199976921081543,15.877428303872811,15.284669419854442,64.15911176953854,54.64425693823968,6.47544875391759e-05,0.1027383208274841,0,0,0
5252,195737.77164852392,2011-01-12 18:10:03,9.12484221945464,4,22,0.824100911617279,4.199653148651123,15.878326484354456,15.284669419854442,64.1628839438114,54.64425693823968,-3.23295607813634e-05,0.1027383208274841,0,0,0
5253,195742.78722707395,2011-01-12 18:10:08,14.140420809556124,4,22,0.7740721106529236,4.199814796447754,15.879438402527487,15.284669419854442,64.16755377462641,54.64425693823968,-3.24249267578125e-05,0.1027383208274841,0,0,0
5254,195749.28709953607,2011-01-12 18:10:14,20.640293241617567,4,22,0.7240433692932129,4.199814796447754,15.880788763924032,15.284669419854442,64.17322503701357,54.64425693823968,0.0,0.1027383208274841,0,0,0
5255,195757.8026132564,2011-01-12 18:10:23,29.15580695695425,4,22,0.6736533641815186,4.199653148651123,15.882439151869551,15.284669419854442,64.1801563503737,54.64425693823968,-3.23295607813634e-05,0.1027383208274841,0,0,0
5256,195769.50576942257,2011-01-12 18:10:34,40.858963268453685,4,22,0.6236245632171631,4.199653148651123,15.88454368683404,15.284669419854442,64.18899500544411,54.64425693823968,-3.23295607813634e-05,0.1027383208274841,0,0,0
5257,195786.7239857656,2011-01-12 18:10:52,58.07717946111848,4,22,0.573415219783783,4.199814796447754,15.887398461648996,15.284669419854442,64.2009845610477,54.64425693823968,0.0,0.1027383208274841,0,0,0
5258,195815.58285451616,2011-01-12 18:11:21,86.93604821169684,4,22,0.5233864188194275,4.199653148651123,15.891776729683167,15.284669419854442,64.21937246497195,54.64425693823968,-3.23295607813634e-05,0.1027383208274841,0,0,0
5259,195870.9103659435,2011-01-12 18:12:16,142.26355969917333,4,22,0.4731770753860473,4.199491024017334,15.899397449122988,15.284669419854442,64.25137810277336,54.64425693823968,-3.24249267578125e-05,0.1027383208274841,0,0,0
5260,195967.3616025725,2011-01-12 18:13:52,238.7147962680064,4,22,0.4231483042240143,4.199814796447754,15.911370326454788,15.284669419854442,64.30166203406995,54.64425693823968,0.0,0.1027383208274841,0,0,0
5261,196095.2031885256,2011-01-12 18:16:00,366.5563822210741,4,22,0.3731195330619812,4.199814796447754,15.925487684472811,15.284669419854442,64.36095247696032,54.64425693823968,0.0,0.1027383208274841,0,0,0
5262,196248.96638660188,2011-01-12 18:18:34,520.319580332521,4,22,0.3230907618999481,4.199814796447754,15.940341117900909,15.284669419854442,64.42333434068763,54.64425693823968,3.23295607813634e-05,0.1027383208274841,0,0,0
5263,196434.65080520173,2011-01-12 18:21:40,706.0039989323391,4,22,0.273061990737915,4.199814796447754,15.955694036434608,15.284669419854442,64.48781392526597,54.64425693823968,0.0,0.1027383208274841,0,0,0
5264,196663.27182848167,2011-01-12 18:25:28,934.625022182208,4,22,0.2230332195758819,4.199814796447754,15.971406722572166,15.284669419854442,64.55380443035497,54.64425693823968,-3.24249267578125e-05,0.1027383208274841,0,0,0
5265,196956.32945166025,2011-01-12 18:30:21,1227.6826453807953,4,22,0.1730044484138488,4.199814796447754,15.987451812219405,15.284669419854442,64.62119086894253,54.64425693823968,0.0,0.1027383208274841,0,0,0
5266,197369.24439274412,2011-01-12 18:37:14,1640.5975864396648,4,22,0.1229756772518158,4.199814796447754,16.004260481305877,15.284669419854442,64.69178415851265,54.64425693823968,0.0,0.1027383208274841,0,0,0
5267,198064.52961057588,2011-01-12 18:48:50,2335.8828042814403,4,22,0.0729469060897827,4.199814796447754,16.022735107295965,15.284669419854442,64.76937419584935,54.64425693823968,0.0,0.1027383208274841,0,0,0
5268,198653.67599097165,2011-01-12 18:58:39,2925.0291846872205,4,22,0.0498289167881011,4.199814796447754,16.032695101375364,15.284669419854442,64.81120435958111,54.64425693823968,0.0,0.1027383208274841,0,0,0
5269,198683.68802739284,2011-01-12 18:59:09,30.015120124772512,5,22,0.0,4.190425872802734,16.032695101375364,15.284669419854442,64.81120435958111,54.64425693823968,-6.47544875391759e-05,0.1027383208274841,0,0,0
5270,198713.6875196682,2011-01-12 18:59:39,60.014612390110734,5,22,0.0,4.188968658447266,16.032695101375364,15.284669419854442,64.81120435958111,54.64425693823968,-6.47544875391759e-05,0.1027383208274841,0,0,0
5271,198713.8732144552,2011-01-12 18:59:39,0.187733409420402,6,22,-1.9243103452026844e-05,4.189130783081055,16.032695101375364,15.284669420857934,64.81120435958111,54.64425694244344,0.0,0.1059741750359535,0,0,0
5272,198718.7011423119,2011-01-12 18:59:44,5.015661160893304,6,22,0.0005225847125984,4.188807010650635,16.032695926211524,15.284669420857934,64.81120781494194,54.64425694244344,-9.70840483205393e-05,0.1059741750359535,0,0,0
5273,198743.38611209297,2011-01-12 19:00:09,24.68706125266048,7,22,-1.099929690361023,3.988716125488281,16.032695926211524,15.29220812350106,64.81120781494194,54.67451118309512,-0.0013597965007647,0.1059741750359535,0,0,0
5274,198773.4013644874,2011-01-12 19:00:39,54.702313662127146,7,22,-1.099568486213684,3.946787595748901,16.032695926211524,15.301376468342513,64.81120781494194,54.71087960721444,-0.0009713172912597,0.1059741750359535,0,0,0
5275,198803.41638380088,2011-01-12 19:01:09,84.71733298567197,7,22,-1.099568486213684,3.915705442428589,16.032695926211524,15.310544694745648,64.81120781494194,54.74691685421442,-0.0007770538213662,0.1059741750359535,0,0,0
5276,198833.4314770587,2011-01-12 19:01:39,114.7324262184213,7,22,-1.0997490882873535,3.8917465209960938,16.032695926211524,15.319712897632584,64.81120781494194,54.782702442458366,-0.0005827903514727,0.1059741750359535,0,0,0
5277,198863.44659188527,2011-01-12 19:02:09,144.74754103997654,7,22,-1.099568486213684,3.871834516525269,16.032695926211524,15.328881109367476,64.81120781494194,54.81828863115276,-0.0004532813909463,0.1059741750359535,0,0,0
5278,198893.4617351828,2011-01-12 19:02:39,174.7626843425152,7,22,-1.099929690361023,3.8545126914978023,16.032695926211524,15.338049353536526,64.81120781494194,54.85370676313007,-0.0005180359003134,0.1059741750359535,0,0,0
5279,198923.4790592405,2011-01-12 19:03:09,204.78000849540396,7,22,-1.0993878841400146,3.8396191596984863,16.032695926211524,15.347218240860023,64.81120781494194,54.88897955871936,-0.0003885269106831,0.1059741750359535,0,0,0
5280,198953.492089632,2011-01-12 19:03:39,234.7930388167433,7,22,-1.099568486213684,3.825373411178589,16.032695926211524,15.356385886460943,64.81120781494194,54.92411306179251,-0.0003561496851034,0.1059741750359535,0,0,0
5281,198983.50705213388,2011-01-12 19:04:09,264.80800130363366,7,22,-1.0997490882873535,3.811936855316162,16.032695926211524,15.365553981852306,64.81120781494194,54.95912269992044,-0.0003885269106831,0.1059741750359535,0,0,0
5282,199013.5222022384,2011-01-12 19:04:39,294.8231514281748,7,22,-1.0997490882873535,3.799471616744995,16.032695926211524,15.374722086782947,64.81120781494194,54.99401280773088,-0.0003237724304199,0.1059741750359535,0,0,0
5283,199043.53750101844,2011-01-12 19:05:09,324.8384502031988,7,22,-1.099568486213684,3.787653923034668,16.032695926211524,15.383890311803816,64.81120781494194,55.02879151734064,-0.0002590179501567,0.1059741750359535,0,0,0
5284,199073.55238218265,2011-01-12 19:05:39,354.8533314626454,7,22,-1.099568486213684,3.7761600017547607,16.032695926211524,15.393058274551075,64.81120781494194,55.06346275645963,-0.0002913951757363,0.1059741750359535,0,0,0
5285,199103.56753526456,2011-01-12 19:06:09,384.86848442425736,7,22,-1.0997490882873535,3.7649898529052734,16.032695926211524,15.402226346141326,64.81120781494194,55.09803262895887,-0.0003561496851034,0.1059741750359535,0,0,0
5286,199133.58269509327,2011-01-12 19:06:39,414.8836442529844,7,22,-1.099568486213684,3.754791021347046,16.032695926211524,15.411394443457707,64.81120781494194,55.1325037944503,-0.0002590179501567,0.1059741750359535,0,0,0
5287,199163.5978358244,2011-01-12 19:07:09,444.89878498411423,7,22,-1.099568486213684,3.744430541992188,16.032695926211524,15.42056255811172,64.81120781494194,55.16687989359901,-0.0002266406954731,0.1059741750359535,0,0,0
5288,199193.61301916675,2011-01-12 19:07:39,474.9139684166692,7,22,-1.099568486213684,3.73455548286438,16.032695926211524,15.42973081519035,64.81120781494194,55.20116427755472,-0.0002266406954731,0.1059741750359535,0,0,0
5289,199223.6280748058,2011-01-12 19:08:09,504.9290239755236,7,22,-1.099568486213684,3.7248423099517822,16.032695926211524,15.438898828313755,64.81120781494194,55.23535838914179,-0.0002913951757363,0.1059741750359535,0,0,0
5290,199253.64317710116,2011-01-12 19:08:39,534.9441262658472,7,22,-1.0997490882873535,3.715776681900024,16.032695926211524,15.448066966103989,64.81120781494194,55.26946683679237,-0.0002266406954731,0.1059741750359535,0,0,0
5291,199283.658439305,2011-01-12 19:09:09,564.9593884697246,7,22,-1.099568486213684,3.706872940063477,16.032695926211524,15.457235123402238,64.81120781494194,55.30349214379006,-0.0002266406954731,0.1059741750359535,0,0,0
5292,199313.67342162636,2011-01-12 19:09:39,594.9743707910485,7,22,-1.0997490882873535,3.6979691982269287,16.032695926211524,15.466403299850857,64.81120781494194,55.33743616101006,-0.0002590179501567,0.1059741750359535,0,0,0
5293,199343.68867332904,2011-01-12 19:10:09,624.9896225138036,7,22,-1.099568486213684,3.6895511150360103,16.032695926211524,15.475571483764805,64.81120781494194,55.371300022964185,-0.0001618862152099,0.1059741750359535,0,0,0
5294,199373.7036882516,2011-01-12 19:10:39,655.0046374063049,7,22,-1.099568486213684,3.6811330318450928,16.032695926211524,15.48473958748604,64.81120781494194,55.405086098598936,-0.0001942634553415,0.1059741750359535,0,0,0
5295,199403.7191107149,2011-01-12 19:11:09,685.0200599046855,7,22,-1.0997490882873535,3.672553062438965,16.032695926211524,15.493907868807977,64.81120781494194,55.43879669468206,-0.0002913951757363,0.1059741750359535,0,0,0
5296,199433.733916,2011-01-12 19:11:39,715.0348651897807,7,22,-1.099568486213684,3.664782762527466,16.032695926211524,15.503075964461429,64.81120781494194,55.47243282109616,-0.0002266406954731,0.1059741750359535,0,0,0
5297,199463.7491392518,2011-01-12 19:12:09,745.05008842654,7,22,-1.0997490882873535,3.657012224197388,16.032695926211524,15.512244192240752,64.81120781494194,55.50599773632977,-0.0002266406954731,0.1059741750359535,0,0,0
5298,199493.76413515696,2011-01-12 19:12:39,775.0650843166816,7,22,-1.099568486213684,3.6495654582977295,16.032695926211524,15.521412297888414,64.81120781494194,55.53949193788829,-0.0002266406954731,0.1059741750359535,0,0,0
5299,199523.77939866408,2011-01-12 19:13:09,805.080347833832,7,22,-1.099568486213684,3.641956806182861,16.032695926211524,15.530580428786724,64.81120781494194,55.57291628935051,-0.0001942634553415,0.1059741750359535,0,0,0
5300,199553.7943775218,2011-01-12 19:13:39,835.095326696536,7,22,-1.099568486213684,3.634348154067993,16.032695926211524,15.539748505437872,64.81120781494194,55.60627148330023,-0.0002590179501567,0.1059741750359535,0,0,0
5301,199583.8095042831,2011-01-12 19:14:09,865.1104534428111,7,22,-1.099568486213684,3.627225160598755,16.032695926211524,15.548916628747325,64.81120781494194,55.63955994669264,-0.0001942634553415,0.1059741750359535,0,0,0
5302,199613.8246206084,2011-01-12 19:14:39,895.1255697781394,7,22,-1.099568486213684,3.620264053344727,16.032695926211524,15.558084810596462,64.81120781494194,55.67278265082479,-0.0001942634553415,0.1059741750359535,0,0,0
5303,199643.8397877504,2011-01-12 19:15:09,925.1407369551806,7,22,-1.099568486213684,3.613141059875488,16.032695926211524,15.567253045784788,64.81120781494194,55.70594078729141,-0.0001942634553415,0.1059741750359535,0,0,0
5304,199673.8548535397,2011-01-12 19:15:39,955.1558026994202,7,22,-1.099568486213684,3.60634183883667,16.032695926211524,15.576421195313378,64.81120781494194,55.739035318305184,-0.0001618862152099,0.1059741750359535,0,0,0
5305,199703.8699747472,2011-01-12 19:16:09,985.1709239068912,7,22,-1.099568486213684,3.599704504013061,16.032695926211524,15.585589354110011,64.81120781494194,55.77206807411465,-0.0001618862152099,0.1059741750359535,0,0,0
5306,199733.8851045812,2011-01-12 19:16:39,1015.1860537458743,7,22,-1.099929690361023,3.593229055404663,16.032695926211524,15.594757522098712,64.81120781494194,55.80504106109646,-0.0001618862152099,0.1059741750359535,0,0,0
5307,199763.9002315229,2011-01-12 19:17:09,1045.2011806826245,7,22,-1.099568486213684,3.587077617645264,16.032695926211524,15.60392568390721,64.81120781494194,55.8379562046227,-0.0001295089750783,0.1059741750359535,0,0,0
5308,199793.9153319436,2011-01-12 19:17:39,1075.2162811083006,7,22,-1.0993878841400146,3.580925941467285,16.032695926211524,15.61309379951376,64.81120781494194,55.87081439014269,-0.0001618862152099,0.1059741750359535,0,0,0
5309,199823.93045482523,2011-01-12 19:18:09,1105.231403989944,7,22,-1.0997490882873535,3.5749361515045166,16.032695926211524,15.622261976717882,64.81120781494194,55.90361782273904,-0.0001618862152099,0.1059741750359535,0,0,0
5310,199853.94559627312,2011-01-12 19:18:39,1135.2465454579103,7,22,-1.099568486213684,3.569270133972168,16.032695926211524,15.63143017684656,64.81120781494194,55.9363667493833,-9.713172767078504e-05,0.1059741750359535,0,0,0
5311,199883.9607223026,2011-01-12 19:19:09,1165.2616714723615,7,22,-1.099568486213684,3.5632803440093994,16.032695926211524,15.640598384738643,64.81120781494194,55.96906244122016,-0.0001942634553415,0.1059741750359535,0,0,0
5312,199913.9758246581,2011-01-12 19:19:39,1195.2767738278478,7,22,-1.099568486213684,3.5579380989074707,16.032695926211524,15.649766494083163,64.81120781494194,56.00170657391254,-0.0001618862152099,0.1059741750359535,0,0,0
5313,199943.9909382717,2011-01-12 19:20:09,1225.29188743638,7,22,-1.0997490882873535,3.552595853805542,16.032695926211524,15.65893475039201,64.81120781494194,56.034301137869306,-0.0001295089750783,0.1059741750359535,0,0,0
5314,199974.0060552185,2011-01-12 19:20:39,1255.3070043782195,7,22,-1.099568486213684,3.5472536087036133,16.032695926211524,15.66810291761929,64.81120781494194,56.06684745060772,-0.0001295089750783,0.1059741750359535,0,0,0
5315,200004.0213908504,2011-01-12 19:21:09,1285.3223400101022,7,22,-1.099568486213684,3.5422351360321045,16.032695926211524,15.677271211074205,64.81120781494194,56.09934718286693,-0.0001618862152099,0.1059741750359535,0,0,0
5316,200034.038610162,2011-01-12 19:21:39,1315.339559421944,7,22,-1.0997490882873535,3.5373785495758057,16.032695926211524,15.686440010846477,64.81120781494194,56.13180308698555,-0.0001295089750783,0.1059741750359535,0,0,0
5317,200064.0515287298,2011-01-12 19:22:09,1345.3524781100589,7,22,-1.099568486213684,3.532360076904297,16.032695926211524,15.695607536737926,64.81120781494194,56.16420939172976,-0.0001618862152099,0.1059741750359535,0,0,0
5318,200094.06653599328,2011-01-12 19:22:39,1375.3674851580092,7,22,-1.0997490882873535,3.527665376663208,16.032695926211524,15.704775768176,64.81120781494194,56.19657373467686,-9.713172767078504e-05,0.1059741750359535,0,0,0
5319,200124.0816860176,2011-01-12 19:23:09,1405.3826351923256,7,22,-1.0997490882873535,3.522808790206909,16.032695926211524,15.713944029811012,64.81120781494194,56.22889432871665,-0.0001618862152099,0.1059741750359535,0,0,0
5320,200154.0970188325,2011-01-12 19:23:39,1435.3979680121995,7,22,-1.0997490882873535,3.5182759761810303,16.032695926211524,15.723112209896431,64.81120781494194,56.26117119976596,-9.713172767078504e-05,0.1059741750359535,0,0,0
5321,200184.1118856409,2011-01-12 19:24:09,1465.4128348055924,7,22,-1.099568486213684,3.5135812759399414,16.032695926211524,15.732280320563182,64.81120781494194,56.293405472437215,-0.0001295089750783,0.1059741750359535,0,0,0
5322,200214.1270153696,2011-01-12 19:24:40,1495.4279645343008,7,22,-1.099568486213684,3.509210586547852,16.032695926211524,15.74144851067076,64.81120781494194,56.32559844900189,-9.713172767078504e-05,0.1059741750359535,0,0,0
5323,200244.1421435244,2011-01-12 19:25:10,1525.4430926890866,7,22,-1.099568486213684,3.5046777725219727,16.032695926211524,15.750616687950073,64.81120781494194,56.357749057172974,-9.713172767078504e-05,0.1059741750359535,0,0,0
5324,200274.157273634,2011-01-12 19:25:40,1555.4582228187944,7,22,-1.0997490882873535,3.499821186065674,16.032695926211524,15.759784945353552,64.81120781494194,56.38985820287019,-0.0001618862152099,0.1059741750359535,0,0,0
5325,200304.17238439043,2011-01-12 19:26:10,1585.4733335501558,7,22,-1.0997490882873535,3.495288372039795,16.032695926211524,15.768953227519322,64.81120781494194,56.42192448426518,-9.713172767078504e-05,0.1059741750359535,0,0,0
5326,200334.1874897584,2011-01-12 19:26:40,1615.4884389231624,7,22,-1.0997490882873535,3.490431785583496,16.032695926211524,15.778121484150407,64.81120781494194,56.45394746341305,-9.713172767078504e-05,0.1059741750359535,0,0,0
5327,200364.20262228916,2011-01-12 19:27:10,1645.5035714488415,7,22,-1.0997490882873535,3.4855751991271973,16.032695926211524,15.787289749114088,64.81120781494194,56.48592723327208,-0.0001618862152099,0.1059741750359535,0,0,0
5328,200394.2177521732,2011-01-12 19:27:40,1675.5187013329376,7,22,-1.099568486213684,3.4807186126708984,16.032695926211524,15.796457982970692,64.81120781494194,56.51786294156961,-0.0001618862152099,0.1059741750359535,0,0,0
5329,200424.2328513909,2011-01-12 19:28:10,1705.533800550603,7,22,-1.099568486213684,3.4758620262146,16.032695926211524,15.805626146904851,64.81120781494194,56.54975245197792,-9.713172767078504e-05,0.1059741750359535,0,0,0
5330,200454.24809740443,2011-01-12 19:28:40,1735.549046584179,7,22,-1.0993878841400146,3.470843553543091,16.032695926211524,15.814794378812874,64.81120781494194,56.58159571346654,-9.713172767078504e-05,0.1059741750359535,0,0,0
5331,200484.2632420503,2011-01-12 19:29:10,1765.5641912300655,7,22,-1.099568486213684,3.465339422225952,16.032695926211524,15.823962560181744,64.81120781494194,56.613390781734985,-0.0001618862152099,0.1059741750359535,0,0,0
5332,200514.278370977,2011-01-12 19:29:40,1795.579320156775,7,22,-1.099568486213684,3.4596734046936035,16.032695926211524,15.833130788839323,64.81120781494194,56.64513615777925,-0.0001618862152099,0.1059741750359535,0,0,0
5333,200544.2933287722,2011-01-12 19:30:10,1825.5942779369352,7,22,-1.0997490882873535,3.453845500946045,16.032695926211524,15.842298885704176,64.81120781494194,56.676828730074845,-0.0001618862152099,0.1059741750359535,0,0,0
5334,200574.30847403465,2011-01-12 19:30:40,1855.6094232093835,7,22,-1.0997490882873535,3.4475319385528564,16.032695926211524,15.851467128794573,64.81120781494194,56.70846572782629,-0.0001618862152099,0.1059741750359535,0,0,0
5335,200604.3235851319,2011-01-12 19:31:10,1885.624534301644,7,22,-1.0997490882873535,3.440894603729248,16.032695926211524,15.860635333164012,64.81120781494194,56.74004434251619,-0.0001618862152099,0.1059741750359535,0,0,0
5336,200634.3388232307,2011-01-12 19:31:40,1915.639772410469,7,22,-1.099568486213684,3.4340953826904297,16.032695926211524,15.869803535885431,64.81120781494194,56.77156061060042,-0.0001618862152099,0.1059741750359535,0,0,0
5337,200664.3539382678,2011-01-12 19:32:10,1945.6548874525745,7,22,-1.0997490882873535,3.4261631965637207,16.032695926211524,15.87897178989841,64.81120781494194,56.80300918303203,-0.0002266406954731,0.1059741750359535,0,0,0
5338,200694.36895742093,2011-01-12 19:32:40,1975.669906600681,7,22,-1.099568486213684,3.4177451133728027,16.032695926211524,15.888139998079144,64.81120781494194,56.834383483926125,-0.0002266406954731,0.1059741750359535,0,0,0
5339,200724.384062022,2011-01-12 19:33:10,2005.6850111817143,7,22,-1.099568486213684,3.407870054244995,16.032695926211524,15.897308261876615,64.81120781494194,56.8656749839181,-0.0002913951757363,0.1059741750359535,0,0,0
5340,200754.3991690491,2011-01-12 19:33:40,2035.7001182188685,7,22,-1.099929690361023,3.397023677825928,16.032695926211524,15.906476417910914,64.81120781494194,56.89687173874278,-0.0003237724304199,0.1059741750359535,0,0,0
5341,200784.41429334428,2011-01-12 19:34:10,2065.71524250401,7,22,-1.0997490882873535,3.383910894393921,16.032695926211524,15.915644619423531,64.81120781494194,56.9279582305077,-0.0004209041653666,0.1059741750359535,0,0,0
5342,200814.4294216595,2011-01-12 19:34:40,2095.7303708292206,7,22,-1.099568486213684,3.3680460453033447,16.032695926211524,15.924812861040246,64.81120781494194,56.95891249704031,-0.0004532813909463,0.1059741750359535,0,0,0
5343,200844.44674717076,2011-01-12 19:35:10,2125.7476964407447,7,22,-1.0997490882873535,3.3482961654663086,16.032695926211524,15.933981833287744,64.81120781494194,56.98970732184556,-0.0005827426793985,0.1059741750359535,0,0,0
5344,200874.45965168352,2011-01-12 19:35:40,2155.760600863305,7,22,-1.099568486213684,3.3243370056152344,16.032695926211524,15.943149356121816,64.81120781494194,57.020297194817886,-0.0006799221155233,0.1059741750359535,0,0,0
5345,200904.4749435363,2011-01-12 19:36:10,2185.77589274114,7,22,-1.0997490882873535,3.293578624725342,16.032695926211524,15.952317561367986,64.81120781494194,57.05063972902947,-0.0008741855854168,0.1059741750359535,0,0,0
5346,200934.49010795145,2011-01-12 19:36:40,2215.791057236497,7,22,-1.0997490882873535,3.2544023990631104,16.032695926211524,15.96148573261333,64.81120781494194,57.0806650529317,-0.0011655807029455,0.1059741750359535,0,0,0
5347,200964.5052273795,2011-01-12 19:37:10,2245.806176544233,7,22,-1.0997490882873535,3.2034082412719727,16.032695926211524,15.970653903067983,64.81120781494194,57.11028007733525,-0.0015217304462566,0.1059741750359535,0,0,0
5348,200994.5201334107,2011-01-12 19:37:40,2275.821082585444,7,22,-1.099568486213684,3.1334736347198486,16.032695926211524,15.979822051780946,64.81120781494194,57.13934637949853,-0.0021368979942053,0.1059741750359535,0,0,0
5349,201024.53524810693,2011-01-12 19:38:10,2305.836197266649,7,22,-1.0993878841400146,3.0342376232147217,16.032695926211524,15.988990264424132,64.81120781494194,57.16764795757966,-0.0030758380889892,0.1059741750359535,0,0,0
5350,201054.55037688828,2011-01-12 19:38:40,2335.8513260580216,7,22,-1.099568486213684,2.883845806121826,16.032695926211524,15.998158440857772,64.81120781494194,57.19482316529702,-0.0046947002410888,0.1059741750359535,0,0,0
5351,201081.39366397416,2011-01-12 19:39:07,2362.6946131389,7,22,-1.0997490882873535,2.699781894683838,16.032695926211524,16.00635773757958,64.81120781494194,57.21773960989832,-0.0058602332137525,0.1059741750359535,0,0,0
5352,201141.41506733635,2011-01-12 19:40:07,60.014862343070426,8,22,0.0,3.56149959564209,16.032695926211524,16.00635773757958,64.81120781494194,57.21773960989832,0.0012627125252038,0.1059741750359535,0,0,0
5353,201141.61008176385,2011-01-12 19:40:07,0.18771139956507,9,22,-1.9243103452026844e-05,3.5618233680725098,16.032695926211524,16.006357738582956,64.81120781494194,57.21773961347216,0.0,0.10130325704813,0,0,0
5354,201146.43791384183,2011-01-12 19:40:12,5.015543337240507,9,22,0.0007031940040178,3.569593906402588,16.03269676703472,16.00635773874898,64.81121081344845,57.21773961406351,0.0011008263099938,0.10130325704813,0,0,0
