Data_Point,Test_Time(s),Date_Time,Step_Time(s),Step_Index,Cycle_Index,Current(A),Voltage(V),Charge_Capacity(Ah),Discharge_Capacity(Ah),Charge_Energy(Wh),Discharge_Energy(Wh),dV/dt(V/s),Internal_Resistance(Ohm),Is_FC_Data,AC_Impedance(Ohm),ACI_Phase_Angle(Deg)
6065,229245.0054805829,2011-01-13 03:28:34,30.01718798351276,1,26,0.0,3.6084463596344,18.1863501094608,18.15226443365621,73.54742009010818,64.86003947280085,0.0007122993702068,0.1036408320069313,0,0,0
6066,229275.0183608954,2011-01-13 03:29:04,60.030068316033805,1,26,0.0,3.6288440227508554,18.1863501094608,18.15226443365621,73.54742009010818,64.86003947280085,0.0004209041653666,0.1036408320069313,0,0,0
6067,229305.0335308744,2011-01-13 03:29:34,90.04523826999598,1,26,0.0,3.643575668334961,18.1863501094608,18.15226443365621,73.54742009010818,64.86003947280085,0.0002913951757363,0.1036408320069313,0,0,0
6068,229335.0041858584,2011-01-13 03:30:04,120.0158933391684,1,26,0.0,3.655069589614868,18.1863501094608,18.15226443365621,73.54742009010818,64.86003947280085,0.0002913951757363,0.1036408320069313,0,0,0
6069,229365.01425851532,2011-01-13 03:30:35,30.015106485779945,2,26,0.5501165986061096,3.7772932052612314,18.19093665660364,18.15226443365621,73.56465234168651,64.86003947280085,0.0008418083307333,0.1036408320069313,0,0,0
6070,229395.0293849208,2011-01-13 03:31:05,60.03023288619328,2,26,0.5501165986061096,3.799633502960205,18.19552315884957,18.15226443365621,73.58203293251286,64.86003947280085,0.0004532813909463,0.1036408320069313,0,0,0
6071,229425.0446183429,2011-01-13 03:31:35,90.04546631836268,2,26,0.5501165986061096,3.8135557174682617,18.20010968078693,18.15226443365621,73.59949385762393,64.86003947280085,0.0003237724304199,0.1036408320069313,0,0,0
6072,229455.05963082443,2011-01-13 03:32:05,120.06047878983004,2,26,0.5501165986061096,3.823916435241699,18.204696120702,18.15226443365621,73.61700889991172,64.86003947280085,0.0002590179501567,0.1036408320069313,0,0,0
6073,229485.0747365433,2011-01-13 03:32:35,150.07558453376106,2,26,0.5501165986061096,3.832658290863037,18.20928265031173,18.15226443365621,73.63456763810704,64.86003947280085,0.0002590179501567,0.1036408320069313,0,0,0
6074,229515.08999101789,2011-01-13 03:33:05,180.09083900837473,2,26,0.5501165986061096,3.840428590774536,18.21386913343026,18.15226443365621,73.65216382180465,64.86003947280085,0.0001942634553415,0.1036408320069313,0,0,0
6075,229545.10513456105,2011-01-13 03:33:35,210.105982541488,2,26,0.5501165986061096,3.847389698028565,18.218455641962493,18.15226443365621,73.66979428721098,64.86003947280085,0.0001618862152099,0.1036408320069313,0,0,0
6076,229575.12010691751,2011-01-13 03:34:05,240.1209548879515,2,26,0.5501165986061096,3.854188919067383,18.22304206345365,18.15226443365621,73.68745598581756,64.86003947280085,0.0001618862152099,0.1036408320069313,0,0,0
6077,229605.13527425492,2011-01-13 03:34:35,270.1361223356674,2,26,0.5499359965324402,3.860340595245361,18.227628535290897,18.15226443365621,73.70514758118186,64.86003947280085,0.0001618862152099,0.1036408320069313,0,0,0
6078,229635.1503492924,2011-01-13 03:35:05,300.1511972627934,2,26,0.5499359965324402,3.86633038520813,18.232214996720145,18.15226443365621,73.72286698798726,64.86003947280085,0.0001295089750783,0.1036408320069313,0,0,0
6079,229665.16551729143,2011-01-13 03:35:35,330.16636528193345,2,26,0.5501165986061096,3.871834516525269,18.236801466374256,18.15226443365621,73.74061302307263,64.86003947280085,0.0001295089750783,0.1036408320069313,0,0,0
6080,229695.18069142583,2011-01-13 03:36:05,360.181539421327,2,26,0.5501165986061096,3.8773386478424072,18.24138796534153,18.15226443365621,73.75838425325857,64.86003947280085,0.0001295089750783,0.1036408320069313,0,0,0
6081,229725.1956655367,2011-01-13 03:36:35,390.1965135321879,2,26,0.550297200679779,3.882680892944336,18.24597441026528,18.15226443365621,73.77617948620419,64.86003947280085,0.0001618862152099,0.1036408320069313,0,0,0
6082,229755.21079894452,2011-01-13 03:37:05,420.21164690999103,2,26,0.5501165986061096,3.8875374794006343,18.25056090292364,18.15226443365621,73.7939982381719,64.86003947280085,0.0001295089750783,0.1036408320069313,0,0,0
6083,229785.22588697937,2011-01-13 03:37:35,450.2267349497979,2,26,0.5501165986061096,3.8923940658569336,18.255147348611523,18.15226443365621,73.81183935818174,64.86003947280085,0.0001295089750783,0.1036408320069313,0,0,0
6084,229815.2410723868,2011-01-13 03:38:05,480.2419203472501,2,26,0.5501165986061096,3.896926879882813,18.25973390274669,18.15226443365621,73.82970238569521,64.86003947280085,0.0001295089750783,0.1036408320069313,0,0,0
6085,229845.2561928575,2011-01-13 03:38:35,510.2570408279095,2,26,0.5501165986061096,3.9014596939086914,18.264320435429607,18.15226443365621,73.84758595188379,64.86003947280085,0.0001618862152099,0.1036408320069313,0,0,0
6086,229875.2735333812,2011-01-13 03:39:05,540.2743814418243,2,26,0.5501165986061096,3.9056687355041504,18.268907272931507,18.15226443365621,73.86549062876352,64.86003947280085,0.0001295089750783,0.1036408320069313,0,0,0
6087,229905.2864327762,2011-01-13 03:39:35,570.287280736605,2,26,0.550297200679779,3.90987777709961,18.273493411274917,18.15226443365621,73.8834117352095,64.86003947280085,0.0001295089750783,0.1036408320069313,0,0,0
6088,229935.30154770293,2011-01-13 03:40:05,600.3023956684351,2,26,0.5501165986061096,3.913762807846069,18.27807993921343,18.15226443365621,73.90135280742564,64.86003947280085,0.0001294612884521,0.1036408320069313,0,0,0
6089,229965.3168066488,2011-01-13 03:40:35,630.3176546392548,2,26,0.550297200679779,3.9174861907958975,18.28266645126633,18.15226443365621,73.91931147090807,64.86003947280085,0.0001295089750783,0.1036408320069313,0,0,0
6090,229995.3318323833,2011-01-13 03:41:05,660.3326803487153,2,26,0.550297200679779,3.9210476875305176,18.287252904533283,18.15226443365621,73.93728674384141,64.86003947280085,0.0001295089750783,0.1036408320069313,0,0,0
6091,230025.34693601693,2011-01-13 03:41:35,690.3477839873993,2,26,0.5501165986061096,3.9246091842651367,18.291839418315888,18.15226443365621,73.95527845069837,64.86003947280085,0.0001295089750783,0.1036408320069313,0,0,0
6092,230055.36203084872,2011-01-13 03:42:05,720.3628788141214,2,26,0.5501165986061096,3.927846908569336,18.296425926948995,18.15226443365621,73.97328572036021,64.86003947280085,9.713172767078504e-05,0.1036408320069313,0,0,0
6093,230085.377275975,2011-01-13 03:42:35,750.378124050711,2,26,0.5499359965324402,3.930922746658325,18.301012481779548,18.15226443365621,73.99130813873924,64.86003947280085,9.713172767078504e-05,0.1036408320069313,0,0,0
6094,230115.39229339384,2011-01-13 03:43:05,780.3931413592337,2,26,0.5501165986061096,3.9339985847473145,18.30559898410653,18.15226443365621,74.00934461673725,64.86003947280085,6.47544875391759e-05,0.1036408320069313,0,0,0
6095,230145.4073920551,2011-01-13 03:43:35,810.4082400255252,2,26,0.5501165986061096,3.9369125366210938,18.310185507813625,18.15226443365621,74.02739491667879,64.86003947280085,9.713172767078504e-05,0.1036408320069313,0,0,0
6096,230175.42251278137,2011-01-13 03:44:05,840.4233607517968,2,26,0.5501165986061096,3.939826488494873,18.31477203811484,18.15226443365621,74.04545864976717,64.86003947280085,9.713172767078504e-05,0.1036408320069313,0,0,0
6097,230205.4376256982,2011-01-13 03:44:35,870.4384736585798,2,26,0.5501165986061096,3.942740440368652,18.31935854316449,18.15226443365621,74.0635353151164,64.86003947280085,9.713172767078504e-05,0.1036408320069313,0,0,0
6098,230235.45288177172,2011-01-13 03:45:05,900.4537297422036,2,26,0.5501165986061096,3.945330619812012,18.32394502061185,18.15226443365621,74.08162463762858,64.86003947280085,3.237724376958795e-05,0.1036408320069313,0,0,0
6099,230265.46786880484,2011-01-13 03:45:35,930.4687167702582,2,26,0.5501165986061096,3.948244571685791,18.32853155522692,18.15226443365621,74.09972672495226,64.86003947280085,9.713172767078504e-05,0.1036408320069313,0,0,0
6100,230295.48313159012,2011-01-13 03:46:05,960.4839795806472,2,26,0.5501165986061096,3.9508347511291504,18.33311801824941,18.15226443365621,74.1178408371798,64.86003947280085,9.713172767078504e-05,0.1036408320069313,0,0,0
6101,230325.49824222128,2011-01-13 03:46:35,990.4990902017336,2,26,0.5499359965324402,3.9534249305725098,18.33770454767849,18.15226443365621,74.13596732742322,64.86003947280085,6.47544875391759e-05,0.1036408320069313,0,0,0
6102,230355.5135039189,2011-01-13 03:47:05,1020.5143518993492,2,26,0.550297200679779,3.956176996231079,18.34229110098927,18.15226443365621,74.15410590625281,64.86003947280085,9.713172767078504e-05,0.1036408320069313,0,0,0
6103,230385.52834208592,2011-01-13 03:47:35,1050.5291900463462,2,26,0.5501165986061096,3.958605289459229,18.346877579115933,18.15226443365621,74.1722559708406,64.86003947280085,6.47544875391759e-05,0.1036408320069313,0,0,0
6104,230415.54345781976,2011-01-13 03:48:05,1080.5443057851878,2,26,0.5501165986061096,3.961195468902588,18.351464067891957,18.15226443365621,74.19041782624637,64.86003947280085,6.47544875391759e-05,0.1036408320069313,0,0,0
6105,230445.55857921267,2011-01-13 03:48:35,1110.5594271831333,2,26,0.5501165986061096,3.963623762130737,18.356050618726016,18.15226443365621,74.2085915869685,64.86003947280085,6.47544875391759e-05,0.1036408320069313,0,0,0
6106,230475.5738548701,2011-01-13 03:49:05,1140.574702840541,2,26,0.5499359965324402,3.9662139415740967,18.360637199171347,18.15226443365621,74.2267769600576,64.86003947280085,6.47544875391759e-05,0.1036408320069313,0,0,0
6107,230505.58884842944,2011-01-13 03:49:35,1170.589696414911,2,26,0.5501165986061096,3.968642234802246,18.36522371256174,18.15226443365621,74.24497336742995,64.86003947280085,6.47544875391759e-05,0.1036408320069313,0,0,0
6108,230535.6039537323,2011-01-13 03:50:05,1200.6048016926802,2,26,0.5501165986061096,3.9709086418151855,18.369810229900672,18.15226443365621,74.26318103171144,64.86003947280085,6.47544875391759e-05,0.1036408320069313,0,0,0
6109,230565.61919459296,2011-01-13 03:50:35,1230.620042658626,2,26,0.5501165986061096,3.973498821258545,18.374396841122763,18.15226443365621,74.2814002948673,64.86003947280085,6.47544875391759e-05,0.1036408320069313,0,0,0
6110,230595.6341910044,2011-01-13 03:51:05,1260.6350389648046,2,26,0.5501165986061096,3.975765228271485,18.37898339136455,18.15226443365621,74.29963038320241,64.86003947280085,0.0,0.1036408320069313,0,0,0
6111,230625.64933490843,2011-01-13 03:51:35,1290.6501829741048,2,26,0.550297200679779,3.977869749069214,18.383570021746955,18.15226443365621,74.31787159688477,64.86003947280085,0.0,0.1036408320069313,0,0,0
6112,230655.66444579017,2011-01-13 03:52:05,1320.6652937505785,2,26,0.5501165986061096,3.980459928512573,18.38815651450241,18.15226443365621,74.33612310898998,64.86003947280085,3.237724376958795e-05,0.1036408320069313,0,0,0
6113,230685.67954163943,2011-01-13 03:52:35,1350.6803896098738,2,26,0.5501165986061096,3.982888221740722,18.39274298214754,18.15226443365621,74.35438550428503,64.86003947280085,3.237724376958795e-05,0.1036408320069313,0,0,0
6114,230715.6946853129,2011-01-13 03:53:05,1380.695533303387,2,26,0.5499359965324402,3.985316514968872,18.39732943355161,18.15226443365621,74.3726585525494,64.86003947280085,6.47544875391759e-05,0.1036408320069313,0,0,0
6115,230745.70977400435,2011-01-13 03:53:35,1410.7106219647428,2,26,0.5501165986061096,3.987582921981812,18.40191587942565,18.15226443365621,74.3909423015716,64.86003947280085,6.47544875391759e-05,0.1036408320069313,0,0,0
6116,230775.7250225241,2011-01-13 03:54:05,1440.7258705095776,2,26,0.5501165986061096,3.989849328994751,18.40650240565066,18.15226443365621,74.4092369515458,64.86003947280085,3.237724376958795e-05,0.1036408320069313,0,0,0
6117,230805.7400198829,2011-01-13 03:54:35,1470.7408678433171,2,26,0.5501165986061096,3.992277622222901,18.41108878119608,18.15226443365621,74.42754156804443,64.86003947280085,6.47544875391759e-05,0.1036408320069313,0,0,0
6118,230835.7551502482,2011-01-13 03:55:05,1500.7559982086125,2,26,0.5501165986061096,3.994705677032471,18.415675295501952,18.15226443365621,74.44585730774027,64.86003947280085,0.0001295089750783,0.1036408320069313,0,0,0
6119,230865.77025161625,2011-01-13 03:55:35,1530.7710995816497,2,26,0.550297200679779,3.99697208404541,18.42026172281254,18.15226443365621,74.46418321596536,64.86003947280085,6.47544875391759e-05,0.1036408320069313,0,0,0
6120,230895.78537613692,2011-01-13 03:56:05,1560.786224102378,2,26,0.5499359965324402,3.99907660484314,18.424848247087947,18.15226443365621,74.48251999542566,64.86003947280085,3.237724376958795e-05,0.1036408320069313,0,0,0
6121,230925.800520046,2011-01-13 03:56:35,1590.8013680415036,2,26,0.5501165986061096,4.001504898071289,18.42943466108463,18.15226443365621,74.50086687629734,64.86003947280085,6.47544875391759e-05,0.1036408320069313,0,0,0
6122,230955.81582994875,2011-01-13 03:57:05,1620.8166779392484,2,26,0.5501165986061096,4.0037713050842285,18.434021119368733,18.15226443365621,74.51922447372712,64.86003947280085,9.70840483205393e-05,0.1036408320069313,0,0,0
6123,230985.8330135564,2011-01-13 03:57:35,1650.8338616120177,2,26,0.5499359965324402,4.005876064300537,18.438607868098845,18.15226443365621,74.53759380201195,64.86003947280085,3.24249267578125e-05,0.1036408320069313,0,0,0
6124,231015.84586366857,2011-01-13 03:58:05,1680.846711659058,2,26,0.5499359965324402,4.008304119110107,18.44319398999509,18.15226443365621,74.5559712683911,64.86003947280085,6.47544875391759e-05,0.1036408320069313,0,0,0
6125,231045.86099795363,2011-01-13 03:58:35,1710.8618459240722,2,26,0.5499359965324402,4.010570526123047,18.44778042133717,18.15226443365621,74.5743605567791,64.86003947280085,3.23295607813634e-05,0.1036408320069313,0,0,0
6126,231075.8761065547,2011-01-13 03:59:05,1740.876954515099,2,26,0.5499359965324402,4.012836933135986,18.45236689744184,18.15226443365621,74.59276065893577,64.86003947280085,6.47544875391759e-05,0.1036408320069313,0,0,0
6127,231105.89135066848,2011-01-13 03:59:35,1770.892198643928,2,26,0.5501165986061096,4.015427112579346,18.45695336342667,18.15226443365621,74.61117140386321,64.86003947280085,9.70840483205393e-05,0.1036408320069313,0,0,0
6128,231135.90636114,2011-01-13 04:00:05,1800.9072091304483,2,26,0.5499359965324402,4.017531871795654,18.461539793965176,18.15226443365621,74.62959265394718,64.86003947280085,6.47544875391759e-05,0.1036408320069313,0,0,0
6129,231165.92145614207,2011-01-13 04:00:36,1830.9223041125576,2,26,0.5501165986061096,4.020122051239014,18.46612626526608,18.15226443365621,74.64802477181006,64.86003947280085,6.47544875391759e-05,0.1036408320069313,0,0,0
6130,231195.9365841365,2011-01-13 04:01:06,1860.9374321019309,2,26,0.5501165986061096,4.022226333618164,18.47071269673223,18.15226443365621,74.66646755487233,64.86003947280085,6.47544875391759e-05,0.1036408320069313,0,0,0
6131,231225.95175521827,2011-01-13 04:01:36,1890.952603183704,2,26,0.5499359965324402,4.024492740631104,18.47529912266067,18.15226443365621,74.684921117818,64.86003947280085,3.23295607813634e-05,0.1036408320069313,0,0,0
6132,231255.9668139751,2011-01-13 04:02:06,1920.9676619455413,2,26,0.5501165986061096,4.026921272277832,18.4798855591973,18.15226443365621,74.70338555667904,64.86003947280085,3.24249267578125e-05,0.1036408320069313,0,0,0
6133,231285.9819279646,2011-01-13 04:02:36,1950.9827759300103,2,26,0.5499359965324402,4.029349327087402,18.48447202151509,18.15226443365621,74.72186104285029,64.86003947280085,6.47544875391759e-05,0.1036408320069313,0,0,0
6134,231315.99719809825,2011-01-13 04:03:06,1980.9980460987383,2,26,0.5499359965324402,4.031777858734131,18.48905839223221,18.15226443365621,74.74034707584862,64.86003947280085,3.24249267578125e-05,0.1036408320069313,0,0,0
6135,231346.01218735683,2011-01-13 04:03:36,2011.013035347327,2,26,0.5499359965324402,4.034367561340332,18.493644796504107,18.15226443365621,74.75884442510682,64.86003947280085,6.46591215627268e-05,0.1036408320069313,0,0,0
6136,231376.02728807324,2011-01-13 04:04:06,2041.0281360386657,2,26,0.5501165986061096,4.0367960929870605,18.498231247243982,18.15226443365621,74.77735322133915,64.86003947280085,6.47544875391759e-05,0.1036408320069313,0,0,0
6137,231406.04240331583,2011-01-13 04:04:36,2071.0432512812704,2,26,0.5501165986061096,4.039224147796631,18.50281770644852,18.15226443365621,74.79587341749851,64.86003947280085,3.23295607813634e-05,0.1036408320069313,0,0,0
6138,231436.05768191052,2011-01-13 04:05:06,2101.0585298960486,2,26,0.5499359965324402,4.041652679443359,18.507404204717524,18.15226443365621,74.81440508654484,64.86003947280085,6.47544875391759e-05,0.1036408320069313,0,0,0
6139,231466.0726420165,2011-01-13 04:05:36,2131.0734899769427,2,26,0.550297200679779,4.04440450668335,18.51199068204785,18.15226443365621,74.83294824797302,64.86003947280085,0.0001295089750783,0.1036408320069313,0,0,0
6140,231496.08776551476,2011-01-13 04:06:06,2161.088613485148,2,26,0.5501165986061096,4.046833038330078,18.516577155609124,18.15226443365621,74.85150295950474,64.86003947280085,6.47544875391759e-05,0.1036408320069313,0,0,0
6141,231526.1030584602,2011-01-13 04:06:36,2191.103906420617,2,26,0.5499359965324402,4.049261093139648,18.5211636360008,18.15226443365621,74.87006942541554,64.86003947280085,6.47544875391759e-05,0.1036408320069313,0,0,0
6142,231556.1180396437,2011-01-13 04:07:06,2221.1188877043555,2,26,0.5501165986061096,4.051851272583008,18.525750092204653,18.15226443365621,74.88864755108777,64.86003947280085,3.23295607813634e-05,0.1036408320069313,0,0,0
6143,231586.13312661584,2011-01-13 04:07:36,2251.133974581264,2,26,0.5501165986061096,4.054603576660156,18.53033661538555,18.15226443365621,74.90723788370391,64.86003947280085,9.71794142969884e-05,0.1036408320069313,0,0,0
6144,231616.14824073063,2011-01-13 04:08:06,2281.1490886910456,2,26,0.5499359965324402,4.057031631469727,18.534923150493395,18.15226443365621,74.92584027596223,64.86003947280085,3.23295607813634e-05,0.1036408320069313,0,0,0
6145,231646.1633837023,2011-01-13 04:08:36,2311.1642316727844,2,26,0.5501165986061096,4.059783935546875,18.53950973742937,18.15226443365621,74.94445502074444,64.86003947280085,6.47544875391759e-05,0.1036408320069313,0,0,0
6146,231676.1784924488,2011-01-13 04:09:06,2341.1793404141854,2,26,0.5501165986061096,4.062374114990234,18.544096278815108,18.15226443365621,74.96308142425735,64.86003947280085,6.47544875391759e-05,0.1036408320069313,0,0,0
6147,231706.193597902,2011-01-13 04:09:36,2371.194445872405,2,26,0.5501165986061096,4.065125942230225,18.548682701368023,18.15226443365621,74.98171967588618,64.86003947280085,6.47544875391759e-05,0.1036408320069313,0,0,0
6148,231736.20882247709,2011-01-13 04:10:06,2401.2096704725623,2,26,0.5499359965324402,4.067716121673584,18.55326913165785,18.15226443365621,75.00037048431479,64.86003947280085,3.23295607813634e-05,0.1036408320069313,0,0,0
6149,231766.22384779053,2011-01-13 04:10:36,2431.2246957810235,2,26,0.5501165986061096,4.070792198181152,18.55785561158231,18.15226443365621,75.01903413735599,64.86003947280085,9.71794142969884e-05,0.1036408320069313,0,0,0
6150,231796.23912642532,2011-01-13 04:11:06,2461.2399744108397,2,26,0.5501165986061096,4.073544025421143,18.56244207623316,18.15226443365621,75.03771038862384,64.86003947280085,6.47544875391759e-05,0.1036408320069313,0,0,0
6151,231826.2542742141,2011-01-13 04:11:36,2491.2551221945464,2,26,0.5501165986061096,4.076457977294922,18.5670285777506,18.15226443365621,75.05639971004148,64.86003947280085,0.0001295089750783,0.1036408320069313,0,0,0
6152,231856.26921764849,2011-01-13 04:12:06,2521.2700656139145,2,26,0.550297200679779,4.079048156738281,18.571615060771325,18.15226443365621,75.07510194106153,64.86003947280085,6.47544875391759e-05,0.1036408320069313,0,0,0
6153,231886.284465256,2011-01-13 04:12:36,2551.2853132364507,2,26,0.5499359965324402,4.0819621086120605,18.57620157341617,18.15226443365621,75.09381738503617,64.86003947280085,6.47544875391759e-05,0.1036408320069313,0,0,0
6154,231916.2996671245,2011-01-13 04:13:06,2581.300515094929,2,26,0.5501165986061096,4.085038185119629,18.58078803588086,18.15226443365621,75.11254568730865,64.86003947280085,0.0001295089750783,0.1036408320069313,0,0,0
6155,231946.31458341124,2011-01-13 04:13:36,2611.315431406737,2,26,0.550297200679779,4.087790012359619,18.58537445707136,18.15226443365621,75.13128710789053,64.86003947280085,9.70840483205393e-05,0.1036408320069313,0,0,0
6156,231976.3297313854,2011-01-13 04:14:06,2641.330579355856,2,26,0.5501165986061096,4.090866088867188,18.589960864064476,18.15226443365621,75.15004186585467,64.86003947280085,0.0001295089750783,0.1036408320069313,0,0,0
6157,232006.34481813203,2011-01-13 04:14:36,2671.345666127502,2,26,0.5501165986061096,4.093780040740967,18.59454735297171,18.15226443365621,75.1688104564948,64.86003947280085,9.71794142969884e-05,0.1036408320069313,0,0,0
6158,232036.35995786064,2011-01-13 04:15:06,2701.360805821046,2,26,0.5501165986061096,4.096693992614746,18.599133781893293,18.15226443365621,75.18759246844859,64.86003947280085,9.71794142969884e-05,0.1036408320069313,0,0,0
6159,232066.37506527876,2011-01-13 04:15:36,2731.3759133343874,2,26,0.5501165986061096,4.099607944488525,18.60372023333145,18.15226443365621,75.20638844847127,64.86003947280085,3.24249267578125e-05,0.1036408320069313,0,0,0
6160,232096.39029837507,2011-01-13 04:16:06,2761.391146375582,2,26,0.5501165986061096,4.102845668792725,18.6083067805192,18.15226443365621,75.2251988457516,64.86003947280085,0.0001295089750783,0.1036408320069313,0,0,0
6161,232126.40532095675,2011-01-13 04:16:36,2791.4061689422097,2,26,0.5499359965324402,4.105921268463135,18.612893226986365,18.15226443365621,75.24402303311788,64.86003947280085,6.47544875391759e-05,0.1036408320069313,0,0,0
6162,232156.42057112564,2011-01-13 04:17:06,2821.421419091042,2,26,0.5499359965324402,4.108835220336914,18.61747972393792,18.15226443365621,75.26286175338724,64.86003947280085,6.47544875391759e-05,0.1036408320069313,0,0,0
6163,232186.43555847948,2011-01-13 04:17:36,2851.436406444909,2,26,0.5501165986061096,4.112235069274902,18.62206621518284,18.15226443365621,75.28171494000323,64.86003947280085,6.47544875391759e-05,0.1036408320069313,0,0,0
6164,232216.45066576224,2011-01-13 04:18:06,2881.4515137326875,2,26,0.5501165986061096,4.115472316741943,18.62665266580981,18.15226443365621,75.30058243312199,64.86003947280085,9.70840483205393e-05,0.1036408320069313,0,0,0
6165,232246.46589488367,2011-01-13 04:18:36,2911.466742854114,2,26,0.5499359965324402,4.118548393249512,18.63123904441276,18.15226443365621,75.3194644218894,64.86003947280085,6.47544875391759e-05,0.1036408320069313,0,0,0
6166,232276.48114577937,2011-01-13 04:19:06,2941.481993759832,2,26,0.5501165986061096,4.121786117553711,18.635825427211053,18.15226443365621,75.33836125239847,64.86003947280085,9.71794142969884e-05,0.1036408320069313,0,0,0
6167,232306.49611889772,2011-01-13 04:19:36,2971.4969668681947,2,26,0.5499359965324402,4.12502384185791,18.64041186308987,18.15226443365621,75.35727319498373,64.86003947280085,6.47544875391759e-05,0.1036408320069313,0,0,0
6168,232336.5110967981,2011-01-13 04:20:06,3001.511944758475,2,26,0.5497553944587708,4.128261566162109,18.644997463291297,18.15226443365621,75.37619660315434,64.86003947280085,6.47544875391759e-05,0.1036408320069313,0,0,0
6169,232366.52639095657,2011-01-13 04:20:36,3031.527238952081,2,26,0.5501165986061096,4.13166093826294,18.649583082232965,18.15226443365621,75.39513533268929,64.86003947280085,9.70840483205393e-05,0.1036408320069313,0,0,0
6170,232396.54152347223,2011-01-13 04:21:06,3061.5423714627223,2,26,0.5501165986061096,4.135060787200928,18.654169497860742,18.15226443365621,75.4140927179702,64.86003947280085,9.71794142969884e-05,0.1036408320069313,0,0,0
6171,232426.5564925004,2011-01-13 04:21:36,3091.557340465853,2,26,0.5501165986061096,4.138460159301758,18.65875597954832,18.15226443365621,75.4330658175824,64.86003947280085,9.70840483205393e-05,0.1036408320069313,0,0,0
6172,232456.5715763197,2011-01-13 04:22:06,3121.572424310204,2,26,0.5501165986061096,4.141860008239746,18.66334245551512,18.15226443365621,75.4520544137265,64.86003947280085,0.0001295089750783,0.1036408320069313,0,0,0
6173,232486.5867067602,2011-01-13 04:22:36,3151.587554755699,2,26,0.550297200679779,4.145421504974365,18.667928935799427,18.15226443365621,75.47105885434408,64.86003947280085,9.71794142969884e-05,0.1036408320069313,0,0,0
6174,232516.60189066897,2011-01-13 04:23:06,3181.602738669453,2,26,0.5501165986061096,4.1486592292785645,18.672515393537232,18.15226443365621,75.49007934465853,64.86003947280085,3.24249267578125e-05,0.1036408320069313,0,0,0
6175,232546.61711191072,2011-01-13 04:23:36,3211.6179598911904,2,26,0.550297200679779,4.152382373809815,18.677101850000057,18.15226443365621,75.50911584066013,64.86003947280085,9.70840483205393e-05,0.1036408320069313,0,0,0
6176,232576.63209884852,2011-01-13 04:24:06,3241.63294682902,2,26,0.5501165986061096,4.156105995178223,18.681688283864556,18.15226443365621,75.52816836332282,64.86003947280085,0.0001619339018361,0.1036408320069313,0,0,0
6177,232606.64723458223,2011-01-13 04:24:36,3271.6480826428947,2,26,0.550297200679779,4.159343719482422,18.686274946173658,18.15226443365621,75.54723817987434,64.86003947280085,6.47544875391759e-05,0.1036408320069313,0,0,0
6178,232636.6623311032,2011-01-13 04:25:06,3301.663179068601,2,26,0.550297200679779,4.163066864013672,18.69086223307644,18.15226443365621,75.56632704878761,64.86003947280085,9.70840483205393e-05,0.1036408320069313,0,0,0
6179,232666.67747824028,2011-01-13 04:25:36,3331.678326325997,2,26,0.5501165986061096,4.16646671295166,18.695449386721933,18.15226443365621,75.58543183207648,64.86003947280085,6.47544875391759e-05,0.1036408320069313,0,0,0
6180,232696.69255322756,2011-01-13 04:26:06,3361.6934011929734,2,26,0.5501165986061096,4.17051362991333,18.700036668635025,18.15226443365621,75.60455377739169,64.86003947280085,0.0001618385285837,0.1036408320069313,0,0,0
6181,232726.70768206404,2011-01-13 04:26:36,3391.708530029458,2,26,0.5501165986061096,4.173913478851318,18.704623981988107,18.15226443365621,75.62369261221336,64.86003947280085,6.47544875391759e-05,0.1036408320069313,0,0,0
6182,232756.7228017577,2011-01-13 04:27:06,3421.7236497231565,2,26,0.550297200679779,4.177636623382568,18.70921134733586,18.15226443365621,75.64284853371313,64.86003947280085,6.47544875391759e-05,0.1036408320069313,0,0,0
6183,232786.7379053112,2011-01-13 04:27:36,3451.7387533016904,2,26,0.550297200679779,4.181360244750977,18.71379857296277,18.15226443365621,75.66202097436228,64.86003947280085,9.71794142969884e-05,0.1036408320069313,0,0,0
6184,232816.7530590949,2011-01-13 04:28:06,3481.753907085352,2,26,0.550297200679779,4.185083389282227,18.718385156377227,18.15226443365621,75.68120781347655,64.86003947280085,6.47544875391759e-05,0.1036408320069313,0,0,0
6185,232846.768155686,2011-01-13 04:28:36,3511.769003661433,2,26,0.5501165986061096,4.188968658447266,18.72297169876379,18.15226443365621,75.70041178470454,64.86003947280085,0.0001295089750783,0.1036408320069313,0,0,0
6186,232876.78349519253,2011-01-13 04:29:06,3541.784343157948,2,26,0.550297200679779,4.192853927612305,18.72755831223812,18.15226443365621,75.71963358622719,64.86003947280085,0.0001618385285837,0.1036408320069313,0,0,0
6187,232906.80068295548,2011-01-13 04:29:36,3571.8015309309358,2,26,0.5501165986061096,4.196577072143555,18.7321452324599,18.15226443365621,75.73887421410986,64.86003947280085,9.70840483205393e-05,0.1036408320069313,0,0,0
6188,232932.09491210736,2011-01-13 04:30:02,3597.0957601680343,2,26,0.5501165986061096,4.200138568878174,18.73601039490764,18.15226443365621,75.7551010457034,64.86003947280085,0.0001295089750783,0.1036408320069313,0,0,0
6189,232962.10782436025,2011-01-13 04:30:32,30.017507364508468,3,26,0.0,4.0987982749938965,18.73601039490764,18.15226443365621,75.7551010457034,64.86003947280085,-0.0004532813909463,0.1036408320069313,0,0,0
6190,232992.12056588172,2011-01-13 04:31:02,60.03024878582004,3,26,0.0,4.085685729980469,18.73601039490764,18.15226443365621,75.7551010457034,64.86003947280085,-0.0002265930233988,0.1036408320069313,0,0,0
6191,233022.1356725781,2011-01-13 04:31:32,90.04535547209969,3,26,0.0,4.077591419219971,18.73601039490764,18.15226443365621,75.7551010457034,64.86003947280085,-0.0001942634553415,0.1036408320069313,0,0,0
6192,233052.10613504224,2011-01-13 04:32:02,120.01581803147846,3,26,0.0,4.072087287902832,18.73601039490764,18.15226443365621,75.7551010457034,64.86003947280085,-0.0001295089750783,0.1036408320069313,0,0,0
6193,233052.1171599404,2011-01-13 04:32:02,0.015746159273883,4,26,1.0265638828277588,4.199653148651123,18.73601488502957,18.15226443365621,75.7551199026581,64.86003947280085,0.0,0.1036408320069313,0,0,0
6194,233052.8513799526,2011-01-13 04:32:03,0.74996616143311,4,26,0.976354479789734,4.199814796447754,18.736217687895103,18.15226443365621,75.75597162770642,64.86003947280085,3.23295607813634e-05,0.1036408320069313,0,0,0
6195,233054.69516137824,2011-01-13 04:32:05,2.593747612125605,4,26,0.9257839322090148,4.199653148651123,18.736703721762083,18.15226443365621,75.75801286739778,64.86003947280085,0.0,0.1036408320069313,0,0,0
6196,233057.52565835265,2011-01-13 04:32:07,5.424244666707795,4,26,0.87557452917099,4.199814796447754,18.7374108433659,18.15226443365621,75.76098264477493,64.86003947280085,-3.24249267578125e-05,0.1036408320069313,0,0,0
6197,233061.3983599115,2011-01-13 04:32:11,9.296946240630492,4,26,0.8255457878112793,4.199976921081543,18.73832439991772,18.15226443365621,75.76481942725738,64.86003947280085,6.47544875391759e-05,0.1036408320069313,0,0,0
6198,233066.41368507,2011-01-13 04:32:16,14.31227126877757,4,26,0.7755169868469238,4.199653148651123,18.73943824160672,18.15226443365621,75.76949736533744,64.86003947280085,-3.23295607813634e-05,0.1036408320069313,0,0,0
6199,233073.00765884653,2011-01-13 04:32:23,20.906245170656096,4,26,0.7254882454872131,4.199814796447754,18.74081117278725,18.15226443365621,75.77526343582906,64.86003947280085,0.0,0.1036408320069313,0,0,0
6200,233081.61661178616,2011-01-13 04:32:32,29.51519807520281,4,26,0.6754594445228577,4.199814796447754,18.742483495026505,18.15226443365621,75.78228690921088,64.86003947280085,-3.24249267578125e-05,0.1036408320069313,0,0,0
6201,233093.4132429257,2011-01-13 04:32:43,41.31182914957278,4,26,0.6252501010894775,4.199653148651123,18.74461004833036,18.15226443365621,75.79121807112112,64.86003947280085,-6.47544875391759e-05,0.1036408320069313,0,0,0
6202,233110.8348151692,2011-01-13 04:33:01,58.73340136802493,4,26,0.5752213001251221,4.199814796447754,18.747506361070705,18.15226443365621,75.80338208027527,64.86003947280085,-3.24249267578125e-05,0.1036408320069313,0,0,0
6203,233140.428039565,2011-01-13 04:33:30,88.32662576382677,4,26,0.5251925587654114,4.199976921081543,18.75200949725873,18.15226443365621,75.82229451004496,64.86003947280085,0.0,0.1036408320069313,0,0,0
6204,233197.9270783918,2011-01-13 04:34:28,145.82566459059504,4,26,0.4751637578010559,4.199814796447754,18.75995387885837,18.15226443365621,75.85565952852927,64.86003947280085,3.23295607813634e-05,0.1036408320069313,0,0,0
6205,233297.55039705525,2011-01-13 04:36:07,245.44898325904563,4,26,0.4251349866390228,4.199976921081543,18.77237579834887,18.15226443365621,75.90782939043281,64.86003947280085,3.24249267578125e-05,0.1036408320069313,0,0,0
6206,233430.73565645167,2011-01-13 04:38:21,378.6342426605541,4,26,0.3751062154769897,4.199814796447754,18.787154942626884,18.15226443365621,75.96989930357836,64.86003947280085,0.0,0.1036408320069313,0,0,0
6207,233588.6236293661,2011-01-13 04:40:59,536.5222155649466,4,26,0.3248968422412872,4.199491024017334,18.802486494192685,18.15226443365621,76.03428933135797,64.86003947280085,-6.47544875391759e-05,0.1036408320069313,0,0,0
6208,233782.3704635363,2011-01-13 04:44:12,730.2690498353588,4,26,0.2748680710792541,4.199814796447754,18.81860259099912,18.15226443365621,76.10197434008174,64.86003947280085,-3.24249267578125e-05,0.1036408320069313,0,0,0
6209,234017.31951879905,2011-01-13 04:48:07,965.2181049978408,4,26,0.224839299917221,4.199814796447754,18.834861446643583,18.15226443365621,76.17025890927273,64.86003947280085,-3.24249267578125e-05,0.1036408320069313,0,0,0
6210,234318.89257190409,2011-01-13 04:53:09,1266.7911581078995,4,26,0.1748105436563491,4.199976921081543,18.85152244360251,18.15226443365621,76.24023238025654,64.86003947280085,3.24249267578125e-05,0.1036408320069313,0,0,0
6211,234736.8544003392,2011-01-13 05:00:07,1684.7529865530246,4,26,0.1247817650437355,4.199653148651123,18.868768445833663,18.15226443365621,76.31266274130229,64.86003947280085,-3.23295607813634e-05,0.1036408320069313,0,0,0
6212,235438.42065175925,2011-01-13 05:11:48,2386.319237973102,4,26,0.0747529938817024,4.199814796447754,18.887779882268937,18.15226443365621,76.39250759145415,64.86003947280085,0.0,0.1036408320069313,0,0,0
6213,236079.31595196592,2011-01-13 05:22:29,3027.2145381897963,4,26,0.0498289167881011,4.199814796447754,18.89876095206402,18.15226443365621,76.43862621989963,64.86003947280085,-3.24249267578125e-05,0.1036408320069313,0,0,0
6214,236109.33277394067,2011-01-13 05:22:59,30.015118671149636,5,26,0.0,4.190425872802734,18.89876095206402,18.15226443365621,76.43862621989963,64.86003947280085,0.0,0.1036408320069313,0,0,0
6215,236139.3322675393,2011-01-13 05:23:29,60.01461228986088,5,26,0.0,4.188807010650635,18.89876095206402,18.15226443365621,76.43862621989963,64.86003947280085,-3.23295607813634e-05,0.1036408320069313,0,0,0
6216,236139.5226350894,2011-01-13 05:23:30,0.187651610552454,6,26,-1.9243103452026844e-05,4.188807010650635,18.89876095206402,18.152264434659266,76.43862621989963,64.86003947700246,0.0,0.1068796068429946,0,0,0
6217,236144.3505932717,2011-01-13 05:23:35,5.015609767805916,6,26,0.0007031940040178,4.188644886016846,18.898761849981423,18.152264434825483,76.43862998115688,64.8600394776987,-6.47544875391759e-05,0.1068796068429946,0,0,0
6218,236166.6185787671,2011-01-13 05:23:57,22.265261472439,7,26,-1.099568486213684,3.9885542392730713,18.898761849981423,18.15906519441785,76.43862998115688,64.88732328349538,-0.0014245510101318,0.1068796068429946,0,0,0
6219,236196.63394756668,2011-01-13 05:24:27,52.28063043739782,7,26,-1.0997490882873535,3.943873643875122,18.898761849981423,18.168233102329896,76.43862998115688,64.92367697656037,-0.0011008263099938,0.1068796068429946,0,0,0
6220,236226.6488251169,2011-01-13 05:24:57,82.29550780213764,7,26,-1.099568486213684,3.911010980606079,18.898761849981423,18.17740080123936,76.43862998115688,64.95967619492016,-0.0007770061492919,0.1068796068429946,0,0,0
6221,236256.66395273537,2011-01-13 05:25:27,112.31063545567416,7,26,-1.0997490882873535,3.8849472999572754,18.898761849981423,18.18656855759137,76.43862998115688,64.99540703759247,-0.0006151676061563,0.1068796068429946,0,0,0
6222,236286.6790826996,2011-01-13 05:25:57,142.3257653898948,7,26,-1.0993878841400146,3.8643877506256095,18.898761849981423,18.19573634705111,76.43862998115688,65.03092629055709,-0.0004856586456298,0.1068796068429946,0,0,0
6223,236316.6941908546,2011-01-13 05:26:27,172.34087363004718,7,26,-1.099568486213684,3.8464183807373047,18.898761849981423,18.2049041591746,76.43862998115688,65.066269953527,-0.0004532813909463,0.1068796068429946,0,0,0
6224,236346.70948091787,2011-01-13 05:26:57,202.35616361315897,7,26,-1.099568486213684,3.8307156562805176,18.898761849981423,18.21407199237711,76.43862998115688,65.1014606640739,-0.0003885269106831,0.1068796068429946,0,0,0
6225,236376.72441354036,2011-01-13 05:27:27,232.37109625065548,7,26,-1.099568486213684,3.816307783126831,18.898761849981423,18.22323972321257,76.43862998115688,65.13651275502023,-0.0003885269106831,0.1068796068429946,0,0,0
6226,236406.7395326576,2011-01-13 05:27:57,262.386215347867,7,26,-1.0997490882873535,3.8027093410491934,18.898761849981423,18.23240752379288,76.43862998115688,65.1714368178571,-0.0003885269106831,0.1068796068429946,0,0,0
6227,236436.7547957988,2011-01-13 05:28:27,292.401478484068,7,26,-1.099568486213684,3.7900822162628174,18.898761849981423,18.24157536950843,76.43862998115688,65.20624127176951,-0.0003561496851034,0.1068796068429946,0,0,0
6228,236466.76981002968,2011-01-13 05:28:57,322.41649280514514,7,26,-1.099568486213684,3.77810263633728,18.898761849981423,18.25074319512779,76.43862998115688,65.24093308884932,-0.0003561496851034,0.1068796068429946,0,0,0
6229,236496.7849426205,2011-01-13 05:29:27,352.431625335837,7,26,-1.099568486213684,3.766770601272583,18.898761849981423,18.259911131484937,76.43862998115688,65.27551802544157,-0.0002590179501567,0.1068796068429946,0,0,0
6230,236526.8000083096,2011-01-13 05:29:57,382.44669099486407,7,26,-1.0997490882873535,3.755600452423096,18.898761849981423,18.26907898282501,76.43862998115688,65.30999937056714,-0.0002913951757363,0.1068796068429946,0,0,0
6231,236556.81543901344,2011-01-13 05:30:27,412.46212170872025,7,26,-1.099568486213684,3.745239973068237,18.898761849981423,18.278246882997603,76.43862998115688,65.34438207578685,-0.0002266406954731,0.1068796068429946,0,0,0
6232,236586.83024484487,2011-01-13 05:30:57,442.4769275451896,7,26,-1.099568486213684,3.7348792552948,18.898761849981423,18.287414699388723,76.43862998115688,65.37866976872728,-0.0002913951757363,0.1068796068429946,0,0,0
6233,236616.84548527453,2011-01-13 05:31:27,472.4921679747988,7,26,-1.0997490882873535,3.725327968597412,18.898761849981423,18.296582629898182,76.43862998115688,65.41286639594097,-0.0002266406954731,0.1068796068429946,0,0,0
6234,236646.86059405105,2011-01-13 05:31:57,502.5072768264752,7,26,-1.0992072820663452,3.715776681900024,18.898761849981423,18.30575053029081,76.43862998115688,65.44697466060984,-0.0002266406954731,0.1068796068429946,0,0,0
6235,236676.87575053136,2011-01-13 05:32:27,532.5224332366822,7,26,-1.099568486213684,3.706387281417847,18.898761849981423,18.31491845292536,76.43862998115688,65.48099645470428,-0.0002266406954731,0.1068796068429946,0,0,0
6236,236706.89068743956,2011-01-13 05:32:57,562.53737015986,7,26,-1.099568486213684,3.697321653366089,18.898761849981423,18.32408632938547,76.43862998115688,65.51493399685623,-0.0002266406954731,0.1068796068429946,0,0,0
6237,236736.90580116332,2011-01-13 05:33:27,592.5524838736544,7,26,-1.0997490882873535,3.688417911529541,18.898761849981423,18.333254963862075,76.43862998115688,65.54879189412668,-0.0002266406954731,0.1068796068429946,0,0,0
6238,236766.920865048,2011-01-13 05:33:57,622.5675477331966,7,26,-1.099568486213684,3.679837942123413,18.898761849981423,18.34242340026943,76.43862998115688,65.58256860363437,-0.0001942634553415,0.1068796068429946,0,0,0
6239,236796.93607164823,2011-01-13 05:34:27,652.5827543535427,7,26,-1.099568486213684,3.671258211135864,18.898761849981423,18.35159191107908,76.43862998115688,65.61626676297844,-0.0002589702489785,0.1068796068429946,0,0,0
6240,236826.95117249,2011-01-13 05:34:57,682.5978552052808,7,26,-1.0997490882873535,3.663002014160156,18.898761849981423,18.360760471404816,76.43862998115688,65.6498886309212,-0.0002266406954731,0.1068796068429946,0,0,0
6241,236856.96640685445,2011-01-13 05:35:27,712.6130896599988,7,26,-1.099929690361023,3.654907703399658,18.898761849981423,18.369929071551148,76.43862998115688,65.68343652486895,-0.0002266406954731,0.1068796068429946,0,0,0
6242,236886.981425371,2011-01-13 05:35:57,742.6281080562325,7,26,-1.099568486213684,3.64729905128479,18.898761849981423,18.379097621839776,76.43862998115688,65.71691165257305,-0.0001942634553415,0.1068796068429946,0,0,0
6243,236916.9965791396,2011-01-13 05:36:27,772.6432618499183,7,26,-1.099568486213684,3.639528512954712,18.898761849981423,18.3882654499312,76.43862998115688,65.75031238033411,-0.0001618862152099,0.1068796068429946,0,0,0
6244,236947.0116490442,2011-01-13 05:36:57,802.6583317294642,7,26,-1.0997490882873535,3.631596088409424,18.898761849981423,18.397433217555378,76.43862998115688,65.78364214826371,-0.0002266406954731,0.1068796068429946,0,0,0
6245,236977.0267725875,2011-01-13 05:37:27,832.6734552727568,7,26,-1.0997490882873535,3.624311208724976,18.898761849981423,18.40660100025647,76.43862998115688,65.81690310715894,-0.0001618862152099,0.1068796068429946,0,0,0
6246,237007.041888156,2011-01-13 05:37:57,862.6885708411735,7,26,-1.099568486213684,3.6170263290405273,18.898761849981423,18.415768796390623,76.43862998115688,65.8500965604434,-0.0002266406954731,0.1068796068429946,0,0,0
6247,237037.0570219849,2011-01-13 05:38:27,892.7037046801257,7,26,-1.099568486213684,3.610065221786499,18.898761849981423,18.4249365981768,76.43862998115688,65.88322437950025,-0.0001618862152099,0.1068796068429946,0,0,0
6248,237067.072132646,2011-01-13 05:38:57,922.7188153262748,7,26,-1.099568486213684,3.6029422283172607,18.898761849981423,18.43410436214036,76.43862998115688,65.91628808604824,-0.0002266406954731,0.1068796068429946,0,0,0
6249,237097.0872512871,2011-01-13 05:39:27,952.7339339823868,7,26,-1.0993878841400146,3.5963048934936523,18.898761849981423,18.44327212842715,76.43862998115688,65.94928845311848,-0.0001295089750783,0.1068796068429946,0,0,0
6250,237127.102434058,2011-01-13 05:39:57,982.7491167482804,7,26,-1.099568486213684,3.589505910873413,18.898761849981423,18.452439957550578,76.43862998115688,65.98222717996629,-0.0001942634553415,0.1068796068429946,0,0,0
6251,237157.11769885337,2011-01-13 05:40:27,1012.7643816538912,7,26,-1.099568486213684,3.5828685760498047,18.898761849981423,18.461607798748272,76.43862998115688,66.01510546911584,-0.0001942634553415,0.1068796068429946,0,0,0
6252,237187.1349112878,2011-01-13 05:40:57,1042.781593973056,7,26,-1.0997490882873535,3.576716899871826,18.898761849981423,18.470776266721987,76.43862998115688,66.04792644105375,-0.0001295089750783,0.1068796068429946,0,0,0
6253,237217.1477399315,2011-01-13 05:41:27,1072.7944226217649,7,26,-1.099568486213684,3.570565223693848,18.898761849981423,18.4799433610123,76.43862998115688,66.08068560649811,-0.0001295089750783,0.1068796068429946,0,0,0
6254,237247.162847104,2011-01-13 05:41:57,1102.8095297892442,7,26,-1.099568486213684,3.564575433731079,18.898761849981423,18.489111175444897,76.43862998115688,66.11339169790892,-0.0001618862152099,0.1068796068429946,0,0,0
6255,237277.17798026628,2011-01-13 05:42:27,1132.8246629565224,7,26,-1.0997490882873535,3.5587475299835205,18.898761849981423,18.49827892791749,76.43862998115688,66.14604422411334,-0.0001942634553415,0.1068796068429946,0,0,0
6256,237307.19307933355,2011-01-13 05:42:57,1162.8397620488756,7,26,-1.0997490882873535,3.552919626235962,18.898761849981423,18.50744669268483,76.43862998115688,66.17864428084874,-0.0001942634553415,0.1068796068429946,0,0,0
6257,237337.2083174223,2011-01-13 05:43:27,1192.8550002178506,7,26,-1.099568486213684,3.547739267349243,18.898761849981423,18.516614516496546,76.43862998115688,66.21119373400508,-0.0001295089750783,0.1068796068429946,0,0,0
6258,237367.2233193325,2011-01-13 05:43:58,1222.8700020177212,7,26,-1.099568486213684,3.5423970222473145,18.898761849981423,18.525782335344765,76.43862998115688,66.24369357457122,-0.0001295089750783,0.1068796068429946,0,0,0
6259,237397.238451397,2011-01-13 05:44:28,1252.8851340772387,7,26,-1.099568486213684,3.537216663360596,18.898761849981423,18.534950062205667,76.43862998115688,66.27614529985445,-0.0001618862152099,0.1068796068429946,0,0,0
6260,237427.25355639408,2011-01-13 05:44:58,1282.9002391695458,7,26,-1.099568486213684,3.532198190689087,18.898761849981423,18.54411724742444,76.43862998115688,66.30854823700301,-0.0001295089750783,0.1068796068429946,0,0,0
6261,237457.26869341097,2011-01-13 05:45:28,1312.9153760961938,7,26,-1.0993878841400146,3.527179718017578,18.898761849981423,18.553284403001506,76.43862998115688,66.34090560682273,-0.0001618862152099,0.1068796068429946,0,0,0
6262,237487.28379223763,2011-01-13 05:45:58,1342.9304749228847,7,26,-1.0993878841400146,3.522646903991699,18.898761849981423,18.56245158841146,76.43862998115688,66.37321881325602,-9.713172767078504e-05,0.1068796068429946,0,0,0
6263,237517.2989292545,2011-01-13 05:46:28,1372.94561196482,7,26,-1.0997490882873535,3.5176284313201904,18.898761849981423,18.57161886588643,76.43862998115688,66.4054883831835,-0.0001295089750783,0.1068796068429946,0,0,0
6264,237547.3141085568,2011-01-13 05:46:58,1402.9607913422683,7,26,-1.099568486213684,3.5129337310791016,18.898761849981423,18.58078673033259,76.43862998115688,66.43771677562046,-0.0001295089750783,0.1068796068429946,0,0,0
6265,237577.3292757839,2011-01-13 05:47:28,1432.9759584942472,7,26,-1.099568486213684,3.508239269256592,18.898761849981423,18.589954611026567,76.43862998115688,66.46990224411606,-0.0001618862152099,0.1068796068429946,0,0,0
6266,237607.34427067652,2011-01-13 05:47:58,1462.9909533668529,7,26,-1.0997490882873535,3.503544569015503,18.898761849981423,18.59912250019573,76.43862998115688,66.50204430714564,-0.0001295089750783,0.1068796068429946,0,0,0
6267,237637.35953866987,2011-01-13 05:48:28,1493.0062213852218,7,26,-1.0993878841400146,3.499011754989624,18.898761849981423,18.60829040603532,76.43862998115688,66.53414391559791,-9.713172767078504e-05,0.1068796068429946,0,0,0
6268,237667.3745074776,2011-01-13 05:48:58,1523.0211901878529,7,26,-1.0997490882873535,3.494478940963745,18.898761849981423,18.6174582680608,76.43862998115688,66.56620096152147,-9.713172767078504e-05,0.1068796068429946,0,0,0
6269,237697.3896317276,2011-01-13 05:49:28,1553.0363144078317,7,26,-1.099568486213684,3.4894604682922363,18.898761849981423,18.62662613783498,76.43862998115688,66.59821429225741,-0.0001618862152099,0.1068796068429946,0,0,0
6270,237727.4047527145,2011-01-13 05:49:58,1583.0514354398656,7,26,-1.0997490882873535,3.484603881835937,18.898761849981423,18.6357940308468,76.43862998115688,66.6301836549307,-0.0001618862152099,0.1068796068429946,0,0,0
6271,237757.420019956,2011-01-13 05:50:28,1613.066702661248,7,26,-1.0997490882873535,3.4795854091644287,18.898761849981423,18.6449618991165,76.43862998115688,66.66210802057842,-0.0001295089750783,0.1068796068429946,0,0,0
6272,237787.4350105429,2011-01-13 05:50:58,1643.0816932381474,7,26,-1.0997490882873535,3.47456693649292,18.898761849981423,18.654129566082258,76.43862998115688,66.69398582726797,-0.0001295089750783,0.1068796068429946,0,0,0
6273,237817.45015431652,2011-01-13 05:51:28,1673.0968370168728,7,26,-1.099568486213684,3.469548463821411,18.898761849981423,18.66329742518993,76.43862998115688,66.72581765719687,-0.0001295089750783,0.1068796068429946,0,0,0
6274,237847.4652455343,2011-01-13 05:51:58,1703.1119282295876,7,26,-1.0997490882873535,3.4642062187194824,18.898761849981423,18.67246527107297,76.43862998115688,66.75760199652302,-0.0001618862152099,0.1068796068429946,0,0,0
6275,237877.48037609007,2011-01-13 05:52:28,1733.1270587753322,7,26,-1.0993878841400146,3.459025859832764,18.898761849981423,18.681633217997568,76.43862998115688,66.78933806742656,-0.0001295089750783,0.1068796068429946,0,0,0
6276,237907.49548259596,2011-01-13 05:52:58,1763.1421653062248,7,26,-1.099568486213684,3.453197956085205,18.898761849981423,18.69080110105548,76.43862998115688,66.82102283252382,-0.0001295089750783,0.1068796068429946,0,0,0
6277,237937.51060475572,2011-01-13 05:53:28,1793.1572874410067,7,26,-1.0997490882873535,3.4470462799072266,18.898761849981423,18.69996899447136,76.43862998115688,66.85265386526464,-0.0002266406954731,0.1068796068429946,0,0,0
6278,237967.52575682013,2011-01-13 05:53:58,1823.172439510395,7,26,-1.0997490882873535,3.440732717514038,18.898761849981423,18.709136919958706,76.43862998115688,66.88422842698662,-0.0001942634553415,0.1068796068429946,0,0,0
6279,237997.5430571136,2011-01-13 05:54:28,1853.189739909081,7,26,-1.099568486213684,3.4337716102600098,18.898761849981423,18.718305524870903,76.43862998115688,66.91574483020783,-0.0001942634553415,0.1068796068429946,0,0,0
6280,238027.55597131047,2011-01-13 05:54:58,1883.2026540007405,7,26,-1.099568486213684,3.4264869689941406,18.898761849981423,18.727472756066,76.43862998115688,66.94719039130722,-0.0001942634553415,0.1068796068429946,0,0,0
6281,238057.5710868939,2011-01-13 05:55:28,1913.217769589207,7,26,-1.0997490882873535,3.4182307720184326,18.898761849981423,18.73664061850364,76.43862998115688,66.97856674827716,-0.0002590179501567,0.1068796068429946,0,0,0
6282,238087.58623619145,2011-01-13 05:55:58,1943.232918896712,7,26,-1.099568486213684,3.409165143966675,18.898761849981423,18.74580847280909,76.43862998115688,67.00986471649813,-0.0002913951757363,0.1068796068429946,0,0,0
6283,238117.6015327409,2011-01-13 05:56:28,1973.248215516364,7,26,-1.099568486213684,3.3989663124084477,18.898761849981423,18.75497644639028,76.43862998115688,67.04107457478116,-0.0002913951757363,0.1068796068429946,0,0,0
6284,238147.61644723816,2011-01-13 05:56:58,2003.2631299534992,7,26,-1.099568486213684,3.38714861869812,18.898761849981423,18.764144328785584,76.43862998115688,67.07218376731461,-0.0003561496851034,0.1068796068429946,0,0,0
6285,238177.63158474627,2011-01-13 05:57:28,2033.2782674415464,7,26,-1.099568486213684,3.373388290405273,18.898761849981423,18.77331220300776,76.43862998115688,67.10317584983173,-0.0003885269106831,0.1068796068429946,0,0,0
6286,238207.64668931227,2011-01-13 05:57:58,2063.2933719975167,7,26,-1.099568486213684,3.3568758964538574,18.898761849981423,18.782480146338152,76.43862998115688,67.13402966266847,-0.0004856586456298,0.1068796068429946,0,0,0
6287,238237.6618059484,2011-01-13 05:58:28,2093.308488658657,7,26,-1.099568486213684,3.3369641304016118,18.898761849981423,18.79164806694609,76.43862998115688,67.16471646468071,-0.0005504131549969,0.1068796068429946,0,0,0
6288,238267.67691180253,2011-01-13 05:58:58,2123.3235945028378,7,26,-1.0997490882873535,3.3118717670440674,18.898761849981423,18.80081602941509,76.43862998115688,67.19519746321456,-0.0006799221155233,0.1068796068429946,0,0,0
6289,238297.69206705983,2011-01-13 05:59:28,2153.3387497802214,7,26,-1.099568486213684,3.279818296432495,18.898761849981423,18.80998386768223,76.43862998115688,67.22541872771741,-0.0010036944877356,0.1068796068429946,0,0,0
6290,238327.7071596861,2011-01-13 05:59:58,2183.353842371372,7,26,-1.099568486213684,3.239023208618164,18.898761849981423,18.81915174834263,76.43862998115688,67.25530902230132,-0.0011979580158367,0.1068796068429946,0,0,0
6291,238357.7225574228,2011-01-13 06:00:28,2213.369240223326,7,26,-1.0997490882873535,3.185277223587036,18.898761849981423,18.82831971007103,76.43862998115688,67.2847697373505,-0.0016188144218176,0.1068796068429946,0,0,0
6292,238387.7374182212,2011-01-13 06:00:58,2243.3841009165158,7,26,-1.099568486213684,3.112266540527344,18.898761849981423,18.837487555766995,76.43862998115688,67.31365567715743,-0.0022016526199877,0.1068796068429946,0,0,0
6293,238417.7525273536,2011-01-13 06:01:28,2273.399210038866,7,26,-1.099568486213684,3.008012294769287,18.898761849981423,18.846655549469777,76.43862998115688,67.34174229574823,-0.003270101500675,0.1068796068429946,0,0,0
6294,238447.76763666645,2011-01-13 06:01:58,2303.4143193567047,7,26,-1.0997490882873535,2.851792573928833,18.898761849981423,18.855823472777463,76.43862998115688,67.36864996699005,-0.0048565389588475,0.1068796068429946,0,0,0
6295,238470.0956361814,2011-01-13 06:02:20,2325.7423188917,7,26,-1.099568486213684,2.699943780899048,18.898761849981423,18.862643415839717,76.43862998115688,67.38759333138026,-0.0056983469985425,0.1068796068429946,0,0,0
6296,238530.10509963572,2011-01-13 06:03:21,60.01459785388198,8,26,0.0,3.569917678833008,18.898761849981423,18.862643415839717,76.43862998115688,67.38759333138026,0.0013274669181555,0.1068796068429946,0,0,0
6297,238530.28881171512,2011-01-13 06:03:21,0.187590974428576,9,26,-1.9243103452026844e-05,3.569917678833008,18.898761849981423,18.862643416842445,76.43862998115688,67.38759333495993,0.0,0.1034539192914962,0,0,0
6298,238535.11664809388,2011-01-13 06:03:26,5.015427242897684,9,26,0.0007031940040178,3.577850103378296,18.898762707528103,18.86264341692506,76.43863304638032,67.38759333525486,0.0011332035064697,0.1034539192914962,0,0,0
