Data_Point,Test_Time(s),Date_Time,Step_Time(s),Step_Index,Cycle_Index,Current(A),Voltage(V),Charge_Capacity(Ah),Discharge_Capacity(Ah),Charge_Energy(Wh),Discharge_Energy(Wh),dV/dt(V/s),Internal_Resistance(Ohm),Is_FC_Data,AC_Impedance(Ohm),ACI_Phase_Angle(Deg)
9447,361056.233845773,2011-01-14 16:05:44,30.01523244470835,1,41,0.0,3.619616508483887,28.38404738422212,28.32681253106609,114.92735973824972,100.95015358952963,0.0006799221155233,0.104450523853302,0,0,0
9448,361086.2488320893,2011-01-14 16:06:14,60.03021874093896,1,41,0.0,3.640014171600342,28.38404738422212,28.32681253106609,114.92735973824972,100.95015358952963,0.0004209041653666,0.104450523853302,0,0,0
9449,361116.2639558532,2011-01-14 16:06:44,90.04534250979364,1,41,0.0,3.6545839309692383,28.38404738422212,28.32681253106609,114.92735973824972,100.95015358952963,0.0003237724304199,0.104450523853302,0,0,0
9450,361146.232195738,2011-01-14 16:07:14,120.01358238957091,1,41,0.0,3.6657540798187256,28.38404738422212,28.32681253106609,114.92735973824972,100.95015358952963,0.0002590179501567,0.104450523853302,0,0,0
9451,361176.25093388144,2011-01-14 16:07:44,30.01278842846787,2,41,0.5499359965324402,3.787653923034668,28.388633312365933,28.32681253106609,114.94463989666588,100.95015358952963,0.0007446765666827,0.104450523853302,0,0,0
9452,361206.2660428083,2011-01-14 16:08:14,60.02789735533175,2,41,0.5499359965324402,3.8095085620880127,28.39321962042383,28.32681253106609,114.96206663506352,100.95015358952963,0.0004532813909463,0.104450523853302,0,0,0
9453,361236.28117909335,2011-01-14 16:08:44,90.04303363035565,2,41,0.5501165986061096,3.823430776596069,28.397805949581063,28.32681253106609,114.97957256228476,100.95015358952963,0.0003237724304199,0.104450523853302,0,0,0
9454,361266.2962717346,2011-01-14 16:09:14,120.05812627664332,2,41,0.5499359965324402,3.8339531421661377,28.402392239047323,28.32681253106609,114.99713330159656,100.95015358952963,0.0002265930233988,0.104450523853302,0,0,0
9455,361296.3114170873,2011-01-14 16:09:44,150.07327165435393,2,41,0.5501165986061096,3.843018770217896,28.40697853357658,28.32681253106609,115.01473869238224,100.95015358952963,0.0001942634553415,0.104450523853302,0,0,0
9456,361326.3264390023,2011-01-14 16:10:15,180.0882935493075,2,41,0.5501165986061096,3.851274967193604,28.411564765518552,28.32681253106609,115.0323828834581,100.95015358952963,0.0001942634553415,0.104450523853302,0,0,0
9457,361356.3416290012,2011-01-14 16:10:45,210.10348354321545,2,41,0.550297200679779,3.858559846878052,28.416150985260145,28.32681253106609,115.05006230772248,100.95015358952963,0.0001942634553415,0.104450523853302,0,0,0
9458,361386.35664503655,2011-01-14 16:11:15,240.1184996036275,2,41,0.5501165986061096,3.86535906791687,28.42073664604184,28.32681253106609,115.06777191778384,100.95015358952963,0.0001618862152099,0.104450523853302,0,0,0
9459,361416.3717695022,2011-01-14 16:11:45,270.1336240692186,2,41,0.550297200679779,3.871834516525269,28.425323046548296,28.32681253106609,115.0855147856284,100.95015358952963,0.0001942634553415,0.104450523853302,0,0,0
9460,361446.3867795576,2011-01-14 16:12:15,300.148634129677,2,41,0.5499359965324402,3.877824306488037,28.429909506101357,28.32681253106609,115.10328644991418,100.95015358952963,0.0001618862152099,0.104450523853302,0,0,0
9461,361476.4020509895,2011-01-14 16:12:45,330.163905536491,2,41,0.5501165986061096,3.8834903240203857,28.43449605697932,28.32681253106609,115.12108548650988,100.95015358952963,0.0001618862152099,0.104450523853302,0,0,0
9462,361506.4171718561,2011-01-14 16:13:15,360.1790264031124,2,41,0.5501165986061096,3.8891563415527344,28.439082575351623,28.32681253106609,115.13891007250844,100.95015358952963,0.0001942634553415,0.104450523853302,0,0,0
9463,361536.43226093845,2011-01-14 16:13:45,390.1941154805053,2,41,0.5501165986061096,3.894336700439453,28.44366913393048,28.32681253106609,115.15675961190848,100.95015358952963,0.0001295089750783,0.104450523853302,0,0,0
9464,361566.4474553935,2011-01-14 16:14:15,420.209310040794,2,41,0.5501165986061096,3.899355173110962,28.448256229472072,28.32681253106609,115.17463460140556,100.95015358952963,0.0001295089750783,0.104450523853302,0,0,0
9465,361596.4626432822,2011-01-14 16:14:45,450.2244978442425,2,41,0.5501165986061096,3.9042117595672607,28.45284277431169,28.32681253106609,115.19253029650704,100.95015358952963,0.0001295089750783,0.104450523853302,0,0,0
9466,361626.4776146412,2011-01-14 16:15:15,480.239469183195,2,41,0.5501165986061096,3.9089064598083496,28.45742930399409,28.32681253106609,115.21044800023812,100.95015358952963,9.713172767078504e-05,0.104450523853302,0,0,0
9467,361656.4927266557,2011-01-14 16:15:45,510.2545812077794,2,41,0.550297200679779,3.9136011600494394,28.46201580946325,28.32681253106609,115.2283869299406,100.95015358952963,0.0001295089750783,0.104450523853302,0,0,0
9468,361686.50784507126,2011-01-14 16:16:15,540.2696996182793,2,41,0.5499359965324402,3.917648077011109,28.4666023586142,28.32681253106609,115.24634623949932,100.95015358952963,9.713172767078504e-05,0.104450523853302,0,0,0
9469,361716.5229942986,2011-01-14 16:16:45,570.2848488656343,2,41,0.5499359965324402,3.921857118606568,28.471188923540755,28.32681253106609,115.26432509180488,100.95015358952963,9.713172767078504e-05,0.104450523853302,0,0,0
9470,361746.53807603766,2011-01-14 16:17:15,600.2999305796754,2,41,0.5501165986061096,3.925904273986816,28.47577543243194,28.32681253106609,115.28232235651322,100.95015358952963,9.713172767078504e-05,0.104450523853302,0,0,0
9471,361776.55331910384,2011-01-14 16:17:45,630.3151736558808,2,41,0.5499359965324402,3.9296276569366455,28.480361910582857,28.32681253106609,115.30033706986517,100.95015358952963,6.47544875391759e-05,0.104450523853302,0,0,0
9472,361806.5683102773,2011-01-14 16:18:15,660.3301648242543,2,41,0.5499359965324402,3.9331891536712646,28.484948413653992,28.32681253106609,115.31836890869216,100.95015358952963,6.47544875391759e-05,0.104450523853302,0,0,0
9473,361836.58343569015,2011-01-14 16:18:45,690.3452902321941,2,41,0.5501165986061096,3.936750650405884,28.489534985202148,28.32681253106609,115.3364173835848,100.95015358952963,9.713172767078504e-05,0.104450523853302,0,0,0
9474,361866.59853358456,2011-01-14 16:19:15,720.3603881265616,2,41,0.5501165986061096,3.940150260925293,28.494121479708653,28.32681253106609,115.3544813316385,100.95015358952963,9.713172767078504e-05,0.104450523853302,0,0,0
9475,361896.6136875336,2011-01-14 16:19:45,750.3755420806472,2,41,0.5501165986061096,3.943549871444702,28.498708089777026,28.32681253106609,115.37256100671527,100.95015358952963,9.713172767078504e-05,0.104450523853302,0,0,0
9476,361926.62878926256,2011-01-14 16:20:15,780.3906438095715,2,41,0.5501165986061096,3.9466257095336914,28.503294610265787,28.32681253106609,115.39065503871336,100.95015358952963,9.713172767078504e-05,0.104450523853302,0,0,0
9477,361956.6460990095,2011-01-14 16:20:45,810.4079536417687,2,41,0.5501165986061096,3.949539661407471,28.507881510086992,28.32681253106609,115.40876477116662,100.95015358952963,6.47544875391759e-05,0.104450523853302,0,0,0
9478,361986.6589956577,2011-01-14 16:21:15,840.420850204741,2,41,0.5501165986061096,3.95261549949646,28.51246771813463,28.32681253106609,115.42688573509604,100.95015358952963,6.47544875391759e-05,0.104450523853302,0,0,0
9479,362016.6741140231,2011-01-14 16:21:45,870.4359685601037,2,41,0.5501165986061096,3.9555294513702393,28.51705428925135,28.32681253106609,115.4450217932992,100.95015358952963,6.47544875391759e-05,0.104450523853302,0,0,0
9480,362046.68927098974,2011-01-14 16:22:15,900.4511255367222,2,41,0.5501165986061096,3.9584434032440186,28.52164087703517,28.32681253106609,115.46317125338038,100.95015358952963,6.47544875391759e-05,0.104450523853302,0,0,0
9481,362076.7045840502,2011-01-14 16:22:45,930.4664385973502,2,41,0.5501165986061096,3.961357355117798,28.52622749551158,28.32681253106609,115.48133401559552,100.95015358952963,6.47544875391759e-05,0.104450523853302,0,0,0
9482,362106.7194647033,2011-01-14 16:23:15,960.4813192502852,2,41,0.5501165986061096,3.964271306991577,28.530814087459607,28.32681253106609,115.49950963662072,100.95015358952963,6.47544875391759e-05,0.104450523853302,0,0,0
9483,362136.734620116,2011-01-14 16:23:45,990.4964746830564,2,41,0.5501165986061096,3.9670233726501465,28.53540065088581,28.32681253106609,115.51769803431364,100.95015358952963,3.237724376958795e-05,0.104450523853302,0,0,0
9484,362166.7497043062,2011-01-14 16:24:15,1020.5115588682564,2,41,0.5501165986061096,3.969613552093506,28.539987227231222,28.32681253106609,115.53589915102948,100.95015358952963,6.47544875391759e-05,0.104450523853302,0,0,0
9485,362196.7648716236,2011-01-14 16:24:45,1050.526726180635,2,41,0.550297200679779,3.972365617752075,28.544573807866765,28.32681253106609,115.5541128523672,100.95015358952963,3.237724376958795e-05,0.104450523853302,0,0,0
9486,362226.7799115384,2011-01-14 16:25:15,1080.541766080462,2,41,0.5499359965324402,3.9749557971954346,28.549160422160128,28.32681253106609,115.57233907094528,100.95015358952963,3.237724376958795e-05,0.104450523853302,0,0,0
9487,362256.7950316582,2011-01-14 16:25:45,1110.5568862002222,2,41,0.5499359965324402,3.977707862854004,28.55374702043392,28.32681253106609,115.59057744739246,100.95015358952963,9.713172767078504e-05,0.104450523853302,0,0,0
9488,362286.81014367775,2011-01-14 16:26:15,1140.5719982248063,2,41,0.5501165986061096,3.9802980422973633,28.558333566571115,28.32681253106609,115.60882739705424,100.95015358952963,9.713172767078504e-05,0.104450523853302,0,0,0
9489,362316.8253997664,2011-01-14 16:26:45,1170.58725430843,2,41,0.550297200679779,3.9830501079559326,28.562920144273367,28.32681253106609,115.62708983655942,100.95015358952963,6.47544875391759e-05,0.104450523853302,0,0,0
9490,362346.84040910006,2011-01-14 16:27:15,1200.6022636671396,2,41,0.5501165986061096,3.985640287399292,28.5675066798052,28.32681253106609,115.64536393278355,100.95015358952963,9.713172767078504e-05,0.104450523853302,0,0,0
9491,362376.8555001022,2011-01-14 16:27:45,1230.6173546442674,2,41,0.5501165986061096,3.9880685806274414,28.572093248608127,28.32681253106609,115.66364999533928,100.95015358952963,6.47544875391759e-05,0.104450523853302,0,0,0
9492,362406.8706197509,2011-01-14 16:28:15,1260.6324743830778,2,41,0.5501165986061096,3.990658760070801,28.576679786933408,28.32681253106609,115.6819474721196,100.95015358952963,6.47544875391759e-05,0.104450523853302,0,0,0
9493,362436.8861353362,2011-01-14 16:28:45,1290.647989898285,2,41,0.5499359965324402,3.99308705329895,28.581266350923293,28.32681253106609,115.7002566468789,100.95015358952963,9.713172767078504e-05,0.104450523853302,0,0,0
9494,362466.900836582,2011-01-14 16:29:15,1320.6626911240323,2,41,0.5501165986061096,3.9956769943237305,28.585852793945858,28.32681253106609,115.71857677092848,100.95015358952963,3.237724376958795e-05,0.104450523853302,0,0,0
9495,362496.9159470226,2011-01-14 16:29:45,1350.6778015646687,2,41,0.5499359965324402,3.99810528755188,28.590439293478536,28.32681253106609,115.73690862140816,100.95015358952963,3.237724376958795e-05,0.104450523853302,0,0,0
9496,362526.9311938282,2011-01-14 16:30:15,1380.6930483902188,2,41,0.550297200679779,4.000857353210449,28.59502589032383,28.32681253106609,115.7552521382419,100.95015358952963,9.70840483205393e-05,0.104450523853302,0,0,0
9497,362556.9463529451,2011-01-14 16:30:45,1410.7082074971468,2,41,0.5499359965324402,4.003123760223389,28.599612418387387,28.32681253106609,115.77360672066068,100.95015358952963,6.47544875391759e-05,0.104450523853302,0,0,0
9498,362586.9612931815,2011-01-14 16:31:15,1440.7231477235573,2,41,0.5501165986061096,4.005552291870117,28.60419895806191,28.32681253106609,115.79197250899016,100.95015358952963,6.47544875391759e-05,0.104450523853302,0,0,0
9499,362616.9764136271,2011-01-14 16:31:45,1470.7382681691292,2,41,0.5501165986061096,4.007980346679688,28.608785476269148,28.32681253106609,115.81034932689695,100.95015358952963,6.47544875391759e-05,0.104450523853302,0,0,0
9500,362646.9915302832,2011-01-14 16:32:15,1500.7533848252567,2,41,0.5499359965324402,4.010246753692627,28.613371999098984,28.32681253106609,115.82873719907133,100.95015358952963,9.70840483205393e-05,0.104450523853302,0,0,0
9501,362677.0066604832,2011-01-14 16:32:45,1530.7685150301522,2,41,0.5501165986061096,4.012836933135986,28.61795854133709,28.32681253106609,115.84713626476784,100.95015358952963,3.23295607813634e-05,0.104450523853302,0,0,0
9502,362707.021761345,2011-01-14 16:33:15,1560.783615886903,2,41,0.5501165986061096,4.015103340148926,28.62254505194202,28.32681253106609,115.86554625278224,100.95015358952963,3.23295607813634e-05,0.104450523853302,0,0,0
9503,362737.03688622656,2011-01-14 16:33:45,1590.7987407735432,2,41,0.550297200679779,4.017693519592285,28.627131578214417,28.32681253106609,115.88396732034204,100.95015358952963,0.0001295089750783,0.104450523853302,0,0,0
9504,362767.0520284112,2011-01-14 16:34:15,1620.8138829532836,2,41,0.5501165986061096,4.019959926605225,28.63171812177077,28.32681253106609,115.90239953369866,100.95015358952963,6.47544875391759e-05,0.104450523853302,0,0,0
9505,362797.06713091215,2011-01-14 16:34:45,1650.828985454132,2,41,0.5501165986061096,4.022550106048584,28.63630463678688,28.32681253106609,115.9208429274692,100.95015358952963,9.70840483205393e-05,0.104450523853302,0,0,0
9506,362827.0822229369,2011-01-14 16:35:15,1680.8440774788703,2,41,0.5501165986061096,4.024816513061523,28.640891185941022,28.32681253106609,115.93929769400516,100.95015358952963,3.23295607813634e-05,0.104450523853302,0,0,0
9507,362857.0973378486,2011-01-14 16:35:45,1710.8591923906506,2,41,0.5501165986061096,4.027245044708252,28.64547770586197,28.32681253106609,115.95776349729265,100.95015358952963,6.47544875391759e-05,0.104450523853302,0,0,0
9508,362887.11248060985,2011-01-14 16:36:15,1740.874335161865,2,41,0.550297200679779,4.029835224151611,28.650064172559752,28.32681253106609,115.97624025724588,100.95015358952963,6.47544875391759e-05,0.104450523853302,0,0,0
9509,362917.12761067937,2011-01-14 16:36:45,1770.8894652264105,2,41,0.5501165986061096,4.032101631164551,28.654650636074336,28.32681253106609,115.99472816950838,100.95015358952963,6.47544875391759e-05,0.104450523853302,0,0,0
9510,362947.14269513526,2011-01-14 16:37:15,1800.9045496772726,2,41,0.5501165986061096,4.034691333770752,28.659237179224142,28.32681253106609,116.01322770898024,100.95015358952963,6.47544875391759e-05,0.104450523853302,0,0,0
9511,362977.1578418964,2011-01-14 16:37:45,1830.9196964634937,2,41,0.5499359965324402,4.0371198654174805,28.66382371402369,28.32681253106609,116.03173845635249,100.95015358952963,9.71794142969884e-05,0.104450523853302,0,0,0
9512,363007.1730191736,2011-01-14 16:38:15,1860.9348737356952,2,41,0.5501165986061096,4.039547920227051,28.66841027276737,28.32681253106609,116.05026089312464,100.95015358952963,3.23295607813634e-05,0.104450523853302,0,0,0
9513,363037.1880025074,2011-01-14 16:38:45,1890.949857074555,2,41,0.5499359965324402,4.042300224304199,28.67299677419837,28.32681253106609,116.0687945288186,100.95015358952963,9.71794142969884e-05,0.104450523853302,0,0,0
9514,363067.20539436414,2011-01-14 16:39:15,1920.9672490163944,2,41,0.5501165986061096,4.0447282791137695,28.677583625482065,28.32681253106609,116.0873412664696,100.95015358952963,6.47544875391759e-05,0.104450523853302,0,0,0
9515,363097.21826812526,2011-01-14 16:39:45,1950.9801227023504,2,41,0.5499359965324402,4.047156810760498,28.682169751134012,28.32681253106609,116.10589676752062,100.95015358952963,3.24249267578125e-05,0.104450523853302,0,0,0
9516,363127.233387042,2011-01-14 16:40:15,1980.995241579012,2,41,0.5501165986061096,4.049908638000488,28.68675624713629,28.32681253106609,116.12446554581184,100.95015358952963,6.47544875391759e-05,0.104450523853302,0,0,0
9517,363157.248539793,2011-01-14 16:40:45,2011.010394355162,2,41,0.550297200679779,4.052498817443848,28.691342771896963,28.32681253106609,116.14304614100432,100.95015358952963,6.47544875391759e-05,0.104450523853302,0,0,0
9518,363187.2636497224,2011-01-14 16:41:15,2041.0255042745,2,41,0.550297200679779,4.055088996887207,28.695929261731457,28.32681253106609,116.16163842336124,100.95015358952963,9.70840483205393e-05,0.104450523853302,0,0,0
9519,363217.2787303137,2011-01-14 16:41:45,2071.040584855717,2,41,0.550297200679779,4.057679176330566,28.700515820806167,28.32681253106609,116.18024287025536,100.95015358952963,9.70840483205393e-05,0.104450523853302,0,0,0
9520,363247.29385584686,2011-01-14 16:42:16,2101.055710393982,2,41,0.5501165986061096,4.060431480407715,28.705102373899106,28.32681253106609,116.1988594110898,100.95015358952963,9.71794142969884e-05,0.104450523853302,0,0,0
9521,363277.3089791747,2011-01-14 16:42:46,2131.0708337167243,2,41,0.5499359965324402,4.062859535217285,28.70968892794677,28.32681253106609,116.2174876675804,100.95015358952963,6.47544875391759e-05,0.104450523853302,0,0,0
9522,363307.3240719012,2011-01-14 16:43:16,2161.0859264682745,2,41,0.5499359965324402,4.0654497146606445,28.71427545126379,28.32681253106609,116.23612819840936,100.95015358952963,3.23295607813634e-05,0.104450523853302,0,0,0
9523,363337.3391999557,2011-01-14 16:43:46,2191.1010545177983,2,41,0.5501165986061096,4.068202018737793,28.718861876019112,28.32681253106609,116.25478073113266,100.95015358952963,6.47544875391759e-05,0.104450523853302,0,0,0
9524,363367.35431045154,2011-01-14 16:44:16,2221.1161650185845,2,41,0.5501165986061096,4.070953845977783,28.723448334708703,28.32681253106609,116.27344588671016,100.95015358952963,6.47544875391759e-05,0.104450523853302,0,0,0
9525,363397.36947125767,2011-01-14 16:44:46,2251.131325819736,2,41,0.5501165986061096,4.073706150054932,28.72803481147361,28.32681253106609,116.29212360694808,100.95015358952963,3.24249267578125e-05,0.104450523853302,0,0,0
9526,363427.3845448665,2011-01-14 16:45:16,2281.146399418551,2,41,0.5499359965324402,4.076457977294922,28.732621257637053,28.32681253106609,116.3108140316379,100.95015358952963,6.47544875391759e-05,0.104450523853302,0,0,0
9527,363457.3996621742,2011-01-14 16:45:46,2311.1615167263026,2,41,0.5501165986061096,4.079371929168701,28.73720774410696,28.32681253106609,116.3295176224612,100.95015358952963,9.70840483205393e-05,0.104450523853302,0,0,0
9528,363487.41489728057,2011-01-14 16:46:16,2341.176751837657,2,41,0.5501165986061096,4.0822858810424805,28.74179429888137,28.32681253106609,116.34823451876352,100.95015358952963,6.47544875391759e-05,0.104450523853302,0,0,0
9529,363517.4301105776,2011-01-14 16:46:46,2371.191965234893,2,41,0.5501165986061096,4.08519983291626,28.74638080549828,28.32681253106609,116.36696443438692,100.95015358952963,9.70840483205393e-05,0.104450523853302,0,0,0
9530,363547.4450095061,2011-01-14 16:47:16,2401.2068640430766,2,41,0.5501165986061096,4.088113784790039,28.750967282507347,28.32681253106609,116.38570756872004,100.95015358952963,6.47544875391759e-05,0.104450523853302,0,0,0
9531,363577.4601261672,2011-01-14 16:47:46,2431.221980729279,2,41,0.550297200679779,4.091189861297607,28.755553751145538,28.32681253106609,116.40446413149542,100.95015358952963,6.47544875391759e-05,0.104450523853302,0,0,0
9532,363607.4752424474,2011-01-14 16:48:16,2461.23709698942,2,41,0.5501165986061096,4.093941688537598,28.760140193760805,28.32681253106609,116.42323413493358,100.95015358952963,6.47544875391759e-05,0.104450523853302,0,0,0
9533,363637.4903878101,2011-01-14 16:48:46,2491.2522423571054,2,41,0.5497553944587708,4.096855640411377,28.764726665607984,28.32681253106609,116.44201796832937,100.95015358952963,3.23295607813634e-05,0.104450523853302,0,0,0
9534,363667.50549297256,2011-01-14 16:49:16,2521.267347514575,2,41,0.5499359965324402,4.099931716918945,28.76931315770383,28.32681253106609,116.4608157633856,100.95015358952963,9.71794142969884e-05,0.104450523853302,0,0,0
9535,363697.5206097239,2011-01-14 16:49:46,2551.282464270952,2,41,0.550297200679779,4.1031694412231445,28.77389966712597,28.32681253106609,116.47962755082312,100.95015358952963,9.71794142969884e-05,0.104450523853302,0,0,0
9536,363727.5357212622,2011-01-14 16:50:16,2581.297575804312,2,41,0.550297200679779,4.106245040893555,28.77848620537708,28.32681253106609,116.49845363610788,100.95015358952963,0.0001295089750783,0.104450523853302,0,0,0
9537,363757.5508555023,2011-01-14 16:50:46,2611.3127100442643,2,41,0.5499359965324402,4.109321117401123,28.78307267044221,28.32681253106609,116.51729363217842,100.95015358952963,6.47544875391759e-05,0.104450523853302,0,0,0
9538,363787.5660525588,2011-01-14 16:51:16,2641.327907095762,2,41,0.5501165986061096,4.112396717071533,28.7876592040711,28.32681253106609,116.53614835552324,100.95015358952963,6.47544875391759e-05,0.104450523853302,0,0,0
9539,363817.5810967944,2011-01-14 16:51:46,2671.34295134142,2,41,0.5501165986061096,4.115472316741943,28.79224567142738,28.32681253106609,116.5550172696186,100.95015358952963,6.47544875391759e-05,0.104450523853302,0,0,0
9540,363847.5961846137,2011-01-14 16:52:16,2701.358039160677,2,41,0.550297200679779,4.1190338134765625,28.79683213839101,28.32681253106609,116.57390081737034,100.95015358952963,0.0001295089750783,0.104450523853302,0,0,0
9541,363877.6135443352,2011-01-14 16:52:46,2731.375398967427,2,41,0.5501165986061096,4.122109889984131,28.80141902779267,28.32681253106609,116.59280088813148,100.95015358952963,9.71794142969884e-05,0.104450523853302,0,0,0
9542,363907.62642563006,2011-01-14 16:53:16,2761.3882801771338,2,41,0.5499359965324402,4.12534761428833,28.80600514857804,28.32681253106609,116.6117125381782,100.95015358952963,0.0001295089750783,0.104450523853302,0,0,0
9543,363937.6415308879,2011-01-14 16:53:46,2791.403385439866,2,41,0.5501165986061096,4.12874698638916,28.81059164910201,28.32681253106609,116.6306405627751,100.95015358952963,0.0001295089750783,0.104450523853302,0,0,0
9544,363967.65665757895,2011-01-14 16:54:16,2821.4185121259907,2,41,0.5499359965324402,4.13166093826294,28.815178163148136,28.32681253106609,116.64958377798077,100.95015358952963,6.47544875391759e-05,0.104450523853302,0,0,0
9545,363997.671987632,2011-01-14 16:54:46,2851.43384217897,2,41,0.5501165986061096,4.135222434997559,28.81976475980913,28.32681253106609,116.66854258255265,100.95015358952963,9.70840483205393e-05,0.104450523853302,0,0,0
9546,364027.6870357823,2011-01-14 16:55:16,2881.448890334372,2,41,0.5501165986061096,4.138460159301758,28.82435125443728,28.32681253106609,116.6875164212442,100.95015358952963,3.23295607813634e-05,0.104450523853302,0,0,0
9547,364057.7019922492,2011-01-14 16:55:46,2911.4638467962463,2,41,0.5499359965324402,4.142021656036377,28.82893778904802,28.32681253106609,116.7065060339362,100.95015358952963,9.70840483205393e-05,0.104450523853302,0,0,0
9548,364087.71711412334,2011-01-14 16:56:16,2941.478968665366,2,41,0.5501165986061096,4.145421504974365,28.83352433393901,28.32681253106609,116.7255114147701,100.95015358952963,0.0001295089750783,0.104450523853302,0,0,0
9549,364117.7322448646,2011-01-14 16:56:46,2971.4940994065983,2,41,0.550297200679779,4.148983001708984,28.838110763215973,28.32681253106609,116.7445322499568,100.95015358952963,9.71794142969884e-05,0.104450523853302,0,0,0
9550,364147.747344408,2011-01-14 16:57:16,3001.509198955088,2,41,0.5501165986061096,4.152382373809815,28.842697186519157,28.32681253106609,116.76356908920624,100.95015358952963,6.47544875391759e-05,0.104450523853302,0,0,0
9551,364177.76246125466,2011-01-14 16:57:46,3031.524315796678,2,41,0.5501165986061096,4.155943870544434,28.84728366909028,28.32681253106609,116.78262229759709,100.95015358952963,9.70840483205393e-05,0.104450523853302,0,0,0
9552,364207.77760274266,2011-01-14 16:58:16,3061.539457324794,2,41,0.5499359965324402,4.159667491912842,28.85186940678288,28.32681253106609,116.80168853926924,100.95015358952963,0.0001295089750783,0.104450523853302,0,0,0
9553,364237.7928532224,2011-01-14 16:58:46,3091.554707774376,2,41,0.5499359965324402,4.163228988647461,28.85645507497193,28.32681253106609,116.82077074359144,100.95015358952963,0.0001295089750783,0.104450523853302,0,0,0
9554,364267.807802371,2011-01-14 16:59:16,3121.569656938061,2,41,0.5499359965324402,4.166628360748291,28.861040707895377,28.32681253106609,116.83986912711303,100.95015358952963,6.47544875391759e-05,0.104450523853302,0,0,0
9555,364297.8230614771,2011-01-14 16:59:46,3151.584916059256,2,41,0.5497553944587708,4.170028209686279,28.865626434411173,28.32681253106609,116.85898453760242,100.95015358952963,6.47544875391759e-05,0.104450523853302,0,0,0
9556,364327.838039999,2011-01-14 17:00:16,3181.5998945410097,2,41,0.5501165986061096,4.174075126647949,28.87021274306636,28.32681253106609,116.87811911343348,100.95015358952963,0.0001295089750783,0.104450523853302,0,0,0
9557,364357.8535807922,2011-01-14 17:00:46,3211.6154353492548,2,41,0.550297200679779,4.1774749755859375,28.87479932105228,28.32681253106609,116.89727161142538,100.95015358952963,6.47544875391759e-05,0.104450523853302,0,0,0
9558,364387.8682782837,2011-01-14 17:01:16,3241.630132820645,2,41,0.5501165986061096,4.181360244750977,28.879385704401447,28.32681253106609,116.91644036278952,100.95015358952963,9.71794142969884e-05,0.104450523853302,0,0,0
9559,364417.8835191944,2011-01-14 17:01:46,3271.645373761529,2,41,0.5501165986061096,4.185083389282227,28.88397229995174,28.32681253106609,116.93562720427934,100.95015358952963,6.47544875391759e-05,0.104450523853302,0,0,0
9560,364447.8985380819,2011-01-14 17:02:16,3301.6603926489865,2,41,0.5501165986061096,4.188807010650635,28.888558721998105,28.32681253106609,116.95483048425668,100.95015358952963,9.71794142969884e-05,0.104450523853302,0,0,0
9561,364477.9137689678,2011-01-14 17:02:46,3331.6756235297976,2,41,0.5501165986061096,4.192692279815674,28.89314524269253,28.32681253106609,116.9740516023941,100.95015358952963,9.71794142969884e-05,0.104450523853302,0,0,0
9562,364507.92873364507,2011-01-14 17:03:16,3361.690588182085,2,41,0.5501165986061096,4.196415424346924,28.897731726010683,28.32681253106609,116.9932899893358,100.95015358952963,6.47544875391759e-05,0.104450523853302,0,0,0
9563,364534.75640153314,2011-01-14 17:03:43,3388.518256075141,2,41,0.550297200679779,4.200138568878174,28.901831152551583,28.32681253106609,117.0105002638002,100.95015358952963,0.0001618385285837,0.104450523853302,0,0,0
9564,364564.7725112149,2011-01-14 17:04:13,30.01510922260094,3,41,0.0,4.096208095550537,28.901831152551583,28.32681253106609,117.0105002638002,100.95015358952963,-0.0004857063177041,0.104450523853302,0,0,0
9565,364594.7876569184,2011-01-14 17:04:43,60.03025494617354,3,41,0.0,4.0827717781066895,28.901831152551583,28.32681253106609,117.0105002638002,100.95015358952963,-0.0002590179501567,0.104450523853302,0,0,0
9566,364624.8028875136,2011-01-14 17:05:13,90.0454855362596,3,41,0.0,4.074353694915772,28.901831152551583,28.32681253106609,117.0105002638002,100.95015358952963,-0.0001618385285837,0.104450523853302,0,0,0
9567,364654.7709828932,2011-01-14 17:05:43,120.0135809008606,3,41,0.0,4.068525791168213,28.901831152551583,28.32681253106609,117.0105002638002,100.95015358952963,-0.0001618385285837,0.104450523853302,0,0,0
9568,364654.77402637847,2011-01-14 17:05:43,2.641583639e-06,4,41,1.0415544509887695,4.199976921081543,28.901831153315847,28.32681253106609,117.01050026701007,100.95015358952963,0.0,0.104450523853302,0,0,0
9569,364655.2115211099,2011-01-14 17:05:44,0.437497398130726,4,41,0.9915257096290588,4.199814796447754,28.9019534093266,28.32681253106609,117.01101371645224,100.95015358952963,-3.24249267578125e-05,0.104450523853302,0,0,0
9570,364656.7739682289,2011-01-14 17:05:45,1.999944487029211,4,41,0.9414969086647034,4.199814796447754,28.90237180812793,28.32681253106609,117.0127709336702,100.95015358952963,-3.24249267578125e-05,0.104450523853302,0,0,0
9571,364659.3364246087,2011-01-14 17:05:48,4.562400876800641,4,41,0.8912875652313232,4.199814796447754,28.903023084410144,28.32681253106609,117.01550618057756,100.95015358952963,-3.24249267578125e-05,0.104450523853302,0,0,0
9572,364662.8834396966,2011-01-14 17:05:51,8.10941598985163,4,41,0.8410781621932983,4.199814796447754,28.903875521961588,28.32681253106609,117.0190862762628,100.95015358952963,0.0,0.104450523853302,0,0,0
9573,364667.6645175688,2011-01-14 17:05:56,12.890493846972454,4,41,0.7908687591552734,4.199976921081543,28.90495796111037,28.32681253106609,117.02363236531316,100.95015358952963,3.24249267578125e-05,0.104450523853302,0,0,0
9574,364673.8049351338,2011-01-14 17:06:02,19.030911416916005,4,41,0.7404788136482239,4.199814796447754,28.906262207807966,28.32681253106609,117.02911002617186,100.95015358952963,0.0,0.104450523853302,0,0,0
9575,364681.8360387751,2011-01-14 17:06:10,27.062015043261667,4,41,0.690269410610199,4.199814796447754,28.907855825121256,28.32681253106609,117.03580301691072,100.95015358952963,-3.24249267578125e-05,0.104450523853302,0,0,0
9576,364692.648349761,2011-01-14 17:06:21,37.87432602409081,4,41,0.6402406692504883,4.199814796447754,28.909850067861424,28.32681253106609,117.04417856467816,100.95015358952963,0.0,0.104450523853302,0,0,0
9577,364708.1637722778,2011-01-14 17:06:37,53.38974863621641,4,41,0.5900312662124634,4.199814796447754,28.91249506224917,28.32681253106609,117.05528718516818,100.95015358952963,0.0,0.104450523853302,0,0,0
9578,364733.86640914745,2011-01-14 17:07:02,79.09238541557419,4,41,0.5398218631744385,4.199814796447754,28.916513747061373,28.32681253106609,117.07216511939424,100.95015358952963,0.0,0.104450523853302,0,0,0
9579,364782.7249487365,2011-01-14 17:07:51,127.95092499460192,4,41,0.4897931218147278,4.199814796447754,28.92346388819242,28.32681253106609,117.10135481071518,100.95015358952963,0.0,0.104450523853302,0,0,0
9580,364873.4734121449,2011-01-14 17:09:22,218.69938840803232,4,41,0.4397643506526947,4.199814796447754,28.935131683926613,28.32681253106609,117.15035802583436,100.95015358952963,0.0,0.104450523853302,0,0,0
9581,365000.846250224,2011-01-14 17:11:29,346.072226487168,4,41,0.3897355794906616,4.199814796447754,28.949780936770328,28.32681253106609,117.21188297400622,100.95015358952963,-3.24249267578125e-05,0.104450523853302,0,0,0
9582,365157.7655368392,2011-01-14 17:14:06,502.9915131924952,4,41,0.3397068083286285,4.199814796447754,28.965664207373543,28.32681253106609,117.27859056061844,100.95015358952963,0.0,0.104450523853302,0,0,0
9583,365342.5594669226,2011-01-14 17:17:11,687.7854432007464,4,41,0.2896780371665954,4.199814796447754,28.981799174455848,28.32681253106609,117.3463552946607,100.95015358952963,-3.24249267578125e-05,0.104450523853302,0,0,0
9584,365572.16473600594,2011-01-14 17:21:01,917.3907122740524,4,41,0.2396492660045623,4.199814796447754,28.99865004228393,28.32681253106609,117.41712671898262,100.95015358952963,-3.24249267578125e-05,0.104450523853302,0,0,0
9585,365862.19102830015,2011-01-14 17:25:51,1207.4170045683086,4,41,0.1896204948425293,4.199653148651123,29.015874440290663,28.32681253106609,117.4894667330323,100.95015358952963,-6.47544875391759e-05,0.104450523853302,0,0,0
9586,366248.747076247,2011-01-14 17:32:17,1593.9730525401767,4,41,0.1395917236804962,4.199814796447754,29.03344950301484,28.32681253106609,117.56327987398846,100.95015358952963,0.0,0.104450523853302,0,0,0
9587,366860.4084865349,2011-01-14 17:42:29,2205.634462803063,4,41,0.0895629599690437,4.199814796447754,29.05259864193168,28.32681253106609,117.64370366810712,100.95015358952963,0.0,0.104450523853302,0,0,0
9588,367797.986441434,2011-01-14 17:58:07,3143.212417737284,4,41,0.0498289167881011,4.199814796447754,29.070222080668263,28.32681253106609,117.71771959272304,100.95015358952963,3.23295607813634e-05,0.104450523853302,0,0,0
9589,367827.995262464,2011-01-14 17:58:37,30.01510604969308,5,41,0.0,4.1901021003723145,29.070222080668263,28.32681253106609,117.71771959272304,100.95015358952963,-3.23295607813634e-05,0.104450523853302,0,0,0
9590,367857.9948613852,2011-01-14 17:59:07,60.01470509616275,5,41,0.0,4.188483238220215,29.070222080668263,28.32681253106609,117.71771959272304,100.95015358952963,-3.23295607813634e-05,0.104450523853302,0,0,0
9591,367858.17713207664,2011-01-14 17:59:07,0.187511576544619,6,41,-1.9243103452026844e-05,4.188483238220215,29.070222080668263,28.32681253206839,117.71771959272304,100.9501535937278,0.0,0.1077866628766059,0,0,0
9592,367863.0051398375,2011-01-14 17:59:12,5.015519337425584,6,41,0.0008838032954372,4.188321113586426,29.070222971890622,28.32681253215202,117.71772332565692,100.95015359407806,-6.47544875391759e-05,0.1077866628766059,0,0,0
9593,367881.7962617043,2011-01-14 17:59:31,18.780550164641102,7,41,-1.099568486213684,3.9882304668426514,29.070222971890622,28.33254872148557,117.71772332565692,100.97315491658723,-0.0016188144218176,0.1077866628766059,0,0,0
9594,367911.81141055067,2011-01-14 18:00:01,48.79569903104661,7,41,-1.099568486213684,3.939340829849243,29.070222971890622,28.34171624376292,117.71772332565692,101.00948329733316,-0.0011655807029455,0.1077866628766059,0,0,0
9595,367941.8265134876,2011-01-14 18:00:31,78.81080195294427,7,41,-1.099568486213684,3.902431011199951,29.070222971890622,28.350883653952483,117.71772332565692,101.04541994347724,-0.0008418083307333,0.1077866628766059,0,0,0
9596,367971.8416260686,2011-01-14 18:01:01,108.8259145289028,7,41,-1.099568486213684,3.873615264892578,29.070222971890622,28.360051107219448,117.71772332565692,101.08105805666128,-0.0006799221155233,0.1077866628766059,0,0,0
9597,368001.8567288802,2011-01-14 18:01:31,138.84101737561306,7,41,-1.099568486213684,3.8504655361175537,29.070222971890622,28.369218551164032,117.71772332565692,101.11645992823551,-0.0005504131549969,0.1077866628766059,0,0,0
9598,368031.8718468847,2011-01-14 18:02:01,168.8561353450137,7,41,-1.0993878841400146,3.831201314926148,29.070222971890622,28.37838605065001,117.71772332565692,101.15166808864844,-0.000453233718872,0.1077866628766059,0,0,0
9599,368061.8869706034,2011-01-14 18:02:31,198.87125907376847,7,41,-1.099568486213684,3.814041376113892,29.070222971890622,28.38755348237972,117.71772332565692,101.1867096694214,-0.0004209041653666,0.1077866628766059,0,0,0
9600,368091.9020497912,2011-01-14 18:03:01,228.88633836677565,7,41,-1.0993878841400146,3.798662185668945,29.070222971890622,28.396720740427767,117.71772332565692,101.22160144675354,-0.0003885269106831,0.1077866628766059,0,0,0
9601,368121.9172153692,2011-01-14 18:03:31,258.9015039698942,7,41,-1.0993878841400146,3.784578084945679,29.070222971890622,28.405887836902327,117.71772332565692,101.25635694342196,-0.0003237724304199,0.1077866628766059,0,0,0
9602,368151.93227912346,2011-01-14 18:04:01,288.91656760888674,7,41,-1.0993878841400146,3.771141529083252,29.070222971890622,28.415054993283185,117.71772332565692,101.29098725540298,-0.0003237724304199,0.1077866628766059,0,0,0
9603,368181.94970605255,2011-01-14 18:04:31,318.9339946181252,7,41,-1.099568486213684,3.758676290512085,29.070222971890622,28.4242229074713,117.71772332565692,101.32550309009603,-0.0002913951757363,0.1077866628766059,0,0,0
9604,368211.96251516754,2011-01-14 18:05:01,348.94680363290047,7,41,-1.099568486213684,3.746858835220337,29.070222971890622,28.433389454600785,117.71772332565692,101.3599026822654,-0.0003237724304199,0.1077866628766059,0,0,0
9605,368241.97762833,2011-01-14 18:05:31,378.9619168153706,7,41,-1.099568486213684,3.7356886863708496,29.070222971890622,28.44255687250665,117.71772332565692,101.39419986974458,-0.0002590179501567,0.1077866628766059,0,0,0
9606,368271.9927506502,2011-01-14 18:06:01,408.97703912057744,7,41,-1.099568486213684,3.7248423099517822,29.070222971890622,28.451724248723373,117.71772332565692,101.42839611198931,-0.0002913951757363,0.1077866628766059,0,0,0
9607,368302.0082463059,2011-01-14 18:06:31,438.9925347762887,7,41,-1.099568486213684,3.7144815921783447,29.070222971890622,28.46089177053546,117.71772332565692,101.46249701669912,-0.0002913951757363,0.1077866628766059,0,0,0
9608,368332.0230108044,2011-01-14 18:07:01,469.0072993799933,7,41,-1.0997490882873535,3.704444646835327,29.070222971890622,28.470059582444733,117.71772332565692,101.49650553323912,-0.0002590179501567,0.1077866628766059,0,0,0
9609,368362.0380981324,2011-01-14 18:07:31,499.02238668797617,7,41,-1.099568486213684,3.69489336013794,29.070222971890622,28.479227763915688,117.71772332565692,101.5304246715952,-0.0002590179501567,0.1077866628766059,0,0,0
9610,368392.053228197,2011-01-14 18:08:01,529.0375166622969,7,41,-1.099568486213684,3.6855039596557617,29.070222971890622,28.48839550289787,117.71772332565692,101.56425490290994,-0.0002266406954731,0.1077866628766059,0,0,0
9611,368422.06835606106,2011-01-14 18:08:31,559.0526445213455,7,41,-1.099568486213684,3.676438331604004,29.070222971890622,28.497562962035072,117.71772332565692,101.59799948341237,-0.0001942634553415,0.1077866628766059,0,0,0
9612,368452.0834819903,2011-01-14 18:09:01,589.0677704505846,7,41,-1.099568486213684,3.667534828186035,29.070222971890622,28.50673050388816,117.71772332565692,101.63166218339444,-0.0002266406954731,0.1077866628766059,0,0,0
9613,368482.0986984852,2011-01-14 18:09:31,619.0829869706037,7,41,-1.0993878841400146,3.658792972564697,29.070222971890622,28.51589809277268,117.71772332565692,101.66524422463377,-0.0002266406954731,0.1077866628766059,0,0,0
9614,368512.1136937087,2011-01-14 18:10:01,649.0979821690213,7,41,-1.099568486213684,3.6503748893737793,29.070222971890622,28.525065592830344,117.71772332565692,101.69874700544324,-0.0001942634553415,0.1077866628766059,0,0,0
9615,368542.1289622834,2011-01-14 18:10:31,679.1132507738517,7,41,-1.099568486213684,3.6421186923980713,29.070222971890622,28.53423309743302,117.71772332565692,101.73217278539668,-0.0001942634553415,0.1077866628766059,0,0,0
9616,368572.1439221839,2011-01-14 18:11:01,709.1282106692834,7,41,-1.0993878841400146,3.6338624954223633,29.070222971890622,28.54340047269047,117.71772332565692,101.76552246173588,-0.0002266406954731,0.1077866628766059,0,0,0
9617,368602.159078544,2011-01-14 18:11:31,739.143367014328,7,41,-1.0993878841400146,3.625768184661865,29.070222971890622,28.552567912015157,117.71772332565692,101.79879828888208,-0.0001942634553415,0.1077866628766059,0,0,0
9618,368632.1742727684,2011-01-14 18:12:01,769.1585612588296,7,41,-1.099568486213684,3.617835760116577,29.070222971890622,28.561735344771908,117.71772332565692,101.83200053298388,-0.0001942634553415,0.1077866628766059,0,0,0
9619,368662.1895481602,2011-01-14 18:12:31,799.1738366455628,7,41,-1.099568486213684,3.610065221786499,29.070222971890622,28.570902877146864,117.71772332565692,101.86513165037849,-0.0002266406954731,0.1077866628766059,0,0,0
9620,368692.2045088677,2011-01-14 18:13:01,829.1887973580308,7,41,-1.099568486213684,3.602456569671631,29.070222971890622,28.58007028987106,117.71772332565692,101.89819131923788,-0.0001618862152099,0.1077866628766059,0,0,0
9621,368722.2194953544,2011-01-14 18:13:31,859.2037838196737,7,41,-1.0993878841400146,3.5950098037719727,29.070222971890622,28.58923771856493,117.71772332565692,101.93118181102392,-0.0001618862152099,0.1077866628766059,0,0,0
9622,368752.23477242026,2011-01-14 18:14:01,889.2190609006293,7,41,-1.099568486213684,3.5877251625061035,29.070222971890622,28.598405253195555,117.71772332565692,101.96410546431548,-0.0001942634553415,0.1077866628766059,0,0,0
9623,368782.24988799874,2011-01-14 18:14:31,919.2341764790708,7,41,-1.099568486213684,3.580764055252075,29.070222971890622,28.607572716250303,117.71772332565692,101.99696374714844,-0.0001618862152099,0.1077866628766059,0,0,0
9624,368812.26484193926,2011-01-14 18:15:01,949.2491304296864,7,41,-1.0993878841400146,3.574126720428467,29.070222971890622,28.616740206084188,117.71772332565692,102.029759347609,-0.0001295089750783,0.1077866628766059,0,0,0
9625,368842.2799513975,2011-01-14 18:15:31,979.264239862812,7,41,-1.099568486213684,3.5674893856048584,29.070222971890622,28.62590764547213,117.71772332565692,102.06249358518426,-0.0001618862152099,0.1077866628766059,0,0,0
9626,368872.29525311984,2011-01-14 18:16:01,1009.279541600219,7,41,-1.099568486213684,3.56117582321167,29.070222971890622,28.63507522172716,117.71772332565692,102.09516926571366,-0.0001618862152099,0.1077866628766059,0,0,0
9627,368902.310205682,2011-01-14 18:16:31,1039.294494142324,7,41,-1.099568486213684,3.5550241470336914,29.070222971890622,28.64424268400857,117.71772332565692,102.12778751719978,-0.0001295089750783,0.1077866628766059,0,0,0
9628,368932.3253023834,2011-01-14 18:17:01,1069.3095908487307,7,41,-1.099568486213684,3.549034357070923,29.070222971890622,28.65341017069596,117.71772332565692,102.16034987838955,-0.0001295089750783,0.1077866628766059,0,0,0
9629,368962.34044927993,2011-01-14 18:17:31,1099.324737760264,7,41,-1.0993878841400146,3.5432064533233643,29.070222971890622,28.66257766985526,117.71772332565692,102.1928577789806,-0.0001295089750783,0.1077866628766059,0,0,0
9630,368992.355568728,2011-01-14 18:18:01,1129.3398571933126,7,41,-1.099568486213684,3.5373785495758057,29.070222971890622,28.67174511936293,117.71772332565692,102.22531305514704,-0.0001618862152099,0.1077866628766059,0,0,0
9631,369022.37065551465,2011-01-14 18:18:31,1159.3549439749838,7,41,-1.0997490882873535,3.531874418258667,29.070222971890622,28.68091266454639,117.71772332565692,102.25771723957163,-0.0001618862152099,0.1077866628766059,0,0,0
9632,369052.3857603313,2011-01-14 18:19:01,1189.3700487916035,7,41,-1.099568486213684,3.5265321731567383,29.070222971890622,28.690080125337047,117.71772332565692,102.2900711893534,-0.0001295089750783,0.1077866628766059,0,0,0
9633,369082.400938962,2011-01-14 18:19:31,1219.385227567553,7,41,-1.099568486213684,3.5213518142700195,29.070222971890622,28.699247623569224,117.71772332565692,102.32237701560756,-0.0001295089750783,0.1077866628766059,0,0,0
9634,369112.4160005307,2011-01-14 18:20:01,1249.4002890010488,7,41,-1.0993878841400146,3.516171455383301,29.070222971890622,28.708415138542996,117.71772332565692,102.35463504092944,-0.0001295089750783,0.1077866628766059,0,0,0
9635,369142.4313426437,2011-01-14 18:20:31,1279.4156311341342,7,41,-1.099568486213684,3.511153221130371,29.070222971890622,28.71758278141991,117.71772332565692,102.38684643140272,-0.0001294612884521,0.1077866628766059,0,0,0
9636,369172.446312479,2011-01-14 18:21:01,1309.430600959314,7,41,-1.0997490882873535,3.5059728622436523,29.070222971890622,28.726750319171536,117.71772332565692,102.41901162130944,-0.0001295089750783,0.1077866628766059,0,0,0
9637,369202.4613377523,2011-01-14 18:21:31,1339.4456262427127,7,41,-1.099568486213684,3.501116275787353,29.070222971890622,28.73591781667809,117.71772332565692,102.45113167492262,-0.0001618862152099,0.1077866628766059,0,0,0
9638,369232.4764520125,2011-01-14 18:22:01,1369.4607404978562,7,41,-1.099568486213684,3.4962596893310547,29.070222971890622,28.745085336970018,117.71772332565692,102.48320708393604,-0.0001618862152099,0.1077866628766059,0,0,0
9639,369262.49178449146,2011-01-14 18:22:31,1399.4760729568309,7,41,-1.099568486213684,3.491564989089966,29.070222971890622,28.754252952576085,117.71772332565692,102.51523795111883,-9.713172767078504e-05,0.1077866628766059,0,0,0
9640,369292.5089737732,2011-01-14 18:23:01,1429.4932623538666,7,41,-1.0993878841400146,3.486708402633667,29.070222971890622,28.763421115839623,117.71772332565692,102.54722612927962,-9.713172767078504e-05,0.1077866628766059,0,0,0
9641,369322.5218071286,2011-01-14 18:23:31,1459.5060955890065,7,41,-1.099568486213684,3.4813661575317383,29.070222971890622,28.772587985281337,117.71772332565692,102.57916421225148,-0.0001942634553415,0.1077866628766059,0,0,0
9642,369352.5370521648,2011-01-14 18:24:01,1489.5213406451462,7,41,-1.099568486213684,3.4765095710754395,29.070222971890622,28.781755475084125,117.71772332565692,102.61105789237176,-0.0001295089750783,0.1077866628766059,0,0,0
9643,369382.55207141815,2011-01-14 18:24:31,1519.5363599035288,7,41,-1.099568486213684,3.4713292121887207,29.070222971890622,28.790922904302366,117.71772332565692,102.64290511616989,-0.0001618862152099,0.1077866628766059,0,0,0
9644,369412.5671715231,2011-01-14 18:25:01,1549.5514599983806,7,41,-1.099568486213684,3.465986967086792,29.070222971890622,28.800090346516864,117.71772332565692,102.67470496247036,-0.0001618862152099,0.1077866628766059,0,0,0
9645,369442.5824108649,2011-01-14 18:25:31,1579.5666993452917,7,41,-1.0993878841400146,3.4606447219848637,29.070222971890622,28.80925789685452,117.71772332565692,102.7064569230378,-0.0001618862152099,0.1077866628766059,0,0,0
9646,369472.59737186815,2011-01-14 18:26:02,1609.5816603585088,7,41,-1.0993878841400146,3.4553024768829346,29.070222971890622,28.81842534263947,117.71772332565692,102.73815879295512,-0.0001618862152099,0.1077866628766059,0,0,0
9647,369502.6125071656,2011-01-14 18:26:32,1639.5967956510842,7,41,-1.099568486213684,3.449474573135376,29.070222971890622,28.8275928543616,117.71772332565692,102.76980853080492,-0.0001942634553415,0.1077866628766059,0,0,0
9648,369532.62760819285,2011-01-14 18:27:02,1669.6118966782597,7,41,-1.099568486213684,3.4434847831726074,29.070222971890622,28.83676040369356,117.71772332565692,102.8014046034556,-0.0001295089750783,0.1077866628766059,0,0,0
9649,369562.64272670366,2011-01-14 18:27:32,1699.6270151639471,7,41,-1.099568486213684,3.437333106994629,29.070222971890622,28.84592792082523,117.71772332565692,102.8329440865307,-0.0001618862152099,0.1077866628766059,0,0,0
9650,369592.65786624176,2011-01-14 18:28:02,1729.6421547221537,7,41,-1.099568486213684,3.4306960105896,29.070222971890622,28.855095454132524,117.71772332565692,102.86442516982147,-0.0001618385285837,0.1077866628766059,0,0,0
9651,369622.67296629655,2011-01-14 18:28:32,1759.6572547568555,7,41,-1.0993878841400146,3.4237349033355717,29.070222971890622,28.864262984246206,117.71772332565692,102.8958443420326,-0.0001942634553415,0.1077866628766059,0,0,0
9652,369652.6880660856,2011-01-14 18:29:02,1789.6723545459454,7,41,-1.099568486213684,3.416126251220703,29.070222971890622,28.873430572230955,117.71772332565692,102.92719662185006,-0.0001942634553415,0.1077866628766059,0,0,0
9653,369682.7031832931,2011-01-14 18:29:32,1819.687471753447,7,41,-1.099568486213684,3.407870054244995,29.070222971890622,28.882598165303808,117.71772332565692,102.95847728220495,-0.0002266406954731,0.1077866628766059,0,0,0
9654,369712.7182893328,2011-01-14 18:30:02,1849.70257782319,7,41,-1.0993878841400146,3.3989663124084477,29.070222971890622,28.891765703952128,117.71772332565692,102.989678638336,-0.0002266406954731,0.1077866628766059,0,0,0
9655,369742.7335459427,2011-01-14 18:30:32,1879.717834413076,7,41,-1.099568486213684,3.3886055946350098,29.070222971890622,28.90093321531628,117.71772332565692,103.0207922110646,-0.0002913951757363,0.1077866628766059,0,0,0
9656,369772.748521046,2011-01-14 18:31:02,1909.73280953646,7,41,-1.0993878841400146,3.3771116733551025,29.070222971890622,28.91010078404767,117.71772332565692,103.05180696222544,-0.0003237724304199,0.1077866628766059,0,0,0
9657,369802.76366223337,2011-01-14 18:31:32,1939.7479506986645,7,41,-1.0993878841400146,3.363998889923096,29.070222971890622,28.91926793279824,117.71772332565692,103.08270722268828,-0.0003561496851034,0.1077866628766059,0,0,0
9658,369832.778752624,2011-01-14 18:32:02,1969.7630410893305,7,41,-1.0993878841400146,3.3482961654663086,29.070222971890622,28.928434767654817,117.71772332565692,103.11347406460568,-0.0004209041653666,0.1077866628766059,0,0,0
9659,369862.79389868345,2011-01-14 18:32:32,1999.77818714874,7,41,-1.0993878841400146,3.3285460472106934,29.070222971890622,28.93760205671112,117.71772332565692,103.14408021420564,-0.0005504131549969,0.1077866628766059,0,0,0
9660,369892.809055254,2011-01-14 18:33:02,2029.793343814584,7,41,-1.099568486213684,3.3041012287139893,29.070222971890622,28.946769620115823,117.71772332565692,103.17448625216404,-0.0006799221155233,0.1077866628766059,0,0,0
9661,369922.8241354442,2011-01-14 18:33:32,2059.8084239246277,7,41,-1.099568486213684,3.273504734039306,29.070222971890622,28.95593713500496,117.71772332565692,103.20464200414128,-0.0009065627818927,0.1077866628766059,0,0,0
9662,369952.8392607419,2011-01-14 18:34:02,2089.8235493225425,7,41,-1.0993878841400146,3.234166622161865,29.070222971890622,28.96510469755872,117.71772332565692,103.23447946346089,-0.0011332035064697,0.1077866628766059,0,0,0
9663,369982.8547663875,2011-01-14 18:34:32,2119.8390549481014,7,41,-1.099568486213684,3.181715726852417,29.070222971890622,28.974272378862427,117.71772332565692,103.26389967553168,-0.0015864849556237,0.1077866628766059,0,0,0
9664,370012.8695004852,2011-01-14 18:35:02,2149.853788965576,7,41,-1.099568486213684,3.111133337020874,29.070222971890622,28.98343986397784,117.71772332565692,103.2927613674802,-0.0021368979942053,0.1077866628766059,0,0,0
9665,370042.8847022184,2011-01-14 18:35:32,2179.868990718792,7,41,-1.099568486213684,3.0115737915039062,29.070222971890622,28.99260745560257,117.71772332565692,103.32085532658876,-0.0030758380889892,0.1077866628766059,0,0,0
9666,370072.8996980483,2011-01-14 18:36:02,2209.883986518708,7,41,-1.099568486213684,2.86458158493042,29.070222971890622,29.001775047227724,117.71772332565692,103.3478326113278,-0.0045327665284276,0.1077866628766059,0,0,0
9667,370098.1961683158,2011-01-14 18:36:27,2235.1804568763687,7,41,-1.0997490882873535,2.699943780899048,29.070222971890622,29.00950143045136,117.71772332565692,103.36934854215836,-0.0055040838196873,0.1077866628766059,0,0,0
9668,370158.21229836176,2011-01-14 18:37:27,60.014512245519605,8,41,0.0,3.582059144973755,29.070222971890622,29.00950143045136,117.71772332565692,103.36934854215836,0.0013274669181555,0.1077866628766059,0,0,0
9669,370158.402478663,2011-01-14 18:37:28,0.187515075264505,9,41,-1.9243103452026844e-05,3.582221031188965,29.070222971890622,29.00950143145369,117.71772332565692,103.36934854574888,0.0,0.1043562516570091,0,0,0
9670,370163.23075407103,2011-01-14 18:37:32,5.015790508266758,9,41,0.0007031940040178,3.589829683303833,29.070223879105612,29.00950143153849,117.71772657949457,103.36934854605268,0.0011008263099938,0.1043562516570091,0,0,0
