Data_Point,Test_Time(s),Date_Time,Step_Time(s),Step_Index,Cycle_Index,Current(A),Voltage(V),Charge_Capacity(Ah),Discharge_Capacity(Ah),Charge_Energy(Wh),Discharge_Energy(Wh),dV/dt(V/s),Internal_Resistance(Ohm),Is_FC_Data,AC_Impedance(Ohm),ACI_Phase_Angle(Deg)
4138,153974.2372393365,2011-01-12 06:33:54,30.01285982641352,1,18,0.0,3.6008377075195312,12.355455358172897,12.35782278894956,49.91931553478186,44.177677184246974,0.0006475448608398,0.1022060960531234,0,0,0
4139,154004.25240739578,2011-01-12 06:34:24,60.02802787061599,1,18,0.0,3.620264053344727,12.355455358172897,12.35782278894956,49.91931553478186,44.177677184246974,0.0004209041653666,0.1022060960531234,0,0,0
4140,154034.2675392598,2011-01-12 06:34:54,90.04315976472131,1,18,0.0,3.634024381637573,12.355455358172897,12.35782278894956,49.91931553478186,44.177677184246974,0.0003237724304199,0.1022060960531234,0,0,0
4141,154064.2358413296,2011-01-12 06:35:24,120.01146181945772,1,18,0.0,3.6448707580566406,12.355455358172897,12.35782278894956,49.91931553478186,44.177677184246974,0.0002913951757363,0.1022060960531234,0,0,0
4142,154094.24390589123,2011-01-12 06:35:54,30.01512962845862,2,18,0.550297200679779,3.770332098007202,12.36004272051896,12.35782278894956,49.936516899554405,44.177677184246974,0.0008741855854168,0.1022060960531234,0,0,0
4143,154124.25919872648,2011-01-12 06:36:24,60.03042244362873,2,18,0.5501165986061096,3.7933199405670166,12.364630116244667,12.35782278894956,49.953870729457705,44.177677184246974,0.0004532813909463,0.1022060960531234,0,0,0
4144,154154.2742137543,2011-01-12 06:36:54,90.04543749151732,2,18,0.5501165986061096,3.806918382644653,12.369217458496475,12.35782278894956,49.971306012817045,44.177677184246974,0.0002913951757363,0.1022060960531234,0,0,0
4145,154184.28961533055,2011-01-12 06:37:24,120.06083906775348,2,18,0.5504778623580933,3.817279100418091,12.373804807491863,12.35782278894956,49.98879466705921,44.177677184246974,0.0002590179501567,0.1022060960531234,0,0,0
4146,154214.30454104577,2011-01-12 06:37:54,150.07576477798514,2,18,0.550297200679779,3.825535297393799,12.378392056172377,12.35782278894956,50.00632448865058,44.177677184246974,0.0001942634553415,0.1022060960531234,0,0,0
4147,154244.31971212255,2011-01-12 06:38:24,180.09093585474568,2,18,0.5501165986061096,3.832658290863037,12.382979338362198,12.35782278894956,50.02388997082157,44.177677184246974,0.0001942634553415,0.1022060960531234,0,0,0
4148,154274.33485290885,2011-01-12 06:38:54,210.10607664602543,2,18,0.5501165986061096,3.839457273483277,12.387566661295589,12.35782278894956,50.04148763843497,44.177677184246974,0.0001618862152099,0.1022060960531234,0,0,0
4149,154304.3501791924,2011-01-12 06:39:24,240.12140293462167,2,18,0.5501165986061096,3.845608949661255,12.39215394685935,12.35782278894956,50.05911469023512,44.177677184246974,0.0001295089750783,0.1022060960531234,0,0,0
4150,154334.3651155542,2011-01-12 06:39:54,270.13633929138774,2,18,0.5501165986061096,3.8514368534088135,12.396741192341846,12.35782278894956,50.076769227970914,44.177677184246974,0.0001295089750783,0.1022060960531234,0,0,0
4151,154364.38032021464,2011-01-12 06:40:24,300.15154395184925,2,18,0.5501165986061096,3.857102870941162,12.40132856642709,12.35782278894956,50.09445041155489,44.177677184246974,0.0001618862152099,0.1022060960531234,0,0,0
4152,154394.39546823894,2011-01-12 06:40:54,330.166691976156,2,18,0.550297200679779,3.862445116043091,12.405915842917384,12.35782278894956,50.1121561120936,44.177677184246974,0.0001295089750783,0.1022060960531234,0,0,0
4153,154424.41072294413,2011-01-12 06:41:24,360.1819466763318,2,18,0.5501165986061096,3.8674635887146,12.410503132366632,12.35782278894956,50.12988565229185,44.177677184246974,0.0001295089750783,0.1022060960531234,0,0,0
4154,154454.42575477887,2011-01-12 06:41:54,390.1969785160708,2,18,0.5501165986061096,3.8723201751708975,12.415090413369011,12.35782278894956,50.14763801120531,44.177677184246974,0.0001295089750783,0.1022060960531234,0,0,0
4155,154484.4410015192,2011-01-12 06:42:24,420.2122252413708,2,18,0.5501165986061096,3.876852989196777,12.419677739682433,12.35782278894956,50.16541248534842,44.177677184246974,6.47544875391759e-05,0.1022060960531234,0,0,0
4156,154514.45610627066,2011-01-12 06:42:54,450.22732999282834,2,18,0.5501165986061096,3.881709575653076,12.424265007113036,12.35782278894956,50.18320802183416,44.177677184246974,0.0001295089750783,0.1022060960531234,0,0,0
4157,154544.47125660072,2011-01-12 06:43:24,480.2424803228817,2,18,0.550297200679779,3.885918617248535,12.428852222298747,12.35782278894956,50.20102401980448,44.177677184246974,6.47544875391759e-05,0.1022060960531234,0,0,0
4158,154574.48641226906,2011-01-12 06:43:54,510.2576359912397,2,18,0.550297200679779,3.890289545059204,12.433439498121114,12.35782278894956,50.21886029153747,44.177677184246974,0.0001295089750783,0.1022060960531234,0,0,0
4159,154604.50157543112,2011-01-12 06:44:24,540.2727991632993,2,18,0.550297200679779,3.894660472869873,12.438026803142488,12.35782278894956,50.23671602186936,44.177677184246974,0.0001295089750783,0.1022060960531234,0,0,0
4160,154634.51671767602,2011-01-12 06:44:54,570.287941408202,2,18,0.5501165986061096,3.898383855819702,12.442614167100269,12.35782278894956,50.25459024008223,44.177677184246974,9.713172767078504e-05,0.1022060960531234,0,0,0
4161,154664.53187209123,2011-01-12 06:45:24,600.3030958083993,2,18,0.550297200679779,3.902269124984741,12.447201455926956,12.35782278894956,50.272482085748,44.177677184246974,9.713172767078504e-05,0.1022060960531234,0,0,0
4162,154694.54704387978,2011-01-12 06:45:54,630.3182676019463,2,18,0.550297200679779,3.9059925079345694,12.451788736264175,12.35782278894956,50.29039102394364,44.177677184246974,0.0001618862152099,0.1022060960531234,0,0,0
4163,154724.562194676,2011-01-12 06:46:24,660.3334184131991,2,18,0.5501165986061096,3.9092302322387695,12.456375948484624,12.35782278894956,50.30831604066831,44.177677184246974,6.47544875391759e-05,0.1022060960531234,0,0,0
4164,154754.57733799858,2011-01-12 06:46:54,690.3485617357877,2,18,0.550297200679779,3.9127917289733887,12.460963183810923,12.35782278894956,50.32625679303223,44.177677184246974,0.0001295089750783,0.1022060960531234,0,0,0
4165,154784.59250612298,2011-01-12 06:47:24,720.3637298401401,2,18,0.5501165986061096,3.915705442428589,12.465550470437089,12.35782278894956,50.344212549065006,44.177677184246974,6.47544875391759e-05,0.1022060960531234,0,0,0
4166,154814.60764612228,2011-01-12 06:47:54,750.3788698544835,2,18,0.550297200679779,3.918781280517578,12.470137765934568,12.35782278894956,50.36218252899987,44.177677184246974,6.47544875391759e-05,0.1022060960531234,0,0,0
4167,154844.62282160504,2011-01-12 06:48:24,780.3940453272,2,18,0.5501165986061096,3.921695232391357,12.474725039075889,12.35782278894956,50.38016593746705,44.177677184246974,9.713172767078504e-05,0.1022060960531234,0,0,0
4168,154874.63809301186,2011-01-12 06:48:54,810.4093167340139,2,18,0.5501165986061096,3.9246091842651367,12.479312302302716,12.35782278894956,50.398162295003736,44.177677184246974,9.713172767078504e-05,0.1022060960531234,0,0,0
4169,154904.65312154335,2011-01-12 06:49:24,840.4243452755329,2,18,0.5501165986061096,3.927199363708496,12.483899618854402,12.35782278894956,50.41617134697195,44.177677184246974,6.47544875391759e-05,0.1022060960531234,0,0,0
4170,154934.67048413702,2011-01-12 06:49:54,870.4417079644653,2,18,0.5499359965324402,3.929465770721436,12.488487061861177,12.35782278894956,50.43419292441028,44.177677184246974,3.237724376958795e-05,0.1022060960531234,0,0,0
4171,154964.68338713102,2011-01-12 06:50:24,900.4546108732533,2,18,0.550297200679779,3.932217836380005,12.493073302916583,12.35782278894956,50.45222136456157,44.177677184246974,6.47544875391759e-05,0.1022060960531234,0,0,0
4172,154994.69847272974,2011-01-12 06:50:54,930.4696964669638,2,18,0.5501165986061096,3.934808015823364,12.497660026466594,12.35782278894956,50.470263157015125,44.177677184246974,6.47544875391759e-05,0.1022060960531234,0,0,0
4173,155024.7137084025,2011-01-12 06:51:24,960.4849321497423,2,18,0.5499359965324402,3.9369125366210938,12.502246612807683,12.35782278894956,50.4883154747039,44.177677184246974,3.237724376958795e-05,0.1022060960531234,0,0,0
4174,155054.72884427654,2011-01-12 06:51:54,990.5000680187544,2,18,0.5501165986061096,3.939664602279663,12.506833099026396,12.35782278894956,50.506378457660745,44.177677184246974,6.47544875391759e-05,0.1022060960531234,0,0,0
4175,155084.7440142355,2011-01-12 06:52:24,1020.515237977729,2,18,0.5501165986061096,3.9419310092926025,12.51141963469894,12.35782278894956,50.52445249097711,44.177677184246974,9.713172767078504e-05,0.1022060960531234,0,0,0
4176,155114.75911172386,2011-01-12 06:52:55,1050.5303354510472,2,18,0.550297200679779,3.944197416305542,12.516006170462331,12.35782278894956,50.54253720357589,44.177677184246974,3.237724376958795e-05,0.1022060960531234,0,0,0
4177,155144.77443411274,2011-01-12 06:53:25,1080.5456578499493,2,18,0.5501165986061096,3.9464638233184814,12.520593535164709,12.35782278894956,50.56063597607808,44.177677184246974,3.237724376958795e-05,0.1022060960531234,0,0,0
4178,155174.7894611405,2011-01-12 06:53:55,1110.5606848827076,2,18,0.550297200679779,3.948730230331421,12.525180864043389,12.35782278894956,50.57874499845265,44.177677184246974,9.713172767078504e-05,0.1022060960531234,0,0,0
4179,155204.80465881855,2011-01-12 06:54:25,1140.5758825357043,2,18,0.550297200679779,3.95099663734436,12.529768212062985,12.35782278894956,50.59686451263928,44.177677184246974,6.47544875391759e-05,0.1022060960531234,0,0,0
4180,155234.8197724271,2011-01-12 06:54:55,1170.5909961692987,2,18,0.550297200679779,3.9532630443573,12.534355540142489,12.35782278894956,50.61499429118112,44.177677184246974,6.47544875391759e-05,0.1022060960531234,0,0,0
4181,155264.83492678718,2011-01-12 06:55:25,1200.6061505293962,2,18,0.5501165986061096,3.9555294513702393,12.53894293763401,12.35782278894956,50.63313463402131,44.177677184246974,6.47544875391759e-05,0.1022060960531234,0,0,0
4182,155294.85007586412,2011-01-12 06:55:55,1230.6212996063266,2,18,0.550297200679779,3.9577958583831783,12.543530301059263,12.35782278894956,50.65128505399568,44.177677184246974,9.713172767078504e-05,0.1022060960531234,0,0,0
4183,155324.86525668012,2011-01-12 06:56:25,1260.6364804123357,2,18,0.5504778623580933,3.960062265396118,12.548117662488457,12.35782278894956,50.66944568458848,44.177677184246974,9.713172767078504e-05,0.1022060960531234,0,0,0
4184,155354.8803845843,2011-01-12 06:56:55,1290.6516083265217,2,18,0.5501165986061096,3.962166786193848,12.552705000967636,12.35782278894956,50.68761637705863,44.177677184246974,6.47544875391759e-05,0.1022060960531234,0,0,0
4185,155384.89566559004,2011-01-12 06:57:25,1320.6668893272465,2,18,0.5501165986061096,3.964271306991577,12.557292351339992,12.35782278894956,50.70579710366039,44.177677184246974,6.47544875391759e-05,0.1022060960531234,0,0,0
4186,155414.91068930953,2011-01-12 06:57:55,1350.681913056772,2,18,0.550297200679779,3.9665377140045166,12.561879687327368,12.35782278894956,50.72398781685396,44.177677184246974,6.47544875391759e-05,0.1022060960531234,0,0,0
4187,155444.9258915991,2011-01-12 06:58:25,1380.6971152961996,2,18,0.5501165986061096,3.968642234802246,12.566467087492724,12.35782278894956,50.74218866985829,44.177677184246974,6.47544875391759e-05,0.1022060960531234,0,0,0
4188,155474.94059089,2011-01-12 06:58:55,1410.7118143064251,2,18,0.5499359965324402,3.970746755599976,12.57105440465942,12.35782278894956,50.76039904397388,44.177677184246974,3.237724376958795e-05,0.1022060960531234,0,0,0
4189,155504.95615321188,2011-01-12 06:59:25,1440.7273769541007,2,18,0.5501165986061096,3.972851276397705,12.575641840990109,12.35782278894956,50.77861976862312,44.177677184246974,6.47544875391759e-05,0.1022060960531234,0,0,0
4190,155534.9714186037,2011-01-12 06:59:55,1470.7426423459235,2,18,0.5501165986061096,3.975117683410645,12.580229251364711,12.35782278894956,50.79685022659966,44.177677184246974,6.47544875391759e-05,0.1022060960531234,0,0,0
4191,155564.98646747088,2011-01-12 07:00:25,1500.7576912131003,2,18,0.5501165986061096,3.977222204208374,12.584816670412405,12.35782278894956,50.81509050999205,44.177677184246974,6.47544875391759e-05,0.1022060960531234,0,0,0
4192,155595.0016120115,2011-01-12 07:00:55,1530.7728357436995,2,18,0.5501165986061096,3.979326725006104,12.589404049431993,12.35782278894956,50.83333999872611,44.177677184246974,9.713172767078504e-05,0.1022060960531234,0,0,0
4193,155625.0167642814,2011-01-12 07:01:25,1560.7879880236126,2,18,0.5501165986061096,3.981593132019043,12.593991276270422,12.35782278894956,50.85159909827165,44.177677184246974,6.47544875391759e-05,0.1022060960531234,0,0,0
4194,155655.0319180851,2011-01-12 07:01:55,1590.803141832336,2,18,0.5501165986061096,3.9835357666015625,12.598578599430288,12.35782278894956,50.86986830821788,44.177677184246974,3.237724376958795e-05,0.1022060960531234,0,0,0
4195,155685.04922600754,2011-01-12 07:02:25,1620.8204497347235,2,18,0.5501165986061096,3.985802173614502,12.60316621088047,12.35782278894956,50.88814844357664,44.177677184246974,3.237724376958795e-05,0.1022060960531234,0,0,0
4196,155715.0622745092,2011-01-12 07:02:55,1650.8334982564238,2,18,0.550297200679779,3.987906694412232,12.607753267594644,12.35782278894956,50.906436157837454,44.177677184246974,6.47544875391759e-05,0.1022060960531234,0,0,0
4197,155745.0774036715,2011-01-12 07:03:25,1680.848627413708,2,18,0.5501165986061096,3.990011215209961,12.612340583047462,12.35782278894956,50.924734548284576,44.177677184246974,6.47544875391759e-05,0.1022060960531234,0,0,0
4198,155775.09252846288,2011-01-12 07:03:55,1710.863752205111,2,18,0.5501165986061096,3.9921157360076895,12.616927843698102,12.35782278894956,50.94304258011017,44.177677184246974,6.47544875391759e-05,0.1022060960531234,0,0,0
4199,155805.10791376355,2011-01-12 07:04:25,1740.8791374807213,2,18,0.5501165986061096,3.994220018386841,12.62151521883528,12.35782278894956,50.96136092919238,44.177677184246974,6.470680091297254e-05,0.1022060960531234,0,0,0
4200,155835.12285765912,2011-01-12 07:04:55,1770.8940813762763,2,18,0.550297200679779,3.99648642539978,12.62610248928568,12.35782278894956,50.97968866331796,44.177677184246974,3.237724376958795e-05,0.1022060960531234,0,0,0
4201,155865.1380066308,2011-01-12 07:05:25,1800.9092303579691,2,18,0.5501165986061096,3.9984290599823,12.630689864708934,12.35782278894956,50.99802677299918,44.177677184246974,6.47544875391759e-05,0.1022060960531234,0,0,0
4202,155895.15314261007,2011-01-12 07:05:55,1830.9243663422685,2,18,0.5501165986061096,4.000695705413818,12.635277134202015,12.35782278894956,51.01637423471013,44.177677184246974,3.24249267578125e-05,0.1022060960531234,0,0,0
4203,155925.16832668424,2011-01-12 07:06:25,1860.93955041141,2,18,0.550297200679779,4.002962112426758,12.639864458372626,12.35782278894956,51.03473188269568,44.177677184246974,6.47544875391759e-05,0.1022060960531234,0,0,0
4204,155955.1834794052,2011-01-12 07:06:55,1890.9547031524723,2,18,0.550297200679779,4.005228519439697,12.64445175384676,12.35782278894956,51.05309938606397,44.177677184246974,6.47544875391759e-05,0.1022060960531234,0,0,0
4205,155985.19860473298,2011-01-12 07:07:25,1920.9698284752,2,18,0.550297200679779,4.007332801818848,12.64903907072572,12.35782278894956,51.07147713088831,44.177677184246974,9.70840483205393e-05,0.1022060960531234,0,0,0
4206,156015.21376052665,2011-01-12 07:07:55,1950.9849842989447,2,18,0.5504778623580933,4.009599208831787,12.653626417747873,12.35782278894956,51.08986510392037,44.177677184246974,0.0001295089750783,0.1022060960531234,0,0,0
4207,156045.22894076625,2011-01-12 07:08:25,1981.0001644984425,2,18,0.5501165986061096,4.011865615844727,12.658213683696609,12.35782278894956,51.10826288343185,44.177677184246974,6.47544875391759e-05,0.1022060960531234,0,0,0
4208,156075.24407861018,2011-01-12 07:08:55,2011.0153023524017,2,18,0.5501165986061096,4.013970375061035,12.662800988332927,12.35782278894956,51.12667114068852,44.177677184246974,6.47544875391759e-05,0.1022060960531234,0,0,0
4209,156105.25936032267,2011-01-12 07:09:25,2041.030584059888,2,18,0.5501165986061096,4.0163984298706055,12.667388296613288,12.35782278894956,51.14508978137388,44.177677184246974,6.47544875391759e-05,0.1022060960531234,0,0,0
4210,156135.27438071388,2011-01-12 07:09:55,2071.045604446081,2,18,0.550297200679779,4.018664836883545,12.671975646392754,12.35782278894956,51.16351914189577,44.177677184246974,6.47544875391759e-05,0.1022060960531234,0,0,0
4211,156165.28958372524,2011-01-12 07:10:25,2101.060807462445,2,18,0.550297200679779,4.0207695960998535,12.676562997350873,12.35782278894956,51.18195898359775,44.177677184246974,3.24249267578125e-05,0.1022060960531234,0,0,0
4212,156195.30483812967,2011-01-12 07:10:55,2131.076061871896,2,18,0.550297200679779,4.023359775543213,12.68115024659107,12.35782278894956,51.20040923591054,44.177677184246974,6.47544875391759e-05,0.1022060960531234,0,0,0
4213,156225.32005651435,2011-01-12 07:11:25,2161.0912802415246,2,18,0.550297200679779,4.025626182556152,12.6857375815158,12.35782278894956,51.21887060850528,44.177677184246974,6.47544875391759e-05,0.1022060960531234,0,0,0
4214,156255.33511854432,2011-01-12 07:11:55,2191.1063422664947,2,18,0.550297200679779,4.028216361999512,12.690324825507886,12.35782278894956,51.237342520427,44.177677184246974,9.71794142969884e-05,0.1022060960531234,0,0,0
4215,156285.35015723112,2011-01-12 07:12:25,2221.1213809583114,2,18,0.5501165986061096,4.030482769012451,12.6949121389693,12.35782278894956,51.25582578596788,44.177677184246974,6.47544875391759e-05,0.1022060960531234,0,0,0
4216,156315.36530023292,2011-01-12 07:12:55,2251.1365239651127,2,18,0.5501165986061096,4.0329108238220215,12.699499375541548,12.35782278894956,51.27431990566672,44.177677184246974,6.47544875391759e-05,0.1022060960531234,0,0,0
4217,156345.38069888687,2011-01-12 07:13:25,2281.151922694253,2,18,0.550297200679779,4.035177230834961,12.704086670971709,12.35782278894956,51.292825521758886,44.177677184246974,3.24249267578125e-05,0.1022060960531234,0,0,0
4218,156375.39563172485,2011-01-12 07:13:55,2311.1668554570624,2,18,0.5501165986061096,4.037929058074951,12.708673846159073,12.35782278894956,51.31134202967734,44.177677184246974,0.0001295089750783,0.1022060960531234,0,0,0
4219,156405.4108547611,2011-01-12 07:14:25,2341.182078478284,2,18,0.550297200679779,4.04035758972168,12.713261140342397,12.35782278894956,51.32987048894552,44.177677184246974,9.71794142969884e-05,0.1022060960531234,0,0,0
4220,156435.42592187377,2011-01-12 07:14:55,2371.197145621009,2,18,0.5499359965324402,4.04278564453125,12.717848388332682,12.35782278894956,51.34841036686938,44.177677184246974,3.23295607813634e-05,0.1022060960531234,0,0,0
4221,156465.44107062987,2011-01-12 07:15:25,2401.21229437714,2,18,0.550297200679779,4.045375823974609,12.72243563397872,12.35782278894956,51.36696197776013,44.177677184246974,6.47544875391759e-05,0.1022060960531234,0,0,0
4222,156495.45622424313,2011-01-12 07:15:55,2431.227447985364,2,18,0.5504778623580933,4.048128128051758,12.727022916805163,12.35782278894956,51.38552553709116,44.177677184246974,6.47544875391759e-05,0.1022060960531234,0,0,0
4223,156525.47145616656,2011-01-12 07:16:25,2461.2426798887227,2,18,0.5501165986061096,4.050556182861328,12.73161026130414,12.35782278894956,51.40410122029997,44.177677184246974,6.47544875391759e-05,0.1022060960531234,0,0,0
4224,156555.48653429665,2011-01-12 07:16:55,2491.2577580438942,2,18,0.5501165986061096,4.053308486938477,12.73619758104806,12.35782278894956,51.42268884412682,44.177677184246974,6.47544875391759e-05,0.1022060960531234,0,0,0
4225,156585.50183459546,2011-01-12 07:17:25,2521.273058317653,2,18,0.550297200679779,4.055898666381836,12.74078493138637,12.35782278894956,51.44128874152245,44.177677184246974,9.71794142969884e-05,0.1022060960531234,0,0,0
4226,156615.51683684147,2011-01-12 07:17:55,2551.288060588698,2,18,0.5501165986061096,4.058650493621826,12.745372255105998,12.35782278894956,51.45990075762568,44.177677184246974,9.70840483205393e-05,0.1022060960531234,0,0,0
4227,156645.53213543602,2011-01-12 07:18:25,2581.303359173247,2,18,0.5501165986061096,4.061079025268555,12.749959574544604,12.35782278894956,51.478524993591705,44.177677184246974,6.47544875391759e-05,0.1022060960531234,0,0,0
4228,156675.5471528398,2011-01-12 07:18:55,2611.318376587032,2,18,0.5501165986061096,4.063992977142334,12.75454680521419,12.35782278894956,51.49716128763469,44.177677184246974,3.24249267578125e-05,0.1022060960531234,0,0,0
4229,156705.56231463843,2011-01-12 07:19:25,2641.333538385669,2,18,0.5501165986061096,4.066744804382324,12.759134095354227,12.35782278894956,51.51581041896505,44.177677184246974,6.47544875391759e-05,0.1022060960531234,0,0,0
4230,156735.57742956525,2011-01-12 07:19:55,2671.3486533074743,2,18,0.5501165986061096,4.069497108459473,12.76372135328835,12.35782278894956,51.534472157494136,44.177677184246974,6.47544875391759e-05,0.1022060960531234,0,0,0
4231,156765.5928051166,2011-01-12 07:20:25,2701.364028848823,2,18,0.5499359965324402,4.072248935699463,12.768308686359063,12.35782278894956,51.55314706820075,44.177677184246974,6.47544875391759e-05,0.1022060960531234,0,0,0
4232,156795.6077901898,2011-01-12 07:20:55,2731.3790139069683,2,18,0.5501165986061096,4.075325012207031,12.772895904068497,12.35782278894956,51.57183447208406,44.177677184246974,6.47544875391759e-05,0.1022060960531234,0,0,0
4233,156825.62289767808,2011-01-12 07:21:25,2761.394121405272,2,18,0.5501165986061096,4.0780768394470215,12.777483200692302,12.35782278894956,51.59053538525627,44.177677184246974,6.47544875391759e-05,0.1022060960531234,0,0,0
4234,156855.6403385519,2011-01-12 07:21:55,2791.4115622941026,2,18,0.550297200679779,4.08115291595459,12.782070836988446,12.35782278894956,51.60925088351305,44.177677184246974,0.0001619339018361,0.1022060960531234,0,0,0
4235,156885.65335949988,2011-01-12 07:22:25,2821.4245832220304,2,18,0.5501165986061096,4.083743095397949,12.786657768872098,12.35782278894956,51.62797680032526,44.177677184246974,6.47544875391759e-05,0.1022060960531234,0,0,0
4236,156915.66835977594,2011-01-12 07:22:55,2851.439583518153,2,18,0.550297200679779,4.086818695068359,12.791244994012962,12.35782278894956,51.6467175037524,44.177677184246974,9.70840483205393e-05,0.1022060960531234,0,0,0
4237,156945.68363672154,2011-01-12 07:23:25,2881.4548604387087,2,18,0.5501165986061096,4.089732646942139,12.795832277012323,12.35782278894956,51.66547211326847,44.177677184246974,6.47544875391759e-05,0.1022060960531234,0,0,0
4238,156975.69866228566,2011-01-12 07:23:55,2911.469886027869,2,18,0.5501165986061096,4.092970371246338,12.80041952324466,12.35782278894956,51.68424043199031,44.177677184246974,6.47544875391759e-05,0.1022060960531234,0,0,0
4239,157005.71398615823,2011-01-12 07:24:25,2941.4852098753818,2,18,0.5501165986061096,4.095884323120117,12.8050068662841,12.35782278894956,51.70302300385583,44.177677184246974,6.47544875391759e-05,0.1022060960531234,0,0,0
4240,157035.72897577775,2011-01-12 07:24:56,2971.5001995199573,2,18,0.550297200679779,4.099122047424316,12.809594124346235,12.35782278894956,51.72181920137751,44.177677184246974,9.70840483205393e-05,0.1022060960531234,0,0,0
4241,157065.7442593649,2011-01-12 07:25:26,3001.515483077053,2,18,0.5501165986061096,4.102035999298096,12.814181428096314,12.35782278894956,51.74062972124887,44.177677184246974,6.47544875391759e-05,0.1022060960531234,0,0,0
4242,157095.7592850042,2011-01-12 07:25:56,3031.530508746414,2,18,0.5501165986061096,4.105112075805664,12.818768688541471,12.35782278894956,51.759454252083714,44.177677184246974,3.24249267578125e-05,0.1022060960531234,0,0,0
4243,157125.77435310933,2011-01-12 07:26:26,3061.5455768515376,2,18,0.5501165986061096,4.108349800109863,12.823355989566888,12.35782278894956,51.77829358353753,44.177677184246974,6.47544875391759e-05,0.1022060960531234,0,0,0
4244,157155.78957027092,2011-01-12 07:26:56,3091.5607940131563,2,18,0.5501165986061096,4.111587524414063,12.827943312292463,12.35782278894956,51.79714759516621,44.177677184246974,6.47544875391759e-05,0.1022060960531234,0,0,0
4245,157185.804751503,2011-01-12 07:27:26,3121.575975245227,2,18,0.5501165986061096,4.114663124084473,12.832530577297687,12.35782278894956,51.81601595006946,44.177677184246974,6.47544875391759e-05,0.1022060960531234,0,0,0
4246,157215.81990099596,2011-01-12 07:27:56,3151.5911247381937,2,18,0.550297200679779,4.118062496185303,12.837117885014376,12.35782278894956,51.83489928953198,44.177677184246974,9.70840483205393e-05,0.1022060960531234,0,0,0
4247,157245.83502133127,2011-01-12 07:28:26,3181.6062450684785,2,18,0.550297200679779,4.121462345123291,12.841705165163605,12.35782278894956,51.85379738129926,44.177677184246974,0.0001295089750783,0.1022060960531234,0,0,0
4248,157275.85018622762,2011-01-12 07:28:56,3211.621409969848,2,18,0.550297200679779,4.12470006942749,12.84629247831172,12.35782278894956,51.87271058148019,44.177677184246974,9.71794142969884e-05,0.1022060960531234,0,0,0
4249,157305.86544524858,2011-01-12 07:29:26,3241.6366689707424,2,18,0.550297200679779,4.1279377937316895,12.850879823427096,12.35782278894956,51.89163905933239,44.177677184246974,0.0001295089750783,0.1022060960531234,0,0,0
4250,157335.88047705824,2011-01-12 07:29:56,3271.6517008004566,2,18,0.550297200679779,4.13133716583252,12.855467123578808,12.35782278894956,51.91058259044972,44.177677184246974,0.0001295089750783,0.1022060960531234,0,0,0
4251,157365.8956322504,2011-01-12 07:30:26,3301.666855992628,2,18,0.5501165986061096,4.134413242340088,12.860054496026462,12.35782278894956,51.929541905155,44.177677184246974,3.24249267578125e-05,0.1022060960531234,0,0,0
4252,157395.91078103663,2011-01-12 07:30:56,3331.682004783846,2,18,0.5501165986061096,4.138136386871338,12.864641852763606,12.35782278894956,51.948516736181936,44.177677184246974,6.47544875391759e-05,0.1022060960531234,0,0,0
4253,157425.92607303473,2011-01-12 07:31:26,3361.697296756917,2,18,0.5501165986061096,4.141374111175537,12.869229352460689,12.35782278894956,51.96750788562432,44.177677184246974,6.47544875391759e-05,0.1022060960531234,0,0,0
4254,157455.94110613764,2011-01-12 07:31:56,3391.712329884867,2,18,0.550297200679779,4.144935607910156,12.873816751467524,12.35782278894956,51.98651440997423,44.177677184246974,6.47544875391759e-05,0.1022060960531234,0,0,0
4255,157485.95625439755,2011-01-12 07:32:26,3421.7274781247106,2,18,0.5501165986061096,4.1483354568481445,12.878404161459946,12.35782278894956,52.00553715351515,44.177677184246974,6.47544875391759e-05,0.1022060960531234,0,0,0
4256,157515.9713925422,2011-01-12 07:32:56,3451.742616284432,2,18,0.550297200679779,4.151896953582764,12.88299155252173,12.35782278894956,52.02457573810892,44.177677184246974,6.47544875391759e-05,0.1022060960531234,0,0,0
4257,157545.9865469825,2011-01-12 07:33:26,3481.757770724729,2,18,0.550297200679779,4.155458450317383,12.887578916274418,12.35782278894956,52.04363029857503,44.177677184246974,9.71794142969884e-05,0.1022060960531234,0,0,0
4258,157576.00169786395,2011-01-12 07:33:56,3511.772921606157,2,18,0.5501165986061096,4.158857822418213,12.892166330821656,12.35782278894956,52.06270137559834,44.177677184246974,3.23295607813634e-05,0.1022060960531234,0,0,0
4259,157606.0190990037,2011-01-12 07:34:26,3541.790322821108,2,18,0.5499359965324402,4.162581443786621,12.896754088644997,12.35782278894956,52.08179022465742,44.177677184246974,9.71794142969884e-05,0.1022060960531234,0,0,0
4260,157636.03203677936,2011-01-12 07:34:56,3571.803260521608,2,18,0.5501165986061096,4.16614294052124,12.901341224143051,12.35782278894956,52.1008929030742,44.177677184246974,6.47544875391759e-05,0.1022060960531234,0,0,0
4261,157666.0472847979,2011-01-12 07:35:26,3601.8185085200807,2,18,0.5501165986061096,4.16986608505249,12.905928678756348,12.35782278894956,52.12001366805955,44.177677184246974,0.0001295089750783,0.1022060960531234,0,0,0
4262,157696.06231913387,2011-01-12 07:35:56,3631.833542881104,2,18,0.5501165986061096,4.173589706420898,12.910516059761989,12.35782278894956,52.13915102115722,44.177677184246974,9.71794142969884e-05,0.1022060960531234,0,0,0
4263,157726.07767951745,2011-01-12 07:36:26,3661.8489032496377,2,18,0.5501165986061096,4.177151203155518,12.915103485042469,12.35782278894956,52.15830552423829,44.177677184246974,9.71794142969884e-05,0.1022060960531234,0,0,0
4264,157756.09263620488,2011-01-12 07:36:56,3691.863859927049,2,18,0.5501165986061096,4.181036472320557,12.919690875731195,12.35782278894956,52.177476929692666,44.177677184246974,0.0001295089750783,0.1022060960531234,0,0,0
4265,157786.10777912647,2011-01-12 07:37:26,3721.8790028737008,2,18,0.5501165986061096,4.184759616851807,12.924278315229534,12.35782278894956,52.196665833804815,44.177677184246974,9.70840483205393e-05,0.1022060960531234,0,0,0
4266,157816.12292743145,2011-01-12 07:37:56,3751.8941511736944,2,18,0.550297200679779,4.188644886016846,12.928865708262204,12.35782278894956,52.21587179615998,44.177677184246974,0.0001618385285837,0.1022060960531234,0,0,0
4267,157846.13812589648,2011-01-12 07:38:26,3781.9093496286905,2,18,0.550297200679779,4.192530155181885,12.93345310003384,12.35782278894956,52.23509526022498,44.177677184246974,9.70840483205393e-05,0.1022060960531234,0,0,0
4268,157876.15326824164,2011-01-12 07:38:56,3811.924491958805,2,18,0.550297200679779,4.196253299713135,12.938040502241584,12.35782278894956,52.25433632134488,44.177677184246974,0.0001295089750783,0.1022060960531234,0,0,0
4269,157904.24655283595,2011-01-12 07:39:24,3840.017776583177,2,18,0.5504778623580933,4.200138568878174,12.942334171872105,12.35782278894956,52.2723614312734,44.177677184246974,0.0001618385285837,0.1022060960531234,0,0,0
4270,157934.26822762922,2011-01-12 07:39:54,30.01526827901848,3,18,0.0,4.101064682006836,12.942334171872105,12.35782278894956,52.2723614312734,44.177677184246974,-0.0004532813909463,0.1022060960531234,0,0,0
4271,157964.28328638105,2011-01-12 07:40:24,60.030327055893146,3,18,0.0,4.088275909423828,12.942334171872105,12.35782278894956,52.2723614312734,44.177677184246974,-0.0002590179501567,0.1022060960531234,0,0,0
4272,157994.29845783874,2011-01-12 07:40:54,90.04549851360314,3,18,0.0,4.08050537109375,12.942334171872105,12.35782278894956,52.2723614312734,44.177677184246974,-0.0001295089750783,0.1022060960531234,0,0,0
4273,158024.26680922142,2011-01-12 07:41:24,120.01384987622998,3,18,0.0,4.075162887573242,12.942334171872105,12.35782278894956,52.2723614312734,44.177677184246974,-0.0001295089750783,0.1022060960531234,0,0,0
4274,158024.27498535122,2011-01-12 07:41:24,2.646596132e-06,4,18,1.0281894207000732,4.199814796447754,12.942334172627994,12.35782278894956,52.272361434448,44.177677184246974,0.0,0.1022060960531234,0,0,0
4275,158025.00934041,2011-01-12 07:41:25,0.734357760495389,4,18,0.9772575497627258,4.199814796447754,12.94253740277011,12.35782278894956,52.27321495639072,44.177677184246974,0.0,0.1022060960531234,0,0,0
4276,158026.83744142525,2011-01-12 07:41:27,2.56245875065548,4,18,0.9268675446510316,4.199814796447754,12.943019904409454,12.35782278894956,52.27524136531402,44.177677184246974,0.0,0.1022060960531234,0,0,0
4277,158029.6186478073,2011-01-12 07:41:30,5.343665147752861,4,18,0.8766582012176514,4.199814796447754,12.94371546508863,12.35782278894956,52.27816258333423,44.177677184246974,0.0,0.1022060960531234,0,0,0
4278,158033.39981676877,2011-01-12 07:41:33,9.124834104229,4,18,0.826268196105957,4.199814796447754,12.944608718895118,12.35782278894956,52.28191408610019,44.177677184246974,0.0,0.1022060960531234,0,0,0
4279,158038.44662035117,2011-01-12 07:41:38,14.171637701656437,4,18,0.7760587930679321,4.199976921081543,12.94573076031672,12.35782278894956,52.28662647698459,44.177677184246974,3.24249267578125e-05,0.1022060960531234,0,0,0
4280,158044.88402443286,2011-01-12 07:41:45,20.60904178336778,4,18,0.7260300517082214,4.199653148651123,12.94707226369883,12.35782278894956,52.292260576318185,44.177677184246974,-3.23295607813634e-05,0.1022060960531234,0,0,0
4281,158053.3688446255,2011-01-12 07:41:53,29.093861960964247,4,18,0.676001250743866,4.199814796447754,12.948722317936074,12.35782278894956,52.299190537210286,44.177677184246974,-3.24249267578125e-05,0.1022060960531234,0,0,0
4282,158064.94620111515,2011-01-12 07:42:05,40.671218470649926,4,18,0.6259725093841553,4.199653148651123,12.950812051128576,12.35782278894956,52.30796709899754,44.177677184246974,-3.23295607813634e-05,0.1022060960531234,0,0,0
4283,158082.16466994246,2011-01-12 07:42:22,57.889687292945496,4,18,0.5757631063461304,4.199814796447754,12.95367829258372,12.35782278894956,52.32000488134756,44.177677184246974,0.0,0.1022060960531234,0,0,0
4284,158110.99234588596,2011-01-12 07:42:51,86.71736324146335,4,18,0.5257343649864197,4.199653148651123,12.958070392030944,12.35782278894956,52.338451048818605,44.177677184246974,-3.23295607813634e-05,0.1022060960531234,0,0,0
4285,158166.28834670415,2011-01-12 07:43:46,142.01336405965637,4,18,0.4757055938243866,4.199653148651123,12.965722133816667,12.35782278894956,52.37058718092407,44.177677184246974,-3.23295607813634e-05,0.1022060960531234,0,0,0
4286,158263.99005954963,2011-01-12 07:45:24,239.71507687004527,4,18,0.4256768226623535,4.199814796447754,12.97791441879508,12.35782278894956,52.42179296505193,44.177677184246974,-3.24249267578125e-05,0.1022060960531234,0,0,0
4287,158392.01929871223,2011-01-12 07:47:32,367.744316057713,4,18,0.3756480515003204,4.199814796447754,12.992142426043252,12.35782278894956,52.48154785714008,44.177677184246974,0.0,0.1022060960531234,0,0,0
4288,158550.79795269293,2011-01-12 07:50:11,526.5229700484284,4,18,0.3256192803382873,4.199653148651123,13.007588386055811,12.35782278894956,52.54641849750138,44.177677184246974,-3.23295607813634e-05,0.1022060960531234,0,0,0
4289,158739.82621962667,2011-01-12 07:53:20,715.551236952096,4,18,0.2755905091762543,4.199976921081543,13.023343832560272,12.35782278894956,52.612588995941465,44.177677184246974,0.0,0.1022060960531234,0,0,0
4290,158976.68187939448,2011-01-12 07:57:17,952.406896739952,4,18,0.2255617380142212,4.199653148651123,13.039793933795968,12.35782278894956,52.6816768614276,44.177677184246974,-3.23295607813634e-05,0.1022060960531234,0,0,0
4291,159281.61458618025,2011-01-12 08:02:22,1257.3396035307226,4,18,0.1755329668521881,4.199653148651123,13.056706525181683,12.35782278894956,52.75270710422723,44.177677184246974,-3.23295607813634e-05,0.1022060960531234,0,0,0
4292,159704.967294206,2011-01-12 08:09:25,1680.6923115615073,4,18,0.1255042105913162,4.199814796447754,13.074270006451211,12.35782278894956,52.82647103494358,44.177677184246974,0.0,0.1022060960531234,0,0,0
4293,160422.83105077854,2011-01-12 08:21:23,2398.556068113992,4,18,0.0754754319787025,4.199814796447754,13.093849094084868,12.35782278894956,52.9087001703355,44.177677184246974,0.0,0.1022060960531234,0,0,0
4294,161093.86733533235,2011-01-12 08:32:34,3069.592352687853,4,18,0.0496483072638511,4.199653148651123,13.105384570142872,12.35782278894956,52.957147357818265,44.177677184246974,-3.23295607813634e-05,0.1022060960531234,0,0,0
4295,161123.8764930351,2011-01-12 08:33:04,30.015108676239244,5,18,0.0,4.190749645233154,13.105384570142872,12.35782278894956,52.957147357818265,44.177677184246974,-6.47544875391759e-05,0.1022060960531234,0,0,0
4296,161153.8760219718,2011-01-12 08:33:34,60.01463761798637,5,18,0.0,4.189454555511475,13.105384570142872,12.35782278894956,52.957147357818265,44.177677184246974,0.0,0.1022060960531234,0,0,0
4297,161154.058439389,2011-01-12 08:33:34,0.187421236389155,6,18,-1.9243103452026844e-05,4.1892924308776855,13.105384570142872,12.357822789951385,52.957147357818265,44.17767718844391,0.0,0.102924108505249,0,0,0
4298,161158.88660234667,2011-01-12 08:33:39,5.015584184043307,6,18,0.0010644125286489,4.189130783081055,13.105385662765888,12.357822790130648,52.95715193522295,44.17767718919491,-3.23295607813634e-05,0.102924108505249,0,0,0
4299,161186.84996503944,2011-01-12 08:34:07,27.96842777769209,7,18,-1.0997490882873535,3.988878011703491,13.105385662765888,12.36636532498706,52.95715193522295,44.21197247689978,-0.0012626647949218,0.102924108505249,0,0,0
4300,161216.8649898717,2011-01-12 08:34:37,57.98345261497887,7,18,-1.099568486213684,3.950349092483521,13.105385662765888,12.375532888642253,52.95715193522295,44.24835523651319,-0.0009065627818927,0.102924108505249,0,0,0
4301,161246.88026943887,2011-01-12 08:35:07,87.99873217711837,7,18,-1.099568486213684,3.922019004821777,13.105385662765888,12.384700537370737,52.95715193522295,44.28443474102503,-0.0006799221155233,0.102924108505249,0,0,0
4302,161276.89543576378,2011-01-12 08:35:37,118.01389850203584,7,18,-1.0997490882873535,3.899517059326172,13.105385662765888,12.393868111281988,52.95715193522295,44.32028368242631,-0.0005504131549969,0.102924108505249,0,0,0
4303,161306.91047560846,2011-01-12 08:36:07,148.0289383517382,7,18,-1.099568486213684,3.881062030792236,13.105385662765888,12.403035618481873,52.95715193522295,44.35594553329982,-0.0004532813909463,0.102924108505249,0,0,0
4304,161336.9255990465,2011-01-12 08:36:37,178.04406178976834,7,18,-1.099929690361023,3.86454963684082,13.105385662765888,12.412203209552434,52.95715193522295,44.39144849736785,-0.0004532813909463,0.102924108505249,0,0,0
4305,161366.9407530858,2011-01-12 08:37:07,208.0592158340788,7,18,-1.0997490882873535,3.849494218826294,13.105385662765888,12.4213707946073,52.95715193522295,44.42680837699649,-0.0004209041653666,0.102924108505249,0,0,0
4306,161396.95611899314,2011-01-12 08:37:37,238.07458174141703,7,18,-1.099568486213684,3.835895776748657,13.105385662765888,12.430538495894076,52.95715193522295,44.46203684709098,-0.0003561496851034,0.102924108505249,0,0,0
4307,161426.9710963621,2011-01-12 08:38:07,268.0895590953608,7,18,-1.099568486213684,3.8227832317352295,13.105385662765888,12.439706018433125,52.95715193522295,44.497141469690455,-0.0003237724304199,0.102924108505249,0,0,0
4308,161456.98634449593,2011-01-12 08:38:37,298.1048072341836,7,18,-1.0993878841400146,3.8099942207336426,13.105385662765888,12.448873608848604,52.95715193522295,44.53212858805828,-0.0003237724304199,0.102924108505249,0,0,0
4309,161487.003631827,2011-01-12 08:39:07,328.1220945703137,7,18,-1.099568486213684,3.798176527023315,13.105385662765888,12.458041883834571,52.95715193522295,44.56700543735716,-0.0003237724304199,0.102924108505249,0,0,0
4310,161517.01657116663,2011-01-12 08:39:37,358.13503390488603,7,18,-1.099568486213684,3.786682605743408,13.105385662765888,12.46720879107724,52.95715193522295,44.60176972733454,-0.0002913951757363,0.102924108505249,0,0,0
4311,161547.03171277494,2011-01-12 08:40:07,388.1501754931522,7,18,-1.099568486213684,3.775512456893921,13.105385662765888,12.476376346441072,52.95715193522295,44.63643287698132,-0.0002913951757363,0.102924108505249,0,0,0
4312,161577.04695472334,2011-01-12 08:40:37,418.1654174615966,7,18,-1.099568486213684,3.764827966690064,13.105385662765888,12.485543946353992,52.95715193522295,44.67099620973777,-0.0002913951757363,0.102924108505249,0,0,0
4313,161607.06198387136,2011-01-12 08:41:07,448.18044661965206,7,18,-1.099568486213684,3.754467248916626,13.105385662765888,12.494711537040672,52.95715193522295,44.7054633768449,-0.0002913951757363,0.102924108505249,0,0,0
4314,161637.07729853096,2011-01-12 08:41:37,478.19576126422777,7,18,-1.099568486213684,3.744430541992188,13.105385662765888,12.503879152460238,52.95715193522295,44.73983761553693,-0.0003237724304199,0.102924108505249,0,0,0
4315,161667.09229240107,2011-01-12 08:42:08,508.21075513934727,7,18,-1.099568486213684,3.7350411415100098,13.105385662765888,12.513046551806944,52.95715193522295,44.77412109008333,-0.0002266406954731,0.102924108505249,0,0,0
4316,161697.1074428364,2011-01-12 08:42:38,538.2259055696504,7,18,-1.0993878841400146,3.725651741027832,13.105385662765888,12.522213994106584,52.95715193522295,44.80831734824151,-0.0002266406954731,0.102924108505249,0,0,0
4317,161727.12268833362,2011-01-12 08:43:08,568.2411510568647,7,18,-1.099568486213684,3.7162623405456543,13.105385662765888,12.531381449495177,52.95715193522295,44.84242839778498,-0.0002266406954731,0.102924108505249,0,0,0
4318,161757.13788864325,2011-01-12 08:43:38,598.2563513815201,7,18,-1.0993878841400146,3.707520484924317,13.105385662765888,12.540548939626914,52.95715193522295,44.876456231055165,-0.0001942634553415,0.102924108505249,0,0,0
4319,161787.15290551068,2011-01-12 08:44:08,628.271368243931,7,18,-1.099568486213684,3.698616743087769,13.105385662765888,12.549716545801182,52.95715193522295,44.9104037428313,-0.0001942634553415,0.102924108505249,0,0,0
4320,161817.16817588994,2011-01-12 08:44:38,658.286638613159,7,18,-1.099568486213684,3.6900367736816406,13.105385662765888,12.558884177424748,52.95715193522295,44.94427223148635,-0.0002266406954731,0.102924108505249,0,0,0
4321,161847.1832059803,2011-01-12 08:45:08,688.3016687185755,7,18,-1.0993878841400146,3.6817805767059326,13.105385662765888,12.568051697183863,52.95715193522295,44.97806272880194,-0.0001942634553415,0.102924108505249,0,0,0
4322,161877.19837155836,2011-01-12 08:45:38,718.3168342916191,7,18,-1.099568486213684,3.6735243797302246,13.105385662765888,12.577219299893398,52.95715193522295,45.01177710281469,-0.0002266406954731,0.102924108505249,0,0,0
4323,161907.21351312156,2011-01-12 08:46:08,748.3319758598353,7,18,-1.0997490882873535,3.665268421173096,13.105385662765888,12.586386915627646,52.95715193522295,45.04541620051661,-0.0001942634553415,0.102924108505249,0,0,0
4324,161937.22881244795,2011-01-12 08:46:38,778.3472751711959,7,18,-1.099568486213684,3.657335996627808,13.105385662765888,12.595554579860684,52.95715193522295,45.07898221629807,-0.0002266406954731,0.102924108505249,0,0,0
4325,161967.24382813246,2011-01-12 08:47:08,808.362290895771,7,18,-1.099568486213684,3.64972734451294,13.105385662765888,12.604722146368916,52.95715193522295,45.112475986953726,-0.0001942634553415,0.102924108505249,0,0,0
4326,161997.25897416682,2011-01-12 08:47:38,838.3774368850056,7,18,-1.099568486213684,3.641956806182861,13.105385662765888,12.613889660550925,52.95715193522295,45.14589856155495,-0.0001942634553415,0.102924108505249,0,0,0
4327,162027.27424663125,2011-01-12 08:48:08,868.3927093695055,7,18,-1.099568486213684,3.634510040283203,13.105385662765888,12.62305729342308,52.95715193522295,45.17925187721221,-0.0002266406954731,0.102924108505249,0,0,0
4328,162057.28926857634,2011-01-12 08:48:38,898.407731314584,7,18,-1.099568486213684,3.627225160598755,13.105385662765888,12.63222480891262,52.95715193522295,45.21253737334696,-0.0001942634553415,0.102924108505249,0,0,0
4329,162087.30457600293,2011-01-12 08:49:08,928.4230387261327,7,18,-1.099568486213684,3.619940280914306,13.105385662765888,12.641392439339796,52.95715193522295,45.24575727697264,-0.0001942634553415,0.102924108505249,0,0,0
4330,162117.31959390792,2011-01-12 08:49:38,958.4380566461798,7,18,-1.099568486213684,3.613302946090698,13.105385662765888,12.650559963343852,52.95715193522295,45.27891251176571,-0.0001618862152099,0.102924108505249,0,0,0
4331,162147.33476108496,2011-01-12 08:50:08,988.4532238232208,7,18,-1.099568486213684,3.60634183883667,13.105385662765888,12.659727898014122,52.95715193522295,45.31200616393916,-0.0001618862152099,0.102924108505249,0,0,0
4332,162177.34988695403,2011-01-12 08:50:38,1018.46834969231,7,18,-1.099568486213684,3.599542617797852,13.105385662765888,12.668896184308297,52.95715193522295,45.34503897547643,-0.0001942634553415,0.102924108505249,0,0,0
4333,162207.36506398063,2011-01-12 08:51:08,1048.4835267188994,7,18,-1.099568486213684,3.593390941619873,13.105385662765888,12.6780641728076,52.95715193522295,45.37801064380177,-0.0001295089750783,0.102924108505249,0,0,0
4334,162237.38236992815,2011-01-12 08:51:38,1078.500832851877,7,18,-1.099568486213684,3.5869157314300537,13.105385662765888,12.687232472954191,52.95715193522295,45.41092489483922,-0.0001295089750783,0.102924108505249,0,0,0
4335,162267.3953742547,2011-01-12 08:52:08,1108.5138369929673,7,18,-1.099568486213684,3.580764055252075,13.105385662765888,12.696399441177094,52.95715193522295,45.44377712660558,-0.0001295089750783,0.102924108505249,0,0,0
4336,162297.41053470498,2011-01-12 08:52:38,1138.5289974432433,7,18,-1.099568486213684,3.5746123790740967,13.105385662765888,12.705567077081112,52.95715193522295,45.47657613674467,-0.0001942634553415,0.102924108505249,0,0,0
4337,162327.4258044777,2011-01-12 08:53:08,1168.5442672159843,7,18,-1.099568486213684,3.568784475326538,13.105385662765888,12.714734774973,52.95715193522295,45.50932090419823,-0.0001618862152099,0.102924108505249,0,0,0
4338,162357.44086729968,2011-01-12 08:53:38,1198.5593300379408,7,18,-1.099568486213684,3.5632803440093994,13.105385662765888,12.723902442290925,52.95715193522295,45.54201288304993,-0.0001295089750783,0.102924108505249,0,0,0
4339,162387.45600230654,2011-01-12 08:54:08,1228.5744650397914,7,18,-1.099568486213684,3.5577762126922607,13.105385662765888,12.73307010347675,52.95715193522295,45.57465427402527,-0.0001295089750783,0.102924108505249,0,0,0
4340,162417.47113393497,2011-01-12 08:54:38,1258.5895966732471,7,18,-1.099568486213684,3.552272081375122,13.105385662765888,12.74223779359442,52.95715193522295,45.607245300055176,-0.0001618862152099,0.102924108505249,0,0,0
4341,162447.48628243047,2011-01-12 08:55:08,1288.6047451687282,7,18,-1.0997490882873535,3.5469298362731934,13.105385662765888,12.751405453146353,52.95715193522295,45.63978693810192,-9.713172767078504e-05,0.102924108505249,0,0,0
4342,162477.50145191327,2011-01-12 08:55:38,1318.6199146515162,7,18,-1.099568486213684,3.5417494773864746,13.105385662765888,12.76057312736007,52.95715193522295,45.67228037672024,-0.0001618862152099,0.102924108505249,0,0,0
4343,162507.5165976669,2011-01-12 08:56:08,1348.6350604051636,7,18,-1.099568486213684,3.536892890930176,13.105385662765888,12.769740766714532,52.95715193522295,45.70472732734808,-9.713172767078504e-05,0.102924108505249,0,0,0
4344,162537.53175297435,2011-01-12 08:56:38,1378.6502157126222,7,18,-1.0997490882873535,3.531874418258667,13.105385662765888,12.778908423319272,52.95715193522295,45.73712915671711,-0.0001295089750783,0.102924108505249,0,0,0
4345,162567.54691769028,2011-01-12 08:57:08,1408.665380423517,7,18,-1.099568486213684,3.527179718017578,13.105385662765888,12.788076077337864,52.95715193522295,45.7694869705858,-9.713172767078504e-05,0.102924108505249,0,0,0
4346,162597.56205771465,2011-01-12 08:57:38,1438.680520452898,7,18,-1.0993878841400146,3.5223231315612797,13.105385662765888,12.797243764332674,52.95715193522295,45.80180087638292,-0.0001295089750783,0.102924108505249,0,0,0
4347,162627.5772359242,2011-01-12 08:58:08,1468.695698657423,7,18,-1.0997490882873535,3.5174665451049805,13.105385662765888,12.806411412017088,52.95715193522295,45.83407128460034,-0.0002266406954731,0.102924108505249,0,0,0
4348,162657.59247732122,2011-01-12 08:58:38,1498.710940059456,7,18,-1.0993878841400146,3.5130956172943115,13.105385662765888,12.815579200492074,52.95715193522295,45.86629932576726,-0.0001295089750783,0.102924108505249,0,0,0
4349,162687.60763405723,2011-01-12 08:59:08,1528.7260967954749,7,18,-1.0993878841400146,3.508563041687012,13.105385662765888,12.824746863279742,52.95715193522295,45.89848464204546,-9.713172767078504e-05,0.102924108505249,0,0,0
4350,162717.62267732542,2011-01-12 08:59:38,1558.7411400586846,7,18,-1.099568486213684,3.503868341445923,13.105385662765888,12.833914505601074,52.95715193522295,45.93062746355689,-9.713172767078504e-05,0.102924108505249,0,0,0
4351,162747.63781015688,2011-01-12 09:00:08,1588.7562728951386,7,18,-1.099568486213684,3.499173641204834,13.105385662765888,12.843082228112587,52.95715193522295,45.962728999174885,-0.0001618862152099,0.102924108505249,0,0,0
4352,162777.65333596274,2011-01-12 09:00:38,1618.7717987009933,7,18,-1.099568486213684,3.494802713394165,13.105385662765888,12.852250059973532,52.95715193522295,45.99478959784141,-0.0001295089750783,0.102924108505249,0,0,0
4353,162807.66811794977,2011-01-12 09:01:08,1648.7865806880225,7,18,-1.099568486213684,3.490108013153076,13.105385662765888,12.861417632011532,52.95715193522295,46.02680668224036,-0.0001295089750783,0.102924108505249,0,0,0
4354,162837.68341466965,2011-01-12 09:01:38,1678.8018773928868,7,18,-1.099568486213684,3.4852514266967773,13.105385662765888,12.870585367783208,52.95715193522295,46.05878032430896,-0.0001295089750783,0.102924108505249,0,0,0
4355,162867.6984399631,2011-01-12 09:02:08,1708.8169026963355,7,18,-1.099568486213684,3.480232954025269,13.105385662765888,12.879752993053325,52.95715193522295,46.09070970757264,-0.0001942634553415,0.102924108505249,0,0,0
4356,162897.71382633643,2011-01-12 09:02:38,1738.8322890596564,7,18,-1.099568486213684,3.47521448135376,13.105385662765888,12.888920679812683,52.95715193522295,46.122593726003096,-0.0001618862152099,0.102924108505249,0,0,0
4357,162927.72886070245,2011-01-12 09:03:08,1768.847323425692,7,18,-1.099568486213684,3.470034122467041,13.105385662765888,12.898088368786077,52.95715193522295,46.15443021252209,-0.0001618862152099,0.102924108505249,0,0,0
4358,162957.74393020105,2011-01-12 09:03:38,1798.8623929242883,7,18,-1.099568486213684,3.4648537635803223,13.105385662765888,12.907255942892606,52.95715193522295,46.186218067759306,-0.0001295089750783,0.102924108505249,0,0,0
4359,162987.75919914673,2011-01-12 09:04:08,1828.8776618699685,7,18,-1.099568486213684,3.4591877460479736,13.105385662765888,12.916423655992562,52.95715193522295,46.21795654941888,-0.0001618862152099,0.102924108505249,0,0,0
4360,163017.77419613462,2011-01-12 09:04:38,1858.8926588628583,7,18,-1.0997490882873535,3.453036069869995,13.105385662765888,12.925591282721012,52.95715193522295,46.249641555022286,-0.0001618862152099,0.102924108505249,0,0,0
4361,163047.78945186737,2011-01-12 09:05:08,1888.9079146056324,7,18,-1.0997490882873535,3.4465606212615967,13.105385662765888,12.934759022566965,52.95715193522295,46.28127022126746,-0.0002266406954731,0.102924108505249,0,0,0
4362,163077.8044943436,2011-01-12 09:05:38,1918.922957081881,7,18,-1.099568486213684,3.4397614002227783,13.105385662765888,12.943926745296547,52.95715193522295,46.31283766691462,-0.0002266406954731,0.102924108505249,0,0,0
4363,163107.8197618858,2011-01-12 09:06:08,1948.9382246240632,7,18,-1.099568486213684,3.43247652053833,13.105385662765888,12.953094510457507,52.95715193522295,46.34433966773478,-0.0001942634553415,0.102924108505249,0,0,0
4364,163137.83479156514,2011-01-12 09:06:38,1978.9532543034177,7,18,-1.0992072820663452,3.424382448196411,13.105385662765888,12.962262208239435,52.95715193522295,46.37577002813643,-0.0001942634553415,0.102924108505249,0,0,0
4365,163167.85007026515,2011-01-12 09:07:08,2008.9685329883712,7,18,-1.099568486213684,3.415154933929444,13.105385662765888,12.97142996326632,52.95715193522295,46.40712161057459,-0.0002590179501567,0.102924108505249,0,0,0
4366,163197.86511725766,2011-01-12 09:07:38,2038.983579995913,7,18,-1.0993878841400146,3.404632329940796,13.105385662765888,12.980597602627713,52.95715193522295,46.438383652213496,-0.0002913951757363,0.102924108505249,0,0,0
4367,163227.88024580842,2011-01-12 09:08:08,2068.998708546685,7,18,-1.099568486213684,3.392652750015259,13.105385662765888,12.989765305757722,52.95715193522295,46.46954310471016,-0.0003237724304199,0.102924108505249,0,0,0
4368,163257.89539949686,2011-01-12 09:08:38,2099.0138622351087,7,18,-1.0997490882873535,3.3779211044311523,13.105385662765888,12.998933039701855,52.95715193522295,46.500579884423566,-0.0004209041653666,0.102924108505249,0,0,0
4369,163287.91057170142,2011-01-12 09:09:08,2129.029034439681,7,18,-1.099568486213684,3.3605992794036865,13.105385662765888,13.00810072272838,52.95715193522295,46.53147062197223,-0.0005180359003134,0.102924108505249,0,0,0
4370,163317.9259249472,2011-01-12 09:09:38,2159.0443876854624,7,18,-1.0992072820663452,3.339068651199341,13.105385662765888,13.017268516609962,52.95715193522295,46.56218348640432,-0.0006151676061563,0.102924108505249,0,0,0
4371,163347.94089848665,2011-01-12 09:10:08,2189.059361224899,7,18,-1.099568486213684,3.3120336532592773,13.105385662765888,13.026436190642253,52.95715193522295,46.5926750343228,-0.0007770538213662,0.102924108505249,0,0,0
4372,163377.95602029562,2011-01-12 09:10:38,2219.074483033869,7,18,-1.099568486213684,3.277875661849976,13.105385662765888,13.03560377207312,52.95715193522295,46.62288774441826,-0.0010360718006268,0.102924108505249,0,0,0
4373,163407.97395129595,2011-01-12 09:11:08,2249.092414039221,7,18,-1.099568486213684,3.2333571910858154,13.105385662765888,13.044772280427908,52.95715193522295,46.65274632410035,-0.0013274669181555,0.102924108505249,0,0,0
4374,163437.98636559697,2011-01-12 09:11:38,2279.104828430473,7,18,-1.099568486213684,3.174268960952759,13.105385662765888,13.053939169659408,52.95715193522295,46.6821290981886,-0.0017807483673095,0.102924108505249,0,0,0
4375,163468.00148207266,2011-01-12 09:12:08,2309.119944810913,7,18,-1.099929690361023,3.0933260917663574,13.105385662765888,13.06310687307212,52.95715193522295,46.71088034169876,-0.0024930476211011,0.102924108505249,0,0,0
4376,163498.01670748484,2011-01-12 09:12:38,2339.1351702230945,7,18,-1.099568486213684,2.974663734436035,13.105385662765888,13.072274619262553,52.95715193522295,46.73873527427628,-0.0038205147720873,0.102924108505249,0,0,0
4377,163528.0317904871,2011-01-12 09:13:08,2369.150253220333,7,18,-1.099568486213684,2.7949705123901367,13.105385662765888,13.08144234129375,52.95715193522295,46.76523356052483,-0.0055041313171386,0.102924108505249,0,0,0
4378,163541.15657358998,2011-01-12 09:13:22,2382.275036328233,7,18,-1.099568486213684,2.699943780899048,13.105385662765888,13.08545113395815,52.95715193522295,46.77625050265372,-0.0059249876067042,0.102924108505249,0,0,0
4379,163601.17251788368,2011-01-12 09:14:22,60.01465595368457,8,18,0.0,3.55826187133789,13.105385662765888,13.08545113395815,52.95715193522295,46.77625050265372,0.0013274669181555,0.102924108505249,0,0,0
4380,163601.3623279293,2011-01-12 09:14:22,0.187580453206453,9,18,-1.9243103452026844e-05,3.5584237575531006,13.105385662765888,13.085451134960826,52.95715193522295,46.77625050622166,0.0,0.1030172556638717,0,0,0
4381,163606.19034734418,2011-01-12 09:14:27,5.015599853095407,9,18,0.0007031940040178,3.5663561820983887,13.10538673277668,13.08545113504456,52.95715574774228,46.77625050651962,0.0011332035064697,0.1030172556638717,0,0,0
