Data_Point,Test_Time(s),Date_Time,Step_Time(s),Step_Index,Cycle_Index,Current(A),Voltage(V),Charge_Capacity(Ah),Discharge_Capacity(Ah),Charge_Energy(Wh),Discharge_Energy(Wh),dV/dt(V/s),Internal_Resistance(Ohm),Is_FC_Data,AC_Impedance(Ohm),ACI_Phase_Angle(Deg)
4625,173073.59621490454,2011-01-12 11:52:16,30.015177207039084,1,20,0.0,3.590477228164673,13.835171953570274,13.818970536239943,55.91394662572661,49.40037487284892,0.0007122993702068,0.1005837768316268,0,0,0
4626,173103.61141226182,2011-01-12 11:52:46,60.03037456429871,1,20,0.0,3.612817287445069,13.835171953570274,13.818970536239943,55.91394662572661,49.40037487284892,0.0005180359003134,0.1005837768316268,0,0,0
4627,173133.6265437148,2011-01-12 11:53:16,90.04550602231716,1,20,0.0,3.628682136535645,13.835171953570274,13.818970536239943,55.91394662572661,49.40037487284892,0.0003885269106831,0.1005837768316268,0,0,0
4628,173163.59485049636,2011-01-12 11:53:46,120.01381280383416,1,20,0.0,3.640823602676392,13.835171953570274,13.818970536239943,55.91394662572661,49.40037487284892,0.0002913951757363,0.1005837768316268,0,0,0
4629,173193.6048195151,2011-01-12 11:54:16,30.01529029889879,2,20,0.550297200679779,3.764827966690064,13.839759123148882,13.818970536239943,55.93112005989393,49.40037487284892,0.0008741855854168,0.1005837768316268,0,0,0
4630,173223.6198601267,2011-01-12 11:54:46,60.03033092553749,2,20,0.550297200679779,3.788949012756348,13.84434645822993,13.818970536239943,55.94845126098826,49.40037487284892,0.0004856586456298,0.1005837768316268,0,0,0
4631,173253.63501101316,2011-01-12 11:55:16,90.04548181197754,2,20,0.5501165986061096,3.8030331134796143,13.848933878491954,13.818970536239943,55.96586780828655,49.40037487284892,0.0002913951757363,0.1005837768316268,0,0,0
4632,173283.65034190824,2011-01-12 11:55:46,120.0608127070545,2,20,0.5501165986061096,3.813070058822632,13.853521389589186,13.818970536239943,55.98333921709558,49.40037487284892,0.0001942634553415,0.1005837768316268,0,0,0
4633,173313.66534589857,2011-01-12 11:56:16,150.07581669738423,2,20,0.5501165986061096,3.82165002822876,13.858108709228665,13.818970536239943,56.0008520919006,49.40037487284892,0.0001618862152099,0.1005837768316268,0,0,0
4634,173343.68064137036,2011-01-12 11:56:46,180.0911121691755,2,20,0.550297200679779,3.829420566558838,13.862696073673606,13.818970536239943,56.018401407868616,49.40037487284892,0.0002266406954731,0.1005837768316268,0,0,0
4635,173373.6956863829,2011-01-12 11:57:16,210.1061571767328,2,20,0.550297200679779,3.836219549179077,13.867283377919156,13.818970536239943,56.035983418773,49.40037487284892,0.0001618862152099,0.1005837768316268,0,0,0
4636,173403.71299103223,2011-01-12 11:57:46,240.12346183102505,2,20,0.550297200679779,3.842694997787476,13.871871115754558,13.818970536239943,56.053597380133496,49.40037487284892,0.0002266406954731,0.1005837768316268,0,0,0
4637,173433.72608463626,2011-01-12 11:58:16,270.13655553032174,2,20,0.5501165986061096,3.848522901535034,13.87645820675699,13.818970536239943,56.07123727561954,49.40037487284892,0.0001618862152099,0.1005837768316268,0,0,0
4638,173463.74118333263,2011-01-12 11:58:46,300.1516541314507,2,20,0.550297200679779,3.8543508052825928,13.881045609425149,13.818970536239943,56.08890524282506,49.40037487284892,0.0001942634553415,0.1005837768316268,0,0,0
4639,173493.75634961744,2011-01-12 11:59:16,330.16682041626825,2,20,0.550297200679779,3.8596930503845215,13.885633003102177,13.818970536239943,56.10659880151062,49.40037487284892,0.0001618862152099,0.1005837768316268,0,0,0
4640,173523.77165449268,2011-01-12 11:59:46,360.1821252914957,2,20,0.550297200679779,3.86487340927124,13.890220353058472,13.818970536239943,56.124316496823006,49.40037487284892,0.0001295089750783,0.1005837768316268,0,0,0
4641,173553.78667763574,2011-01-12 12:00:16,390.19714843456,2,20,0.550297200679779,3.869891881942749,13.894807680613058,13.818970536239943,56.14205736017792,49.40037487284892,0.0001618862152099,0.1005837768316268,0,0,0
4642,173583.80197175418,2011-01-12 12:00:46,420.2124425529781,2,20,0.550297200679779,3.874586582183838,13.89939507799278,13.818970536239943,56.1598210109044,49.40037487284892,0.0001295089750783,0.1005837768316268,0,0,0
4643,173613.81703266635,2011-01-12 12:01:16,450.2275034601623,2,20,0.5504778623580933,3.8794431686401367,13.903982431082463,13.818970536239943,56.17760643856744,49.40037487284892,0.0001295089750783,0.1005837768316268,0,0,0
4644,173643.83226305092,2011-01-12 12:01:46,480.2427338497486,2,20,0.5501165986061096,3.8838140964508057,13.908569792253124,13.818970536239943,56.195413122989535,49.40037487284892,9.713172767078504e-05,0.1005837768316268,0,0,0
4645,173673.8473578526,2011-01-12 12:02:16,510.25782865140815,2,20,0.550297200679779,3.888346910476685,13.91315712698236,13.818970536239943,56.21324029500992,49.40037487284892,0.0001295089750783,0.1005837768316268,0,0,0
4646,173703.86251234802,2011-01-12 12:02:46,540.2729831468429,2,20,0.550297200679779,3.8927178382873535,13.917744508490625,13.818970536239943,56.231087665507545,49.40037487284892,0.0001295089750783,0.1005837768316268,0,0,0
4647,173733.87768782573,2011-01-12 12:03:16,570.288158624572,2,20,0.5504778623580933,3.8967649936676025,13.922331968947711,13.818970536239943,56.24895436191409,49.40037487284892,0.0001295089750783,0.1005837768316268,0,0,0
4648,173763.89301870076,2011-01-12 12:03:46,600.3034894945865,2,20,0.550297200679779,3.900488376617432,13.92691940056578,13.818970536239943,56.26683910800243,49.40037487284892,9.713172767078504e-05,0.1005837768316268,0,0,0
4649,173793.9080104907,2011-01-12 12:04:16,630.3184812895215,2,20,0.550297200679779,3.9042117595672607,13.931506791360478,13.818970536239943,56.28474109889648,49.40037487284892,9.713172767078504e-05,0.1005837768316268,0,0,0
4650,173823.92318793334,2011-01-12 12:04:46,660.3336587321478,2,20,0.5499359965324402,3.90761137008667,13.936094211839563,13.818970536239943,56.30265973381698,49.40037487284892,3.237724376958795e-05,0.1005837768316268,0,0,0
4651,173853.93835826323,2011-01-12 12:05:16,690.348829062047,2,20,0.5501165986061096,3.911172866821289,13.940681142322196,13.818970536239943,56.3205921065307,49.40037487284892,0.0001295089750783,0.1005837768316268,0,0,0
4652,173883.95373831582,2011-01-12 12:05:46,720.3642091196521,2,20,0.5501165986061096,3.914086580276489,13.94526786056604,13.818970536239943,56.33853847211725,49.40037487284892,6.47544875391759e-05,0.1005837768316268,0,0,0
4653,173913.9687004769,2011-01-12 12:06:16,750.3791712757179,2,20,0.550297200679779,3.917324304580689,13.949854952072153,13.818970536239943,56.35650042630429,49.40037487284892,9.713172767078504e-05,0.1005837768316268,0,0,0
4654,173943.9838665963,2011-01-12 12:06:46,780.3943373901108,2,20,0.550297200679779,3.920238256454468,13.95444233000144,13.818970536239943,56.37447703541936,49.40037487284892,9.713172767078504e-05,0.1005837768316268,0,0,0
4655,173973.9990511366,2011-01-12 12:07:16,810.4095219304265,2,20,0.5499359965324402,3.922828435897827,13.959029725078048,13.818970536239943,56.3924664720868,49.40037487284892,6.47544875391759e-05,0.1005837768316268,0,0,0
4656,174004.0144715498,2011-01-12 12:07:46,840.4249423235601,2,20,0.5501165986061096,3.9254186153411865,13.963617151238871,13.818970536239943,56.41046826152023,49.40037487284892,6.47544875391759e-05,0.1005837768316268,0,0,0
4657,174034.02938173633,2011-01-12 12:08:16,870.439852530152,2,20,0.5501165986061096,3.928008794784546,13.968204554264815,13.818970536239943,56.42848157532359,49.40037487284892,3.237724376958795e-05,0.1005837768316268,0,0,0
4658,174064.04480994897,2011-01-12 12:08:46,900.4552807327493,2,20,0.550297200679779,3.9304370880126953,13.97279198991024,13.818970536239943,56.44650624529852,49.40037487284892,9.713172767078504e-05,0.1005837768316268,0,0,0
4659,174094.05973265172,2011-01-12 12:09:16,930.4702034505228,2,20,0.550297200679779,3.9327034950256343,13.977379434758372,13.818970536239943,56.464541912414056,49.40037487284892,3.237724376958795e-05,0.1005837768316268,0,0,0
4660,174124.07505401302,2011-01-12 12:09:46,960.4855247968012,2,20,0.5504778623580933,3.935131788253784,13.981966890925026,13.818970536239943,56.482588551513466,49.40037487284892,6.47544875391759e-05,0.1005837768316268,0,0,0
4661,174154.09009940657,2011-01-12 12:10:16,990.500570205358,2,20,0.550297200679779,3.9375600814819336,13.986554348974222,13.818970536239943,56.50064597237177,49.40037487284892,9.713172767078504e-05,0.1005837768316268,0,0,0
4662,174184.10540194594,2011-01-12 12:10:46,1020.515872744764,2,20,0.550297200679779,3.939826488494873,13.991141831137776,13.818970536239943,56.51871421435764,49.40037487284892,6.47544875391759e-05,0.1005837768316268,0,0,0
4663,174214.12046820647,2011-01-12 12:11:16,1050.53093900529,2,20,0.550297200679779,3.942092895507813,13.995729252518172,13.818970536239943,56.53679271337023,49.40037487284892,9.713172767078504e-05,0.1005837768316268,0,0,0
4664,174244.13566956873,2011-01-12 12:11:46,1080.5461403675315,2,20,0.5501165986061096,3.944197416305542,14.00031668500384,13.818970536239943,56.554881669602366,49.40037487284892,6.47544875391759e-05,0.1005837768316268,0,0,0
4665,174274.1508678984,2011-01-12 12:12:16,1110.5613386972143,2,20,0.5501165986061096,3.9466257095336914,14.004904152678415,13.818970536239943,56.57298108892365,49.40037487284892,9.713172767078504e-05,0.1005837768316268,0,0,0
4666,174304.16603600775,2011-01-12 12:12:46,1140.5765068065791,2,20,0.550297200679779,3.948730230331421,14.009491612212765,13.818970536239943,56.59109047727189,49.40037487284892,6.47544875391759e-05,0.1005837768316268,0,0,0
4667,174334.18124471832,2011-01-12 12:13:16,1170.5917155171353,2,20,0.550297200679779,3.950672864913941,14.014079060543375,13.818970536239943,56.60920987110694,49.40037487284892,3.237724376958795e-05,0.1005837768316268,0,0,0
4668,174364.19644468205,2011-01-12 12:13:46,1200.6069154808908,2,20,0.5504778623580933,3.95310115814209,14.01866655605576,13.818970536239943,56.62733946100495,49.40037487284892,6.47544875391759e-05,0.1005837768316268,0,0,0
4669,174394.2116389717,2011-01-12 12:14:16,1230.6221097705047,2,20,0.550297200679779,3.9552056789398193,14.023254067867736,13.818970536239943,56.64547887385971,49.40037487284892,6.47544875391759e-05,0.1005837768316268,0,0,0
4670,174424.22685752678,2011-01-12 12:14:46,1260.6373283255962,2,20,0.5501165986061096,3.957148313522339,14.027841614724656,13.818970536239943,56.66362810389534,49.40037487284892,3.237724376958795e-05,0.1005837768316268,0,0,0
4671,174454.2417206109,2011-01-12 12:15:16,1290.6521911591196,2,20,0.550297200679779,3.9594147205352783,14.032429106733716,13.818970536239943,56.68178681334046,49.40037487284892,6.47544875391759e-05,0.1005837768316268,0,0,0
4672,174484.25767292475,2011-01-12 12:15:46,1320.66814390905,2,20,0.5501165986061096,3.961519241333008,14.037016770556328,13.818970536239943,56.699955983618125,49.40037487284892,3.237724376958795e-05,0.1005837768316268,0,0,0
4673,174514.2729274946,2011-01-12 12:16:16,1350.6833983786514,2,20,0.550297200679779,3.963623762130737,14.041604373235993,13.818970536239943,56.71813468455826,49.40037487284892,3.237724376958795e-05,0.1005837768316268,0,0,0
4674,174544.28772393768,2011-01-12 12:16:46,1380.6981948317346,2,20,0.5501165986061096,3.965728282928467,14.046191872685329,13.818970536239943,56.73632253735913,49.40037487284892,9.713172767078504e-05,0.1005837768316268,0,0,0
4675,174574.28778200818,2011-01-12 12:17:16,1410.6982529072457,2,20,0.550297200679779,3.9676709175109854,14.050777167916292,13.818970536239943,56.754511273183255,49.40037487284892,3.237724376958795e-05,0.1005837768316268,0,0,0
4676,174604.30253061702,2011-01-12 12:17:46,1440.7130014007987,2,20,0.5501165986061096,3.969775438308716,14.055364648008853,13.818970536239943,56.77271803496488,49.40037487284892,3.237724376958795e-05,0.1005837768316268,0,0,0
4677,174634.3178877976,2011-01-12 12:18:16,1470.7283587117122,2,20,0.550297200679779,3.971879959106445,14.059952261009872,13.818970536239943,56.79093473072723,49.40037487284892,6.47544875391759e-05,0.1005837768316268,0,0,0
4678,174664.33359892032,2011-01-12 12:18:46,1500.7440698093712,2,20,0.550297200679779,3.973822593688965,14.064539971000825,13.818970536239943,56.809161166268936,49.40037487284892,3.237724376958795e-05,0.1005837768316268,0,0,0
4679,174694.34820836232,2011-01-12 12:19:16,1530.7586791461026,2,20,0.5501165986061096,3.975765228271485,14.06912752557172,13.818970536239943,56.827396110383184,49.40037487284892,3.237724376958795e-05,0.1005837768316268,0,0,0
4680,174724.34852164387,2011-01-12 12:19:46,1560.758992402603,2,20,0.550297200679779,3.977707862854004,14.073712918206548,13.818970536239943,56.845631674054765,49.40037487284892,3.237724376958795e-05,0.1005837768316268,0,0,0
4681,174754.36331313962,2011-01-12 12:20:17,1590.7737838983312,2,20,0.5501165986061096,3.979974269866944,14.078300485887551,13.818970536239943,56.86388484710374,49.40037487284892,9.713172767078504e-05,0.1005837768316268,0,0,0
4682,174784.37856474708,2011-01-12 12:20:47,1620.7890355108116,2,20,0.550297200679779,3.982078790664673,14.082887952255565,13.818970536239943,56.8821472888736,49.40037487284892,3.237724376958795e-05,0.1005837768316268,0,0,0
4683,174814.3937568212,2011-01-12 12:21:17,1650.8042275798914,2,20,0.550297200679779,3.984021425247192,14.08747546378522,13.818970536239943,56.90041935858767,49.40037487284892,6.47544875391759e-05,0.1005837768316268,0,0,0
4684,174844.40898833855,2011-01-12 12:21:47,1680.8194591023012,2,20,0.5499359965324402,3.985964059829712,14.092062510482922,13.818970536239943,56.91869907191381,49.40037487284892,3.237724376958795e-05,0.1005837768316268,0,0,0
4685,174874.42443972395,2011-01-12 12:22:17,1710.8349105027146,2,20,0.550297200679779,3.9882304668426514,14.096649352256348,13.818970536239943,56.93698762047034,49.40037487284892,3.237724376958795e-05,0.1005837768316268,0,0,0
4686,174904.439466476,2011-01-12 12:22:47,1740.8499372297108,2,20,0.5501165986061096,3.990334987640381,14.101236107576378,13.818970536239943,56.95528558266161,49.40037487284892,3.237724376958795e-05,0.1005837768316268,0,0,0
4687,174934.45477943638,2011-01-12 12:23:17,1770.865250200114,2,20,0.5499359965324402,3.99260139465332,14.105822947781247,13.818970536239943,56.973593785147365,49.40037487284892,6.47544875391759e-05,0.1005837768316268,0,0,0
4688,174964.4700281767,2011-01-12 12:23:47,1800.8804989554735,2,20,0.5501165986061096,3.994705677032471,14.11040971178242,13.818970536239943,56.99191166677485,49.40037487284892,3.237724376958795e-05,0.1005837768316268,0,0,0
4689,174994.48512967507,2011-01-12 12:24:17,1830.895600448811,2,20,0.550297200679779,3.99697208404541,14.114996468848403,13.818970536239943,57.010239771810106,49.40037487284892,6.47544875391759e-05,0.1005837768316268,0,0,0
4690,175024.50057926096,2011-01-12 12:24:47,1860.9110500397144,2,20,0.5501165986061096,3.9992384910583496,14.119583360570672,13.818970536239943,57.02857866941607,49.40037487284892,9.713172767078504e-05,0.1005837768316268,0,0,0
4691,175054.51552664518,2011-01-12 12:25:17,1890.9259974089275,2,20,0.550297200679779,4.001504898071289,14.1241700548574,13.818970536239943,57.046927082531575,49.40037487284892,6.47544875391759e-05,0.1005837768316268,0,0,0
4692,175084.53074760127,2011-01-12 12:25:47,1920.941218365002,2,20,0.5501165986061096,4.0037713050842285,14.12875676723997,13.818970536239943,57.06528589846126,49.40037487284892,6.47544875391759e-05,0.1005837768316268,0,0,0
4693,175114.54595477297,2011-01-12 12:26:17,1950.956425526697,2,20,0.5499359965324402,4.006037712097168,14.13334351254024,13.818970536239943,57.08365531339813,49.40037487284892,9.70840483205393e-05,0.1005837768316268,0,0,0
4694,175144.56117948343,2011-01-12 12:26:47,1980.971650242142,2,20,0.550297200679779,4.0084662437438965,14.137930281913848,13.818970536239943,57.10203541076321,49.40037487284892,6.47544875391759e-05,0.1005837768316268,0,0,0
4695,175174.57642991297,2011-01-12 12:27:17,2010.986900671674,2,20,0.550297200679779,4.010732650756836,14.14251704588189,13.818970536239943,57.12042611165892,49.40037487284892,9.71794142969884e-05,0.1005837768316268,0,0,0
4696,175204.59160850343,2011-01-12 12:27:47,2041.0020792771984,2,20,0.5501165986061096,4.012999057769775,14.14710374668115,13.818970536239943,57.1388274115536,49.40037487284892,6.47544875391759e-05,0.1005837768316268,0,0,0
4697,175234.59696937515,2011-01-12 12:28:17,2071.0074402641967,2,20,0.5501165986061096,4.015427112579346,14.151688968808951,13.818970536239943,57.15723363154508,49.40037487284892,6.47544875391759e-05,0.1005837768316268,0,0,0
4698,175264.60636820068,2011-01-12 12:28:47,2101.0168389594064,2,20,0.5499359965324402,4.017855644226074,14.156274836855292,13.818970536239943,57.1756533889247,49.40037487284892,3.24249267578125e-05,0.1005837768316268,0,0,0
4699,175294.62223633475,2011-01-12 12:29:17,2131.03270711851,2,20,0.550297200679779,4.0202836990356445,14.160861735197273,13.818970536239943,57.1940880596114,49.40037487284892,9.70840483205393e-05,0.1005837768316268,0,0,0
4700,175324.6367733963,2011-01-12 12:29:47,2161.047244150036,2,20,0.5501165986061096,4.022550106048584,14.165448337744804,13.818970536239943,57.21253254454806,49.40037487284892,3.23295607813634e-05,0.1005837768316268,0,0,0
4701,175354.65200592123,2011-01-12 12:30:17,2191.062476679956,2,20,0.550297200679779,4.025140285491943,14.170035059715085,13.818970536239943,57.23098843667871,49.40037487284892,9.70840483205393e-05,0.1005837768316268,0,0,0
4702,175384.66717441657,2011-01-12 12:30:47,2221.077645195333,2,20,0.550297200679779,4.027406692504883,14.174621792797703,13.818970536239943,57.24945533129818,49.40037487284892,6.47544875391759e-05,0.1005837768316268,0,0,0
4703,175414.68457549115,2011-01-12 12:31:17,2251.0950462649216,2,20,0.5501165986061096,4.029835224151611,14.17920888369514,13.818970536239943,57.26793473136814,49.40037487284892,9.71794142969884e-05,0.1005837768316268,0,0,0
4704,175444.69757156214,2011-01-12 12:31:47,2281.108042320861,2,20,0.5501165986061096,4.032101631164551,14.183795329420311,13.818970536239943,57.2864225266017,49.40037487284892,3.24249267578125e-05,0.1005837768316268,0,0,0
4705,175474.71279264856,2011-01-12 12:32:17,2311.123263417286,2,20,0.5499359965324402,4.034529685974121,14.18838208660708,13.818970536239943,57.30492274380904,49.40037487284892,3.24249267578125e-05,0.1005837768316268,0,0,0
4706,175504.72796989066,2011-01-12 12:32:47,2341.1384406544003,2,20,0.5501165986061096,4.036957740783691,14.192968900796746,13.818970536239943,57.32343435719453,49.40037487284892,3.23295607813634e-05,0.1005837768316268,0,0,0
4707,175534.74352712484,2011-01-12 12:33:17,2371.153997898609,2,20,0.5501165986061096,4.039547920227051,14.197555752355555,13.818970536239943,57.34195744055131,49.40037487284892,6.47544875391759e-05,0.1005837768316268,0,0,0
4708,175564.75840631913,2011-01-12 12:33:47,2401.168877077871,2,20,0.5501165986061096,4.041976451873779,14.202142490656872,13.818970536239943,57.36049128787146,49.40037487284892,6.47544875391759e-05,0.1005837768316268,0,0,0
4709,175594.7737001218,2011-01-12 12:34:17,2431.1841709055643,2,20,0.5501165986061096,4.0447282791137695,14.206729284454587,13.818970536239943,57.37903707889803,49.40037487284892,6.47544875391759e-05,0.1005837768316268,0,0,0
4710,175624.78877903384,2011-01-12 12:34:47,2461.199249787548,2,20,0.5501165986061096,4.046994686126709,14.211316060137973,13.818970536239943,57.39759457187518,49.40037487284892,0.0,0.1005837768316268,0,0,0
4711,175654.8041289814,2011-01-12 12:35:17,2491.214599745134,2,20,0.550297200679779,4.049746990203857,14.215902877636662,13.818970536239943,57.416164059942645,49.40037487284892,9.71794142969884e-05,0.1005837768316268,0,0,0
4712,175684.81919428956,2011-01-12 12:35:47,2521.229665043262,2,20,0.5499359965324402,4.052337169647217,14.220489727570785,13.818970536239943,57.43474565338154,49.40037487284892,3.24249267578125e-05,0.1005837768316268,0,0,0
4713,175714.83440273948,2011-01-12 12:36:17,2551.24487349818,2,20,0.550297200679779,4.055088996887207,14.225076558347396,13.818970536239943,57.45333919415842,49.40037487284892,9.70840483205393e-05,0.1005837768316268,0,0,0
4714,175744.8496232795,2011-01-12 12:36:47,2581.260094038218,2,20,0.5501165986061096,4.057679176330566,14.229663380269749,13.818970536239943,57.471944824539285,49.40037487284892,6.47544875391759e-05,0.1005837768316268,0,0,0
4715,175774.86503032438,2011-01-12 12:37:17,2611.275501078072,2,20,0.5501165986061096,4.060269355773926,14.234250300216123,13.818970536239943,57.49056307751036,49.40037487284892,6.47544875391759e-05,0.1005837768316268,0,0,0
4716,175804.88005157773,2011-01-12 12:37:47,2641.2905223364382,2,20,0.5501165986061096,4.062859535217285,14.238837185211374,13.818970536239943,57.50919297381122,49.40037487284892,3.23295607813634e-05,0.1005837768316268,0,0,0
4717,175834.89527615282,2011-01-12 12:38:17,2671.3057469115333,2,20,0.550297200679779,4.065611839294434,14.24342406980132,13.818970536239943,57.52783543353444,49.40037487284892,6.47544875391759e-05,0.1005837768316268,0,0,0
4718,175864.91048951997,2011-01-12 12:38:47,2701.3209602786947,2,20,0.550297200679779,4.068525791168213,14.248010861509767,13.818970536239943,57.54649002281226,49.40037487284892,0.0001295089750783,0.1005837768316268,0,0,0
4719,175894.9261268538,2011-01-12 12:39:17,2731.336597642586,2,20,0.5501165986061096,4.071277618408203,14.252597763711258,13.818970536239943,57.56515786264343,49.40037487284892,9.70840483205393e-05,0.1005837768316268,0,0,0
4720,175924.94093213888,2011-01-12 12:39:47,2761.351402897606,2,20,0.550297200679779,4.074029922485352,14.257184543833493,13.818970536239943,57.58383800860843,49.40037487284892,9.71794142969884e-05,0.1005837768316268,0,0,0
4721,175954.95616122524,2011-01-12 12:40:17,2791.366631983945,2,20,0.5501165986061096,4.076781749725342,14.261771363915743,13.818970536239943,57.60253109385507,49.40037487284892,9.70840483205393e-05,0.1005837768316268,0,0,0
4722,175984.9715072731,2011-01-12 12:40:47,2821.381978157099,2,20,0.5501165986061096,4.079695701599121,14.266358208871704,13.818970536239943,57.621237150668286,49.40037487284892,6.47544875391759e-05,0.1005837768316268,0,0,0
4723,176014.98676951704,2011-01-12 12:41:17,2851.3972403008265,2,20,0.5501165986061096,4.0826096534729,14.270945062135182,13.818970536239943,57.63995647275486,49.40037487284892,0.0001295089750783,0.1005837768316268,0,0,0
4724,176045.00185189274,2011-01-12 12:41:47,2881.4123226514544,2,20,0.5499359965324402,4.085361957550049,14.275531974210606,13.818970536239943,57.65868951916129,49.40037487284892,6.47544875391759e-05,0.1005837768316268,0,0,0
4725,176075.0170774152,2011-01-12 12:42:17,2911.4275481739105,2,20,0.5501165986061096,4.088599681854248,14.280118831225408,13.818970536239943,57.67743576979724,49.40037487284892,9.71794142969884e-05,0.1005837768316268,0,0,0
4726,176105.0323253886,2011-01-12 12:42:47,2941.442796152334,2,20,0.5501165986061096,4.091513633728027,14.28470568136118,13.818970536239943,57.69619569145151,49.40037487284892,9.71794142969884e-05,0.1005837768316268,0,0,0
4727,176135.04757434948,2011-01-12 12:43:17,2971.4580451081924,2,20,0.5501165986061096,4.094265460968018,14.289292573167195,13.818970536239943,57.71496952041956,49.40037487284892,6.47544875391759e-05,0.1005837768316268,0,0,0
4728,176165.06279576168,2011-01-12 12:43:47,3001.4732665204046,2,20,0.5499359965324402,4.097503185272217,14.2938794576772,13.818970536239943,57.733757304156526,49.40037487284892,6.47544875391759e-05,0.1005837768316268,0,0,0
4729,176195.07803864242,2011-01-12 12:44:17,3031.4885094261854,2,20,0.550297200679779,4.100740909576416,14.298466369718646,13.818970536239943,57.75255933962945,49.40037487284892,6.47544875391759e-05,0.1005837768316268,0,0,0
4730,176225.0932565258,2011-01-12 12:44:47,3061.5037273096023,2,20,0.550297200679779,4.103816986083984,14.303053224936509,13.818970536239943,57.771375361910216,49.40037487284892,9.71794142969884e-05,0.1005837768316268,0,0,0
4731,176255.1085552357,2011-01-12 12:45:17,3091.519025994401,2,20,0.5501165986061096,4.106730937957764,14.307640044428767,13.818970536239943,57.7902055785458,49.40037487284892,3.24249267578125e-05,0.1005837768316268,0,0,0
4732,176285.12379287832,2011-01-12 12:45:47,3121.5342636370647,2,20,0.5499359965324402,4.109806537628174,14.312226884603636,13.818970536239943,57.80905023589354,49.40037487284892,3.23295607813634e-05,0.1005837768316268,0,0,0
4733,176315.1390442001,2011-01-12 12:46:17,3151.5495149588205,2,20,0.5501165986061096,4.113206386566162,14.316813820829845,13.818970536239943,57.82790982003736,49.40037487284892,0.0001295089750783,0.1005837768316268,0,0,0
4734,176345.1543195618,2011-01-12 12:46:47,3181.564790320491,2,20,0.5499359965324402,4.116119861602783,14.321400682870593,13.818970536239943,57.84678361277773,49.40037487284892,3.23295607813634e-05,0.1005837768316268,0,0,0
4735,176375.16959252747,2011-01-12 12:47:17,3211.5800633112526,2,20,0.550297200679779,4.119519710540772,14.325987646612813,13.818970536239943,57.86567259271096,49.40037487284892,9.71794142969884e-05,0.1005837768316268,0,0,0
4736,176405.18482824534,2011-01-12 12:47:47,3241.595299029119,2,20,0.5501165986061096,4.122757434844971,14.33057452399953,13.818970536239943,57.88457614793023,49.40037487284892,6.47544875391759e-05,0.1005837768316268,0,0,0
4737,176435.2000657677,2011-01-12 12:48:17,3271.61053652642,2,20,0.5501165986061096,4.126156806945801,14.335161514855203,13.818970536239943,57.9034950782915,49.40037487284892,9.70840483205393e-05,0.1005837768316268,0,0,0
4738,176465.21534716443,2011-01-12 12:48:47,3301.625817928144,2,20,0.5501165986061096,4.12939453125,14.339748444688263,13.818970536239943,57.92242877233408,49.40037487284892,6.47544875391759e-05,0.1005837768316268,0,0,0
4739,176495.23079743702,2011-01-12 12:49:17,3331.641268225809,2,20,0.550297200679779,4.132794380187988,14.344335464857924,13.818970536239943,57.94137799784731,49.40037487284892,9.71794142969884e-05,0.1005837768316268,0,0,0
4740,176525.2481319858,2011-01-12 12:49:47,3361.658602744533,2,20,0.5501165986061096,4.136032104492188,14.348922758279064,13.818970536239943,57.96034362607508,49.40037487284892,6.47544875391759e-05,0.1005837768316268,0,0,0
4741,176555.26124180527,2011-01-12 12:50:17,3391.6717125790437,2,20,0.5501165986061096,4.139431476593018,14.3535093751467,13.818970536239943,57.97932180233382,49.40037487284892,0.0001295089750783,0.1005837768316268,0,0,0
4742,176585.2763817244,2011-01-12 12:50:47,3421.6868524931365,2,20,0.550297200679779,4.142992973327637,14.358096356989382,13.818970536239943,57.99831702034717,49.40037487284892,0.0001295089750783,0.1005837768316268,0,0,0
4743,176615.29181553595,2011-01-12 12:51:17,3451.702286319751,2,20,0.550297200679779,4.146392822265625,14.362683299337707,13.818970536239943,58.01732790397252,49.40037487284892,9.71794142969884e-05,0.1005837768316268,0,0,0
4744,176645.30691082886,2011-01-12 12:51:47,3481.7173815825595,2,20,0.5501165986061096,4.149630546569824,14.367270146221133,13.818970536239943,58.03635394803601,49.40037487284892,6.47544875391759e-05,0.1005837768316268,0,0,0
4745,176675.32217945874,2011-01-12 12:52:17,3511.7326502224773,2,20,0.550297200679779,4.153192043304443,14.371857029796224,13.818970536239943,58.055395783205135,49.40037487284892,0.0001295089750783,0.1005837768316268,0,0,0
4746,176705.33748387784,2011-01-12 12:52:48,3541.747954641568,2,20,0.5501165986061096,4.156591415405273,14.37644392689952,13.818970536239943,58.07445366743128,49.40037487284892,9.70840483205393e-05,0.1005837768316268,0,0,0
4747,176735.35273057307,2011-01-12 12:53:18,3571.7632013317807,2,20,0.5501165986061096,4.159991264343262,14.381030803325974,13.818970536239943,58.09352743202126,49.40037487284892,9.71794142969884e-05,0.1005837768316268,0,0,0
4748,176765.36796280724,2011-01-12 12:53:48,3601.778433591027,2,20,0.550297200679779,4.163714408874512,14.385617759630213,13.818970536239943,58.11261763074238,49.40037487284892,0.0001295089750783,0.1005837768316268,0,0,0
4749,176795.38324477038,2011-01-12 12:54:18,3631.7937155491377,2,20,0.5499359965324402,4.1671142578125,14.390204708577194,13.818970536239943,58.13172400853508,49.40037487284892,6.47544875391759e-05,0.1005837768316268,0,0,0
4750,176825.39858901373,2011-01-12 12:54:48,3661.809059777446,2,20,0.550297200679779,4.170675754547119,14.394791646886612,13.818970536239943,58.15084678747228,49.40037487284892,9.71794142969884e-05,0.1005837768316268,0,0,0
4751,176855.41390817455,2011-01-12 12:55:18,3691.8243790234897,2,20,0.550297200679779,4.174398899078369,14.39937858209964,13.818970536239943,58.16998594832628,49.40037487284892,6.47544875391759e-05,0.1005837768316268,0,0,0
4752,176885.4291007599,2011-01-12 12:55:48,3721.8395715236434,2,20,0.5501165986061096,4.177960395812988,14.403965507591122,13.818970536239943,58.1891417927116,49.40037487284892,9.70840483205393e-05,0.1005837768316268,0,0,0
4753,176915.44437352012,2011-01-12 12:56:18,3751.8548442838314,2,20,0.5499359965324402,4.1816840171813965,14.408552484465632,13.818970536239943,58.20831497139982,49.40037487284892,9.71794142969884e-05,0.1005837768316268,0,0,0
4754,176945.45965371883,2011-01-12 12:56:48,3781.870124477544,2,20,0.550297200679779,4.185569286346436,14.413139467284164,13.818970536239943,58.22750526867036,49.40037487284892,0.0001295089750783,0.1005837768316268,0,0,0
4755,176975.47508787125,2011-01-12 12:57:18,3811.885558645008,2,20,0.550297200679779,4.1892924308776855,14.417726502090222,13.818970536239943,58.24671310529416,49.40037487284892,9.70840483205393e-05,0.1005837768316268,0,0,0
4756,177005.49020402614,2011-01-12 12:57:48,3841.9006747898607,2,20,0.550297200679779,4.193339824676514,14.422313409428218,13.818970536239943,58.26593770066685,49.40037487284892,0.0001619339018361,0.1005837768316268,0,0,0
4757,177035.50551001917,2011-01-12 12:58:18,3871.9159807778615,2,20,0.550297200679779,4.196900844573975,14.426900439407216,13.818970536239943,58.285180136876974,49.40037487284892,0.0001295089750783,0.1005837768316268,0,0,0
4758,177059.03649377596,2011-01-12 12:58:41,3895.4469645346862,2,20,0.5504778623580933,4.200138568878174,14.430496480626816,13.818970536239943,58.30027763086851,49.40037487284892,0.0001295089750783,0.1005837768316268,0,0,0
4759,177089.05264170552,2011-01-12 12:59:11,30.015289075850585,3,20,0.0,4.108026027679443,14.430496480626816,13.818970536239943,58.30027763086851,49.40037487284892,-0.0004532813909463,0.1005837768316268,0,0,0
4760,177119.06793767857,2011-01-12 12:59:41,60.030585073953546,3,20,0.0,4.096531867980957,14.430496480626816,13.818970536239943,58.30027763086851,49.40037487284892,-0.0002266883820993,0.1005837768316268,0,0,0
4761,177149.0831956569,2011-01-12 13:00:11,90.0458430322496,3,20,0.0,4.089570999145508,14.430496480626816,13.818970536239943,58.30027763086851,49.40037487284892,-0.0001618385285837,0.1005837768316268,0,0,0
4762,177179.05163092367,2011-01-12 13:00:41,120.01427829899134,3,20,0.0,4.085038185119629,14.430496480626816,13.818970536239943,58.30027763086851,49.40037487284892,-9.70840483205393e-05,0.1005837768316268,0,0,0
4763,177179.05387427623,2011-01-12 13:00:42,2.51125883e-06,4,20,1.021326184272766,4.199653148651123,14.430496481339263,13.818970536239943,58.30027763386055,49.40037487284892,0.0,0.1005837768316268,0,0,0
4764,177179.78819663348,2011-01-12 13:00:42,0.734324893580925,4,20,0.9707556366920472,4.199653148651123,14.430698353324273,13.818970536239943,58.30112542066624,49.40037487284892,0.0,0.1005837768316268,0,0,0
4765,177181.53817987017,2011-01-12 13:00:44,2.484308120238132,4,20,0.920004427433014,4.199653148651123,14.431156964078037,13.818970536239943,58.3030514132524,49.40037487284892,0.0,0.1005837768316268,0,0,0
4766,177184.22567902,2011-01-12 13:00:47,5.171807270042259,4,20,0.869795024394989,4.199653148651123,14.43182423258923,13.818970536239943,58.30585370250224,49.40037487284892,0.0,0.1005837768316268,0,0,0
4767,177187.97563352544,2011-01-12 13:00:50,8.921761805576976,4,20,0.8197662830352783,4.199653148651123,14.432703158303925,13.818970536239943,58.309544879957706,49.40037487284892,3.24249267578125e-05,0.1005837768316268,0,0,0
4768,177192.86617695444,2011-01-12 13:00:55,13.812305204509702,4,20,0.7695568799972534,4.199653148651123,14.433781525243544,13.818970536239943,58.31407363814757,49.40037487284892,0.0,0.1005837768316268,0,0,0
4769,177199.30359769767,2011-01-12 13:01:02,20.249725952759185,4,20,0.7188056707382202,4.199653148651123,14.435111143495424,13.818970536239943,58.3196575738712,49.40037487284892,0.0,0.1005837768316268,0,0,0
4770,177207.75668814,2011-01-12 13:01:10,28.70281640010488,4,20,0.6687769293785095,4.199491024017334,14.436738296725697,13.818970536239943,58.3264910801054,49.40037487284892,-3.24249267578125e-05,0.1005837768316268,0,0,0
4771,177219.3346175776,2011-01-12 13:01:22,40.28074582767821,4,20,0.618748128414154,4.199653148651123,14.438804832779752,13.818970536239943,58.33516985969004,49.40037487284892,0.0,0.1005837768316268,0,0,0
4772,177236.52204844877,2011-01-12 13:01:39,57.4681767289244,4,20,0.5687193870544434,4.199653148651123,14.441631228547232,13.818970536239943,58.34703978338594,49.40037487284892,0.0,0.1005837768316268,0,0,0
4773,177265.38319744746,2011-01-12 13:02:08,86.32932569750764,4,20,0.5185099840164185,4.199653148651123,14.445971364549642,13.818970536239943,58.365266934008986,49.40037487284892,0.0,0.1005837768316268,0,0,0
4774,177320.4273613305,2011-01-12 13:03:03,141.37348960062,4,20,0.4684812128543854,4.199653148651123,14.453483075759303,13.818970536239943,58.39681366882538,49.40037487284892,0.0,0.1005837768316268,0,0,0
4775,177411.69198207682,2011-01-12 13:04:34,232.6381103369166,4,20,0.4184524416923523,4.199653148651123,14.464692381704928,13.818970536239943,58.443889091756425,49.40037487284892,-3.23295607813634e-05,0.1005837768316268,0,0,0
4776,177530.50297890816,2011-01-12 13:06:33,351.4491071632376,4,20,0.3684236705303192,4.199653148651123,14.477655083046212,13.818970536239943,58.498328151090725,49.40037487284892,-3.23295607813634e-05,0.1005837768316268,0,0,0
4777,177672.47030331785,2011-01-12 13:08:55,493.4164315829452,4,20,0.3183948993682861,4.199653148651123,14.49118173222674,13.818970536239943,58.55513562610524,49.40037487284892,0.0,0.1005837768316268,0,0,0
4778,177842.858933692,2011-01-12 13:11:45,663.8050619520959,4,20,0.2681855261325836,4.199653148651123,14.50503799943256,13.818970536239943,58.61332739929272,49.40037487284892,0.0,0.1005837768316268,0,0,0
4779,178053.45043978255,2011-01-12 13:15:16,874.39656816296,4,20,0.2181567698717117,4.199814796447754,14.519236173488457,13.818970536239943,58.67295529481861,49.40037487284892,0.0,0.1005837768316268,0,0,0
4780,178319.1818083766,2011-01-12 13:19:42,1140.1279366667695,4,20,0.1681279987096786,4.199653148651123,14.533439508332949,13.818970536239943,58.73260547276459,49.40037487284892,0.0,0.1005837768316268,0,0,0
4781,178698.2862472558,2011-01-12 13:26:01,1519.2323755209136,4,20,0.1179186180233955,4.199653148651123,14.548352730907066,13.818970536239943,58.79523687503916,49.40037487284892,0.0,0.1005837768316268,0,0,0
4782,179356.13658482753,2011-01-12 13:36:59,2177.082713102656,4,20,0.0678898468613624,4.199653148651123,14.564891039466502,13.818970536239943,58.86469385083184,49.40037487284892,-3.23295607813634e-05,0.1005837768316268,0,0,0
4783,179765.09938220333,2011-01-12 13:43:48,2586.045510478423,4,20,0.0498289167881011,4.199814796447754,14.571560789915589,13.818970536239943,58.89270534333359,49.40037487284892,3.23295607813634e-05,0.1005837768316268,0,0,0
4784,179795.11816946568,2011-01-12 13:44:18,30.015190013957863,5,20,0.0,4.191235065460205,14.571560789915589,13.818970536239943,58.89270534333359,49.40037487284892,-3.24249267578125e-05,0.1005837768316268,0,0,0
4785,179825.11775182557,2011-01-12 13:44:48,60.01477240391437,5,20,0.0,4.189778327941895,14.571560789915589,13.818970536239943,58.89270534333359,49.40037487284892,0.0,0.1005837768316268,0,0,0
4786,179825.30976804823,2011-01-12 13:44:48,0.187560889447546,6,20,-1.9243103452026844e-05,4.189939975738525,14.571560789915589,13.818970537242514,58.89270534333359,49.40037487704963,0.0,0.1012117490172386,0,0,0
4787,179830.13788215918,2011-01-12 13:44:53,5.015674920185694,6,20,0.0005225847125984,4.1896162033081055,14.571561651594314,13.8189705373268,58.89270895364551,49.40037487740278,-6.47544875391759e-05,0.1012117490172386,0,0,0
4788,179860.15748152748,2011-01-12 13:45:23,30.015157302430676,7,20,-1.0997490882873535,3.995838880538941,14.571561651594314,13.828139567013048,58.89270895364551,49.43724688927583,-0.0011008739238604,0.1012117490172386,0,0,0
4789,179890.1726725439,2011-01-12 13:45:53,60.030348338937046,7,20,-1.099568486213684,3.959900379180908,14.571561651594314,13.837308492598028,58.89270895364551,49.47370986453574,-0.0008418083307333,0.1012117490172386,0,0,0
4790,179920.1878518512,2011-01-12 13:46:23,90.04552762616059,7,20,-1.0997490882873535,3.934160470962525,14.571561651594314,13.846477394581743,58.89270895364551,49.509895453116734,-0.0005827903514727,0.1012117490172386,0,0,0
4791,179950.20331809862,2011-01-12 13:46:53,120.0609938886147,7,20,-1.099568486213684,3.913439273834229,14.571561651594314,13.8556463509019,58.89270895364551,49.54586918004715,-0.0005503654247149,0.1012117490172386,0,0,0
4792,179980.21823723748,2011-01-12 13:47:23,150.07591302245595,7,20,-1.099929690361023,3.895631790161133,14.571561651594314,13.864815127330647,58.89270895364551,49.581667851417855,-0.0004856586456298,0.1012117490172386,0,0,0
4793,180010.2334152465,2011-01-12 13:47:53,180.0910910164564,7,20,-1.0997490882873535,3.880090713500977,14.571561651594314,13.87398392333082,58.89270895364551,49.61731522496135,-0.0004209041653666,0.1012117490172386,0,0,0
4794,180040.2485865288,2011-01-12 13:48:23,210.10626229371667,7,20,-1.0997490882873535,3.86552095413208,14.571561651594314,13.883152729590384,58.89270895364551,49.65282510021747,-0.0003885269106831,0.1012117490172386,0,0,0
4795,180070.26404494667,2011-01-12 13:48:53,240.1217207266572,7,20,-1.0997490882873535,3.8519225120544434,14.571561651594314,13.892321618458425,58.89270895364551,49.68820619972615,-0.0003561496851034,0.1012117490172386,0,0,0
4796,180100.2789308126,2011-01-12 13:49:23,270.13660657754707,7,20,-1.099568486213684,3.839133501052856,14.571561651594314,13.90149037780194,58.89270895364551,49.723464876646766,-0.0003561496851034,0.1012117490172386,0,0,0
4797,180130.29410645075,2011-01-12 13:49:53,300.1517822106635,7,20,-1.0997490882873535,3.8265066146850586,14.571561651594314,13.910659157166066,58.89270895364551,49.75860684270426,-0.0003237724304199,0.1012117490172386,0,0,0
4798,180160.30928669532,2011-01-12 13:50:23,330.1669624602856,7,20,-1.0997490882873535,3.8145270347595215,14.571561651594314,13.919828010849512,58.89270895364551,49.79363607392972,-0.0002913951757363,0.1012117490172386,0,0,0
4799,180190.32463853768,2011-01-12 13:50:53,360.182314317607,7,20,-1.0997490882873535,3.8027093410491934,14.571561651594314,13.928996795069148,58.89270895364551,49.828555944105645,-0.0002913951757363,0.1012117490172386,0,0,0
4800,180220.3396419114,2011-01-12 13:51:23,390.1973176863876,7,20,-1.0997490882873535,3.791539192199707,14.571561651594314,13.938165592835135,58.89270895364551,49.86337138487431,-0.0003237724304199,0.1012117490172386,0,0,0
4801,180250.35482978003,2011-01-12 13:51:53,420.21250563519845,7,20,-1.099568486213684,3.7808547019958496,14.571561651594314,13.947334436146116,58.89270895364551,49.89808603808613,-0.0002913951757363,0.1012117490172386,0,0,0
4802,180280.36999786436,2011-01-12 13:52:23,450.227673639301,7,20,-1.099568486213684,3.770332098007202,14.571561651594314,13.95650322595166,58.89270895364551,49.93270246625156,-0.0002590179501567,0.1012117490172386,0,0,0
4803,180310.385186134,2011-01-12 13:52:53,480.2428618938739,7,20,-1.0997490882873535,3.7599713802337646,14.571561651594314,13.965671988291415,58.89270895364551,49.96722399966101,-0.0002913951757363,0.1012117490172386,0,0,0
4804,180340.4003797068,2011-01-12 13:53:23,510.2580554917641,7,20,-1.0997490882873535,3.750096559524536,14.571561651594314,13.974840855440696,58.89270895364551,50.0016540236367,-0.0002590179501567,0.1012117490172386,0,0,0
4805,180370.4155351396,2011-01-12 13:53:53,540.27321091451,7,20,-1.099929690361023,3.7403833866119385,14.571561651594314,13.98400968076936,58.89270895364551,50.03599407114278,-0.0002913951757363,0.1012117490172386,0,0,0
4806,180400.43083054115,2011-01-12 13:54:23,570.2885063411888,7,20,-1.099568486213684,3.7311558723449703,14.571561651594314,13.993178469119432,58.89270895364551,50.07024734851139,-0.0002590179501567,0.1012117490172386,0,0,0
4807,180430.4458603308,2011-01-12 13:54:53,600.3035361057558,7,20,-1.099568486213684,3.722252130508423,14.571561651594314,14.002347174587348,58.89270895364551,50.10441615062598,-0.0001942634553415,0.1012117490172386,0,0,0
4808,180460.46101102172,2011-01-12 13:55:23,630.3186868217712,7,20,-1.099929690361023,3.713186502456665,14.571561651594314,14.01151587423532,58.89270895364551,50.13850324210448,-0.0002913951757363,0.1012117490172386,0,0,0
4809,180490.47617883532,2011-01-12 13:55:53,660.333854625374,7,20,-1.0997490882873535,3.704606533050537,14.571561651594314,14.020684607847134,58.89270895364551,50.17250944874435,-0.0002266406954731,0.1012117490172386,0,0,0
4810,180520.4913658268,2011-01-12 13:56:23,690.3490416017613,7,20,-1.0997490882873535,3.696026563644409,14.571561651594314,14.02985327571826,58.89270895364551,50.20643591228503,-0.0002266406954731,0.1012117490172386,0,0,0
4811,180550.50655323424,2011-01-12 13:56:53,720.3642290292729,7,20,-1.0997490882873535,3.687608480453491,14.571561651594314,14.039021968504468,58.89270895364551,50.240285132667495,-0.0002266406954731,0.1012117490172386,0,0,0
4812,180580.5218381197,2011-01-12 13:57:23,750.3795139196922,7,20,-1.0997490882873535,3.679514169692993,14.571561651594314,14.048190616413727,58.89270895364551,50.27405879224125,-0.0002266406954731,0.1012117490172386,0,0,0
4813,180610.5369207961,2011-01-12 13:57:53,780.394596566057,7,20,-1.099568486213684,3.671420097351074,14.571561651594314,14.057359235649376,58.89270895364551,50.307758605143015,-0.0002589702489785,0.1012117490172386,0,0,0
4814,180640.5520553669,2011-01-12 13:58:23,810.4097311418458,7,20,-1.0997490882873535,3.663649559020996,14.571561651594314,14.066527979047953,58.89270895364551,50.34138582530549,-0.0001942634553415,0.1012117490172386,0,0,0
4815,180670.5674479707,2011-01-12 13:58:53,840.4251237356953,7,20,-1.0997490882873535,3.656202793121338,14.571561651594314,14.075696803330258,58.89270895364551,50.37494277679096,-0.0001942634553415,0.1012117490172386,0,0,0
4816,180700.58467623967,2011-01-12 13:59:23,870.4423521148863,7,20,-1.0997490882873535,3.6485941410064697,14.571561651594314,14.084866131907024,58.89270895364551,50.40843234495558,-0.0001942634553415,0.1012117490172386,0,0,0
4817,180730.5975601812,2011-01-12 13:59:53,900.4552359511397,7,20,-1.099568486213684,3.641147375106812,14.571561651594314,14.094033998573543,58.89270895364551,50.44184792243638,-0.0001942634553415,0.1012117490172386,0,0,0
4818,180760.61275111244,2011-01-12 14:00:23,930.470426887396,7,20,-1.1001102924346924,3.633700609207153,14.571561651594314,14.1032025923786,58.89270895364551,50.4751989334469,-0.0002266406954731,0.1012117490172386,0,0,0
4819,180790.6279293771,2011-01-12 14:00:53,960.4856051420464,7,20,-1.0997490882873535,3.626901388168335,14.571561651594314,14.1123712600662,58.89270895364551,50.50848511843197,-0.0002266406954731,0.1012117490172386,0,0,0
4820,180820.64310557663,2011-01-12 14:01:23,990.5007813515994,7,20,-1.0997490882873535,3.620425939559937,14.571561651594314,14.12153986627654,58.89270895364551,50.54170961850882,-0.0001942634553415,0.1012117490172386,0,0,0
4821,180850.6582490446,2011-01-12 14:01:53,1020.5159248145376,7,20,-1.099568486213684,3.614274263381958,14.571561651594314,14.130708536298274,58.89270895364551,50.57487497141644,-0.0001295089750783,0.1012117490172386,0,0,0
4822,180880.673449284,2011-01-12 14:02:24,1050.5311250439556,7,20,-1.0997490882873535,3.60779881477356,14.571561651594314,14.139877228639866,58.89270895364551,50.60798344711698,-0.0002266406954731,0.1012117490172386,0,0,0
4823,180910.6886120651,2011-01-12 14:02:54,1080.5462878501037,7,20,-1.0997490882873535,3.602132797241211,14.571561651594314,14.149045984793275,58.89270895364551,50.641036643059294,-0.0001618862152099,0.1012117490172386,0,0,0
4824,180940.7037575832,2011-01-12 14:03:24,1110.5614333481135,7,20,-1.099568486213684,3.5961430072784424,14.571561651594314,14.158214711491189,58.89270895364551,50.67403524143096,-0.0001295089750783,0.1012117490172386,0,0,0
4825,180970.7189408353,2011-01-12 14:03:54,1140.576616600219,7,20,-1.0997490882873535,3.590477228164673,14.571561651594314,14.16738342240686,58.89270895364551,50.70698156670336,-0.0001618862152099,0.1012117490172386,0,0,0
4826,181000.7341088544,2011-01-12 14:04:24,1170.5917846243717,7,20,-1.0997490882873535,3.585134983062744,14.571561651594314,14.17655224762628,58.89270895364551,50.73987756911845,-9.713172767078504e-05,0.1012117490172386,0,0,0
4827,181030.74933275284,2011-01-12 14:04:54,1200.6070085378174,7,20,-1.099568486213684,3.5797927379608154,14.571561651594314,14.18572109840508,58.89270895364551,50.77272420843427,-0.0001618862152099,0.1012117490172386,0,0,0
4828,181060.7644517498,2011-01-12 14:05:24,1230.6221275097164,7,20,-1.0997490882873535,3.5746123790740967,14.571561651594314,14.194889979291837,58.89270895364551,50.805522735753954,-0.0001295089750783,0.1012117490172386,0,0,0
4829,181090.7724242555,2011-01-12 14:05:54,1260.6301001307104,7,20,-1.0997490882873535,3.569593906402588,14.571561651594314,14.204056652563551,58.89270895364551,50.83826751079105,-0.0001295089750783,0.1012117490172386,0,0,0
4830,181120.7792627549,2011-01-12 14:06:24,1290.6369385198495,7,20,-1.0997490882873535,3.564899206161499,14.571561651594314,14.213222953244744,58.89270895364551,50.87096689716893,-0.0001295089750783,0.1012117490172386,0,0,0
4831,181150.79446256327,2011-01-12 14:06:54,1320.6521383232057,7,20,-1.0997490882873535,3.56020450592041,14.571561651594314,14.222391865865028,58.89270895364551,50.903631648423215,-9.713172767078504e-05,0.1012117490172386,0,0,0
4832,181180.80979066133,2011-01-12 14:07:24,1350.6674665917362,7,20,-1.099568486213684,3.5551860332489014,14.571561651594314,14.231560779143743,58.89270895364551,50.93625179683664,-0.0001295089750783,0.1012117490172386,0,0,0
4833,181210.8248047519,2011-01-12 14:07:54,1380.6824805118142,7,20,-1.0997490882873535,3.5501675605773926,14.571561651594314,14.240729559691088,58.89270895364551,50.96882628709344,-0.0001618862152099,0.1012117490172386,0,0,0
4834,181240.83997116203,2011-01-12 14:08:24,1410.6976471324683,7,20,-1.0997490882873535,3.5456347465515137,14.571561651594314,14.249898418693723,58.89270895364551,51.00135684222209,-9.713172767078504e-05,0.1012117490172386,0,0,0
4835,181270.8551574918,2011-01-12 14:08:54,1440.7128332567322,7,20,-1.0993878841400146,3.540940046310425,14.571561651594314,14.259067182820504,58.89270895364551,51.03384334283596,-9.713172767078504e-05,0.1012117490172386,0,0,0
4836,181300.87033827772,2011-01-12 14:09:24,1470.7280141429408,7,20,-1.099568486213684,3.536569118499756,14.571561651594314,14.268236046563848,58.89270895364551,51.06628807189205,-9.713172767078504e-05,0.1012117490172386,0,0,0
4837,181330.88554017636,2011-01-12 14:09:54,1500.743215961319,7,20,-1.099568486213684,3.531712532043457,14.571561651594314,14.277404850359297,58.89270895364551,51.09869073888872,-0.0001295089750783,0.1012117490172386,0,0,0
4838,181360.900677098,2011-01-12 14:10:24,1530.7583528629043,7,20,-1.0997490882873535,3.527179718017578,14.571561651594314,14.286573693609927,58.89270895364551,51.13105154258318,-9.713172767078504e-05,0.1012117490172386,0,0,0
4839,181390.91601418343,2011-01-12 14:10:54,1560.7736900636974,7,20,-1.099568486213684,3.5224850177764893,14.571561651594314,14.295742557609255,58.89270895364551,51.16336970876176,-0.0001618862152099,0.1012117490172386,0,0,0
4840,181420.9310798074,2011-01-12 14:11:24,1590.788755672599,7,20,-1.0997490882873535,3.5179522037506104,14.571561651594314,14.304911262280486,58.89270895364551,51.19564452292427,-9.713172767078504e-05,0.1012117490172386,0,0,0
4841,181450.9548636298,2011-01-12 14:11:54,1620.8125395049967,7,20,-1.0997490882873535,3.5130956172943115,14.571561651594314,14.314082711124588,58.89270895364551,51.227886564600034,-0.0001295089750783,0.1012117490172386,0,0,0
4842,181480.9615019252,2011-01-12 14:12:24,1650.8191777202412,7,20,-1.099929690361023,3.5084011554718018,14.571561651594314,14.323248903368706,58.89270895364551,51.26006766007552,-0.0001618862152099,0.1012117490172386,0,0,0
4843,181510.976549414,2011-01-12 14:12:54,1680.8342251789074,7,20,-1.099568486213684,3.504030227661133,14.571561651594314,14.332417619839353,58.89270895364551,51.292215101271225,-9.713172767078504e-05,0.1012117490172386,0,0,0
4844,181540.99417283272,2011-01-12 14:13:24,1710.8518486277335,7,20,-1.099568486213684,3.499335527420044,14.571561651594314,14.3415871310864,58.89270895364551,51.324323375873405,-0.0001295089750783,0.1012117490172386,0,0,0
4845,181571.0069072516,2011-01-12 14:13:54,1740.8645830115056,7,20,-1.0997490882873535,3.494478940963745,14.571561651594314,14.350755163815116,58.89270895364551,51.35638326646755,-0.0001295089750783,0.1012117490172386,0,0,0
4846,181601.02213230787,2011-01-12 14:14:24,1770.8798081078996,7,20,-1.0997490882873535,3.4894604682922363,14.571561651594314,14.359923892721696,58.89270895364551,51.38840100539397,-0.0001618862152099,0.1012117490172386,0,0,0
4847,181631.0372568587,2011-01-12 14:14:54,1800.8949326236157,7,20,-1.0997490882873535,3.484603881835937,14.571561651594314,14.36909260098332,58.89270895364551,51.42037264577616,-0.0001295089750783,0.1012117490172386,0,0,0
4848,181661.05260577367,2011-01-12 14:15:24,1830.910281538604,7,20,-1.0997490882873535,3.478937864303589,14.571561651594314,14.3782613566942,58.89270895364551,51.45229579169848,-0.0001618862152099,0.1012117490172386,0,0,0
4849,181691.06759074665,2011-01-12 14:15:54,1860.925266526574,7,20,-1.099568486213684,3.47359561920166,14.571561651594314,14.387429900870288,58.89270895364551,51.48416834625802,-0.0001295089750783,0.1012117490172386,0,0,0
4850,181721.0828726045,2011-01-12 14:16:24,1890.94054839446,7,20,-1.099568486213684,3.4674439430236816,14.571561651594314,14.39659857893624,58.89270895364551,51.5159883587061,-0.0001942634553415,0.1012117490172386,0,0,0
4851,181751.09805126511,2011-01-12 14:16:54,1920.9557271503595,7,20,-1.099568486213684,3.461292266845703,14.571561651594314,14.405767216898251,58.89270895364551,51.54775293912055,-0.0001942634553415,0.1012117490172386,0,0,0
4852,181781.11311880383,2011-01-12 14:17:24,1950.9707945637588,7,20,-1.0997490882873535,3.4546549320220947,14.571561651594314,14.414935897661186,58.89270895364551,51.579459521816574,-0.0002266406954731,0.1012117490172386,0,0,0
4853,181811.1282933843,2011-01-12 14:17:54,1980.985969269564,7,20,-1.0997490882873535,3.4475319385528564,14.571561651594314,14.42410455921506,58.89270895364551,51.61110264091519,-0.0001942634553415,0.1012117490172386,0,0,0
4854,181841.1434330929,2011-01-12 14:18:24,2011.0011089530835,7,20,-1.099568486213684,3.4395995140075684,14.571561651594314,14.433273154060842,58.89270895364551,51.642676318774335,-0.0002590179501567,0.1012117490172386,0,0,0
4855,181871.1586228512,2011-01-12 14:18:54,2041.0162986161663,7,20,-1.0997490882873535,3.4310197830200195,14.571561651594314,14.442441822423197,58.89270895364551,51.67417362626241,-0.0001942157687153,0.1012117490172386,0,0,0
4856,181901.1739083281,2011-01-12 14:19:24,2071.03158409806,7,20,-1.099568486213684,3.420820951461792,14.571561651594314,14.45161048253354,58.89270895364551,51.70558481341151,-0.0002913951757363,0.1012117490172386,0,0,0
4857,181931.188954273,2011-01-12 14:19:54,2101.046630133178,7,20,-1.0997490882873535,3.409165143966675,14.571561651594314,14.460779095180404,58.89270895364551,51.73689648818656,-0.0003561496851034,0.1012117490172386,0,0,0
4858,181961.20412201143,2011-01-12 14:20:24,2131.061797966856,7,20,-1.0997490882873535,3.395566701889038,14.571561651594314,14.46994776257972,58.89270895364551,51.76809221117865,-0.0003561496851034,0.1012117490172386,0,0,0
4859,181991.219248046,2011-01-12 14:20:54,2161.076923921157,7,20,-1.0997490882873535,3.379054307937622,14.571561651594314,14.479116359826811,58.89270895364551,51.799150927441424,-0.0004856586456298,0.1012117490172386,0,0,0
4860,182021.2347688443,2011-01-12 14:21:24,2191.0924446343192,7,20,-1.0997490882873535,3.358980417251587,14.571561651594314,14.488285338631178,58.89270895364551,51.83004504173622,-0.0005827903514727,0.1012117490172386,0,0,0
4861,182051.2496071016,2011-01-12 14:21:54,2221.107282956754,7,20,-1.099568486213684,3.333888292312622,14.571561651594314,14.497454640347572,58.89270895364551,51.86073332001772,-0.0007122993702068,0.1012117490172386,0,0,0
4862,182081.2647617173,2011-01-12 14:22:24,2251.1224375724887,7,20,-1.0997490882873535,3.30167293548584,14.571561651594314,14.506624016844697,58.89270895364551,51.891160900571634,-0.0009389400365762,0.1012117490172386,0,0,0
4863,182111.2799357765,2011-01-12 14:22:54,2281.1376115364446,7,20,-1.1001102924346924,3.259906530380249,14.571561651594314,14.515793411033645,58.89270895364551,51.92125348873658,-0.0012627125252038,0.1012117490172386,0,0,0
4864,182141.29525080704,2011-01-12 14:23:24,2311.1529267223696,7,20,-1.0997490882873535,3.2048652172088623,14.571561651594314,14.524962642230722,58.89270895364551,51.95090610253958,-0.0016836166614666,0.1012117490172386,0,0,0
4865,182171.3102623913,2011-01-12 14:23:54,2341.1679381612635,7,20,-1.099568486213684,3.12877893447876,14.571561651594314,14.534131277212143,58.89270895364551,51.97996192842727,-0.0023635388351976,0.1012117490172386,0,0,0
4866,182201.325435047,2011-01-12 14:24:24,2371.183110826984,7,20,-1.0997490882873535,3.0188586711883545,14.571561651594314,14.543299888253884,58.89270895364551,52.0081788202136,-0.0034643174149096,0.1012117490172386,0,0,0
4867,182231.34061502595,2011-01-12 14:24:54,2401.198290795907,7,20,-1.0997490882873535,2.8462884426116943,14.571561651594314,14.552468567081975,58.89270895364551,52.0351241709785,-0.0055040838196873,0.1012117490172386,0,0,0
4868,182250.85595670715,2011-01-12 14:25:14,2420.713632482109,7,20,-1.0997490882873535,2.699943780899048,14.571561651594314,14.558429891143987,58.89270895364551,52.05166327590007,-0.0061840056441724,0.1012117490172386,0,0,0
4869,182310.86689356732,2011-01-12 14:26:14,60.01690769571856,8,20,0.0,3.5411019325256348,14.571561651594314,14.558429891143987,58.89270895364551,52.05166327590007,0.0013922214275225,0.1012117490172386,0,0,0
4870,182311.0475193056,2011-01-12 14:26:14,0.187743845430149,9,20,-1.9243103452026844e-05,3.5412638187408447,14.571561651594314,14.558429892147538,58.89270895364551,52.0516632794539,0.0,0.1011203974485397,0,0,0
4871,182315.8754422351,2011-01-12 14:26:19,5.015666779897591,9,20,0.0007031940040178,3.5495200157165527,14.571562497858029,14.5584298923132,58.892711954392766,52.05166328004056,0.0011979580158367,0.1011203974485397,0,0,0
