Data_Point,Test_Time(s),Date_Time,Step_Time(s),Step_Index,Cycle_Index,Current(A),Voltage(V),Charge_Capacity(Ah),Discharge_Capacity(Ah),Charge_Energy(Wh),Discharge_Energy(Wh),dV/dt(V/s),Internal_Resistance(Ohm),Is_FC_Data,AC_Impedance(Ohm),ACI_Phase_Angle(Deg)
6967,263233.9848008536,2011-01-13 12:55:08,30.015244765415343,1,30,0.0,3.6087701320648193,20.882833541953296,20.844419335986583,84.46905578128715,74.41545774659103,0.0006799221155233,0.102924108505249,0,0,0
6968,263263.9997722427,2011-01-13 12:55:38,60.03021614446775,1,30,0.0,3.629815340042114,20.882833541953296,20.844419335986583,84.46905578128715,74.41545774659103,0.0004532813909463,0.102924108505249,0,0,0
6969,263294.01495993085,2011-01-13 12:56:09,90.04540384265401,1,30,0.0,3.644708871841431,20.882833541953296,20.844419335986583,84.46905578128715,74.41545774659103,0.0003561496851034,0.102924108505249,0,0,0
6970,263323.9831046585,2011-01-13 12:56:38,120.01354857529536,1,30,0.0,3.656202793121338,20.882833541953296,20.844419335986583,84.46905578128715,74.41545774659103,0.0002590179501567,0.102924108505249,0,0,0
6971,263353.9896571494,2011-01-13 12:57:09,30.015121468120547,2,30,0.550297200679779,3.77875018119812,20.88742022732473,20.844419335986583,84.48629538739729,74.41545774659103,0.0008418083307333,0.102924108505249,0,0,0
6972,263384.0050854823,2011-01-13 12:57:39,60.030549806055085,2,30,0.550297200679779,3.801414251327514,20.8920069847716,20.844419335986583,84.503684623539,74.41545774659103,0.0004856586456298,0.102924108505249,0,0,0
6973,263414.01989823603,2011-01-13 12:58:09,90.04536254472684,2,30,0.5499359965324402,3.815174579620361,20.896593610210125,20.844419335986583,84.52115387485891,74.41545774659103,0.0002913951757363,0.102924108505249,0,0,0
6974,263444.0351118488,2011-01-13 12:58:39,120.06057614747525,2,30,0.5501165986061096,3.825697183609009,20.901180261266955,20.844419335986583,84.53867778720479,74.41545774659103,0.0002590179501567,0.102924108505249,0,0,0
6975,263474.0501579992,2011-01-13 12:59:09,150.07562231291837,2,30,0.5501165986061096,3.834438800811768,20.905766853490658,20.844419335986583,84.55624496551935,74.41545774659103,0.0002266406954731,0.102924108505249,0,0,0
6976,263504.06529890577,2011-01-13 12:59:39,180.0907632094605,2,30,0.5501165986061096,3.842371225357056,20.91035351345212,20.844419335986583,84.57385057968465,74.41545774659103,0.0002266406954731,0.102924108505249,0,0,0
6977,263534.0804041836,2011-01-13 13:00:09,210.10586849224225,2,30,0.5499359965324402,3.849332332611084,20.91494011188935,20.844419335986583,84.59149037597167,74.41545774659103,0.0001295089750783,0.102924108505249,0,0,0
6978,263564.0955131656,2011-01-13 13:00:39,240.120977469231,2,30,0.5501165986061096,3.8561315536499023,20.91952670740119,20.844419335986583,84.6091619133702,74.41545774659103,0.0001295089750783,0.102924108505249,0,0,0
6979,263594.11066510464,2011-01-13 13:01:09,270.13612944338195,2,30,0.550297200679779,3.862283229827881,20.92411334190273,20.844419335986583,84.62686317639849,74.41545774659103,0.0001618862152099,0.102924108505249,0,0,0
6980,263624.1257776655,2011-01-13 13:01:39,300.1512419692156,2,30,0.5501165986061096,3.8682730197906494,20.928699925745377,20.844419335986583,84.64459210733685,74.41545774659103,0.0001618862152099,0.102924108505249,0,0,0
6981,263654.1408729384,2011-01-13 13:02:09,330.16633725708687,2,30,0.5501165986061096,3.873777151107788,20.93328657308027,20.844419335986583,84.66234761788587,74.41545774659103,0.0001295089750783,0.102924108505249,0,0,0
6982,263684.15612234536,2011-01-13 13:02:39,360.1815866540454,2,30,0.5501165986061096,3.879281282424927,20.937873239391624,20.844419335986583,84.68012809248792,74.41545774659103,0.0001942634553415,0.102924108505249,0,0,0
6983,263714.17138149665,2011-01-13 13:03:09,390.1968459306272,2,30,0.5501165986061096,3.884299755096436,20.94245989672918,20.844419335986583,84.69793260440302,74.41545774659103,0.0001295089750783,0.102924108505249,0,0,0
6984,263744.188535315,2011-01-13 13:03:39,420.2139998141522,2,30,0.550297200679779,3.889318227767944,20.947046941812427,20.844419335986583,84.715761893267,74.41545774659103,0.0001295089750783,0.102924108505249,0,0,0
6985,263774.2013690063,2011-01-13 13:04:09,450.22683331996666,2,30,0.5501165986061096,3.894174814224243,20.951633279630755,20.844419335986583,84.73361091873666,74.41545774659103,0.0001295089750783,0.102924108505249,0,0,0
6986,263804.21655268443,2011-01-13 13:04:39,480.24201699813386,2,30,0.5501165986061096,3.898707628250122,20.956219924519708,20.844419335986583,84.75148244204948,74.41545774659103,9.713172767078504e-05,0.102924108505249,0,0,0
6987,263834.2316108047,2011-01-13 13:05:09,510.2570751183719,2,30,0.5501165986061096,3.903240442276001,20.960806583371856,20.844419335986583,84.7693749853048,74.41545774659103,0.0001295089750783,0.102924108505249,0,0,0
6988,263864.2469606219,2011-01-13 13:05:39,540.2724249556587,2,30,0.5501165986061096,3.90761137008667,20.96539329279893,20.844419335986583,84.7872877616078,74.41545774659103,0.0001295089750783,0.102924108505249,0,0,0
6989,263894.2618450242,2011-01-13 13:06:09,570.2873093328758,2,30,0.5499359965324402,3.911496639251709,20.96997986385018,20.844419335986583,84.80521910995841,74.41545774659103,9.713172767078504e-05,0.102924108505249,0,0,0
6990,263924.27697180555,2011-01-13 13:06:39,600.302436109226,2,30,0.550297200679779,3.915381669998169,20.97456654928847,20.844419335986583,84.8231692661795,74.41545774659103,9.713172767078504e-05,0.102924108505249,0,0,0
6991,263954.2921129527,2011-01-13 13:07:09,630.3175773566427,2,30,0.5501165986061096,3.919266939163208,20.9791531853614,20.844419335986583,84.84113670088608,74.41545774659103,0.0001295089750783,0.102924108505249,0,0,0
6992,263984.30724105233,2011-01-13 13:07:39,660.3327053560412,2,30,0.5499359965324402,3.922666549682617,20.98373984123724,20.844419335986583,84.85912094263452,74.41545774659103,6.47544875391759e-05,0.102924108505249,0,0,0
6993,264014.3223877333,2011-01-13 13:08:09,690.3478520720873,2,30,0.5501165986061096,3.9260661602020255,20.98832647102654,20.844419335986583,84.87712090088473,74.41545774659103,9.713172767078504e-05,0.102924108505249,0,0,0
6994,264044.3374520039,2011-01-13 13:08:39,720.362916312579,2,30,0.550297200679779,3.929465770721436,20.992913151119097,20.844419335986583,84.89513615721663,74.41545774659103,0.0001295089750783,0.102924108505249,0,0,0
6995,264074.3525716023,2011-01-13 13:09:09,750.3780359260772,2,30,0.5501165986061096,3.932541608810425,20.997499811774222,20.844419335986583,84.91316597014357,74.41545774659103,9.713172767078504e-05,0.102924108505249,0,0,0
6996,264104.36784503923,2011-01-13 13:09:39,780.3933093679632,2,30,0.5501165986061096,3.935455560684204,21.002086551273926,20.844419335986583,84.93121017599941,74.41545774659103,9.713172767078504e-05,0.102924108505249,0,0,0
6997,264134.3828112604,2011-01-13 13:10:09,810.4082755741233,2,30,0.550297200679779,3.938531398773194,21.006673258948556,20.844419335986583,84.94926791316925,74.41545774659103,9.713172767078504e-05,0.102924108505249,0,0,0
6998,264164.3980704518,2011-01-13 13:10:39,840.42353476048,2,30,0.5501165986061096,3.9414453506469727,21.011259923308497,20.844419335986583,84.96733880645617,74.41545774659103,9.713172767078504e-05,0.102924108505249,0,0,0
6999,264194.4130582267,2011-01-13 13:11:09,870.4385225454209,2,30,0.5501165986061096,3.944035530090332,21.01584654859164,20.844419335986583,84.98542249772639,74.41545774659103,3.237724376958795e-05,0.102924108505249,0,0,0
7000,264224.4286214308,2011-01-13 13:11:39,900.4540857494832,2,30,0.5501165986061096,3.9469494819641113,21.020433324670087,20.844419335986583,85.00351950298588,74.41545774659103,0.0001295089750783,0.102924108505249,0,0,0
7001,264254.44342859054,2011-01-13 13:12:09,930.4688929242882,2,30,0.550297200679779,3.949539661407471,21.025019932929887,20.844419335986583,85.02162817878649,74.41545774659103,6.47544875391759e-05,0.102924108505249,0,0,0
7002,264284.4584182,2011-01-13 13:12:39,960.4838825037016,2,30,0.5499359965324402,3.95196795463562,21.029606560175218,20.844419335986583,85.03974919027037,74.41545774659103,6.47544875391759e-05,0.102924108505249,0,0,0
7003,264314.4736560131,2011-01-13 13:13:09,990.4991203568894,2,30,0.5499359965324402,3.9547200202941895,21.03419323464681,20.844419335986583,85.05788249554197,74.41545774659103,6.47544875391759e-05,0.102924108505249,0,0,0
7004,264344.4888155511,2011-01-13 13:13:39,1020.5142798848668,2,30,0.5501165986061096,3.957148313522339,21.038779849109915,20.844419335986583,85.07602745281554,74.41545774659103,0.0,0.102924108505249,0,0,0
7005,264374.5037878725,2011-01-13 13:14:09,1050.529252186218,2,30,0.5499359965324402,3.959738492965698,21.043366439258087,20.844419335986583,85.09418410565299,74.41545774659103,3.237724376958795e-05,0.102924108505249,0,0,0
7006,264404.518919536,2011-01-13 13:14:39,1080.544383834711,2,30,0.5501165986061096,3.962490558624268,21.04795309182175,20.844419335986583,85.11235278114464,74.41545774659103,6.47544875391759e-05,0.102924108505249,0,0,0
7007,264434.53406543005,2011-01-13 13:15:09,1110.5595297637958,2,30,0.5501165986061096,3.964918851852417,21.052539776673424,20.844419335986583,85.13053309418092,74.41545774659103,3.237724376958795e-05,0.102924108505249,0,0,0
7008,264464.5491728532,2011-01-13 13:15:39,1140.5746372420494,2,30,0.5501165986061096,3.9673471450805664,21.05712641238824,20.844419335986583,85.14872458897395,74.41545774659103,6.47544875391759e-05,0.102924108505249,0,0,0
7009,264494.5642734593,2011-01-13 13:16:09,1170.5897377780004,2,30,0.550297200679779,3.969937324523926,21.061713113189203,20.844419335986583,85.16692759592806,74.41545774659103,6.47544875391759e-05,0.102924108505249,0,0,0
7010,264524.57952218456,2011-01-13 13:16:39,1200.6049864982724,2,30,0.5499359965324402,3.972203731536865,21.06629987492001,20.844419335986583,85.1851420959452,74.41545774659103,6.47544875391759e-05,0.102924108505249,0,0,0
7011,264554.59451676643,2011-01-13 13:17:09,1230.619981085166,2,30,0.550297200679779,3.9747939109802246,21.070886547818667,20.844419335986583,85.2033673698865,74.41545774659103,6.47544875391759e-05,0.102924108505249,0,0,0
7012,264584.6097802385,2011-01-13 13:17:39,1260.6352445622165,2,30,0.5501165986061096,3.977060317993164,21.07547322459457,20.844419335986583,85.22160377730822,74.41545774659103,3.237724376958795e-05,0.102924108505249,0,0,0
7013,264614.624771447,2011-01-13 13:18:09,1290.6502357556526,2,30,0.5501165986061096,3.9794886112213135,21.080059836217337,20.844419335986583,85.23985057476413,74.41545774659103,3.237724376958795e-05,0.102924108505249,0,0,0
7014,264644.64004055806,2011-01-13 13:18:39,1320.665504871757,2,30,0.550297200679779,3.981916904449463,21.08464635271949,20.844419335986583,85.25810828187491,74.41545774659103,6.47544875391759e-05,0.102924108505249,0,0,0
7015,264674.65513188107,2011-01-13 13:19:09,1350.6805961897346,2,30,0.5499359965324402,3.9841833114624015,21.08923297045865,20.844419335986583,85.27637718829985,74.41545774659103,3.237724376958795e-05,0.102924108505249,0,0,0
7016,264704.67014102923,2011-01-13 13:19:39,1380.6956053329066,2,30,0.5501165986061096,3.986611604690552,21.09381952383795,20.844419335986583,85.29465654488787,74.41545774659103,9.713172767078504e-05,0.102924108505249,0,0,0
7017,264734.6852637003,2011-01-13 13:20:09,1410.7107281293377,2,30,0.5501165986061096,3.989039897918701,21.09840609054461,20.844419335986583,85.3129465716529,74.41545774659103,9.713172767078504e-05,0.102924108505249,0,0,0
7018,264764.70038718346,2011-01-13 13:20:39,1440.7258514971932,2,30,0.5501165986061096,3.991144418716431,21.102992661323235,20.844419335986583,85.33124728646058,74.41545774659103,6.47544875391759e-05,0.102924108505249,0,0,0
7019,264794.71562342264,2011-01-13 13:21:09,1470.7410877363584,2,30,0.5501165986061096,3.99341082572937,21.107579269776668,20.844419335986583,85.34955885053066,74.41545774659103,3.237724376958795e-05,0.102924108505249,0,0,0
7020,264824.73084659426,2011-01-13 13:21:39,1500.7563108929178,2,30,0.5499359965324402,3.995838880538941,21.11216595694806,20.844419335986583,85.36788139339852,74.41545774659103,3.237724376958795e-05,0.102924108505249,0,0,0
7021,264854.74804098875,2011-01-13 13:22:09,1530.773505482896,2,30,0.5501165986061096,3.99826717376709,21.11675287464569,20.844419335986583,85.38621547282587,74.41545774659103,6.47544875391759e-05,0.102924108505249,0,0,0
7022,264884.76086160744,2011-01-13 13:22:39,1560.786325911117,2,30,0.5501165986061096,4.000533580780029,21.12133910225802,20.844419335986583,85.4045571959876,74.41545774659103,6.47544875391759e-05,0.102924108505249,0,0,0
7023,264914.77598442393,2011-01-13 13:23:09,1590.8014487326109,2,30,0.5499359965324402,4.002638339996338,21.12592563833273,20.844419335986583,85.42291067765235,74.41545774659103,3.24249267578125e-05,0.102924108505249,0,0,0
7024,264944.79111748096,2011-01-13 13:23:39,1620.8165818748264,2,30,0.5501165986061096,4.005066394805908,21.13051220301452,20.844419335986583,85.4412748234964,74.41545774659103,9.70840483205393e-05,0.102924108505249,0,0,0
7025,264974.80620625254,2011-01-13 13:24:09,1650.831670556233,2,30,0.5501165986061096,4.007332801818848,21.135098779499938,20.844419335986583,85.45964959377676,74.41545774659103,3.23295607813634e-05,0.102924108505249,0,0,0
7026,265004.8213655199,2011-01-13 13:24:39,1680.8468298285727,2,30,0.5501165986061096,4.009599208831787,21.13968537219295,20.844419335986583,85.47803490832563,74.41545774659103,6.47544875391759e-05,0.102924108505249,0,0,0
7027,265034.8364961759,2011-01-13 13:25:10,1710.86196047958,2,30,0.5501165986061096,4.011865615844727,21.14427189139361,20.844419335986583,85.49643030417472,74.41545774659103,6.47544875391759e-05,0.102924108505249,0,0,0
7028,265064.85164619016,2011-01-13 13:25:40,1740.8771105138962,2,30,0.5501165986061096,4.014132022857666,21.148858513208395,20.844419335986583,85.51483666950035,74.41545774659103,3.23295607813634e-05,0.102924108505249,0,0,0
7029,265094.86672905704,2011-01-13 13:26:10,1770.8921933657732,2,30,0.550297200679779,4.0165605545043945,21.153445118613977,20.844419335986583,85.53325353012944,74.41545774659103,6.47544875391759e-05,0.102924108505249,0,0,0
7030,265124.8818660539,2011-01-13 13:26:40,1800.907330362596,2,30,0.5501165986061096,4.018826961517334,21.158031798862453,20.844419335986583,85.55168139724627,74.41545774659103,3.24249267578125e-05,0.102924108505249,0,0,0
7031,265154.8969765597,2011-01-13 13:27:10,1830.9224408683951,2,30,0.550297200679779,4.021417140960693,21.162618486173795,20.844419335986583,85.57011996181348,74.41545774659103,9.71794142969884e-05,0.102924108505249,0,0,0
7032,265184.91211276955,2011-01-13 13:27:40,1860.9375770732445,2,30,0.550297200679779,4.023845195770264,21.16720511539341,20.844419335986583,85.58856928914037,74.41545774659103,9.70840483205393e-05,0.102924108505249,0,0,0
7033,265214.9272262077,2011-01-13 13:28:10,1890.9526905113512,2,30,0.5501165986061096,4.025949954986572,21.171791673423904,20.844419335986583,85.60702924496738,74.41545774659103,6.47544875391759e-05,0.102924108505249,0,0,0
7034,265244.9423425681,2011-01-13 13:28:40,1920.9678068717417,2,30,0.5499359965324402,4.028378009796143,21.176378281807,20.844419335986583,85.62550040811817,74.41545774659103,6.47544875391759e-05,0.102924108505249,0,0,0
7035,265274.95749631664,2011-01-13 13:29:10,1950.9829606453773,2,30,0.5499359965324402,4.030644416809082,21.180964867571635,20.844419335986583,85.64398250498627,74.41545774659103,6.47544875391759e-05,0.102924108505249,0,0,0
7036,265304.9727328766,2011-01-13 13:29:40,1980.99819720033,2,30,0.5501165986061096,4.033234596252441,21.18555138880356,20.844419335986583,85.66247530488776,74.41545774659103,9.70840483205393e-05,0.102924108505249,0,0,0
7037,265334.987766997,2011-01-13 13:30:10,2011.0132313007032,2,30,0.5501165986061096,4.035662651062012,21.19013793927219,20.844419335986583,85.68097938685719,74.41545774659103,3.23295607813634e-05,0.102924108505249,0,0,0
7038,265365.00282731774,2011-01-13 13:30:40,2041.0282916164133,2,30,0.5501165986061096,4.038252830505371,21.194724506159965,20.844419335986583,85.6994949026805,74.41545774659103,6.47544875391759e-05,0.102924108505249,0,0,0
7039,265395.01795707154,2011-01-13 13:31:10,2071.043421375197,2,30,0.550297200679779,4.0406813621521,21.199311100245232,20.844419335986583,85.71802193825187,74.41545774659103,9.71794142969884e-05,0.102924108505249,0,0,0
7040,265425.0330878378,2011-01-13 13:31:40,2101.058552146504,2,30,0.5499359965324402,4.042947769165039,21.20389771588876,20.844419335986583,85.73656043772394,74.41545774659103,3.24249267578125e-05,0.102924108505249,0,0,0
7041,265455.0482313709,2011-01-13 13:32:10,2131.073695679617,2,30,0.5501165986061096,4.045699596405029,21.208484298600677,20.844419335986583,85.75511031167107,74.41545774659103,3.23295607813634e-05,0.102924108505249,0,0,0
7042,265485.06347143964,2011-01-13 13:32:40,2161.0889357784013,2,30,0.550297200679779,4.048128128051758,21.21307095680969,20.844419335986583,85.77367213887139,74.41545774659103,3.24249267578125e-05,0.102924108505249,0,0,0
7043,265515.07856362977,2011-01-13 13:33:10,2191.1040279485023,2,30,0.5501165986061096,4.050718307495117,21.21765756600656,20.844419335986583,85.79224549162672,74.41545774659103,6.47544875391759e-05,0.102924108505249,0,0,0
7044,265545.09357268777,2011-01-13 13:33:40,2221.1190369914248,2,30,0.5501165986061096,4.053308486938477,21.22224415530782,20.844419335986583,85.81083058890377,74.41545774659103,3.24249267578125e-05,0.102924108505249,0,0,0
7045,265575.10868299805,2011-01-13 13:34:10,2251.134147301737,2,30,0.5501165986061096,4.056060314178467,21.22683078223111,20.844419335986583,85.82942770827323,74.41545774659103,0.0001295089750783,0.102924108505249,0,0,0
7046,265605.12382872164,2011-01-13 13:34:40,2281.1492930303216,2,30,0.5501165986061096,4.058650493621826,21.231417428381235,20.844419335986583,85.84803700500088,74.41545774659103,6.47544875391759e-05,0.102924108505249,0,0,0
7047,265635.1389246812,2011-01-13 13:35:10,2311.164388984854,2,30,0.5501165986061096,4.061079025268555,21.23600413551659,20.844419335986583,85.86665859988163,74.41545774659103,9.71794142969884e-05,0.102924108505249,0,0,0
7048,265665.156253215,2011-01-13 13:35:40,2341.181717533699,2,30,0.5501165986061096,4.063830852508545,21.24059111012309,20.844419335986583,85.8852933399034,74.41545774659103,6.47544875391759e-05,0.102924108505249,0,0,0
7049,265695.1692408048,2011-01-13 13:36:10,2371.194705218776,2,30,0.5499359965324402,4.066583156585693,21.245177390475742,20.844419335986583,85.90393776377162,74.41545774659103,6.47544875391759e-05,0.102924108505249,0,0,0
7050,265725.1842887547,2011-01-13 13:36:40,2401.209753063404,2,30,0.5501165986061096,4.069497108459473,21.249763927177124,20.844419335986583,85.92259581869683,74.41545774659103,9.71794142969884e-05,0.102924108505249,0,0,0
7051,265755.199432358,2011-01-13 13:37:10,2431.22489666168,2,30,0.5499359965324402,4.072248935699463,21.254350548180412,20.844419335986583,85.94126689233192,74.41545774659103,9.70840483205393e-05,0.102924108505249,0,0,0
7052,265785.21474693745,2011-01-13 13:37:40,2461.240211246106,2,30,0.5501165986061096,4.075001239776611,21.25893711864945,20.844419335986583,85.95995064999939,74.41545774659103,6.47544875391759e-05,0.102924108505249,0,0,0
7053,265815.22964776563,2011-01-13 13:38:10,2491.255112094373,2,30,0.550297200679779,4.077915191650391,21.263523677499744,20.844419335986583,85.97864742324445,74.41545774659103,9.71794142969884e-05,0.102924108505249,0,0,0
7054,265845.2448230028,2011-01-13 13:38:40,2521.2702873064404,2,30,0.5499359965324402,4.080667018890381,21.268110316693637,20.844419335986583,85.99735772600026,74.41545774659103,6.47544875391759e-05,0.102924108505249,0,0,0
7055,265875.2600090819,2011-01-13 13:39:10,2551.285473390604,2,30,0.5499359965324402,4.08358097076416,21.272696931670996,20.844419335986583,86.01608110672102,74.41545774659103,6.47544875391759e-05,0.102924108505249,0,0,0
7056,265905.27524919074,2011-01-13 13:39:40,2581.3007135395137,2,30,0.5501165986061096,4.08649492263794,21.277283534674503,20.844419335986583,86.03481796348368,74.41545774659103,3.23295607813634e-05,0.102924108505249,0,0,0
7057,265935.2901842142,2011-01-13 13:40:10,2611.3156485278696,2,30,0.550297200679779,4.089732646942139,21.28187008803388,20.844419335986583,86.05356815366017,74.41545774659103,0.0001295089750783,0.102924108505249,0,0,0
7058,265965.305284715,2011-01-13 13:40:40,2641.330749018708,2,30,0.5501165986061096,4.092646598815918,21.286456674971404,20.844419335986583,86.07233209207413,74.41545774659103,0.0001295089750783,0.102924108505249,0,0,0
7059,265995.3204193259,2011-01-13 13:41:10,2671.345883634597,2,30,0.5501165986061096,4.095560550689697,21.29104326991622,20.844419335986583,86.0911097132223,74.41545774659103,9.70840483205393e-05,0.102924108505249,0,0,0
7060,266025.33566639206,2011-01-13 13:41:40,2701.361130695734,2,30,0.5499359965324402,4.098474502563477,21.29562990312154,20.844419335986583,86.10990133984443,74.41545774659103,3.23295607813634e-05,0.102924108505249,0,0,0
7061,266055.350662172,2011-01-13 13:42:10,2731.3761265006638,2,30,0.550297200679779,4.101550579071045,21.300216485424045,20.844419335986583,86.12870682916792,74.41545774659103,6.47544875391759e-05,0.102924108505249,0,0,0
7062,266085.3657863568,2011-01-13 13:42:40,2761.3912506805423,2,30,0.550297200679779,4.104788303375244,21.304803111457307,20.844419335986583,86.14752657717216,74.41545774659103,9.71794142969884e-05,0.102924108505249,0,0,0
7063,266115.3809384864,2011-01-13 13:43:10,2791.406402820105,2,30,0.5501165986061096,4.108026027679443,21.309389707113937,20.844419335986583,86.16636066439455,74.41545774659103,9.71794142969884e-05,0.102924108505249,0,0,0
7064,266145.3964592697,2011-01-13 13:43:40,2821.42192359843,2,30,0.5499359965324402,4.1111016273498535,21.31397637483345,20.844419335986583,86.18520955335363,74.41545774659103,9.70840483205393e-05,0.102924108505249,0,0,0
7065,266175.4111032728,2011-01-13 13:44:10,2851.4365676065736,2,30,0.5501165986061096,4.114339351654053,21.318562983824524,20.844419335986583,86.20407276513664,74.41545774659103,0.0001295089750783,0.102924108505249,0,0,0
7066,266205.4262525152,2011-01-13 13:44:40,2881.451716848916,2,30,0.5501165986061096,4.117577075958252,21.323150303067717,20.844419335986583,86.22295373207668,74.41545774659103,9.71794142969884e-05,0.102924108505249,0,0,0
7067,266235.44138712605,2011-01-13 13:45:10,2911.4668514297173,2,30,0.550297200679779,4.120814800262451,21.327737623986668,20.844419335986583,86.24184951363505,74.41545774659103,0.0001295089750783,0.102924108505249,0,0,0
7068,266265.4566308589,2011-01-13 13:45:40,2941.4820951826086,2,30,0.5501165986061096,4.123890399932861,21.33232500525011,20.844419335986583,86.26076042744386,74.41545774659103,9.70840483205393e-05,0.102924108505249,0,0,0
7069,266295.4715960876,2011-01-13 13:46:10,2971.497060396296,2,30,0.5504778623580933,4.1274518966674805,21.33691217485589,20.844419335986583,86.2796854663188,74.41545774659103,9.70840483205393e-05,0.102924108505249,0,0,0
7070,266325.4867735152,2011-01-13 13:46:40,3001.512237823884,2,30,0.5501165986061096,4.13068962097168,21.34149880163041,20.844419335986583,86.29862345520016,74.41545774659103,9.70840483205393e-05,0.102924108505249,0,0,0
7071,266355.50198873697,2011-01-13 13:47:10,3031.5274530607053,2,30,0.5501165986061096,4.134089469909668,21.34608543959493,20.844419335986583,86.317576878328,74.41545774659103,9.71794142969884e-05,0.102924108505249,0,0,0
7072,266385.5169965117,2011-01-13 13:47:40,3061.5424608354665,2,30,0.5501165986061096,4.137327194213867,21.350671971087163,20.844419335986583,86.33654520878788,74.41545774659103,0.0001295089750783,0.102924108505249,0,0,0
7073,266415.5321109373,2011-01-13 13:48:10,3091.557575240985,2,30,0.5499359965324402,4.140726566314697,21.355258538814457,20.844419335986583,86.35552925013573,74.41545774659103,6.47544875391759e-05,0.102924108505249,0,0,0
7074,266445.5472342901,2011-01-13 13:48:40,3121.5726985887904,2,30,0.5499359965324402,4.1441264152526855,21.35984513627917,20.844419335986583,86.37452903425354,74.41545774659103,9.71794142969884e-05,0.102924108505249,0,0,0
7075,266475.5623412371,2011-01-13 13:49:10,3151.587805550758,2,30,0.5499359965324402,4.147687911987305,21.364431663758563,20.844419335986583,86.39354467294649,74.41545774659103,6.47544875391759e-05,0.102924108505249,0,0,0
7076,266505.5774820935,2011-01-13 13:49:40,3181.602946402187,2,30,0.550297200679779,4.151249408721924,21.369018142910043,20.844419335986583,86.41257609313304,74.41545774659103,9.71794142969884e-05,0.102924108505249,0,0,0
7077,266535.5927418112,2011-01-13 13:50:10,3211.618206134905,2,30,0.550297200679779,4.154810905456543,21.373604720707892,20.844419335986583,86.43162408425918,74.41545774659103,0.0001295089750783,0.102924108505249,0,0,0
7078,266565.6077039923,2011-01-13 13:50:40,3241.6331683210465,2,30,0.5501165986061096,4.158372402191162,21.37819119861621,20.844419335986583,86.4506879896209,74.41545774659103,9.71794142969884e-05,0.102924108505249,0,0,0
7079,266595.6228398162,2011-01-13 13:51:10,3271.648304114871,2,30,0.5499359965324402,4.161933898925781,21.382777714841737,20.844419335986583,86.46976853008863,74.41545774659103,9.71794142969884e-05,0.102924108505249,0,0,0
7080,266625.6379403271,2011-01-13 13:51:40,3301.663404630772,2,30,0.5501165986061096,4.1654953956604,21.387364258046578,20.844419335986583,86.48886563545129,74.41545774659103,6.47544875391759e-05,0.102924108505249,0,0,0
7081,266655.6530610634,2011-01-13 13:52:10,3331.678525372081,2,30,0.5499359965324402,4.16921854019165,21.39195071744937,20.844419335986583,86.50797909051295,74.41545774659103,9.70840483205393e-05,0.102924108505249,0,0,0
7082,266685.66816678725,2011-01-13 13:52:40,3361.693631116012,2,30,0.550297200679779,4.172942161560059,21.396537258893257,20.844419335986583,86.52710967463196,74.41545774659103,0.0001295089750783,0.102924108505249,0,0,0
7083,266715.6832890223,2011-01-13 13:53:10,3391.708753320969,2,30,0.550297200679779,4.176665306091309,21.401123846646733,20.844419335986583,86.54625731069459,74.41545774659103,9.70840483205393e-05,0.102924108505249,0,0,0
7084,266745.6986511853,2011-01-13 13:53:40,3421.7241154839758,2,30,0.5501165986061096,4.180388927459717,21.405710419492625,20.844419335986583,86.56542179755645,74.41545774659103,0.0001295089750783,0.102924108505249,0,0,0
7085,266775.7158226176,2011-01-13 13:54:10,3451.7412869312748,2,30,0.5501165986061096,4.183950424194336,21.41029730253833,20.844419335986583,86.58460484955012,74.41545774659103,6.47544875391759e-05,0.102924108505249,0,0,0
7086,266805.7286678276,2011-01-13 13:54:40,3481.7541321262224,2,30,0.5501165986061096,4.187673568725586,21.414883528025523,20.844419335986583,86.60380240675273,74.41545774659103,6.47544875391759e-05,0.102924108505249,0,0,0
7087,266835.74378427817,2011-01-13 13:55:10,3511.7692486019,2,30,0.5501165986061096,4.191720962524414,21.41947006142248,20.844419335986583,86.62301873166236,74.41545774659103,0.0001295089750783,0.102924108505249,0,0,0
7088,266865.7590490134,2011-01-13 13:55:40,3541.784513352124,2,30,0.550297200679779,4.195444107055664,21.42405661941586,20.844419335986583,86.64225271187948,74.41545774659103,9.71794142969884e-05,0.102924108505249,0,0,0
7089,266895.7740996299,2011-01-13 13:56:10,3571.79956404886,2,30,0.5501165986061096,4.199491024017334,21.42864320429896,20.844419335986583,86.66150449702118,74.41545774659103,0.0001295089750783,0.102924108505249,0,0,0
7090,266899.99269851134,2011-01-13 13:56:15,3576.018162815016,2,30,0.550297200679779,4.200138568878174,21.42928784302073,20.844419335986583,86.6642117413452,74.41545774659103,0.0001295089750783,0.102924108505249,0,0,0
7091,266929.9967156327,2011-01-13 13:56:45,30.0151215683704,3,30,0.0,4.0992841720581055,21.42928784302073,20.844419335986583,86.6642117413452,74.41545774659103,-0.0004532813909463,0.102924108505249,0,0,0
7092,266960.01407634164,2011-01-13 13:57:15,60.03248229240569,3,30,0.0,4.086333274841309,21.42928784302073,20.844419335986583,86.6642117413452,74.41545774659103,-0.0002590179501567,0.102924108505249,0,0,0
7093,266990.02699040325,2011-01-13 13:57:45,90.04539637403992,3,30,0.0,4.0782389640808105,21.42928784302073,20.844419335986583,86.6642117413452,74.41545774659103,-0.0001942634553415,0.102924108505249,0,0,0
7094,267019.9953378962,2011-01-13 13:58:15,120.0137439572473,3,30,0.0,4.072734832763672,21.42928784302073,20.844419335986583,86.6642117413452,74.41545774659103,-0.0001295089750783,0.102924108505249,0,0,0
7095,267020.0017769452,2011-01-13 13:58:15,0.015659939387396,4,30,1.0245771408081057,4.199653148651123,21.42929234509707,20.844419335986583,86.66423064886715,74.41545774659103,-3.23295607813634e-05,0.102924108505249,0,0,0
7096,267020.7985007561,2011-01-13 13:58:16,0.812383740244918,4,30,0.9729229211807252,4.199491024017334,21.429512031589784,20.844419335986583,86.66515327021298,74.41545774659103,-6.47544875391759e-05,0.102924108505249,0,0,0
7097,267022.72048005485,2011-01-13 13:58:18,2.734363049060736,4,30,0.9225329160690308,4.199653148651123,21.430017094243265,20.844419335986583,86.66727440037013,74.41545774659103,-3.23295607813634e-05,0.102924108505249,0,0,0
7098,267025.56422458624,2011-01-13 13:58:21,5.578107720781024,4,30,0.8725041747093201,4.199814796447754,21.430725011659145,20.844419335986583,86.67024747669618,74.41545774659103,3.23295607813634e-05,0.102924108505249,0,0,0
7099,267029.47024903604,2011-01-13 13:58:24,9.484132020188778,4,30,0.8222947716712952,4.199814796447754,21.43164331076696,20.844419335986583,86.67410411971449,74.41545774659103,-3.24249267578125e-05,0.102924108505249,0,0,0
7100,267034.6258361053,2011-01-13 13:58:30,14.639718778725438,4,30,0.7717242240905762,4.199653148651123,21.43278354047551,20.844419335986583,86.67889282103745,74.41545774659103,-3.23295607813634e-05,0.102924108505249,0,0,0
7101,267041.313792315,2011-01-13 13:58:36,21.32767528918227,4,30,0.7216954231262207,4.199814796447754,21.43416900692081,20.844419335986583,86.68471148845497,74.41545774659103,0.0,0.102924108505249,0,0,0
7102,267050.0480106345,2011-01-13 13:58:45,30.061893628736232,4,30,0.67166668176651,4.199814796447754,21.435856262138618,20.844419335986583,86.69179759760857,74.41545774659103,3.23295607813634e-05,0.102924108505249,0,0,0
7103,267062.11032970017,2011-01-13 13:58:57,42.12421268430551,4,30,0.6216378808021545,4.199814796447754,21.438018130964156,20.844419335986583,86.70087702868032,74.41545774659103,0.0,0.102924108505249,0,0,0
7104,267080.0006676821,2011-01-13 13:59:15,60.01455068632592,4,30,0.5716091394424438,4.199814796447754,21.440973979877224,20.844419335986583,86.71329110054621,74.41545774659103,0.0,0.102924108505249,0,0,0
7105,267110.68763856066,2011-01-13 13:59:46,90.7015215699127,4,30,0.5215803384780884,4.199814796447754,21.44561185408082,20.844419335986583,86.73276939829135,74.41545774659103,0.0,0.102924108505249,0,0,0
7106,267170.04602372565,2011-01-13 14:00:45,150.0599066997748,4,30,0.4715515673160553,4.199653148651123,21.453755066426776,20.844419335986583,86.76696956161442,74.41545774659103,0.0,0.102924108505249,0,0,0
7107,267270.1381157465,2011-01-13 14:02:25,250.15199873068264,4,30,0.4215227961540222,4.199814796447754,21.466140011041823,20.844419335986583,86.81898441201936,74.41545774659103,0.0,0.102924108505249,0,0,0
7108,267404.16712002986,2011-01-13 14:04:39,384.181003029088,4,30,0.3714940249919891,4.199814796447754,21.480891838843217,20.844419335986583,86.88093974723446,74.41545774659103,3.23295607813634e-05,0.102924108505249,0,0,0
7109,267564.5706465529,2011-01-13 14:07:20,544.5845295370771,4,30,0.3214652836322784,4.199814796447754,21.49631281678549,20.844419335986583,86.94570538541328,74.41545774659103,0.0,0.102924108505249,0,0,0
7110,267756.0361919595,2011-01-13 14:10:31,736.0500749487184,4,30,0.2714365124702453,4.199653148651123,21.51205908147844,20.844419335986583,87.0118372086435,74.41545774659103,-3.23295607813634e-05,0.102924108505249,0,0,0
7111,267993.9229111296,2011-01-13 14:14:29,973.9367941388538,4,30,0.2214077264070511,4.199814796447754,21.528309973380235,20.844419335986583,87.08008833088493,74.41545774659103,3.23295607813634e-05,0.102924108505249,0,0,0
7112,268299.07423436985,2011-01-13 14:19:34,1279.0881174743206,4,30,0.171378955245018,4.199653148651123,21.544891022098515,20.844419335986583,87.14972614127032,74.41545774659103,-3.23295607813634e-05,0.102924108505249,0,0,0
7113,268731.2072750813,2011-01-13 14:26:46,1711.2211580755113,4,30,0.1213501915335655,4.199814796447754,21.562296986917797,20.844419335986583,87.22282831442179,74.41545774659103,0.0,0.102924108505249,0,0,0
7114,269469.4137742276,2011-01-13 14:39:04,2449.4276572168324,4,30,0.0713214203715324,4.199814796447754,21.581543427727453,20.844419335986583,87.30366017253853,74.41545774659103,-3.24249267578125e-05,0.102924108505249,0,0,0
7115,270042.77916900656,2011-01-13 14:48:38,3022.7930520057685,4,30,0.0498289167881011,4.199653148651123,21.59112228309624,20.844419335986583,87.34388975987589,74.41545774659103,-3.23295607813634e-05,0.102924108505249,0,0,0
7116,270072.8045599754,2011-01-13 14:49:08,30.01512756832413,5,30,0.0,4.190425872802734,21.59112228309624,20.844419335986583,87.34388975987589,74.41545774659103,-6.47544875391759e-05,0.102924108505249,0,0,0
7117,270102.80405397504,2011-01-13 14:49:38,60.01462154292235,5,30,0.0,4.188807010650635,21.59112228309624,20.844419335986583,87.34388975987589,74.41545774659103,-6.47544875391759e-05,0.102924108505249,0,0,0
7118,270103.0028502544,2011-01-13 14:49:38,0.187400614994293,6,30,0.0010644125286489,4.1892924308776855,21.591122338505,20.844419335986583,87.34388999199945,74.41545774659103,0.0,0.1060699149966239,0,0,0
7119,270107.83117715066,2011-01-13 14:49:43,5.015727526296308,6,30,0.0007031940040178,4.188807010650635,21.59112321975558,20.844419335986583,87.34389368360641,74.41545774659103,-6.47544875391759e-05,0.1060699149966239,0,0,0
7120,270131.248219944,2011-01-13 14:50:07,23.42148023535581,7,30,-1.099568486213684,3.988716125488281,21.59112321975558,20.851573450055863,87.34389368360641,74.4441646798195,-0.0013921738136559,0.1060699149966239,0,0,0
7121,270161.2636367683,2011-01-13 14:50:37,53.43689716485703,7,30,-1.099568486213684,3.945330619812012,21.59112321975558,20.860741598366666,87.34389368360641,74.4805254918896,-0.0010360718006268,0.1060699149966239,0,0,0
7122,270191.2785843029,2011-01-13 14:51:07,83.45184460424443,7,30,-1.099568486213684,3.9131155014038086,21.59112321975558,20.86990954954389,87.34389368360641,74.51654272426428,-0.0008093834039755,0.1060699149966239,0,0,0
7123,270221.2937221117,2011-01-13 14:51:37,113.46698239304112,7,30,-1.099568486213684,3.8880231380462646,21.59112321975558,20.87907755264868,87.34389368360641,74.55229868391848,-0.0006151676061563,0.1060699149966239,0,0,0
7124,270251.3087015308,2011-01-13 14:52:07,143.48196182215676,7,30,-1.099568486213684,3.8676254749298096,21.59112321975558,20.8882455564734,87.34389368360641,74.5878475499394,-0.0004856586456298,0.1060699149966239,0,0,0
7125,270281.3238256856,2011-01-13 14:52:37,173.4970859669484,7,30,-1.0993878841400146,3.849979877471924,21.59112321975558,20.897413569998715,87.34389368360641,74.62322318618497,-0.0004532813909463,0.1060699149966239,0,0,0
7126,270311.3389467477,2011-01-13 14:53:07,203.51220703908203,7,30,-1.099568486213684,3.8342769145965576,21.59112321975558,20.906581584615417,87.34389368360641,74.65844708411143,-0.0004209041653666,0.1060699149966239,0,0,0
7127,270341.35421812953,2011-01-13 14:53:37,233.52747843587093,7,30,-1.099568486213684,3.81986927986145,21.59112321975558,20.915749717536137,87.34389368360641,74.69353359533203,-0.0003885269106831,0.1060699149966239,0,0,0
7128,270371.36924243043,2011-01-13 14:54:07,263.54250282704584,7,30,-1.099568486213684,3.8062708377838135,21.59112321975558,20.92491772846754,87.34389368360641,74.7284908814318,-0.0003561496851034,0.1060699149966239,0,0,0
7129,270401.3843271519,2011-01-13 14:54:37,293.5575874332953,7,30,-1.099568486213684,3.7933199405670166,21.59112321975558,20.93408580839141,87.34389368360641,74.76332667020264,-0.0003561496851034,0.1060699149966239,0,0,0
7130,270431.3994418081,2011-01-13 14:55:07,323.5727020944508,7,30,-1.099568486213684,3.7811784744262695,21.59112321975558,20.94325387122637,87.34389368360641,74.79804784160109,-0.0003237724304199,0.1060699149966239,0,0,0
7131,270461.41469969123,2011-01-13 14:55:37,353.5879599925969,7,30,-1.0993878841400146,3.769846439361572,21.59112321975558,20.952421989045348,87.34389368360641,74.83266066496923,-0.0002913951757363,0.1060699149966239,0,0,0
7132,270491.429731135,2011-01-13 14:56:07,383.6029914213116,7,30,-1.0993878841400146,3.758514404296875,21.59112321975558,20.961590030031104,87.34389368360641,74.86716963822573,-0.0002590179501567,0.1060699149966239,0,0,0
7133,270521.44482273364,2011-01-13 14:56:37,413.61808301998826,7,30,-1.099568486213684,3.7478301525115967,21.59112321975558,20.97075812946063,87.34389368360641,74.90157837465954,-0.0002913951757363,0.1060699149966239,0,0,0
7134,270551.4599316856,2011-01-13 14:57:07,443.6331919719146,7,30,-1.099568486213684,3.737307548522949,21.59112321975558,20.97992617954008,87.34389368360641,74.93589013720785,-0.0002913951757363,0.1060699149966239,0,0,0
7135,270581.47734690545,2011-01-13 14:57:37,473.6506072920201,7,30,-1.0997490882873535,3.7274324893951416,21.59112321975558,20.989094910176743,87.34389368360641,74.97011116276576,-0.0002590179501567,0.1060699149966239,0,0,0
7136,270611.4901814989,2011-01-13 14:58:07,503.6634417903082,7,30,-1.099568486213684,3.717719316482544,21.59112321975558,20.99826221855176,87.34389368360641,75.00423692160525,-0.0002266406954731,0.1060699149966239,0,0,0
7137,270641.50536539766,2011-01-13 14:58:37,533.6786256890249,7,30,-1.0993878841400146,3.708329916000366,21.59112321975558,21.007430357602978,87.34389368360641,75.03827704611845,-0.0002266406954731,0.1060699149966239,0,0,0
7138,270671.52041695657,2011-01-13 14:59:07,563.6936772479102,7,30,-1.0997490882873535,3.6991024017333984,21.59112321975558,21.016598472364844,87.34389368360641,75.07223202046825,-0.0001942634553415,0.1060699149966239,0,0,0
7139,270701.5357585232,2011-01-13 14:59:37,593.709018814584,7,30,-1.099568486213684,3.6901986598968506,21.59112321975558,21.0257666247544,87.34389368360641,75.10610445759797,-0.0002266406954731,0.1060699149966239,0,0,0
7140,270731.5507999068,2011-01-13 15:00:07,623.7240602181591,7,30,-1.099568486213684,3.681618690490722,21.59112321975558,21.03493468805163,87.34389368360641,75.13989602439663,-0.0001942634553415,0.1060699149966239,0,0,0
7141,270761.565794629,2011-01-13 15:00:37,653.73905492034,7,30,-1.0997490882873535,3.6728768348693848,21.59112321975558,21.044102821348723,87.34389368360641,75.17360946691272,-0.0002590179501567,0.1060699149966239,0,0,0
7142,270791.58093556063,2011-01-13 15:01:07,683.7541958720195,7,30,-1.099568486213684,3.664782762527466,21.59112321975558,21.05327093419629,87.34389368360641,75.20724531754628,-0.0001942634553415,0.1060699149966239,0,0,0
7143,270821.59617318324,2011-01-13 15:01:37,713.7694334896204,7,30,-1.0997490882873535,3.656526565551758,21.59112321975558,21.06243906854251,87.34389368360641,75.24080601573803,-0.0002266406954731,0.1060699149966239,0,0,0
7144,270851.6111779205,2011-01-13 15:02:07,743.7844382969862,7,30,-1.099568486213684,3.64875602722168,21.59112321975558,21.07160711068189,87.34389368360641,75.27429284779434,-0.0001618862152099,0.1060699149966239,0,0,0
7145,270881.6262764614,2011-01-13 15:02:37,773.7995367477405,7,30,-1.099568486213684,3.640823602676392,21.59112321975558,21.080775165241167,87.34389368360641,75.30770678920173,-0.0001942634553415,0.1060699149966239,0,0,0
7146,270911.6414757736,2011-01-13 15:03:07,803.8147362503471,7,30,-1.099568486213684,3.632891178131104,21.59112321975558,21.08994323924983,87.34389368360641,75.34104930651306,-0.0002266406954731,0.1060699149966239,0,0,0
7147,270941.65665604325,2011-01-13 15:03:37,833.8299163295444,7,30,-1.0997490882873535,3.6252825260162354,21.59112321975558,21.09911134158216,87.34389368360641,75.37432178544532,-0.0002266406954731,0.1060699149966239,0,0,0
7148,270971.6717698873,2011-01-13 15:04:07,863.8450301987261,7,30,-1.0993878841400146,3.617997646331787,21.59112321975558,21.10827942229316,87.34389368360641,75.40752470098568,-0.0001618862152099,0.1060699149966239,0,0,0
7149,271001.6868006093,2011-01-13 15:04:37,893.8600609206792,7,30,-1.099568486213684,3.610712766647339,21.59112321975558,21.11744742995217,87.34389368360641,75.44066083290953,-0.0001942634553415,0.1060699149966239,0,0,0
7150,271031.7018843233,2011-01-13 15:05:07,923.8751446096423,7,30,-1.0993878841400146,3.603751659393311,21.59112321975558,21.126615448632297,87.34389368360641,75.47373146796016,-0.0001618862152099,0.1060699149966239,0,0,0
7151,271061.7172926163,2011-01-13 15:05:37,953.8905529176564,7,30,-1.0997490882873535,3.596952438354492,21.59112321975558,21.13578360914251,87.34389368360641,75.50673922191217,-0.0001618862152099,0.1060699149966239,0,0,0
7152,271091.7321320816,2011-01-13 15:06:07,983.905392372914,7,30,-1.099568486213684,3.590315341949463,21.59112321975558,21.144951653710077,87.34389368360641,75.53968557932143,-0.0001942634553415,0.1060699149966239,0,0,0
7153,271121.74739722774,2011-01-13 15:06:37,1013.9206575592244,7,30,-1.0997490882873535,3.5838398933410645,21.59112321975558,21.15411983910267,87.34389368360641,75.57257224170395,-0.0001618862152099,0.1060699149966239,0,0,0
7154,271151.7624365111,2011-01-13 15:07:07,1043.9356968074278,7,30,-1.099568486213684,3.577526330947876,21.59112321975558,21.163287913836687,87.34389368360641,75.60540005353346,-0.0001618862152099,0.1060699149966239,0,0,0
7155,271181.7777771755,2011-01-13 15:07:37,1073.9510374718527,7,30,-1.0997490882873535,3.571374654769897,21.59112321975558,21.17245613991728,87.34389368360641,75.63817124927782,-0.0001618862152099,0.1060699149966239,0,0,0
7156,271211.7926613422,2011-01-13 15:08:07,1103.9659216285204,7,30,-1.0997490882873535,3.565384864807129,21.59112321975558,21.18162422006812,87.34389368360641,75.67088593349686,-0.0001618862152099,0.1060699149966239,0,0,0
7157,271241.80775553733,2011-01-13 15:08:37,1133.9810158286807,7,30,-1.0997490882873535,3.5597188472747803,21.59112321975558,21.190792353431657,87.34389368360641,75.70354755999455,-0.0001618862152099,0.1060699149966239,0,0,0
7158,271271.8228690556,2011-01-13 15:09:07,1163.9961293520005,7,30,-1.099929690361023,3.5542147159576416,21.59112321975558,21.19996049325349,87.34389368360641,75.73615831548112,-0.0001618862152099,0.1060699149966239,0,0,0
7159,271301.83800450363,2011-01-13 15:09:37,1194.011264789938,7,30,-1.099568486213684,3.548872470855713,21.59112321975558,21.20912864801299,87.34389368360641,75.76872001735869,-0.0001618862152099,0.1060699149966239,0,0,0
7160,271331.8531194254,2011-01-13 15:10:07,1224.0263797117432,7,30,-1.0997490882873535,3.543692111968994,21.59112321975558,21.21829683186493,87.34389368360641,75.8012332785742,-0.0001295089750783,0.1060699149966239,0,0,0
7161,271361.86824161536,2011-01-13 15:10:37,1254.041501906675,7,30,-1.099568486213684,3.5386736392974854,21.59112321975558,21.227465005913267,87.34389368360641,75.83369895303443,-9.713172767078504e-05,0.1060699149966239,0,0,0
7162,271391.883445559,2011-01-13 15:11:07,1284.0567058804252,7,30,-1.0997490882873535,3.5334932804107666,21.59112321975558,21.23663372437192,87.34389368360641,75.86612035696838,-0.0001618862152099,0.1060699149966239,0,0,0
7163,271421.89845548914,2011-01-13 15:11:37,1314.0717157754711,7,30,-1.099568486213684,3.5291223526000977,21.59112321975558,21.24580257711264,87.34389368360641,75.89849829764321,-9.713172767078504e-05,0.1060699149966239,0,0,0
7164,271451.9135644411,2011-01-13 15:12:07,1344.0868247273977,7,30,-1.0997490882873535,3.524427652359009,21.59112321975558,21.25497133753807,87.34389368360641,75.93083391909417,-0.0001295089750783,0.1060699149966239,0,0,0
7165,271481.92869586404,2011-01-13 15:12:37,1374.1019561703786,7,30,-1.0997490882873535,3.51989483833313,21.59112321975558,21.26414020870133,87.34389368360641,75.96312766258539,-9.713172767078504e-05,0.1060699149966239,0,0,0
7166,271511.9438678129,2011-01-13 15:13:07,1404.1171281042753,7,30,-1.0997490882873535,3.515200138092041,21.59112321975558,21.273309158301025,87.34389368360641,75.99538047407168,-0.0001295089750783,0.1060699149966239,0,0,0
7167,271541.9589884741,2011-01-13 15:13:37,1434.1322487754096,7,30,-1.0997490882873535,3.510829448699951,21.59112321975558,21.282478054789937,87.34389368360641,76.02759080221877,-9.713172767078504e-05,0.1060699149966239,0,0,0
7168,271571.97414030286,2011-01-13 15:14:07,1464.1474005891607,7,30,-1.0997490882873535,3.5062966346740723,21.59112321975558,21.291646651670906,87.34389368360641,76.05975911093998,-9.713172767078504e-05,0.1060699149966239,0,0,0
7169,271601.98924145533,2011-01-13 15:14:37,1494.1625017416484,7,30,-1.099568486213684,3.5017638206481934,21.59112321975558,21.30081486979391,87.34389368360641,76.09188433573551,-0.0001295089750783,0.1060699149966239,0,0,0
7170,271632.004386392,2011-01-13 15:15:07,1524.1776466832723,7,30,-1.0997490882873535,3.4972310066223145,21.59112321975558,21.309982983619488,87.34389368360641,76.1239677507182,-0.0001618862152099,0.1060699149966239,0,0,0
7171,271662.01970265555,2011-01-13 15:15:37,1554.1929629418703,7,30,-1.099568486213684,3.4926981925964355,21.59112321975558,21.31915116215489,87.34389368360641,76.15601011224551,-9.713172767078504e-05,0.1060699149966239,0,0,0
7172,271692.0347414777,2011-01-13 15:16:07,1584.2080017940868,7,30,-1.099568486213684,3.4876797199249268,21.59112321975558,21.32831930268109,87.34389368360641,76.18800758413806,-9.713172767078504e-05,0.1060699149966239,0,0,0
7173,271722.049784766,2011-01-13 15:16:37,1614.2230450572968,7,30,-1.0997490882873535,3.482823133468628,21.59112321975558,21.33748744735148,87.34389368360641,76.21996184183283,-0.0001618862152099,0.1060699149966239,0,0,0
7174,271752.064864475,2011-01-13 15:17:07,1644.2381247713531,7,30,-1.099929690361023,3.477804660797119,21.59112321975558,21.346655545117923,87.34389368360641,76.25187058781154,-0.0001295089750783,0.1060699149966239,0,0,0
7175,271782.0801396412,2011-01-13 15:17:37,1674.2533999525742,7,30,-1.099568486213684,3.4727861881256104,21.59112321975558,21.35582368981575,87.34389368360641,76.28373341347871,-9.713172767078504e-05,0.1060699149966239,0,0,0
7176,271812.0951056268,2011-01-13 15:18:07,1704.2683659181344,7,30,-1.0997490882873535,3.4674439430236816,21.59112321975558,21.36499173814809,87.34389368360641,76.31554834957028,-0.0001618862152099,0.1060699149966239,0,0,0
7177,271842.1101654864,2011-01-13 15:18:37,1734.2834258829698,7,30,-1.0997490882873535,3.461939811706543,21.59112321975558,21.374159907224232,87.34389368360641,76.34731388728238,-0.0001618862152099,0.1060699149966239,0,0,0
7178,271872.1253339516,2011-01-13 15:19:08,1764.298594242959,7,30,-1.0997490882873535,3.4562737941741943,21.59112321975558,21.383327932186795,87.34389368360641,76.37902811991731,-0.0001618862152099,0.1060699149966239,0,0,0
7179,271902.1404687028,2011-01-13 15:19:38,1794.3137290242605,7,30,-1.0993878841400146,3.450284004211426,21.59112321975558,21.3924959994328,87.34389368360641,76.41068886074825,-0.0001618862152099,0.1060699149966239,0,0,0
7180,271932.15561596525,2011-01-13 15:20:08,1824.3288762515808,7,30,-1.099929690361023,3.443808555603028,21.59112321975558,21.40166416425514,87.34389368360641,76.4422932227361,-0.0001942634553415,0.1060699149966239,0,0,0
7181,271962.1707556237,2011-01-13 15:20:38,1854.3440159351,7,30,-1.099568486213684,3.437171220779419,21.59112321975558,21.410832375229965,87.34389368360641,76.4738369929397,-0.0001618862152099,0.1060699149966239,0,0,0
7182,271992.18587167835,2011-01-13 15:21:08,1884.3591319696784,7,30,-1.099568486213684,3.42972469329834,21.59112321975558,21.420000495196657,87.34389368360641,76.5053155658865,-0.0002266406954731,0.1060699149966239,0,0,0
7183,272022.201016219,2011-01-13 15:21:38,1914.37427650529,7,30,-1.099568486213684,3.421792268753052,21.59112321975558,21.42916864223142,87.34389368360641,76.5367236813633,-0.0001942634553415,0.1060699149966239,0,0,0
7184,272052.2161501431,2011-01-13 15:22:08,1944.3894104344672,7,30,-1.099568486213684,3.412726640701294,21.59112321975558,21.43833680547029,87.34389368360641,76.56805359138589,-0.0002266406954731,0.1060699149966239,0,0,0
7185,272082.2312655462,2011-01-13 15:22:38,1974.404525857522,7,30,-1.099568486213684,3.4023659229278564,21.59112321975558,21.447505030057428,87.34389368360641,76.59929525342713,-0.0002913951757363,0.1060699149966239,0,0,0
7186,272112.2463709442,2011-01-13 15:23:08,2004.4196312405536,7,30,-1.099929690361023,3.3905482292175293,21.59112321975558,21.456673158153148,87.34389368360641,76.63043616310084,-0.0003561496851034,0.1060699149966239,0,0,0
7187,272142.2617854176,2011-01-13 15:23:38,2034.4350457089208,7,30,-1.0997490882873535,3.3764641284942627,21.59112321975558,21.46584142578262,87.34389368360641,76.66145885651997,-0.0003885269106831,0.1060699149966239,0,0,0
7188,272172.27661363984,2011-01-13 15:24:08,2064.44987392617,7,30,-1.0997490882873535,3.359304189682007,21.59112321975558,21.475009520363216,87.34389368360641,76.69233848024763,-0.0005180359003134,0.1060699149966239,0,0,0
7189,272202.2917358148,2011-01-13 15:24:38,2094.4649961060645,7,30,-1.099568486213684,3.338582992553711,21.59112321975558,21.48417769218328,87.34389368360641,76.72304632128407,-0.0006151676061563,0.1060699149966239,0,0,0
7190,272232.30686446576,2011-01-13 15:25:08,2124.4801247520745,7,30,-1.0997490882873535,3.312681198120117,21.59112321975558,21.49334588305745,87.34389368360641,76.75354108401264,-0.0007446765666827,0.1060699149966239,0,0,0
7191,272262.32214598777,2011-01-13 15:25:38,2154.4954063141986,7,30,-1.099568486213684,3.279494524002075,21.59112321975558,21.502514019092093,87.34389368360641,76.78376635995195,-0.0010036944877356,0.1060699149966239,0,0,0
7192,272292.3371231161,2011-01-13 15:26:08,2184.510383427543,7,30,-1.0997490882873535,3.236594915390014,21.59112321975558,21.51168214069358,87.34389368360641,76.81364546307941,-0.0012950897216796,0.1060699149966239,0,0,0
7193,272322.3522706041,2011-01-13 15:26:38,2214.525531025787,7,30,-1.0997490882873535,3.1799349784851074,21.59112321975558,21.520850319436462,87.34389368360641,76.8430729790437,-0.0017159938579425,0.1060699149966239,0,0,0
7194,272352.3673618319,2011-01-13 15:27:08,2244.540622148277,7,30,-1.0997490882873535,3.1017441749572754,21.59112321975558,21.530018519688497,87.34389368360641,76.87188903220401,-0.0024282454978674,0.1060699149966239,0,0,0
7195,272382.3824994301,2011-01-13 15:27:38,2274.5557597165243,7,30,-1.099568486213684,2.9890716075897217,21.59112321975558,21.53918675244409,87.34389368360641,76.89984511108356,-0.0035614967346191,0.1060699149966239,0,0,0
7196,272412.39761051245,2011-01-13 15:28:08,2304.57087079876,7,30,-1.099568486213684,2.82022476196289,21.59112321975558,21.54835498467044,87.34389368360641,76.92652099902763,-0.0051479814574122,0.1060699149966239,0,0,0
7197,272429.56943622575,2011-01-13 15:28:25,2321.742696547164,7,30,-1.099568486213684,2.699943780899048,21.59112321975558,21.55360014179594,87.34389368360641,76.94100323652576,-0.0057954788208007,0.1060699149966239,0,0,0
7198,272489.5876346184,2011-01-13 15:29:25,60.01504045197261,8,30,0.0,3.564413547515869,21.59112321975558,21.55360014179594,87.34389368360641,76.94100323652576,0.0013274669181555,0.1060699149966239,0,0,0
7199,272489.7813260583,2011-01-13 15:29:25,0.189711775116444,9,30,-1.9243103452026844e-05,3.564413547515869,21.59112321975558,21.55360014281001,87.34389368360641,76.94100324014032,0.0,0.1019293591380119,0,0,0
7200,272494.6072454644,2011-01-13 15:29:30,5.015631116012215,9,30,0.0008838032954372,3.572507858276367,21.591124025015898,21.55360014288184,87.34389655762303,76.94100324039636,0.0011655807029455,0.1019293591380119,0,0,0
