Data_Point,Test_Time(s),Date_Time,Step_Time(s),Step_Index,Cycle_Index,Current(A),Voltage(V),Charge_Capacity(Ah),Discharge_Capacity(Ah),Charge_Energy(Wh),Discharge_Energy(Wh),dV/dt(V/s),Internal_Resistance(Ohm),Is_FC_Data,AC_Impedance(Ohm),ACI_Phase_Angle(Deg)
3930,147882.78285046582,2011-01-12 04:52:21,30.015286228754743,1,17,0.0,3.598247528076172,11.77949982469818,11.761355025045852,47.60918955105651,42.07107350904327,0.0007122993702068,0.1037345305085182,0,0,0
3931,147912.79784842112,2011-01-12 04:52:51,60.03028419406829,1,17,0.0,3.6197783946990967,11.77949982469818,11.761355025045852,47.60918955105651,42.07107350904327,0.0005504131549969,0.1037345305085182,0,0,0
3932,147942.81318931613,2011-01-12 04:53:21,90.04562516425553,1,17,0.0,3.634671926498413,11.77949982469818,11.761355025045852,47.60918955105651,42.07107350904327,0.0003561496851034,0.1037345305085182,0,0,0
3933,147972.7814325493,2011-01-12 04:53:51,120.01386830716557,1,17,0.0,3.64616584777832,11.77949982469818,11.761355025045852,47.60918955105651,42.07107350904327,0.0002266406954731,0.1037345305085182,0,0,0
3934,148002.80335563392,2011-01-12 04:54:21,30.01514692657084,2,17,0.5501165986061096,3.7700083255767822,11.784087236155411,11.761355025045852,47.626389336457066,42.07107350904327,0.0008741855854168,0.1037345305085182,0,0,0
3935,148032.82077004676,2011-01-12 04:54:51,60.03256132939017,2,17,0.5501165986061096,3.7933199405670166,11.788674989959524,11.761355025045852,47.64374424703366,42.07107350904327,0.0004532813909463,0.1037345305085182,0,0,0
3936,148062.8337166043,2011-01-12 04:55:21,90.04550789698942,2,17,0.5504778623580933,3.807727813720703,11.793262102540394,11.761355025045852,47.66118007156168,42.07107350904327,0.0003237724304199,0.1037345305085182,0,0,0
3937,148092.8488284685,2011-01-12 04:55:51,120.060619761174,2,17,0.550297200679779,3.81792664527893,11.797849501813792,11.761355025045852,47.67867141809566,42.07107350904327,0.0002590179501567,0.1037345305085182,0,0,0
3938,148122.86398064316,2011-01-12 04:56:21,150.07577194584965,2,17,0.5501165986061096,3.8263447284698486,11.802436876432555,11.761355025045852,47.69620516565224,42.07107350904327,0.0002266406954731,0.1037345305085182,0,0,0
3939,148152.8791984514,2011-01-12 04:56:51,180.0909897440544,2,17,0.5501165986061096,3.833791255950928,11.807024264818269,11.761355025045852,47.71377564716023,42.07107350904327,0.0001942157687153,0.1037345305085182,0,0,0
3940,148182.89431616516,2011-01-12 04:57:21,210.10610745781796,2,17,0.5501165986061096,3.840590476989746,11.811611562093196,11.761355025045852,47.731378995352486,42.07107350904327,0.0001295089750783,0.1037345305085182,0,0,0
3941,148212.90944836003,2011-01-12 04:57:52,240.1212396526728,2,17,0.550297200679779,3.847389698028565,11.816198916322351,11.761355025045852,47.74901324674861,42.07107350904327,0.0001618862152099,0.1037345305085182,0,0,0
3942,148242.92460799325,2011-01-12 04:58:22,270.1363992809001,2,17,0.550297200679779,3.853379487991333,11.82078629769909,11.761355025045852,47.7666764231271,42.07107350904327,0.0001618862152099,0.1037345305085182,0,0,0
3943,148272.9397640225,2011-01-12 04:58:52,300.15155531517007,2,17,0.5501165986061096,3.8590455055236816,11.825373639154137,11.761355025045852,47.7843664087046,42.07107350904327,0.0001295089750783,0.1037345305085182,0,0,0
3944,148302.9551013837,2011-01-12 04:59:22,330.16689279165,2,17,0.5501165986061096,3.86454963684082,11.829961035340933,11.761355025045852,47.802082197761216,42.07107350904327,0.0001618862152099,0.1037345305085182,0,0,0
3945,148332.97005035693,2011-01-12 04:59:52,360.1818416345353,2,17,0.5501165986061096,3.869568109512329,11.83454832992507,11.761355025045852,47.81982189876166,42.07107350904327,9.713172767078504e-05,0.1037345305085182,0,0,0
3946,148362.98524398988,2011-01-12 05:00:22,390.1970352675129,2,17,0.5501165986061096,3.874586582183838,11.839135684526648,11.761355025045852,47.83758509442586,42.07107350904327,9.713172767078504e-05,0.1037345305085182,0,0,0
3947,148393.00042408414,2011-01-12 05:00:52,420.2122153767852,2,17,0.550297200679779,3.8796050548553462,11.8437230356108,11.761355025045852,47.85537071344198,42.07107350904327,0.0001295089750783,0.1037345305085182,0,0,0
3948,148423.0155698428,2011-01-12 05:01:22,450.2273611354452,2,17,0.550297200679779,3.8841378688812256,11.848310381430464,11.761355025045852,47.87317815800986,42.07107350904327,9.713172767078504e-05,0.1037345305085182,0,0,0
3949,148453.03071548618,2011-01-12 05:01:52,480.242506778818,2,17,0.5501165986061096,3.888670682907105,11.852897767641904,11.761355025045852,47.89100679925602,42.07107350904327,0.0001295089750783,0.1037345305085182,0,0,0
3950,148483.0461089121,2011-01-12 05:02:22,510.2579001897036,2,17,0.5501165986061096,3.893041610717773,11.857485209099828,11.761355025045852,47.90885607821868,42.07107350904327,0.0001295089750783,0.1037345305085182,0,0,0
3951,148513.06102845195,2011-01-12 05:02:52,540.2728197295568,2,17,0.5501165986061096,3.8970887660980233,11.862072507616697,11.761355025045852,47.926724238346765,42.07107350904327,0.0001295089750783,0.1037345305085182,0,0,0
3952,148543.07632105157,2011-01-12 05:03:22,570.2881123191647,2,17,0.550297200679779,3.9012978076934814,11.866659909030473,11.761355025045852,47.94461162781742,42.07107350904327,0.0001295089750783,0.1037345305085182,0,0,0
3953,148573.0913606707,2011-01-12 05:03:52,600.3031519733797,2,17,0.5501165986061096,3.905021190643311,11.871247291380048,11.761355025045852,47.96251714265021,42.07107350904327,3.237724376958795e-05,0.1037345305085182,0,0,0
3954,148603.10691296757,2011-01-12 05:04:22,630.3187042602332,2,17,0.5501165986061096,3.90874457359314,11.875834701458263,11.761355025045852,47.98044008631291,42.07107350904327,6.47544875391759e-05,0.1037345305085182,0,0,0
3955,148633.1216610501,2011-01-12 05:04:52,660.3334523427619,2,17,0.5501165986061096,3.912306070327759,11.880422010581968,11.761355025045852,47.99837921900176,42.07107350904327,9.713172767078504e-05,0.1037345305085182,0,0,0
3956,148663.13682040767,2011-01-12 05:05:22,690.3486116852772,2,17,0.5501165986061096,3.915543556213379,11.885009460427693,11.761355025045852,48.01633474040421,42.07107350904327,3.237724376958795e-05,0.1037345305085182,0,0,0
3957,148693.15196521897,2011-01-12 05:05:52,720.3637565116136,2,17,0.5501165986061096,3.918781280517578,11.889596861569215,11.761355025045852,48.03430505509544,42.07107350904327,6.47544875391759e-05,0.1037345305085182,0,0,0
3958,148723.16711780964,2011-01-12 05:06:22,750.3789091073136,2,17,0.5501165986061096,3.922019004821777,11.89418423915653,11.761355025045852,48.05228973170637,42.07107350904327,6.47544875391759e-05,0.1037345305085182,0,0,0
3959,148753.18228077117,2011-01-12 05:06:52,780.394072063836,2,17,0.5501165986061096,3.9249329566955566,11.898771614635365,11.761355025045852,48.070288150761805,42.07107350904327,6.47544875391759e-05,0.1037345305085182,0,0,0
3960,148783.19963840753,2011-01-12 05:07:22,810.4114297051883,2,17,0.550297200679779,3.927685022354126,11.903359355040806,11.761355025045852,48.08830117346572,42.07107350904327,3.237724376958795e-05,0.1037345305085182,0,0,0
3961,148813.21261303005,2011-01-12 05:07:52,840.4244043026465,2,17,0.5501165986061096,3.930598974227905,11.907946441925407,11.761355025045852,48.10632433580749,42.07107350904327,9.713172767078504e-05,0.1037345305085182,0,0,0
3962,148843.22781433212,2011-01-12 05:08:22,870.4396057150127,2,17,0.5501165986061096,3.933027267456055,11.91253386510716,11.761355025045852,48.124361087332495,42.07107350904327,6.47544875391759e-05,0.1037345305085182,0,0,0
3963,148873.2428918006,2011-01-12 05:08:52,900.4546830782105,2,17,0.550297200679779,3.935941219329834,11.9171212881209,11.761355025045852,48.14240986025246,42.07107350904327,0.0001295089750783,0.1037345305085182,0,0,0
3964,148903.25827921653,2011-01-12 05:09:22,930.470070599417,2,17,0.5504778623580933,3.938369512557984,11.92170873661863,11.761355025045852,48.16047029840959,42.07107350904327,9.713172767078504e-05,0.1037345305085182,0,0,0
3965,148933.2732079042,2011-01-12 05:09:52,960.4849991968445,2,17,0.5501165986061096,3.940635919570923,11.926296141958357,11.761355025045852,48.17854213235529,42.07107350904327,9.713172767078504e-05,0.1037345305085182,0,0,0
3966,148963.28848392752,2011-01-12 05:10:22,990.500275220164,2,17,0.550297200679779,3.943226099014282,11.930883588522835,11.761355025045852,48.19662541167301,42.07107350904327,9.713172767078504e-05,0.1037345305085182,0,0,0
3967,148993.3035343636,2011-01-12 05:10:52,1020.5153256412134,2,17,0.5501165986061096,3.9454925060272217,11.935470930511771,11.761355025045852,48.21471946615366,42.07107350904327,6.47544875391759e-05,0.1037345305085182,0,0,0
3968,149023.31880683306,2011-01-12 05:11:22,1050.5305981207007,2,17,0.5504778623580933,3.948244571685791,11.940058366802868,11.761355025045852,48.23282484808773,42.07107350904327,9.713172767078504e-05,0.1037345305085182,0,0,0
3969,149053.33383980562,2011-01-12 05:11:52,1080.545631098276,2,17,0.550297200679779,3.950187206268311,11.944645766628057,11.761355025045852,48.250940930911376,42.07107350904327,6.47544875391759e-05,0.1037345305085182,0,0,0
3970,149083.34898433622,2011-01-12 05:12:22,1110.560775628875,2,17,0.5501165986061096,3.95245361328125,11.949233241182508,11.761355025045852,48.2690681192937,42.07107350904327,3.237724376958795e-05,0.1037345305085182,0,0,0
3971,149113.3641793376,2011-01-12 05:12:52,1140.575970630263,2,17,0.5501165986061096,3.9548819065094,11.95382067283643,11.761355025045852,48.2872057683493,42.07107350904327,3.237724376958795e-05,0.1037345305085182,0,0,0
3972,149143.37930672546,2011-01-12 05:13:22,1170.5910980181377,2,17,0.550297200679779,3.957310199737549,11.958408130566198,11.761355025045852,48.305354092310274,42.07107350904327,9.713172767078504e-05,0.1037345305085182,0,0,0
3973,149173.3944542285,2011-01-12 05:13:52,1200.6062455061076,2,17,0.5501165986061096,3.959576606750488,11.962995586144546,11.761355025045852,48.323512809626656,42.07107350904327,6.47544875391759e-05,0.1037345305085182,0,0,0
3974,149203.4097495499,2011-01-12 05:14:22,1230.621540837549,2,17,0.5501165986061096,3.961843013763428,11.96758299819246,11.761355025045852,48.34168175628001,42.07107350904327,6.47544875391759e-05,0.1037345305085182,0,0,0
3975,149233.42475717427,2011-01-12 05:14:52,1260.636548461936,2,17,0.550297200679779,3.964109420776367,11.972170405785745,11.761355025045852,48.35986108575155,42.07107350904327,6.47544875391759e-05,0.1037345305085182,0,0,0
3976,149263.44006579384,2011-01-12 05:15:22,1290.6518570814956,2,17,0.5499359965324402,3.966052055358887,11.97675785938622,11.761355025045852,48.37805097280913,42.07107350904327,3.237724376958795e-05,0.1037345305085182,0,0,0
3977,149293.45507447084,2011-01-12 05:15:52,1320.6668657484809,2,17,0.5501165986061096,3.968642234802246,11.981345357986507,11.761355025045852,48.396251276379104,42.07107350904327,9.713172767078504e-05,0.1037345305085182,0,0,0
3978,149323.47056981578,2011-01-12 05:16:22,1350.6823610934175,2,17,0.550297200679779,3.970746755599976,11.985932788720293,11.761355025045852,48.41446146620771,42.07107350904327,6.47544875391759e-05,0.1037345305085182,0,0,0
3979,149353.48538547673,2011-01-12 05:16:52,1380.69717674936,2,17,0.5501165986061096,3.972851276397705,11.990520214873175,11.761355025045852,48.43268179373671,42.07107350904327,3.237724376958795e-05,0.1037345305085182,0,0,0
3980,149383.50057654834,2011-01-12 05:17:22,1410.7123678259663,2,17,0.5499359965324402,3.9749557971954346,11.995107709378663,11.761355025045852,48.45091248017742,42.07107350904327,3.237724376958795e-05,0.1037345305085182,0,0,0
3981,149413.51571071811,2011-01-12 05:17:52,1440.7275019957433,2,17,0.5501165986061096,3.977384090423584,11.99969515179778,11.761355025045852,48.46915301747136,42.07107350904327,9.713172767078504e-05,0.1037345305085182,0,0,0
3982,149443.53107986352,2011-01-12 05:18:22,1470.7428711411517,2,17,0.5501165986061096,3.979326725006104,12.004282622802371,11.761355025045852,48.48740325080055,42.07107350904327,3.237724376958795e-05,0.1037345305085182,0,0,0
3983,149473.54599695228,2011-01-12 05:18:52,1500.7577882449336,2,17,0.550297200679779,3.981593132019043,12.008869941564186,11.761355025045852,48.505663272346936,42.07107350904327,3.237724376958795e-05,0.1037345305085182,0,0,0
3984,149503.56119418924,2011-01-12 05:19:22,1530.7729854668555,2,17,0.550297200679779,3.9838595390319824,12.013457396720993,11.761355025045852,48.523933741563525,42.07107350904327,6.47544875391759e-05,0.1037345305085182,0,0,0
3985,149533.5763423188,2011-01-12 05:19:52,1560.7881335713626,2,17,0.550297200679779,3.985964059829712,12.0180448237029,11.761355025045852,48.54221399880439,42.07107350904327,6.47544875391759e-05,0.1037345305085182,0,0,0
3986,149563.59146585708,2011-01-12 05:20:22,1590.8032571497424,2,17,0.5499359965324402,3.987906694412232,12.022632240891491,11.761355025045852,48.56050415557248,42.07107350904327,0.0,0.1037345305085182,0,0,0
3987,149593.60661673849,2011-01-12 05:20:52,1620.81840803117,2,17,0.5501165986061096,3.990173101425171,12.027219592573855,11.761355025045852,48.578803860317805,42.07107350904327,3.237724376958795e-05,0.1037345305085182,0,0,0
3988,149623.62180077258,2011-01-12 05:21:22,1650.833592065224,2,17,0.5501165986061096,3.992277622222901,12.03180693491072,11.761355025045852,48.59711348292226,42.07107350904327,3.237724376958795e-05,0.1037345305085182,0,0,0
3989,149653.63692819054,2011-01-12 05:21:52,1680.8487194831737,2,17,0.550297200679779,3.994705677032471,12.036394282706992,11.761355025045852,48.61543310060991,42.07107350904327,9.713172767078504e-05,0.1037345305085182,0,0,0
3990,149683.6520823401,2011-01-12 05:22:22,1710.8638736327464,2,17,0.550297200679779,3.9968101978302,12.040981654622165,11.761355025045852,48.63376281775296,42.07107350904327,6.47544875391759e-05,0.1037345305085182,0,0,0
3991,149713.66724386305,2011-01-12 05:22:52,1740.8790351556956,2,17,0.5501165986061096,3.9989147186279297,12.045569136745474,11.761355025045852,48.65210298985116,42.07107350904327,6.47544875391759e-05,0.1037345305085182,0,0,0
3992,149743.68240645868,2011-01-12 05:23:22,1770.8941977513186,2,17,0.5501165986061096,4.001181125640869,12.05015651068631,11.761355025045852,48.67045269048744,42.07107350904327,6.47544875391759e-05,0.1037345305085182,0,0,0
3993,149773.69756371598,2011-01-12 05:23:52,1800.9093549885868,2,17,0.550297200679779,4.003447532653809,12.054743906254435,11.761355025045852,48.68881253796866,42.07107350904327,6.47544875391759e-05,0.1037345305085182,0,0,0
3994,149803.71283153887,2011-01-12 05:24:22,1830.9246228315185,2,17,0.550297200679779,4.005552291870117,12.059331290566812,11.761355025045852,48.707182462904825,42.07107350904327,3.24249267578125e-05,0.1037345305085182,0,0,0
3995,149833.72788343858,2011-01-12 05:24:52,1860.939674716216,2,17,0.550297200679779,4.007818698883057,12.063918584950596,11.761355025045852,48.72556222572917,42.07107350904327,6.47544875391759e-05,0.1037345305085182,0,0,0
3996,149863.7431589306,2011-01-12 05:25:22,1890.9549502082111,2,17,0.5501165986061096,4.009922981262207,12.068506035496588,11.761355025045852,48.74395283146734,42.07107350904327,0.0,0.1037345305085182,0,0,0
3997,149893.75818063004,2011-01-12 05:25:52,1920.9699719076773,2,17,0.550297200679779,4.012351512908936,12.073093363770292,11.761355025045852,48.76235328826325,42.07107350904327,6.47544875391759e-05,0.1037345305085182,0,0,0
3998,149923.77344611209,2011-01-12 05:26:22,1950.9852374047623,2,17,0.550297200679779,4.014455795288086,12.077680775107996,11.761355025045852,48.780764534839946,42.07107350904327,0.0,0.1037345305085182,0,0,0
3999,149953.79073806474,2011-01-12 05:26:52,1981.002529452636,2,17,0.5499359965324402,4.016722202301025,12.08226848138438,11.761355025045852,48.79918744981054,42.07107350904327,3.23295607813634e-05,0.1037345305085182,0,0,0
4000,149983.80378031582,2011-01-12 05:27:22,2011.0155715934327,2,17,0.550297200679779,4.019150733947754,12.086855581561242,11.761355025045852,48.81761850862082,42.07107350904327,6.47544875391759e-05,0.1037345305085182,0,0,0
4001,150013.81881783472,2011-01-12 05:27:52,2041.0306091073137,2,17,0.5501165986061096,4.021417140960693,12.091442978652044,11.761355025045852,48.83606125011747,42.07107350904327,6.47544875391759e-05,0.1037345305085182,0,0,0
4002,150043.833979498,2011-01-12 05:28:22,2071.045770775625,2,17,0.550297200679779,4.024007320404053,12.096030338024544,11.761355025045852,48.85451466099946,42.07107350904327,9.71794142969884e-05,0.1037345305085182,0,0,0
4003,150073.8490928058,2011-01-12 05:28:52,2101.060884098445,2,17,0.550297200679779,4.026273727416992,12.100617709557744,11.761355025045852,48.87297897948072,42.07107350904327,6.47544875391759e-05,0.1037345305085182,0,0,0
4004,150103.86441101925,2011-01-12 05:29:22,2131.0762022968784,2,17,0.550297200679779,4.0287017822265625,12.10520513043046,11.761355025045852,48.89145450334334,42.07107350904327,6.47544875391759e-05,0.1037345305085182,0,0,0
4005,150133.87940751592,2011-01-12 05:29:53,2161.091198808569,2,17,0.550297200679779,4.031291961669922,12.10979253376445,11.761355025045852,48.909941029581866,42.07107350904327,0.0001295089750783,0.1037345305085182,0,0,0
4006,150163.89455832716,2011-01-12 05:30:23,2191.1063496198217,2,17,0.550297200679779,4.033558368682861,12.114379909027024,11.761355025045852,48.928438604487184,42.07107350904327,6.47544875391759e-05,0.1037345305085182,0,0,0
4007,150193.90977154396,2011-01-12 05:30:53,2221.121563007033,2,17,0.5501165986061096,4.035986423492432,12.118967276727853,11.761355025045852,48.94694742638354,42.07107350904327,6.47544875391759e-05,0.1037345305085182,0,0,0
4008,150223.92489670127,2011-01-12 05:31:23,2251.1366879939237,2,17,0.5501165986061096,4.03841495513916,12.123554617058534,11.761355025045852,48.9654674697093,42.07107350904327,6.47544875391759e-05,0.1037345305085182,0,0,0
4009,150253.9400542042,2011-01-12 05:31:53,2281.151845582066,2,17,0.5501165986061096,4.04100513458252,12.128142020215764,11.761355025045852,48.98399917916384,42.07107350904327,6.47544875391759e-05,0.1037345305085182,0,0,0
4010,150283.9551768302,2011-01-12 05:32:23,2311.1669681479225,2,17,0.5501165986061096,4.04343318939209,12.132729411068508,11.761355025045852,49.00254242226309,42.07107350904327,6.47544875391759e-05,0.1037345305085182,0,0,0
4011,150313.97032620787,2011-01-12 05:32:53,2341.18211750054,2,17,0.5501165986061096,4.046023368835449,12.13731683968993,11.761355025045852,49.02109742783587,42.07107350904327,9.70840483205393e-05,0.1037345305085182,0,0,0
4012,150343.98549033733,2011-01-12 05:33:23,2371.197281629986,2,17,0.550297200679779,4.048613548278809,12.14190423738814,11.761355025045852,49.03966409813113,42.07107350904327,9.70840483205393e-05,0.1037345305085182,0,0,0
4013,150374.0006626572,2011-01-12 05:33:53,2401.2124539448314,2,17,0.5501165986061096,4.051042079925537,12.146491679991534,11.761355025045852,49.058242908721326,42.07107350904327,3.24249267578125e-05,0.1037345305085182,0,0,0
4014,150404.01591900646,2011-01-12 05:34:23,2431.22771029913,2,17,0.550297200679779,4.053956031799316,12.151078910420535,11.761355025045852,49.0768328257014,42.07107350904327,0.0001295089750783,0.1037345305085182,0,0,0
4015,150434.0309489866,2011-01-12 05:34:53,2461.2427402792346,2,17,0.5499359965324402,4.056546211242676,12.155665633132347,11.761355025045852,49.095432781746126,42.07107350904327,9.71794142969884e-05,0.1037345305085182,0,0,0
4016,150464.046145612,2011-01-12 05:35:23,2491.2579369046703,2,17,0.5499359965324402,4.059298038482666,12.16025258083793,11.761355025045852,49.114046013703245,42.07107350904327,9.70840483205393e-05,0.1037345305085182,0,0,0
4017,150494.06128404243,2011-01-12 05:35:53,2521.2730753350656,2,17,0.5501165986061096,4.061888217926025,12.164840015683009,11.761355025045852,49.1326734826867,42.07107350904327,6.47544875391759e-05,0.1037345305085182,0,0,0
4018,150524.0764242823,2011-01-12 05:36:23,2551.288215590009,2,17,0.550297200679779,4.064640522003174,12.169427306310622,11.761355025045852,49.15131278418631,42.07107350904327,9.71794142969884e-05,0.1037345305085182,0,0,0
4019,150554.09160104825,2011-01-12 05:36:53,2581.303392340911,2,17,0.5501165986061096,4.067392349243164,12.174014677791218,11.761355025045852,49.16996515839289,42.07107350904327,6.47544875391759e-05,0.1037345305085182,0,0,0
4020,150584.10674510268,2011-01-12 05:37:23,2611.3185363802863,2,17,0.550297200679779,4.070306301116943,12.17860205470812,11.761355025045852,49.188630439909474,42.07107350904327,6.47544875391759e-05,0.1037345305085182,0,0,0
4021,150614.12189138765,2011-01-12 05:37:53,2641.333682675283,2,17,0.550297200679779,4.073058605194092,12.183189416199532,11.761355025045852,49.20730852853629,42.07107350904327,9.71794142969884e-05,0.1037345305085182,0,0,0
4022,150644.137046254,2011-01-12 05:38:23,2671.3488375466545,2,17,0.5501165986061096,4.075972557067871,12.187776802687557,11.761355025045852,49.22599983269918,42.07107350904327,6.47544875391759e-05,0.1037345305085182,0,0,0
4023,150674.15222313022,2011-01-12 05:38:53,2701.3640144228693,2,17,0.5501165986061096,4.078724384307861,12.192364164851885,11.761355025045852,49.24470429431456,42.07107350904327,3.23295607813634e-05,0.1037345305085182,0,0,0
4024,150704.16952878702,2011-01-12 05:39:23,2731.3813201748976,2,17,0.5501165986061096,4.081638336181641,12.196951891050846,11.761355025045852,49.26342358152698,42.07107350904327,3.23295607813634e-05,0.1037345305085182,0,0,0
4025,150734.1825383817,2011-01-12 05:39:53,2761.3943296743423,2,17,0.5501165986061096,4.084714412689209,12.201538946250436,11.761355025045852,49.28215359390406,42.07107350904327,6.47544875391759e-05,0.1037345305085182,0,0,0
4026,150764.19767414543,2011-01-12 05:40:23,2791.4094654380915,2,17,0.5501165986061096,4.087790012359619,12.206126304968857,11.761355025045852,49.30089836992104,42.07107350904327,9.70840483205393e-05,0.1037345305085182,0,0,0
4027,150794.21282185896,2011-01-12 05:40:53,2821.424613151624,2,17,0.550297200679779,4.090703964233398,12.210713691747204,11.761355025045852,49.31965696076393,42.07107350904327,9.70840483205393e-05,0.1037345305085182,0,0,0
4028,150824.22818927505,2011-01-12 05:41:23,2851.4399805677226,2,17,0.550297200679779,4.093617916107178,12.215301127416565,11.761355025045852,49.338429565558464,42.07107350904327,6.47544875391759e-05,0.1037345305085182,0,0,0
4029,150854.2431333661,2011-01-12 05:41:53,2881.454924653752,2,17,0.550297200679779,4.096855640411377,12.219888510851709,11.761355025045852,49.35721594986121,42.07107350904327,0.0001295089750783,0.1037345305085182,0,0,0
4030,150884.2583505327,2011-01-12 05:42:23,2911.470141820383,2,17,0.550297200679779,4.099931716918945,12.224475865789673,11.761355025045852,49.3760162631984,42.07107350904327,9.71794142969884e-05,0.1037345305085182,0,0,0
4031,150914.27344054746,2011-01-12 05:42:53,2941.485231835112,2,17,0.550297200679779,4.103007316589356,12.229063209848013,11.761355025045852,49.39483078267891,42.07107350904327,6.47544875391759e-05,0.1037345305085182,0,0,0
4032,150944.28861338363,2011-01-12 05:43:23,2971.50040467627,2,17,0.5501165986061096,4.106083393096924,12.233650606886137,11.761355025045852,49.41366005325028,42.07107350904327,6.47544875391759e-05,0.1037345305085182,0,0,0
4033,150974.30375334783,2011-01-12 05:43:53,3001.5155446505137,2,17,0.5501165986061096,4.109321117401123,12.238237972583834,11.761355025045852,49.43250368881098,42.07107350904327,9.71794142969884e-05,0.1037345305085182,0,0,0
4034,151004.31890812895,2011-01-12 05:44:23,3031.5306994216357,2,17,0.550297200679779,4.112396717071533,12.242825317511045,11.761355025045852,49.45136187862668,42.07107350904327,3.23295607813634e-05,0.1037345305085182,0,0,0
4035,151034.33407056922,2011-01-12 05:44:53,3061.545861861871,2,17,0.5501165986061096,4.115634441375732,12.247412682175687,11.761355025045852,49.47023480950063,42.07107350904327,3.24249267578125e-05,0.1037345305085182,0,0,0
4036,151064.3493549534,2011-01-12 05:45:23,3091.561146246029,2,17,0.5501165986061096,4.1190338134765625,12.252000124155217,11.761355025045852,49.48912290730679,42.07107350904327,9.70840483205393e-05,0.1037345305085182,0,0,0
4037,151094.36438680816,2011-01-12 05:45:53,3121.576178100805,2,17,0.5501165986061096,4.122109889984131,12.256587487299434,11.761355025045852,49.5080256998866,42.07107350904327,3.24249267578125e-05,0.1037345305085182,0,0,0
4038,151124.37977572283,2011-01-12 05:46:23,3151.591567015485,2,17,0.5504778623580933,4.12567138671875,12.261174912675656,11.761355025045852,49.52694374955021,42.07107350904327,9.71794142969884e-05,0.1037345305085182,0,0,0
4039,151154.3946794583,2011-01-12 05:46:53,3181.6064707509486,2,17,0.5501165986061096,4.128909111022949,12.265762292393177,11.761355025045852,49.54587694826746,42.07107350904327,6.47544875391759e-05,0.1037345305085182,0,0,0
4040,151184.40985607385,2011-01-12 05:47:23,3211.6216473665136,2,17,0.550297200679779,4.132308483123779,12.270349702177976,11.761355025045852,49.56482570012157,42.07107350904327,9.70840483205393e-05,0.1037345305085182,0,0,0
4041,151214.4249890657,2011-01-12 05:47:53,3241.6367803583544,2,17,0.550297200679779,4.135708332061768,12.27493719754512,11.761355025045852,49.583790292647386,42.07107350904327,6.47544875391759e-05,0.1037345305085182,0,0,0
4042,151244.44049790426,2011-01-12 05:48:23,3271.652289191909,2,17,0.5501165986061096,4.139107704162598,12.279524602405765,11.761355025045852,49.60277016037789,42.07107350904327,9.70840483205393e-05,0.1037345305085182,0,0,0
4043,151274.4553112595,2011-01-12 05:48:53,3301.66710255213,2,17,0.550297200679779,4.142669200897217,12.284111971689496,11.761355025045852,49.621765681618896,42.07107350904327,0.0001295089750783,0.1037345305085182,0,0,0
4044,151304.47050381976,2011-01-12 05:49:23,3331.6822951074214,2,17,0.5501165986061096,4.146069049835205,12.288699345939198,11.761355025045852,49.64077725043962,42.07107350904327,6.47544875391759e-05,0.1037345305085182,0,0,0
4045,151334.48561928293,2011-01-12 05:49:53,3361.697410575588,2,17,0.5499359965324402,4.149468421936035,12.293286756612002,11.761355025045852,49.65980523841094,42.07107350904327,3.23295607813634e-05,0.1037345305085182,0,0,0
4046,151364.50091747651,2011-01-12 05:50:23,3391.7127088543757,2,17,0.5501165986061096,4.153192043304443,12.297874077537951,11.761355025045852,49.67884902415668,42.07107350904327,9.71794142969884e-05,0.1037345305085182,0,0,0
4047,151394.51589628408,2011-01-12 05:50:53,3421.7276875767297,2,17,0.550297200679779,4.156915187835693,12.302461297464856,11.761355025045852,49.69790858430236,42.07107350904327,0.0001618385285837,0.1037345305085182,0,0,0
4048,151424.53107716527,2011-01-12 05:51:23,3451.742868457926,2,17,0.5501165986061096,4.160152912139893,12.307048618078433,11.761355025045852,49.71698488063836,42.07107350904327,9.70840483205393e-05,0.1037345305085182,0,0,0
4049,151454.5463336649,2011-01-12 05:51:53,3481.7581249575865,2,17,0.5501165986061096,4.163714408874512,12.311635937493064,11.761355025045852,49.73607773993718,42.07107350904327,3.23295607813634e-05,0.1037345305085182,0,0,0
4050,151484.5613544471,2011-01-12 05:52:23,3511.7731457397667,2,17,0.5506584644317627,4.167599678039551,12.31622317937578,11.761355025045852,49.75518685838847,42.07107350904327,9.70840483205393e-05,0.1037345305085182,0,0,0
4051,151514.57654597485,2011-01-12 05:52:53,3541.788337267498,2,17,0.550297200679779,4.171323299407959,12.320810515417234,11.761355025045852,49.77431323126818,42.07107350904327,0.0001619339018361,0.1037345305085182,0,0,0
4052,151544.5916907059,2011-01-12 05:53:23,3571.8034819985965,2,17,0.5501165986061096,4.174884796142578,12.325397813798329,11.761355025045852,49.79345635721609,42.07107350904327,9.71794142969884e-05,0.1037345305085182,0,0,0
4053,151574.60683372276,2011-01-12 05:53:53,3601.818625015423,2,17,0.5501165986061096,4.178607940673828,12.329985110874327,11.761355025045852,49.81261650486119,42.07107350904327,9.70840483205393e-05,0.1037345305085182,0,0,0
4054,151604.6219818373,2011-01-12 05:54:23,3631.8337731299534,2,17,0.5501165986061096,4.182493209838867,12.334572430022572,11.761355025045852,49.83179394429082,42.07107350904327,0.0001295089750783,0.1037345305085182,0,0,0
4055,151634.637134448,2011-01-12 05:54:53,3661.848925740692,2,17,0.5501165986061096,4.186216831207275,12.339159800841616,11.761355025045852,49.85098885713321,42.07107350904327,9.71794142969884e-05,0.1037345305085182,0,0,0
4056,151664.65230162005,2011-01-12 05:55:23,3691.864092912721,2,17,0.5501165986061096,4.189939975738525,12.343747101962562,11.761355025045852,49.87020096764046,42.07107350904327,9.70840483205393e-05,0.1037345305085182,0,0,0
4057,151694.66744902282,2011-01-12 05:55:53,3721.879240310466,2,17,0.550297200679779,4.1938252449035645,12.348334492286243,11.761355025045852,49.889431025529895,42.07107350904327,9.70840483205393e-05,0.1037345305085182,0,0,0
4058,151724.6826403801,2011-01-12 05:56:23,3751.894431667772,2,17,0.550297200679779,4.197872161865234,12.35292193834884,11.761355025045852,49.90867900558111,42.07107350904327,0.0001295089750783,0.1037345305085182,0,0,0
4059,151741.24486003254,2011-01-12 05:56:40,3768.4566513252257,2,17,0.5504778623580933,4.200138568878174,12.355453191869987,11.761355025045852,49.91930725363709,42.07107350904327,0.0001618385285837,0.1037345305085182,0,0,0
4060,151771.2635505158,2011-01-12 05:57:10,30.01530417347852,3,17,0.0,4.102035999298096,12.355453191869987,11.761355025045852,49.91930725363709,42.07107350904327,-0.0004857063177041,0.1037345305085182,0,0,0
4061,151801.2786618687,2011-01-12 05:57:40,60.03041552638884,3,17,0.0,4.089570999145508,12.355453191869987,11.761355025045852,49.91930725363709,42.07107350904327,-0.0002913475036621,0.1037345305085182,0,0,0
4062,151831.29386996775,2011-01-12 05:58:10,90.0456236103828,3,17,0.0,4.08180046081543,12.355453191869987,11.761355025045852,49.91930725363709,42.07107350904327,-0.0002265930233988,0.1037345305085182,0,0,0
4063,151861.26212336624,2011-01-12 05:58:40,120.01387700885284,3,17,0.0,4.076943874359131,12.355453191869987,11.761355025045852,49.91930725363709,42.07107350904327,-9.70840483205393e-05,0.1037345305085182,0,0,0
4064,151861.26726366408,2011-01-12 05:58:40,2.561383756e-06,4,17,0.0001613661734154,4.076943874359131,12.355453191870104,11.761355025045852,49.91930725363756,42.07107350904327,0.0,0.1037345305085182,0,0,0
4065,151891.2877781942,2011-01-12 05:59:10,30.015268800317717,5,17,0.0,4.073544025421143,12.355453191870104,11.761355025045852,49.91930725363756,42.07107350904327,-6.47544875391759e-05,0.1037345305085182,0,0,0
4066,151921.2872028711,2011-01-12 05:59:40,60.01469347720472,5,17,0.0,4.070630073547363,12.355453191870104,11.761355025045852,49.91930725363756,42.07107350904327,-6.47544875391759e-05,0.1037345305085182,0,0,0
4067,151921.4811671855,2011-01-12 05:59:41,0.187759850319257,6,17,-0.0009222895023413,4.071439743041992,12.355453191870104,11.761355073148335,49.91930725363756,42.07107370488964,0.0,0.104544959962368,0,0,0
4068,151926.3089470183,2011-01-12 05:59:45,5.015539683133348,6,17,0.0008838032954372,4.070306301116943,12.355454289940711,11.76135507709222,49.91931172344872,42.071073720946906,-6.47544875391759e-05,0.104544959962368,0,0,0
4069,151956.33052929965,2011-01-12 06:00:16,30.0152721637003,7,17,-1.099568486213684,3.870701313018799,12.355454289940711,11.770522932052224,49.91931172344872,42.10679871229014,-0.0011979580158367,0.104544959962368,0,0,0
4070,151986.3455379516,2011-01-12 06:00:46,60.03028077053579,7,17,-1.0993878841400146,3.833143949508667,12.355454289940711,11.779690545204026,49.91931172344872,42.14210178409891,-0.000841760658659,0.104544959962368,0,0,0
4071,152016.36068181053,2011-01-12 06:01:16,90.04542464951109,7,17,-1.099568486213684,3.805461406707764,12.355454289940711,11.788858228053808,49.91931172344872,42.17711111102483,-0.0006151676061563,0.104544959962368,0,0,0
4072,152046.3758667318,2011-01-12 06:01:46,120.06060956576393,7,17,-1.099568486213684,3.783444881439209,12.355454289940711,11.798025879423411,49.91931172344872,42.2118934052123,-0.0005180359003134,0.104544959962368,0,0,0
4073,152076.39113686542,2011-01-12 06:02:16,150.0758796893797,7,17,-1.0997490882873535,3.765313625335693,12.355454289940711,11.80719354712234,49.91931172344872,42.24649363993883,-0.0004856586456298,0.104544959962368,0,0,0
4074,152106.406296223,2011-01-12 06:02:46,180.09103906196984,7,17,-1.099568486213684,3.749934673309326,12.355454289940711,11.816361159842288,49.91931172344872,42.280940706019535,-0.0003561496851034,0.104544959962368,0,0,0
4075,152136.42142728,2011-01-12 06:03:16,210.10617011898887,7,17,-1.099568486213684,3.7360124588012695,12.355454289940711,11.82552875638326,49.91931172344872,42.3152536588889,-0.0003561496851034,0.104544959962368,0,0,0
4076,152166.4365880962,2011-01-12 06:03:46,240.1213309351769,7,17,-1.099568486213684,3.723547220230103,12.355454289940711,11.834696341629911,49.91931172344872,42.34944550394825,-0.0002913951757363,0.104544959962368,0,0,0
4077,152196.45160462277,2011-01-12 06:04:16,270.13634746175086,7,17,-1.0993878841400146,3.711891412734986,12.355454289940711,11.843863957589196,49.91931172344872,42.38352594766954,-0.0002590179501567,0.104544959962368,0,0,0
4078,152226.4667557047,2011-01-12 06:04:46,300.1514985436781,7,17,-1.099568486213684,3.700721263885498,12.355454289940711,11.85303162107072,49.91931172344872,42.41750250022295,-0.0002913951757363,0.104544959962368,0,0,0
4079,152256.48204396854,2011-01-12 06:05:16,330.1667868075048,7,17,-1.0997490882873535,3.690360546112061,12.355454289940711,11.862199338332488,49.91931172344872,42.45138241777145,-0.0002590179501567,0.104544959962368,0,0,0
4080,152286.49709790834,2011-01-12 06:05:46,360.1818407473241,7,17,-1.0997490882873535,3.680647373199463,12.355454289940711,11.871366945482352,49.91931172344872,42.48516982671422,-0.0002590179501567,0.104544959962368,0,0,0
4081,152316.51222386264,2011-01-12 06:06:16,390.1969667016256,7,17,-1.0993878841400146,3.671581983566284,12.355454289940711,11.880534603562952,49.91931172344872,42.51887068184215,-0.0002265930233988,0.104544959962368,0,0,0
4082,152346.52737663378,2011-01-12 06:06:46,420.2121194727629,7,17,-1.099568486213684,3.6628401279449454,12.355454289940711,11.889702310524324,49.91931172344872,42.55248909033048,-0.0002266406954731,0.104544959962368,0,0,0
4083,152376.54253304898,2011-01-12 06:07:16,450.22727588798233,7,17,-1.099568486213684,3.6542601585388175,12.355454289940711,11.89887004198277,49.91931172344872,42.58602840231802,-0.0001942634553415,0.104544959962368,0,0,0
4084,152406.55985502145,2011-01-12 06:07:46,480.2445979356242,7,17,-1.099568486213684,3.645842075347901,12.355454289940711,11.908038431273784,49.91931172344872,42.61949301831552,-0.0002590179501567,0.104544959962368,0,0,0
4085,152436.57297480578,2011-01-12 06:08:16,510.25771764474536,7,17,-1.0993878841400146,3.638233423233032,12.355454289940711,11.917205446355911,49.91931172344872,42.65287917899571,-0.0001942634553415,0.104544959962368,0,0,0
4086,152466.58801182342,2011-01-12 06:08:46,540.2727546573768,7,17,-1.099568486213684,3.630462884902954,12.355454289940711,11.926373059484,49.91931172344872,42.686196904772125,-0.0001618862152099,0.104544959962368,0,0,0
4087,152496.60330386166,2011-01-12 06:09:16,570.2880466855856,7,17,-1.099568486213684,3.623178005218506,12.355454289940711,11.93554075663234,49.91931172344872,42.7194460779314,-0.0001942634553415,0.104544959962368,0,0,0
4088,152526.61854051182,2011-01-12 06:09:46,600.3032833458003,7,17,-1.0993878841400146,3.616055011749268,12.355454289940711,11.944708481695033,49.91931172344872,42.75262811587792,-0.0001295089750783,0.104544959962368,0,0,0
4089,152556.6335935945,2011-01-12 06:10:16,630.3183364184582,7,17,-1.0993878841400146,3.608932018280029,12.355454289940711,11.95387611835419,49.91931172344872,42.78574502063962,-0.0001618862152099,0.104544959962368,0,0,0
4090,152586.64860619127,2011-01-12 06:10:46,660.3333490302755,7,17,-1.099568486213684,3.601970911026001,12.355454289940711,11.963043750468833,49.91931172344872,42.81879848459583,-0.0001942634553415,0.104544959962368,0,0,0
4091,152616.6638957233,2011-01-12 06:11:16,690.3486385622629,7,17,-1.0997490882873535,3.5951716899871826,12.355454289940711,11.972211472997992,49.91931172344872,42.85179005009736,-0.0001942634553415,0.104544959962368,0,0,0
4092,152646.67892644522,2011-01-12 06:11:46,720.363669284216,7,17,-1.099568486213684,3.5886964797973637,12.355454289940711,11.981379181507572,49.91931172344872,42.88472071174105,-0.0001618862152099,0.104544959962368,0,0,0
4093,152676.694199847,2011-01-12 06:12:16,750.3789426860021,7,17,-1.0997490882873535,3.582221031188965,12.355454289940711,11.990546935820428,49.91931172344872,42.91759218791772,-0.0002266406954731,0.104544959962368,0,0,0
4094,152706.70924824305,2011-01-12 06:12:46,780.3939910820043,7,17,-1.0997490882873535,3.5762312412261963,12.355454289940711,11.999714632741986,49.91931172344872,42.95040619418702,-0.0001618862152099,0.104544959962368,0,0,0
4095,152736.72438298422,2011-01-12 06:13:16,810.4091258232056,7,17,-1.099568486213684,3.570241451263428,12.355454289940711,12.00888228351093,49.91931172344872,42.98316453559283,-0.0001618862152099,0.104544959962368,0,0,0
4096,152766.73955800582,2011-01-12 06:13:46,840.4243008447977,7,17,-1.0993878841400146,3.564413547515869,12.355454289940711,12.018050015392962,49.91931172344872,43.01586864293041,-0.0001295089750783,0.104544959962368,0,0,0
4097,152796.75481870596,2011-01-12 06:14:16,870.4395615298899,7,17,-1.0993878841400146,3.5589094161987305,12.355454289940711,12.027217708482178,49.91931172344872,43.048519882836366,-0.0001295089750783,0.104544959962368,0,0,0
4098,152826.76995871525,2011-01-12 06:14:46,900.4547015542583,7,17,-1.099568486213684,3.553081512451172,12.355454289940711,12.036385354581654,49.91931172344872,43.08111922428948,-0.0001618862152099,0.104544959962368,0,0,0
4099,152856.78511726082,2011-01-12 06:15:16,930.4698600997872,7,17,-1.099568486213684,3.547577381134033,12.355454289940711,12.04555299323754,49.91931172344872,43.11366826217965,-0.0001618862152099,0.104544959962368,0,0,0
4100,152886.80016797257,2011-01-12 06:15:46,960.4849108115612,7,17,-1.099568486213684,3.5425589084625244,12.355454289940711,12.054720610519812,49.91931172344872,43.14616827935911,-0.0001295089750783,0.104544959962368,0,0,0
4101,152916.81544746453,2011-01-12 06:16:16,990.5001902884884,7,17,-1.099568486213684,3.537216663360596,12.355454289940711,12.06388830629342,49.91931172344872,43.17862089933577,-0.0001618862152099,0.104544959962368,0,0,0
4102,152946.8306691374,2011-01-12 06:16:46,1020.5154119713748,7,17,-1.0997490882873535,3.532198190689087,12.355454289940711,12.073056109278427,49.91931172344872,43.21102648928491,-9.713172767078504e-05,0.104544959962368,0,0,0
4103,152976.84574169863,2011-01-12 06:17:16,1050.5304845225792,7,17,-1.099568486213684,3.527017831802368,12.355454289940711,12.082223827799702,49.91931172344872,43.24338488305822,-0.0001295089750783,0.104544959962368,0,0,0
4104,153006.86079458584,2011-01-12 06:17:46,1080.5455374198002,7,17,-1.099568486213684,3.5218374729156494,12.355454289940711,12.091391512820016,49.91931172344872,43.275696569075066,-0.0001618862152099,0.104544959962368,0,0,0
4105,153036.8760447948,2011-01-12 06:18:16,1110.5607876187576,7,17,-1.099568486213684,3.5169808864593506,12.355454289940711,12.100559212175945,49.91931172344872,43.30796207469031,-0.0001618862152099,0.104544959962368,0,0,0
4106,153066.89119386673,2011-01-12 06:18:46,1140.5759367057126,7,17,-1.099568486213684,3.511800527572632,12.355454289940711,12.109726906242576,49.91931172344872,43.3401811964029,-0.0001618862152099,0.104544959962368,0,0,0
4107,153096.9062432552,2011-01-12 06:19:16,1170.590986079151,7,17,-1.099568486213684,3.506782293319702,12.355454289940711,12.118894564753727,49.91931172344872,43.37235359642246,-0.0001295089750783,0.104544959962368,0,0,0
4108,153126.9214356501,2011-01-12 06:19:46,1200.6061784890803,7,17,-1.0993878841400146,3.5017638206481934,12.355454289940711,12.12806234252142,49.91931172344872,43.40448031929336,-0.0001618862152099,0.104544959962368,0,0,0
4109,153156.93653280262,2011-01-12 06:20:16,1230.621275641599,7,17,-1.0997490882873535,3.496745347976685,12.355454289940711,12.137230014134031,49.91931172344872,43.43656056946395,-6.47544875391759e-05,0.104544959962368,0,0,0
4110,153186.9516779999,2011-01-12 06:20:46,1260.63642083886,7,17,-1.0993878841400146,3.4918887615203857,12.355454289940711,12.146397737352498,49.91931172344872,43.46859536043823,-0.0001295089750783,0.104544959962368,0,0,0
4111,153216.96695901064,2011-01-12 06:21:16,1290.65170184961,7,17,-1.099568486213684,3.486870288848877,12.355454289940711,12.155565404224822,49.91931172344872,43.50058456825552,-0.0001618862152099,0.104544959962368,0,0,0
4112,153246.98200636904,2011-01-12 06:21:46,1320.6667492080262,7,17,-1.099568486213684,3.481851816177368,12.355454289940711,12.164733104078229,49.91931172344872,43.5325280717486,-0.0001618862152099,0.104544959962368,0,0,0
4113,153276.99726819698,2011-01-12 06:22:16,1350.682011010904,7,17,-1.099568486213684,3.4765095710754395,12.355454289940711,12.173900712363588,49.91931172344872,43.56442372145705,-0.0001618862152099,0.104544959962368,0,0,0
4114,153307.01229294404,2011-01-12 06:22:46,1380.6970357830285,7,17,-1.099568486213684,3.4711673259735107,12.355454289940711,12.183068328596404,49.91931172344872,43.59627059339261,-0.0001295089750783,0.104544959962368,0,0,0
4115,153337.0276048117,2011-01-12 06:23:16,1410.7123476356458,7,17,-1.099568486213684,3.465177536010742,12.355454289940711,12.192235982001772,49.91931172344872,43.62806624865047,-0.0001942634553415,0.104544959962368,0,0,0
4116,153367.04261621553,2011-01-12 06:23:46,1440.72735905449,7,17,-1.099568486213684,3.4595115184783936,12.355454289940711,12.201403595578393,49.91931172344872,43.65980875681138,-0.0001618862152099,0.104544959962368,0,0,0
4117,153397.05788703085,2011-01-12 06:24:16,1470.7426298698294,7,17,-1.099568486213684,3.453359842300415,12.355454289940711,12.21057127841538,49.91931172344872,43.69149574155668,-0.0001618862152099,0.104544959962368,0,0,0
4118,153427.0729362539,2011-01-12 06:24:46,1500.757679092893,7,17,-1.0997490882873535,3.446722507476806,12.355454289940711,12.219738939870746,49.91931172344872,43.72312407328531,-0.0001618862152099,0.104544959962368,0,0,0
4119,153457.08819563576,2011-01-12 06:25:16,1530.7729384747372,7,17,-1.0993878841400146,3.4395995140075684,12.355454289940711,12.228906647318846,49.91931172344872,43.75468959658683,-0.0001942634553415,0.104544959962368,0,0,0
4120,153487.1032386333,2011-01-12 06:25:46,1560.7879814722849,7,17,-1.0997490882873535,3.4316670894622803,12.355454289940711,12.238074316743791,49.91931172344872,43.78618729863682,-0.0002266406954731,0.104544959962368,0,0,0
4121,153517.1183815549,2011-01-12 06:26:16,1590.8031243938738,7,17,-1.099568486213684,3.423411130905152,12.355454289940711,12.247242029161969,49.91931172344872,43.8176105345628,-0.0001942634553415,0.104544959962368,0,0,0
4122,153547.13355595994,2011-01-12 06:26:46,1620.8182987989296,7,17,-1.0997490882873535,3.413374185562134,12.355454289940711,12.256409736510774,49.91931172344872,43.84895029868646,-0.0003237724304199,0.104544959962368,0,0,0
4123,153577.15101090883,2011-01-12 06:27:16,1650.8357537377772,7,17,-1.0993878841400146,3.4025278091430664,12.355454289940711,12.265578131860138,49.91931172344872,43.88019723951268,-0.0002590179501567,0.104544959962368,0,0,0
4124,153607.1639628799,2011-01-12 06:27:46,1680.8487058090936,7,17,-1.099568486213684,3.3892531394958496,12.355454289940711,12.27474515987817,49.91931172344872,43.91132885035373,-0.0003561496851034,0.104544959962368,0,0,0
4125,153637.1789961181,2011-01-12 06:28:16,1710.8637389570931,7,17,-1.0997490882873535,3.3732264041900635,12.355454289940711,12.28391284944589,49.91931172344872,43.94233036709032,-0.0004856586456298,0.104544959962368,0,0,0
4126,153667.19414904463,2011-01-12 06:28:46,1740.8788918836178,7,17,-1.099568486213684,3.3531525135040283,12.355454289940711,12.29308062335116,49.91931172344872,43.97316755254951,-0.0005827903514727,0.104544959962368,0,0,0
4127,153697.2093054398,2011-01-12 06:29:16,1770.8940482787873,7,17,-1.099568486213684,3.327412843704224,12.355454289940711,12.302248451542557,49.91931172344872,44.0037954988408,-0.0008094310760498,0.104544959962368,0,0,0
4128,153727.22449707278,2011-01-12 06:29:46,1800.9092398666676,7,17,-1.099568486213684,3.293578624725342,12.355454289940711,12.31141621489691,49.91931172344872,44.03415245510173,-0.0010684489971026,0.104544959962368,0,0,0
4129,153757.2397724896,2011-01-12 06:30:17,1830.924515328588,7,17,-1.0997490882873535,3.247926950454712,12.355454289940711,12.320583927299644,49.91931172344872,44.06414899251874,-0.0014245987404137,0.104544959962368,0,0,0
4130,153787.254776099,2011-01-12 06:30:47,1860.9395189379684,7,17,-1.099568486213684,3.1836583614349365,12.355454289940711,12.329751568750847,49.91931172344872,44.093647858143335,-0.0019425868522375,0.104544959962368,0,0,0
4131,153817.27004251335,2011-01-12 06:31:17,1890.9547853473275,7,17,-1.099568486213684,3.0897645950317383,12.355454289940711,12.338919350244158,49.91931172344872,44.12243298333794,-0.0029139518737792,0.104544959962368,0,0,0
4132,153847.28502529082,2011-01-12 06:31:47,1920.9697681348127,7,17,-1.099568486213684,2.943258047103882,12.355454289940711,12.348087034492142,49.91931172344872,44.1501394387125,-0.0047270297072827,0.104544959962368,0,0,0
4133,153874.0974730005,2011-01-12 06:32:13,1947.7822158344643,7,17,-1.099568486213684,2.7431671619415283,12.355454289940711,12.356276633475478,49.91931172344872,44.17346913773002,-0.0067668436095118,0.104544959962368,0,0,0
4134,153879.1595876628,2011-01-12 06:32:18,1952.8443304967768,7,17,-1.0997490882873535,2.699781894683838,12.355454289940711,12.357822788784516,49.91931172344872,44.17767718365883,-0.006896304897964,0.104544959962368,0,0,0
4135,153939.17999522973,2011-01-12 06:33:19,60.01472248951232,8,17,0.0,3.5634422302246094,12.355454289940711,12.357822788784516,49.91931172344872,44.17767718365883,0.0011332035064697,0.104544959962368,0,0,0
4136,153939.374381262,2011-01-12 06:33:19,0.187764351537679,9,17,-1.9243103452026844e-05,3.56360411643982,12.35545429364712,12.357822788784516,49.91931173665658,44.17767718365883,3.237724376958795e-05,0.1022060960531234,0,0,0
4137,153944.20206080988,2011-01-12 06:33:24,5.015443904423332,9,17,0.0007031940040178,3.570888996124268,12.355455358172897,12.35782278894956,49.91931553478186,44.177677184246974,0.0010684489971026,0.1022060960531234,0,0,0
