Data_Point,Test_Time(s),Date_Time,Step_Time(s),Step_Index,Cycle_Index,Current(A),Voltage(V),Charge_Capacity(Ah),Discharge_Capacity(Ah),Charge_Energy(Wh),Discharge_Energy(Wh),dV/dt(V/s),Internal_Resistance(Ohm),Is_FC_Data,AC_Impedance(Ohm),ACI_Phase_Angle(Deg)
5593,210546.57474239057,2011-01-12 22:16:54,30.01508801975693,1,24,0.0,3.60488486289978,16.753692283286327,16.724309096192087,67.73500909677227,59.77580390630969,0.0006799221155233,0.10130325704813,0,0,0
5594,210576.58984562324,2011-01-12 22:17:24,60.03019128250408,1,24,0.0,3.625930070877075,16.753692283286327,16.724309096192087,67.73500909677227,59.77580390630969,0.0004532813909463,0.10130325704813,0,0,0
5595,210606.6049608508,2011-01-12 22:17:54,90.04530651007127,1,24,0.0,3.640823602676392,16.753692283286327,16.724309096192087,67.73500909677227,59.77580390630969,0.0003561496851034,0.10130325704813,0,0,0
5596,210636.573201292,2011-01-12 22:18:24,120.01354694122274,1,24,0.0,3.652155637741089,16.753692283286327,16.724309096192087,67.73500909677227,59.77580390630969,0.0002913951757363,0.10130325704813,0,0,0
5597,210666.5837587658,2011-01-12 22:18:54,30.01509506732163,2,24,0.5501165986061096,3.774703025817871,16.758278785751358,16.724309096192087,67.752228755509,59.77580390630969,0.0008418083307333,0.10130325704813,0,0,0
5598,210696.59886951724,2011-01-12 22:19:24,60.03020582875783,2,24,0.5501165986061096,3.7973670959472656,16.76286526761563,16.724309096192087,67.76959833600718,59.77580390630969,0.0004856586456298,0.10130325704813,0,0,0
5599,210726.6140279124,2011-01-12 22:19:54,90.04536421388691,2,24,0.5501165986061096,3.811289310455322,16.767451743284525,16.724309096192087,67.78704901701181,59.77580390630969,0.0002913951757363,0.10130325704813,0,0,0
5600,210756.6292575952,2011-01-12 22:20:24,120.06059390172427,2,24,0.5501165986061096,3.82165002822876,16.77203819658458,16.724309096192087,67.8045541942658,59.77580390630969,0.0002590179501567,0.10130325704813,0,0,0
5601,210786.644230483,2011-01-12 22:20:54,150.07556679956198,2,24,0.5499359965324402,3.830229997634888,16.776624536767507,16.724309096192087,67.82210216663569,59.77580390630969,0.0001618862152099,0.10130325704813,0,0,0
5602,210816.65935886337,2011-01-12 22:21:24,180.09069514983497,2,24,0.5501165986061096,3.8381621837615967,16.78121095673193,16.724309096192087,67.83968800749373,59.77580390630969,0.0001942634553415,0.10130325704813,0,0,0
5603,210846.67451693272,2011-01-12 22:21:54,210.105853229202,2,24,0.5499359965324402,3.845123291015625,16.78579738495281,16.724309096192087,67.85730783605032,59.77580390630969,0.0001618862152099,0.10130325704813,0,0,0
5604,210876.6895960904,2011-01-12 22:22:24,240.12093237684687,2,24,0.550297200679779,3.8517606258392334,16.790383852483185,16.724309096192087,67.87495905147117,59.77580390630969,0.0001618862152099,0.10130325704813,0,0,0
5605,210906.70474169368,2011-01-12 22:22:54,270.13607799014466,2,24,0.550297200679779,3.858074188232422,16.79497035291198,16.724309096192087,67.89263974229672,59.77580390630969,0.0001295089750783,0.10130325704813,0,0,0
5606,210936.71987808897,2011-01-12 22:23:24,300.15121440050586,2,24,0.5501165986061096,3.8637402057647705,16.799556787462688,16.724309096192087,67.91034801248627,59.77580390630969,0.0001295089750783,0.10130325704813,0,0,0
5607,210966.73718642243,2011-01-12 22:23:54,330.16852271893026,2,24,0.5501165986061096,3.869568109512329,16.804143549490256,16.724309096192087,67.92808375796474,59.77580390630969,0.0001618862152099,0.10130325704813,0,0,0
5608,210996.75007898043,2011-01-12 22:24:24,360.181415276921,2,24,0.550297200679779,3.874748468399048,16.80872966391912,16.724309096192087,67.94584201336421,59.77580390630969,0.0001295089750783,0.10130325704813,0,0,0
5609,211026.76532329476,2011-01-12 22:24:54,390.19665960123695,2,24,0.550297200679779,3.879928827285767,16.81331609212925,16.724309096192087,67.9636254030302,59.77580390630969,9.713172767078504e-05,0.10130325704813,0,0,0
5610,211056.78032845297,2011-01-12 22:25:24,420.21166474444,2,24,0.550297200679779,3.885109186172485,16.817902534545965,16.724309096192087,67.98143189192102,59.77580390630969,0.0001618862152099,0.10130325704813,0,0,0
5611,211086.7956504008,2011-01-12 22:25:54,450.2269866922175,2,24,0.5501165986061096,3.8894801139831534,16.82248911406228,16.724309096192087,67.99926122314943,59.77580390630969,9.713172767078504e-05,0.10130325704813,0,0,0
5612,211116.8105794092,2011-01-12 22:26:24,480.2419157207193,2,24,0.5501165986061096,3.894336700439453,16.82707562339424,16.724309096192087,68.01711194128396,59.77580390630969,0.0001295089750783,0.10130325704813,0,0,0
5613,211146.82576733292,2011-01-12 22:26:54,510.25710364948026,2,24,0.5501165986061096,3.898707628250122,16.831662129448866,16.724309096192087,68.03498307714241,59.77580390630969,0.0001295089750783,0.10130325704813,0,0,0
5614,211176.8408048719,2011-01-12 22:27:24,540.2721411583485,2,24,0.5499359965324402,3.902754783630371,16.836248633004544,16.724309096192087,68.05287424918535,59.77580390630969,6.47544875391759e-05,0.10130325704813,0,0,0
5615,211206.8559366808,2011-01-12 22:27:54,570.2872729772664,2,24,0.5499359965324402,3.90712571144104,16.840835094730114,16.724309096192087,68.07078455577928,59.77580390630969,9.713172767078504e-05,0.10130325704813,0,0,0
5616,211236.87103770292,2011-01-12 22:28:24,600.3023739894044,2,24,0.5501165986061096,3.911010980606079,16.8454215657762,16.724309096192087,68.08871345122981,59.77580390630969,9.713172767078504e-05,0.10130325704813,0,0,0
5617,211266.88615883523,2011-01-12 22:28:54,630.3174951216879,2,24,0.5501165986061096,3.914896011352539,16.850008037896206,16.724309096192087,68.10666010085714,59.77580390630969,0.0001295089750783,0.10130325704813,0,0,0
5618,211296.9012892056,2011-01-12 22:29:24,660.3326254919955,2,24,0.5499359965324402,3.918457508087158,16.854594544743584,16.724309096192087,68.124623752126,59.77580390630969,9.713172767078504e-05,0.10130325704813,0,0,0
5619,211326.9165441313,2011-01-12 22:29:54,690.3478804427959,2,24,0.5499359965324402,3.921695232391357,16.859181065460756,16.724309096192087,68.14260370739088,59.77580390630969,3.237724376958795e-05,0.10130325704813,0,0,0
5620,211356.93156105385,2011-01-12 22:30:24,720.3628973603442,2,24,0.5499359965324402,3.925256729125977,16.863767560182403,16.724309096192087,68.16059904124873,59.77580390630969,0.0001295089750783,0.10130325704813,0,0,0
5621,211386.94664758988,2011-01-12 22:30:54,750.3779838763535,2,24,0.550297200679779,3.928494453430176,16.868354079773635,16.724309096192087,68.17860933241278,59.77580390630969,9.713172767078504e-05,0.10130325704813,0,0,0
5622,211416.9618845859,2011-01-12 22:31:24,780.3932208924552,2,24,0.550297200679779,3.931246519088745,16.8729406558988,16.724309096192087,68.19663417227478,59.77580390630969,3.237724376958795e-05,0.10130325704813,0,0,0
5623,211446.9772108545,2011-01-12 22:31:54,810.4085472462136,2,24,0.5501165986061096,3.9343223571777344,16.877527234297993,16.724309096192087,68.21467276588712,59.77580390630969,6.47544875391759e-05,0.10130325704813,0,0,0
5624,211476.99200429005,2011-01-12 22:32:24,840.4233405765137,2,24,0.5501165986061096,3.937074422836304,16.882113776232462,16.724309096192087,68.23272456787875,59.77580390630969,3.237724376958795e-05,0.10130325704813,0,0,0
5625,211507.0071186254,2011-01-12 22:32:54,870.4384549168698,2,24,0.550297200679779,3.940150260925293,16.886700324634948,16.724309096192087,68.2507894206598,59.77580390630969,9.713172767078504e-05,0.10130325704813,0,0,0
5626,211537.0222508754,2011-01-12 22:33:24,900.4535871618494,2,24,0.550297200679779,3.942740440368652,16.891286843434713,16.724309096192087,68.26886682356707,59.77580390630969,9.713172767078504e-05,0.10130325704813,0,0,0
5627,211567.03764723364,2011-01-12 22:33:54,930.4689835651932,2,24,0.5499359965324402,3.945330619812012,16.895873413211476,16.724309096192087,68.28695695401136,59.77580390630969,3.237724376958795e-05,0.10130325704813,0,0,0
5628,211597.0524867039,2011-01-12 22:34:24,960.483823020451,2,24,0.550297200679779,3.948406457901001,16.900459906274595,16.724309096192087,68.30505898681623,59.77580390630969,9.713172767078504e-05,0.10130325704813,0,0,0
5629,211627.0676018764,2011-01-12 22:34:54,990.4989381928808,2,24,0.5501165986061096,3.950672864913941,16.905046389006383,16.724309096192087,68.32317299501855,59.77580390630969,6.47544875391759e-05,0.10130325704813,0,0,0
5630,211657.0827269936,2011-01-12 22:35:24,1020.5140632850334,2,24,0.5499359965324402,3.9532630443573,16.909632948915963,16.724309096192087,68.34129908686656,59.77580390630969,3.237724376958795e-05,0.10130325704813,0,0,0
5631,211687.0978547674,2011-01-12 22:35:54,1050.5291910538574,2,24,0.5501165986061096,3.955853223800659,16.914219498862753,16.724309096192087,68.35943678100415,59.77580390630969,6.47544875391759e-05,0.10130325704813,0,0,0
5632,211717.1129609224,2011-01-12 22:36:24,1080.5442972088128,2,24,0.5497553944587708,3.9582815170288086,16.918806078098964,16.724309096192087,68.3775860441434,59.77580390630969,9.713172767078504e-05,0.10130325704813,0,0,0
5633,211747.1280871423,2011-01-12 22:36:54,1110.5594234287764,2,24,0.5499359965324402,3.960709810256958,16.923392641119815,16.724309096192087,68.39574668762994,59.77580390630969,6.47544875391759e-05,0.10130325704813,0,0,0
5634,211777.14323655007,2011-01-12 22:37:24,1140.5745728365312,2,24,0.5499359965324402,3.9631381034851074,16.927979216144376,16.724309096192087,68.41391870199224,59.77580390630969,3.237724376958795e-05,0.10130325704813,0,0,0
5635,211807.15833882036,2011-01-12 22:37:54,1170.589675111817,2,24,0.5501165986061096,3.965728282928467,16.932565763849244,16.724309096192087,68.43210188680257,59.77580390630969,9.713172767078504e-05,0.10130325704813,0,0,0
5636,211837.1734488149,2011-01-12 22:38:24,1200.604785126392,2,24,0.550297200679779,3.968156576156616,16.937152302410208,16.724309096192087,68.45029614336148,59.77580390630969,6.47544875391759e-05,0.10130325704813,0,0,0
5637,211867.18857933057,2011-01-12 22:38:54,1230.6199156220118,2,24,0.5501165986061096,3.970422983169556,16.941738918853932,16.724309096192087,68.46850173780396,59.77580390630969,3.237724376958795e-05,0.10130325704813,0,0,0
5638,211897.2037120768,2011-01-12 22:39:24,1260.635048388291,2,24,0.5501165986061096,3.972851276397705,16.94632548447674,16.724309096192087,68.48671808972095,59.77580390630969,6.47544875391759e-05,0.10130325704813,0,0,0
5639,211927.2188210337,2011-01-12 22:39:54,1290.6501573201672,2,24,0.550297200679779,3.975117683410645,16.950912041972913,16.724309096192087,68.50494528380257,59.77580390630969,6.47544875391759e-05,0.10130325704813,0,0,0
5640,211957.23393921863,2011-01-12 22:40:24,1320.6652755101177,2,24,0.550297200679779,3.977707862854004,16.955498630192743,16.724309096192087,68.52318343951814,59.77580390630969,9.713172767078504e-05,0.10130325704813,0,0,0
5641,211987.24908092723,2011-01-12 22:40:54,1350.6804172136708,2,24,0.5501165986061096,3.979974269866944,16.96008517657031,16.724309096192087,68.54143181063638,59.77580390630969,6.47544875391759e-05,0.10130325704813,0,0,0
5642,212017.2641663906,2011-01-12 22:41:24,1380.6955026770568,2,24,0.5501165986061096,3.982240676879883,16.96467165716131,16.724309096192087,68.5596909144186,59.77580390630969,3.237724376958795e-05,0.10130325704813,0,0,0
5643,212047.27963548512,2011-01-12 22:41:54,1410.7109717866065,2,24,0.5501165986061096,3.9845070838928223,16.96925819277182,16.724309096192087,68.57796076551656,59.77580390630969,3.237724376958795e-05,0.10130325704813,0,0,0
5644,212077.29669973525,2011-01-12 22:42:24,1440.7280360567877,2,24,0.5499359965324402,3.9867734909057617,16.9738449576703,16.724309096192087,68.59624212716683,59.77580390630969,3.237724376958795e-05,0.10130325704813,0,0,0
5645,212107.3095489853,2011-01-12 22:42:54,1470.7408852717542,2,24,0.5499359965324402,3.989039897918701,16.978431122646864,16.724309096192087,68.61453160009964,59.77580390630969,3.237724376958795e-05,0.10130325704813,0,0,0
5646,212137.32464927563,2011-01-12 22:43:24,1500.7559855721183,2,24,0.5499359965324402,3.9913063049316406,16.98301752194804,16.724309096192087,68.63283243718715,59.77580390630969,3.237724376958795e-05,0.10130325704813,0,0,0
5647,212167.33978910453,2011-01-12 22:43:54,1530.7711254009994,2,24,0.550297200679779,3.99373459815979,16.987604629297895,16.724309096192087,68.65114664632705,59.77580390630969,9.713172767078504e-05,0.10130325704813,0,0,0
5648,212197.35491652248,2011-01-12 22:44:24,1560.7862528189487,2,24,0.5501165986061096,3.995838880538941,16.992191842436544,16.724309096192087,68.66947169201899,59.77580390630969,3.237724376958795e-05,0.10130325704813,0,0,0
5649,212227.37004456692,2011-01-12 22:44:54,1590.8013808584471,2,24,0.5501165986061096,3.99826717376709,16.996778544048805,16.724309096192087,68.68780513551472,59.77580390630969,6.47544875391759e-05,0.10130325704813,0,0,0
5650,212257.3851509174,2011-01-12 22:45:25,1620.8164872189147,2,24,0.5501165986061096,4.000371932983398,17.00136492060668,16.724309096192087,68.70614747504004,59.77580390630969,0.0,0.10130325704813,0,0,0
5651,212287.4002896185,2011-01-12 22:45:55,1650.8316259149728,2,24,0.5501165986061096,4.002799987792969,17.005951284696526,16.724309096192087,68.72450017829173,59.77580390630969,6.47544875391759e-05,0.10130325704813,0,0,0
5652,212317.41539514688,2011-01-12 22:46:25,1680.8467314433665,2,24,0.5501165986061096,4.005066394805908,17.010537665002893,16.724309096192087,68.74286332549956,59.77580390630969,6.47544875391759e-05,0.10130325704813,0,0,0
5653,212347.43063206272,2011-01-12 22:46:55,1710.8619684544558,2,24,0.550297200679779,4.007494926452637,17.01512405811388,16.724309096192087,68.761236988229,59.77580390630969,9.71794142969884e-05,0.10130325704813,0,0,0
5654,212377.44563646408,2011-01-12 22:47:25,1740.87697275556,2,24,0.5501165986061096,4.009437561035156,17.019710503070762,16.724309096192087,68.77962131726585,59.77580390630969,6.47544875391759e-05,0.10130325704813,0,0,0
5655,212407.46089152017,2011-01-12 22:47:55,1770.8922278416978,2,24,0.5499359965324402,4.011703968048096,17.02429690800081,16.724309096192087,68.79801593562875,59.77580390630969,3.24249267578125e-05,0.10130325704813,0,0,0
5656,212437.4758705984,2011-01-12 22:48:25,1800.9072069149263,2,24,0.5499359965324402,4.013970375061035,17.028883203475978,16.724309096192087,68.81642069644282,59.77580390630969,3.24249267578125e-05,0.10130325704813,0,0,0
5657,212467.4910963965,2011-01-12 22:48:55,1830.9224327030445,2,24,0.550297200679779,4.0165605545043945,17.033469628677317,16.724309096192087,68.83483652534287,59.77580390630969,9.71794142969884e-05,0.10130325704813,0,0,0
5658,212497.50608549977,2011-01-12 22:49:25,1860.937421811284,2,24,0.5499359965324402,4.018826961517334,17.038056034330396,16.724309096192087,68.85326300818858,59.77580390630969,6.47544875391759e-05,0.10130325704813,0,0,0
5659,212527.52158638847,2011-01-12 22:49:55,1890.952922700037,2,24,0.5501165986061096,4.021255016326904,17.04264254198507,16.724309096192087,68.87170056508978,59.77580390630969,9.70840483205393e-05,0.10130325704813,0,0,0
5660,212557.5365430509,2011-01-12 22:50:25,1920.9678794375984,2,24,0.5499359965324402,4.023683547973633,17.047228923976764,16.724309096192087,68.8901485062338,59.77580390630969,6.47544875391759e-05,0.10130325704813,0,0,0
5661,212587.5515854369,2011-01-12 22:50:55,1950.9829217484344,2,24,0.5501165986061096,4.025949954986572,17.05181531041742,16.724309096192087,68.90860724615938,59.77580390630969,0.0001295089750783,0.10130325704813,0,0,0
5662,212617.56660785817,2011-01-12 22:51:25,1980.9979441747123,2,24,0.5499359965324402,4.028216361999512,17.056401743660924,16.724309096192087,68.92707704281796,59.77580390630969,6.47544875391759e-05,0.10130325704813,0,0,0
5663,212647.5818320724,2011-01-12 22:51:55,2011.0131683788827,2,24,0.5501165986061096,4.030644416809082,17.060988203895256,16.724309096192087,68.94555795559542,59.77580390630969,6.47544875391759e-05,0.10130325704813,0,0,0
5664,212677.5968221831,2011-01-12 22:52:25,2041.0281584795955,2,24,0.5499359965324402,4.0329108238220215,17.065574560194776,16.724309096192087,68.96404942706693,59.77580390630969,0.0,0.10130325704813,0,0,0
5665,212707.6119366989,2011-01-12 22:52:55,2071.043272985364,2,24,0.5501165986061096,4.035501003265381,17.070160949922514,16.724309096192087,68.98255219724179,59.77580390630969,6.47544875391759e-05,0.10130325704813,0,0,0
5666,212737.62705284377,2011-01-12 22:53:25,2101.0583891352294,2,24,0.5501165986061096,4.03809118270874,17.07474734337912,16.724309096192087,69.00106617608014,59.77580390630969,9.71794142969884e-05,0.10130325704813,0,0,0
5667,212767.642317198,2011-01-12 22:53:55,2131.0736535045035,2,24,0.5501165986061096,4.04035758972168,17.07933378435655,16.724309096192087,69.01959159614371,59.77580390630969,6.47544875391759e-05,0.10130325704813,0,0,0
5668,212797.65768836343,2011-01-12 22:54:25,2161.0890246799718,2,24,0.5501165986061096,4.042947769165039,17.08392023066039,16.724309096192087,69.03812843185871,59.77580390630969,9.71794142969884e-05,0.10130325704813,0,0,0
5669,212827.67246556355,2011-01-12 22:54:55,2191.1038018850827,2,24,0.5501165986061096,4.045537948608398,17.088506566780197,16.724309096192087,69.05667640132035,59.77580390630969,6.47544875391759e-05,0.10130325704813,0,0,0
5670,212857.6875546309,2011-01-12 22:55:25,2221.1188910126007,2,24,0.5501165986061096,4.048128128051758,17.093092897117977,16.724309096192087,69.07523608755493,59.77580390630969,9.71794142969884e-05,0.10130325704813,0,0,0
5671,212887.70488542537,2011-01-12 22:55:55,2251.1362218170675,2,24,0.5501165986061096,4.050556182861328,17.097679697416396,16.724309096192087,69.09380948884844,59.77580390630969,6.47544875391759e-05,0.10130325704813,0,0,0
5672,212917.71793887933,2011-01-12 22:56:25,2281.1492751808355,2,24,0.5499359965324402,4.052984714508057,17.102265784777742,16.724309096192087,69.11239183900078,59.77580390630969,3.24249267578125e-05,0.10130325704813,0,0,0
5673,212947.7329084138,2011-01-12 22:56:55,2311.1642448005027,2,24,0.550297200679779,4.055736541748047,17.106852189295907,16.724309096192087,69.13098743900964,59.77580390630969,3.23295607813634e-05,0.10130325704813,0,0,0
5674,212977.74802356612,2011-01-12 22:57:25,2341.1793598626577,2,24,0.550297200679779,4.058488845825195,17.111438705634647,16.724309096192087,69.14959564435158,59.77580390630969,9.71794142969884e-05,0.10130325704813,0,0,0
5675,213007.7633642356,2011-01-12 22:57:55,2371.1947005571574,2,24,0.5501165986061096,4.061079025268555,17.11602521095362,16.724309096192087,69.16821597502576,59.77580390630969,6.47544875391759e-05,0.10130325704813,0,0,0
5676,213037.77839126336,2011-01-12 22:58:25,2401.209727574879,2,24,0.5499359965324402,4.063830852508545,17.120611591834322,16.724309096192087,69.18684786610334,59.77580390630969,9.70840483205393e-05,0.10130325704813,0,0,0
5677,213067.7933535548,2011-01-12 22:58:55,2431.2246898712942,2,24,0.5499359965324402,4.066421031951904,17.12519795981356,16.724309096192087,69.20549215176203,59.77580390630969,6.47544875391759e-05,0.10130325704813,0,0,0
5678,213097.80857478152,2011-01-12 22:59:25,2461.239911103057,2,24,0.5499359965324402,4.069334983825684,17.129784314037135,16.724309096192087,69.2241489422876,59.77580390630969,3.23295607813634e-05,0.10130325704813,0,0,0
5679,213127.823609714,2011-01-12 22:59:55,2491.254946010441,2,24,0.5501165986061096,4.071925163269043,17.134370753373872,16.724309096192087,69.24281875207436,59.77580390630969,6.47544875391759e-05,0.10130325704813,0,0,0
5680,213157.838719112,2011-01-12 23:00:25,2521.2700554034677,2,24,0.5499359965324402,4.074839115142822,17.138957141442305,16.724309096192087,69.26150121949776,59.77580390630969,6.47544875391759e-05,0.10130325704813,0,0,0
5681,213187.85384555752,2011-01-12 23:00:55,2551.285181848993,2,24,0.5499359965324402,4.077591419219971,17.143543581067807,16.724309096192087,69.28019688777351,59.77580390630969,6.47544875391759e-05,0.10130325704813,0,0,0
5682,213217.86896443416,2011-01-12 23:01:25,2581.300300725655,2,24,0.550297200679779,4.08082914352417,17.148130017232447,16.724309096192087,69.29890574168786,59.77580390630969,0.0001295089750783,0.10130325704813,0,0,0
5683,213247.8842448735,2011-01-12 23:01:55,2611.315581190043,2,24,0.5501165986061096,4.083419322967529,17.15271651999104,16.724309096192087,69.31762804224789,59.77580390630969,6.47544875391759e-05,0.10130325704813,0,0,0
5684,213277.89920452333,2011-01-12 23:02:25,2641.3305408198125,2,24,0.5499359965324402,4.086333274841309,17.157302877939088,16.724309096192087,69.3363631369815,59.77580390630969,9.71794142969884e-05,0.10130325704813,0,0,0
5685,213307.91433825705,2011-01-12 23:02:55,2671.34567454849,2,24,0.550297200679779,4.089570999145508,17.16188925663885,16.724309096192087,69.3551118078097,59.77580390630969,0.0001295089750783,0.10130325704813,0,0,0
5686,213337.9294574896,2011-01-12 23:03:25,2701.360793791064,2,24,0.5499359965324402,4.092322826385498,17.166475686555966,16.724309096192087,69.3738743340988,59.77580390630969,9.70840483205393e-05,0.10130325704813,0,0,0
5687,213367.94493694996,2011-01-12 23:03:55,2731.3762732664486,2,24,0.5501165986061096,4.095398902893066,17.17106213288583,16.724309096192087,69.39265064184778,59.77580390630969,9.71794142969884e-05,0.10130325704813,0,0,0
5688,213397.959722576,2011-01-12 23:04:25,2761.3910588674853,2,24,0.550297200679779,4.098312854766846,17.175648523710286,16.724309096192087,69.41144070671284,59.77580390630969,6.47544875391759e-05,0.10130325704813,0,0,0
5689,213427.97483171843,2011-01-12 23:04:55,2791.406168019911,2,24,0.5501165986061096,4.101550579071045,17.18023495840464,16.724309096192087,69.43024498154662,59.77580390630969,9.71794142969884e-05,0.10130325704813,0,0,0
5690,213457.9899549359,2011-01-12 23:05:25,2821.421291227367,2,24,0.5499359965324402,4.104626178741455,17.184821391438202,16.724309096192087,69.44906327149457,59.77580390630969,9.70840483205393e-05,0.10130325704813,0,0,0
5691,213488.0052977808,2011-01-12 23:05:55,2851.436634082251,2,24,0.5501165986061096,4.107702255249023,17.189407770179148,16.724309096192087,69.46789573480027,59.77580390630969,6.47544875391759e-05,0.10130325704813,0,0,0
5692,213518.02016848893,2011-01-12 23:06:25,2881.451504780376,2,24,0.5499359965324402,4.110777854919434,17.193994162098807,16.724309096192087,69.48674277676044,59.77580390630969,3.23295607813634e-05,0.10130325704813,0,0,0
5693,213548.03528170145,2011-01-12 23:06:55,2911.4666179879086,2,24,0.550297200679779,4.114339351654053,17.198580588007736,16.724309096192087,69.50560456645293,59.77580390630969,0.0001295089750783,0.10130325704813,0,0,0
5694,213578.05035891428,2011-01-12 23:07:25,2941.4816952308056,2,24,0.5499359965324402,4.117253303527832,17.203166913882786,16.724309096192087,69.52448061063464,59.77580390630969,9.71794142969884e-05,0.10130325704813,0,0,0
5695,213608.06549532965,2011-01-12 23:07:55,2971.49683164618,2,24,0.5501165986061096,4.120652675628662,17.20775256586341,16.724309096192087,69.54336852472791,59.77580390630969,9.70840483205393e-05,0.10130325704813,0,0,0
5696,213638.08060666756,2011-01-12 23:08:25,3001.51194295899,2,24,0.5501165986061096,4.123728752136231,17.21233830989512,16.724309096192087,69.56227175493721,59.77580390630969,3.24249267578125e-05,0.10130325704813,0,0,0
5697,213668.095773629,2011-01-12 23:08:55,3031.5271099455567,2,24,0.5497553944587708,4.12696647644043,17.216923966815827,16.724309096192087,69.58118968725998,59.77580390630969,9.71794142969884e-05,0.10130325704813,0,0,0
5698,213698.11085923275,2011-01-12 23:09:25,3061.54219554428,2,24,0.5501165986061096,4.130527973175049,17.22150956778531,16.724309096192087,69.60012260088014,59.77580390630969,9.71794142969884e-05,0.10130325704813,0,0,0
5699,213728.12599626463,2011-01-12 23:09:55,3091.55733257619,2,24,0.5499359965324402,4.133765697479248,17.22609521019068,16.724309096192087,69.61907104468169,59.77580390630969,9.71794142969884e-05,0.10130325704813,0,0,0
5700,213758.14109379312,2011-01-12 23:10:25,3121.572430109658,2,24,0.550297200679779,4.137327194213867,17.23068081294703,16.724309096192087,69.63803470961781,59.77580390630969,9.71794142969884e-05,0.10130325704813,0,0,0
5701,213788.1563480622,2011-01-12 23:10:55,3151.5876843687342,2,24,0.5501165986061096,4.140726566314697,17.235267360946704,16.724309096192087,69.65701796870422,59.77580390630969,9.70840483205393e-05,0.10130325704813,0,0,0
5702,213818.1713411153,2011-01-12 23:11:25,3181.6026774117804,2,24,0.5501165986061096,4.1439642906188965,17.239853924035234,16.724309096192087,69.67601691563776,59.77580390630969,9.70840483205393e-05,0.10130325704813,0,0,0
5703,213848.18647330013,2011-01-12 23:11:55,3211.617809591597,2,24,0.5501165986061096,4.147687911987305,17.24444041254327,16.724309096192087,69.69503166603631,59.77580390630969,0.0001295089750783,0.10130325704813,0,0,0
5704,213878.20161034705,2011-01-12 23:12:25,3241.632946663608,2,24,0.5501165986061096,4.151087284088135,17.249026928884426,16.724309096192087,69.71406257837205,59.77580390630969,9.70840483205393e-05,0.10130325704813,0,0,0
5705,213908.2167022866,2011-01-12 23:12:55,3271.6480385780715,2,24,0.550297200679779,4.154487133026123,17.253613388786217,16.724309096192087,69.73310932563459,59.77580390630969,9.71794142969884e-05,0.10130325704813,0,0,0
5706,213938.2318483861,2011-01-12 23:13:25,3301.663184682593,2,24,0.550297200679779,4.158210277557373,17.25819989806963,16.724309096192087,69.75217242058068,59.77580390630969,0.0001295089750783,0.10130325704813,0,0,0
5707,213968.24716378257,2011-01-12 23:13:55,3331.678500099093,2,24,0.550297200679779,4.161771774291992,17.262786405154454,16.724309096192087,69.7712517961177,59.77580390630969,0.0001295089750783,0.10130325704813,0,0,0
5708,213998.2643562823,2011-01-12 23:14:25,3361.695692578812,2,24,0.5501165986061096,4.1651716232299805,17.26737320642148,16.724309096192087,69.79034884026849,59.77580390630969,6.47544875391759e-05,0.10130325704813,0,0,0
5709,214028.277133954,2011-01-12 23:14:55,3391.708470275533,2,24,0.5501165986061096,4.168894767761231,17.27195932792228,16.724309096192087,69.80945955006378,59.77580390630969,9.70840483205393e-05,0.10130325704813,0,0,0
5710,214058.2924295661,2011-01-12 23:15:25,3421.723765867624,2,24,0.5501165986061096,4.172618389129639,17.27654585198489,16.724309096192087,69.82858861807024,59.77580390630969,0.0001295089750783,0.10130325704813,0,0,0
5711,214088.30747198223,2011-01-12 23:15:55,3451.7388082787106,2,24,0.5501165986061096,4.176179885864258,17.281132342108176,16.724309096192087,69.84773436823032,59.77580390630969,6.47544875391759e-05,0.10130325704813,0,0,0
5712,214118.32254059863,2011-01-12 23:16:25,3481.753876910145,2,24,0.5499359965324402,4.179903030395508,17.285718804245167,16.724309096192087,69.86689701500723,59.77580390630969,9.70840483205393e-05,0.10130325704813,0,0,0
5713,214148.33758621773,2011-01-12 23:16:55,3511.7689225091767,2,24,0.5499359965324402,4.183626651763916,17.290305347662528,16.724309096192087,69.88607715531964,59.77580390630969,9.71794142969884e-05,0.10130325704813,0,0,0
5714,214178.35278653732,2011-01-12 23:17:26,3541.78412282882,2,24,0.5499359965324402,4.187511920928955,17.294891875205483,16.724309096192087,69.90527434186747,59.77580390630969,9.71794142969884e-05,0.10130325704813,0,0,0
5715,214208.36791059692,2011-01-12 23:17:56,3571.799246893412,2,24,0.5499359965324402,4.191073417663574,17.299478360024477,16.724309096192087,69.92448870675399,59.77580390630969,6.47544875391759e-05,0.10130325704813,0,0,0
5716,214238.3830263157,2011-01-12 23:18:26,3601.8143626021774,2,24,0.5501165986061096,4.195120334625244,17.304064830988086,16.724309096192087,69.94372047489327,59.77580390630969,0.0001295089750783,0.10130325704813,0,0,0
5717,214268.39815757325,2011-01-12 23:18:56,3631.8294938647086,2,24,0.5499359965324402,4.198681831359863,17.30865127563077,16.724309096192087,69.9629696165885,59.77580390630969,6.47544875391759e-05,0.10130325704813,0,0,0
5718,214276.27302257487,2011-01-12 23:19:03,3639.7043588763536,2,24,0.5501165986061096,4.200138568878174,17.309854609128575,16.724309096192087,69.96802292132084,59.77580390630969,0.0001295089750783,0.10130325704813,0,0,0
5719,214306.28233429595,2011-01-12 23:19:34,30.01511528771708,3,24,0.0,4.0992841720581055,17.309854609128575,16.724309096192087,69.96802292132084,59.77580390630969,-0.0005180359003134,0.10130325704813,0,0,0
5720,214336.2974645159,2011-01-12 23:20:04,60.03024553772478,3,24,0.0,4.086333274841309,17.309854609128575,16.724309096192087,69.96802292132084,59.77580390630969,-0.0002590179501567,0.10130325704813,0,0,0
5721,214366.31269009347,2011-01-12 23:20:34,90.0454711052932,3,24,0.0,4.078562736511231,17.309854609128575,16.724309096192087,69.96802292132084,59.77580390630969,-0.0001295089750783,0.10130325704813,0,0,0
5722,214396.28083435493,2011-01-12 23:21:04,120.01361544194762,3,24,0.0,4.073058605194092,17.309854609128575,16.724309096192087,69.96802292132084,59.77580390630969,-9.70840483205393e-05,0.10130325704813,0,0,0
5723,214396.2926693477,2011-01-12 23:21:04,0.015625142663253,4,24,1.0220487117767334,4.199814796447754,17.309859079641477,16.724309096192087,69.96804169700951,59.77580390630969,-3.24249267578125e-05,0.10130325704813,0,0,0
5724,214397.12082684605,2011-01-12 23:21:05,0.843782650991702,4,24,0.9709362387657166,4.199976921081543,17.31008695328555,16.724309096192087,69.96899871904611,59.77580390630969,0.0,0.10130325704813,0,0,0
5725,214399.07387193036,2011-01-12 23:21:07,2.796827725253709,4,24,0.9203656315803528,4.199814796447754,17.310598998868638,16.724309096192087,69.97114921216867,59.77580390630969,-3.24249267578125e-05,0.10130325704813,0,0,0
5726,214401.96469509613,2011-01-12 23:21:09,5.687650886054475,4,24,0.8703368902206421,4.199814796447754,17.311316813574994,16.724309096192087,69.97416388091291,59.77580390630969,0.0,0.10130325704813,0,0,0
5727,214405.88625909525,2011-01-12 23:21:13,9.609214870137883,4,24,0.8203080892562866,4.199814796447754,17.312236533777508,16.724309096192087,69.97802653243576,59.77580390630969,0.0,0.10130325704813,0,0,0
5728,214411.0736661197,2011-01-12 23:21:19,14.796621899580492,4,24,0.7702793478965759,4.199814796447754,17.313381327759878,16.724309096192087,69.98283445378135,59.77580390630969,0.0,0.10130325704813,0,0,0
5729,214417.79231828812,2011-01-12 23:21:25,21.51527408811191,4,24,0.7198893427848816,4.199814796447754,17.314770443094627,16.724309096192087,69.98866849653194,59.77580390630969,0.0,0.10130325704813,0,0,0
5730,214426.69852392795,2011-01-12 23:21:34,30.421479737962304,4,24,0.6698605418205261,4.199814796447754,17.316487197758185,16.724309096192087,69.99587858175884,59.77580390630969,0.0,0.10130325704813,0,0,0
5731,214438.88567275275,2011-01-12 23:21:46,42.60862852262562,4,24,0.619651198387146,4.199814796447754,17.318665527091593,16.724309096192087,70.00502721220548,59.77580390630969,-3.24249267578125e-05,0.10130325704813,0,0,0
5732,214457.135435968,2011-01-12 23:22:05,60.85839176293223,4,24,0.5696223974227905,4.199814796447754,17.321671148092996,16.724309096192087,70.01765032326165,59.77580390630969,0.0,0.10130325704813,0,0,0
5733,214488.4632681401,2011-01-12 23:22:36,92.186224005213,4,24,0.5195936560630798,4.199814796447754,17.32638937864775,16.724309096192087,70.03746606296163,59.77580390630969,-3.24249267578125e-05,0.10130325704813,0,0,0
5734,214549.29014003585,2011-01-12 23:23:37,153.01309582575033,4,24,0.4695648849010467,4.199814796447754,17.33470313821482,16.724309096192087,70.07238245802985,59.77580390630969,0.0,0.10130325704813,0,0,0
5735,214653.3040012924,2011-01-12 23:25:21,257.0269570622166,4,24,0.4195361137390136,4.199814796447754,17.347510814218037,16.724309096192087,70.12617257893754,59.77580390630969,0.0,0.10130325704813,0,0,0
5736,214785.61433046847,2011-01-12 23:27:33,389.33728626345663,4,24,0.3695073425769806,4.199653148651123,17.361996271599626,16.724309096192087,70.18700907854972,59.77580390630969,-6.47544875391759e-05,0.10130325704813,0,0,0
5737,214948.75216826657,2011-01-12 23:30:16,552.4751240414572,4,24,0.3194785714149475,4.199814796447754,17.377594530501355,16.724309096192087,70.2525192275474,59.77580390630969,0.0,0.10130325704813,0,0,0
5738,215143.530243191,2011-01-12 23:33:31,747.2531989608717,4,24,0.2690885663032532,4.199653148651123,17.39349849947844,16.724309096192087,70.3193132506501,59.77580390630969,-6.47544875391759e-05,0.10130325704813,0,0,0
5739,215385.19816233483,2011-01-12 23:37:33,988.921118124788,4,24,0.2186985909938812,4.199653148651123,17.40985033244618,16.724309096192087,70.3879882349942,59.77580390630969,0.0,0.10130325704813,0,0,0
5740,215697.2396579848,2011-01-12 23:42:45,1300.962613759678,4,24,0.1686698198318481,4.199976921081543,17.426573162449877,16.724309096192087,70.45822120103765,59.77580390630969,3.24249267578125e-05,0.10130325704813,0,0,0
5741,216131.85733730017,2011-01-12 23:49:59,1735.580293100111,4,24,0.118641048669815,4.199653148651123,17.443764078567764,16.724309096192087,70.5304201301269,59.77580390630969,-3.23295607813634e-05,0.10130325704813,0,0,0
5742,216889.53213688143,2011-01-13 00:02:37,2493.25509275155,4,24,0.0686122849583625,4.199653148651123,17.462988574002793,16.724309096192087,70.6111596681838,59.77580390630969,0.0,0.10130325704813,0,0,0
5743,217403.05477385476,2011-01-13 00:11:11,3006.777729649665,4,24,0.0496483072638511,4.199814796447754,17.471413330660464,16.724309096192087,70.6465422382983,59.77580390630969,0.0,0.10130325704813,0,0,0
5744,217433.0695339344,2011-01-13 00:11:41,30.0149882861902,5,24,0.0,4.190425872802734,17.471413330660464,16.724309096192087,70.6465422382983,59.77580390630969,-9.70840483205393e-05,0.10130325704813,0,0,0
5745,217463.06918431885,2011-01-13 00:12:11,60.014638560334994,5,24,0.0,4.188968658447266,17.471413330660464,16.724309096192087,70.6465422382983,59.77580390630969,-3.24249267578125e-05,0.10130325704813,0,0,0
5746,217463.2573634364,2011-01-13 00:12:11,0.187673670532712,6,24,-1.9243103452026844e-05,4.188807010650635,17.471413330660464,16.72430909719526,70.6465422382983,59.77580391051179,0.0,0.1074950918555259,0,0,0
5747,217468.0852268074,2011-01-13 00:12:16,5.015537051574694,6,24,0.0003419754502829,4.188807010650635,17.47141417740855,16.724309097278088,70.64654578530158,59.77580391085874,-6.47544875391759e-05,0.1074950918555259,0,0,0
5748,217491.210631883,2011-01-13 00:12:39,23.12453195386965,7,24,-1.099568486213684,3.988716125488281,17.47141417740855,16.731372457205964,70.64654578530158,59.804144835305216,-0.0013921738136559,0.1074950918555259,0,0,0
5749,217521.2255991969,2011-01-13 00:13:09,53.139499262778,7,24,-1.0993878841400146,3.945330619812012,17.47141417740855,16.74054047194323,70.64654578530158,59.840504513874365,-0.0009713172912597,0.1074950918555259,0,0,0
5750,217551.2407239532,2011-01-13 00:13:39,83.15462399403128,7,24,-1.099568486213684,3.9127917289733887,17.47141417740855,16.749708533130264,70.64654578530158,59.87651977800677,-0.0007446288946084,0.1074950918555259,0,0,0
5751,217581.25582629367,2011-01-13 00:14:09,113.16972633949229,7,24,-1.099568486213684,3.8876993656158447,17.47141417740855,16.758876616938675,70.64654578530158,59.91227300773358,-0.0006151676061563,0.1074950918555259,0,0,0
5752,217611.2713666508,2011-01-13 00:14:39,143.18526672668804,7,24,-1.0993878841400146,3.8673017024993896,17.47141417740855,16.76804466314924,70.64654578530158,59.94781899143487,-0.0005180359003134,0.1074950918555259,0,0,0
5753,217641.2860525233,2011-01-13 00:15:09,173.19995257410775,7,24,-1.099568486213684,3.849656105041504,17.47141417740855,16.77721252073683,70.64654578530158,59.98319182486858,-0.0004532813909463,0.1074950918555259,0,0,0
5754,217671.30115098404,2011-01-13 00:15:39,203.21505102987445,7,24,-1.0997490882873535,3.8342769145965576,17.47141417740855,16.786380523621578,70.64654578530158,60.01841477587171,-0.0003885269106831,0.1074950918555259,0,0,0
5755,217701.31630414617,2011-01-13 00:16:09,233.23020419699867,7,24,-1.0997490882873535,3.81986927986145,17.47141417740855,16.795548499218814,70.64654578530158,60.05350140293191,-0.0003885269106831,0.1074950918555259,0,0,0
5756,217731.33160381345,2011-01-13 00:16:39,263.2455038742712,7,24,-1.099568486213684,3.8067564964294434,17.47141417740855,16.804716512557583,70.64654578530158,60.08846149333774,-0.0003237724304199,0.1074950918555259,0,0,0
5757,217761.34657327773,2011-01-13 00:17:09,293.2604733285265,7,24,-1.099568486213684,3.793967485427856,17.47141417740855,16.813884438557068,70.64654578530158,60.12330237474352,-0.0003561496851034,0.1074950918555259,0,0,0
5758,217791.3616918035,2011-01-13 00:17:39,323.27559185431386,7,24,-1.0997490882873535,3.782149791717529,17.47141417740855,16.82305241478446,70.64654578530158,60.158030723155015,-0.0002913951757363,0.1074950918555259,0,0,0
5759,217821.3768443641,2011-01-13 00:18:09,353.29074443497643,7,24,-1.099568486213684,3.770655870437622,17.47141417740855,16.832220463743635,70.64654578530158,60.19265242030691,-0.0003561496851034,0.1074950918555259,0,0,0
5760,217851.39194112064,2011-01-13 00:18:39,383.305841191508,7,24,-1.099568486213684,3.7596476078033447,17.47141417740855,16.841388511066967,70.64654578530158,60.2271711874569,-0.0002590179501567,0.1074950918555259,0,0,0
5761,217881.4071775553,2011-01-13 00:19:09,413.3210776061106,7,24,-1.0997490882873535,3.7489633560180655,17.47141417740855,16.850556555596594,70.64654578530158,60.26159062645343,-0.0002590179501567,0.1074950918555259,0,0,0
5762,217911.42230006092,2011-01-13 00:19:39,443.3362001118171,7,24,-1.099568486213684,3.738764524459839,17.47141417740855,16.859724597189356,70.64654578530158,60.29591389649974,-0.0002266406954731,0.1074950918555259,0,0,0
5763,217941.43730802624,2011-01-13 00:20:09,473.3512080920911,7,24,-1.099568486213684,3.7288894653320312,17.47141417740855,16.868892592860504,70.64654578530158,60.33014481605581,-0.0002590179501567,0.1074950918555259,0,0,0
5764,217971.4524317149,2011-01-13 00:20:39,503.3663317556834,7,24,-1.099568486213684,3.719338178634644,17.47141417740855,16.878060613660065,70.64654578530158,60.364286836922815,-0.0002590179501567,0.1074950918555259,0,0,0
5765,218001.4675369676,2011-01-13 00:21:09,533.3814370083901,7,24,-1.0997490882873535,3.709786891937256,17.47141417740855,16.88722862233448,70.64654578530158,60.39834196881559,-0.0002590179501567,0.1074950918555259,0,0,0
5766,218031.48273567823,2011-01-13 00:21:39,563.3966357290478,7,24,-1.0993878841400146,3.701045036315918,17.47141417740855,16.89639671663433,70.64654578530158,60.43231329650968,-0.0002266406954731,0.1074950918555259,0,0,0
5767,218061.49817106876,2011-01-13 00:22:09,593.4120712599093,7,24,-1.099568486213684,3.69230318069458,17.47141417740855,16.905564886338787,70.64654578530158,60.46620375037902,-0.0002266406954731,0.1074950918555259,0,0,0
5768,218091.5129484242,2011-01-13 00:22:39,623.4268484750455,7,24,-1.0997490882873535,3.683561325073242,17.47141417740855,16.914732844260115,70.64654578530158,60.50001451480584,-0.0002590179501567,0.1074950918555259,0,0,0
5769,218121.52801879492,2011-01-13 00:23:09,653.4419188708782,7,24,-1.0997490882873535,3.675305128097534,17.47141417740855,16.923900791649878,70.64654578530158,60.53374812708316,-0.0002266406954731,0.1074950918555259,0,0,0
5770,218151.54310205788,2011-01-13 00:23:39,683.4570021037046,7,24,-1.099568486213684,3.6672110557556152,17.47141417740855,16.933068525304954,70.64654578530158,60.56740572525817,-0.0001942634553415,0.1074950918555259,0,0,0
5771,218181.55822337564,2011-01-13 00:24:09,713.4721234214504,7,24,-1.099568486213684,3.659278631210327,17.47141417740855,16.942235803115715,70.64654578530158,60.60098724922104,-0.0001942634553415,0.1074950918555259,0,0,0
5772,218211.5735820299,2011-01-13 00:24:39,743.4874820757118,7,24,-1.0993878841400146,3.651184320449829,17.47141417740855,16.951403288276442,70.64654578530158,60.63449663173521,-0.0002266406954731,0.1074950918555259,0,0,0
5773,218241.59077580785,2011-01-13 00:25:09,773.5046759589284,7,24,-1.0993878841400146,3.643575668334961,17.47141417740855,16.960571188524614,70.64654578530158,60.66793569923348,-0.0001942634553415,0.1074950918555259,0,0,0
5774,218271.60363414057,2011-01-13 00:25:39,803.5175341913692,7,24,-1.099568486213684,3.6359670162200928,17.47141417740855,16.96973774302605,70.64654578530158,60.70129972473493,-0.0001942634553415,0.1074950918555259,0,0,0
5775,218301.61873097223,2011-01-13 00:26:09,833.5326310230884,7,24,-1.099568486213684,3.6283583641052246,17.47141417740855,16.978905004039994,70.64654578530158,60.734597513590565,-0.0002266406954731,0.1074950918555259,0,0,0
5776,218331.63399278515,2011-01-13 00:26:39,863.5478928510287,7,24,-1.099568486213684,3.6212353706359854,17.47141417740855,16.98807245792705,70.64654578530158,60.76782843987571,-0.0001942634553415,0.1074950918555259,0,0,0
5777,218361.64899234945,2011-01-13 00:27:09,893.56289240029,7,24,-1.099568486213684,3.614112377166748,17.47141417740855,16.99724031220763,70.64654578530158,60.80099473267765,-0.0001618862152099,0.1074950918555259,0,0,0
5778,218391.6640996673,2011-01-13 00:27:39,923.5779997131312,7,24,-1.0997490882873535,3.60715126991272,17.47141417740855,17.006408231413143,70.64654578530158,60.83409705256893,-0.0001618862152099,0.1074950918555259,0,0,0
5779,218421.67924212271,2011-01-13 00:28:10,953.5931421785835,7,24,-1.099568486213684,3.6003520488739014,17.47141417740855,17.015576134398763,70.64654578530158,60.867136397772526,-0.0001942634553415,0.1074950918555259,0,0,0
5780,218451.69440214697,2011-01-13 00:28:40,983.6083021977852,7,24,-1.0997490882873535,3.593714714050293,17.47141417740855,17.024744048600787,70.64654578530158,60.90011392381941,-0.0001618862152099,0.1074950918555259,0,0,0
5781,218481.7094610241,2011-01-13 00:29:10,1013.6233610698972,7,24,-1.0993878841400146,3.587401390075684,17.47141417740855,17.033911946463657,70.64654578530158,60.93303141159412,-0.0001295089750783,0.1074950918555259,0,0,0
5782,218511.7245881463,2011-01-13 00:29:40,1043.6384881870972,7,24,-1.0997490882873535,3.580925941467285,17.47141417740855,17.043079869800465,70.64654578530158,60.96589038838894,-0.0001942634553415,0.1074950918555259,0,0,0
5783,218541.7397018601,2011-01-13 00:30:10,1073.653601900891,7,24,-1.0997490882873535,3.574774265289306,17.47141417740855,17.052247841827093,70.64654578530158,60.99869225609436,-0.0001618862152099,0.1074950918555259,0,0,0
5784,218571.75484834056,2011-01-13 00:30:40,1103.6687483863627,7,24,-1.0993878841400146,3.568784475326538,17.47141417740855,17.061415766711338,70.64654578530158,61.03143800696875,-0.0001618862152099,0.1074950918555259,0,0,0
5785,218601.7699521998,2011-01-13 00:31:10,1133.6838523358217,7,24,-1.099568486213684,3.563118457794189,17.47141417740855,17.07058364372857,70.64654578530158,61.06412912752671,-6.47544875391759e-05,0.1074950918555259,0,0,0
5786,218631.78507443485,2011-01-13 00:31:40,1163.698974475616,7,24,-1.099929690361023,3.557128667831421,17.47141417740855,17.079751576855006,70.64654578530158,61.09676754018359,-0.0001295089750783,0.1074950918555259,0,0,0
5787,218661.800247697,2011-01-13 00:32:10,1193.7141477678983,7,24,-1.0997490882873535,3.5516245365142822,17.47141417740855,17.088919548467967,70.64654578530158,61.1293547770101,-0.0001942634553415,0.1074950918555259,0,0,0
5788,218691.8154771292,2011-01-13 00:32:40,1223.7293771800487,7,24,-1.099568486213684,3.546606063842773,17.47141417740855,17.098087486790906,70.64654578530158,61.16189240255002,-9.713172767078504e-05,0.1074950918555259,0,0,0
5789,218721.8304669843,2011-01-13 00:33:10,1253.7443670301368,7,24,-1.099568486213684,3.5412638187408447,17.47141417740855,17.107255392540942,70.64654578530158,61.1943816254815,-0.0001295089750783,0.1074950918555259,0,0,0
5790,218751.845558994,2011-01-13 00:33:40,1283.759459034825,7,24,-1.0993878841400146,3.536245346069336,17.47141417740855,17.116423305815257,70.64654578530158,61.22682421714589,-0.0001295089750783,0.1074950918555259,0,0,0
5791,218781.86067509372,2011-01-13 00:34:10,1313.7745751445912,7,24,-1.0997490882873535,3.531226873397827,17.47141417740855,17.12559120630588,70.64654578530158,61.25922071864471,-9.713172767078504e-05,0.1074950918555259,0,0,0
5792,218811.8758085217,2011-01-13 00:34:40,1343.7897085675063,7,24,-1.0997490882873535,3.5263702869415283,17.47141417740855,17.134759099022464,70.64654578530158,61.29157261915566,-0.0001618862152099,0.1074950918555259,0,0,0
5793,218841.89095034555,2011-01-13 00:35:10,1373.8048503863477,7,24,-1.099568486213684,3.5218374729156494,17.47141417740855,17.14392705256628,70.64654578530158,61.32388126360322,-9.713172767078504e-05,0.1074950918555259,0,0,0
5794,218871.9060605506,2011-01-13 00:35:40,1403.819960621472,7,24,-1.0993878841400146,3.5169808864593506,17.47141417740855,17.15309493376507,70.64654578530158,61.35614661164424,-0.0001618862152099,0.1074950918555259,0,0,0
5795,218901.92129982737,2011-01-13 00:36:10,1433.8351998931955,7,24,-1.0993878841400146,3.5122861862182617,17.47141417740855,17.16226290563067,70.64654578530158,61.38836877048379,-9.713172767078504e-05,0.1074950918555259,0,0,0
5796,218931.93628626893,2011-01-13 00:36:40,1463.8501863097258,7,24,-1.0997490882873535,3.507591724395752,17.47141417740855,17.17143083844669,70.64654578530158,61.42054804527002,-0.0001618862152099,0.1074950918555259,0,0,0
5797,218961.9513925392,2011-01-13 00:37:10,1493.865292584981,7,24,-1.0997490882873535,3.503058910369873,17.47141417740855,17.180598830098546,70.64654578530158,61.45268571160484,-0.0001618862152099,0.1074950918555259,0,0,0
5798,218991.96651411257,2011-01-13 00:37:40,1523.8804141533517,7,24,-1.099568486213684,3.498526096343994,17.47141417740855,17.189766772926017,70.64654578530158,61.4847815398855,-0.0001618862152099,0.1074950918555259,0,0,0
5799,219021.98163370093,2011-01-13 00:38:10,1553.8955337467996,7,24,-1.099568486213684,3.4939932823181152,17.47141417740855,17.198934659762482,70.64654578530158,61.51683503353524,-0.0001295089750783,0.1074950918555259,0,0,0
5800,219051.9989759991,2011-01-13 00:38:40,1583.912876044912,7,24,-1.099568486213684,3.4892985820770264,17.47141417740855,17.208103269556762,70.64654578530158,61.54884784802979,-9.713172767078504e-05,0.1074950918555259,0,0,0
5801,219082.0119132585,2011-01-13 00:39:10,1613.9258133293747,7,24,-1.099568486213684,3.4842801094055176,17.47141417740855,17.2172705469002,70.64654578530158,61.5808122609355,-0.0001295089750783,0.1074950918555259,0,0,0
5802,219112.0269960953,2011-01-13 00:39:40,1643.9408961411518,7,24,-1.099568486213684,3.4795854091644287,17.47141417740855,17.226438458088808,70.64654578530158,61.61273472313768,-0.0001295089750783,0.1074950918555259,0,0,0
5803,219142.0421315533,2011-01-13 00:40:10,1673.956031604152,7,24,-1.099568486213684,3.47440505027771,17.47141417740855,17.235606380330985,70.64654578530158,61.64461225209942,-0.0001618862152099,0.1074950918555259,0,0,0
5804,219172.0574594108,2011-01-13 00:40:40,1703.9713594516334,7,24,-1.0997490882873535,3.469386577606201,17.47141417740855,17.244774336145,70.64654578530158,61.676443819094,-0.0001295089750783,0.1074950918555259,0,0,0
5805,219202.07248985712,2011-01-13 00:41:10,1733.9863899079244,7,24,-1.099568486213684,3.4640443325042725,17.47141417740855,17.253942171746502,70.64654578530158,61.70822723062287,-0.0001618862152099,0.1074950918555259,0,0,0
5806,219232.08747286515,2011-01-13 00:41:40,1764.0013729059349,7,24,-1.099568486213684,3.458540201187134,17.47141417740855,17.263110083974027,70.64654578530158,61.73996121211281,-0.0001295089750783,0.1074950918555259,0,0,0
5807,219262.1026056665,2011-01-13 00:42:10,1794.0165057123138,7,24,-1.099568486213684,3.452874183654785,17.47141417740855,17.272277982825383,70.64654578530158,61.77164333753077,-0.0001942634553415,0.1074950918555259,0,0,0
5808,219292.11774838256,2011-01-13 00:42:40,1824.0316484283908,7,24,-1.0997490882873535,3.446722507476806,17.47141417740855,17.281445914874624,70.64654578530158,61.80327152919437,-0.0001942634553415,0.1074950918555259,0,0,0
5809,219322.1329633788,2011-01-13 00:43:10,1854.046863434637,7,24,-1.0997490882873535,3.440408945083618,17.47141417740855,17.29061388040939,70.64654578530158,61.83484308568375,-0.0001942634553415,0.1074950918555259,0,0,0
5810,219352.14797009595,2011-01-13 00:43:40,1884.0618701367257,7,24,-1.0997490882873535,3.43328595161438,17.47141417740855,17.29978173602179,70.64654578530158,61.86635258734487,-0.0002590179501567,0.1074950918555259,0,0,0
5811,219382.1630986868,2011-01-13 00:44:10,1914.0769987326107,7,24,-1.099568486213684,3.425677537918091,17.47141417740855,17.308949666469935,70.64654578530158,61.89779404493719,-0.0001942634553415,0.1074950918555259,0,0,0
5812,219412.178359412,2011-01-13 00:44:40,1944.092259462815,7,24,-1.099568486213684,3.417097568511963,17.47141417740855,17.318117658131825,70.64654578530158,61.92916129158613,-0.0002266406954731,0.1074950918555259,0,0,0
5813,219442.1933278688,2011-01-13 00:45:10,1974.107227914572,7,24,-1.099568486213684,3.408031940460205,17.47141417740855,17.327285514172697,70.64654578530158,61.96044731029202,-0.0002266406954731,0.1074950918555259,0,0,0
5814,219472.2084512416,2011-01-13 00:45:40,2004.122351292452,7,24,-1.0997490882873535,3.397023677825928,17.47141417740855,17.33645349158786,70.64654578530158,61.99164219003344,-0.0003237724304199,0.1074950918555259,0,0,0
5815,219502.22360197263,2011-01-13 00:46:10,2034.1375020385424,7,24,-1.099568486213684,3.3847203254699707,17.47141417740855,17.34562138623556,70.64654578530158,62.02273086833882,-0.0003237724304199,0.1074950918555259,0,0,0
5816,219532.23896764943,2011-01-13 00:46:40,2064.152867705281,7,24,-1.0993878841400146,3.3698267936706543,17.47141417740855,17.354789388646477,70.64654578530158,62.05369491837905,-0.0004209041653666,0.1074950918555259,0,0,0
5817,219562.2538066987,2011-01-13 00:47:10,2094.1677067445016,7,24,-1.099568486213684,3.3513717651367188,17.47141417740855,17.36395722611483,70.64654578530158,62.08450683887712,-0.0005504131549969,0.1074950918555259,0,0,0
5818,219592.26892240244,2011-01-13 00:47:40,2124.1828224532683,7,24,-1.099568486213684,3.329193592071533,17.47141417740855,17.373125139782353,70.64654578530158,62.11513434060433,-0.0006799221155233,0.1074950918555259,0,0,0
5819,219622.2840366676,2011-01-13 00:48:10,2154.197936713424,7,24,-1.099568486213684,3.301025390625,17.47141417740855,17.38229299677096,70.64654578530158,62.1455318819221,-0.0008418083307333,0.1074950918555259,0,0,0
5820,219652.29930579875,2011-01-13 00:48:40,2184.2132058395537,7,24,-1.0993878841400146,3.265086889266968,17.47141417740855,17.391460922045088,70.64654578530158,62.175638184234096,-0.0011008263099938,0.1074950918555259,0,0,0
5821,219682.31430896203,2011-01-13 00:49:10,2214.228209007835,7,24,-1.099568486213684,3.218463659286499,17.47141417740855,17.40062875571866,70.64654578530158,62.205367570005535,-0.0013274669181555,0.1074950918555259,0,0,0
5822,219712.32943722207,2011-01-13 00:49:40,2244.2433372929454,7,24,-1.099568486213684,3.1556520462036133,17.47141417740855,17.409796714633885,70.64654578530158,62.23460018999968,-0.0019102573860436,0.1074950918555259,0,0,0
5823,219742.34452042985,2011-01-13 00:50:10,2274.258420485672,7,24,-1.0993878841400146,3.068233728408813,17.47141417740855,17.418964656331433,70.64654578530158,62.26315494620554,-0.0027196884620934,0.1074950918555259,0,0,0
5824,219772.35965727127,2011-01-13 00:50:40,2304.2735573170826,7,24,-1.0993878841400146,2.9396965503692627,17.47141417740855,17.42813256164978,70.64654578530158,62.29073572459102,-0.0040794848464429,0.1074950918555259,0,0,0
5825,219802.3747583085,2011-01-13 00:51:10,2334.288658364308,7,24,-1.099929690361023,2.752394676208496,17.47141417740855,17.437300521982298,70.64654578530158,62.31687296973307,-0.0056336401030421,0.1074950918555259,0,0,0
5826,219809.70277464492,2011-01-13 00:51:18,2341.616674700793,7,24,-1.099568486213684,2.699781894683838,17.47141417740855,17.43953881503919,70.64654578530158,62.32297527704662,-0.0058278562501072,0.1074950918555259,0,0,0
5827,219869.71065911505,2011-01-13 00:52:18,60.01454899711589,8,24,0.0,3.5663561820983887,17.47141417740855,17.43953881503919,70.64654578530158,62.32297527704662,0.0012950897216796,0.1074950918555259,0,0,0
5828,219869.89236993817,2011-01-13 00:52:18,0.18742910099016,9,24,-1.9243103452026844e-05,3.5666799545288086,17.47141417740855,17.439538816041054,70.64654578530158,62.32297528061996,0.0,0.102924108505249,0,0,0
5829,219874.72051356264,2011-01-13 00:52:23,5.015572735510041,9,24,0.0008838032954372,3.5742886066436768,17.471415087574574,17.439538816208866,70.64654903546182,62.32297528121848,0.0011008263099938,0.102924108505249,0,0,0
