Data_Point,Test_Time(s),Date_Time,Step_Time(s),Step_Index,Cycle_Index,Current(A),Voltage(V),Charge_Capacity(Ah),Discharge_Capacity(Ah),Charge_Energy(Wh),Discharge_Energy(Wh),dV/dt(V/s),Internal_Resistance(Ohm),Is_FC_Data,AC_Impedance(Ohm),ACI_Phase_Angle(Deg)
14995,523444.0974342644,2010-10-21 18:37:25,30.015040310851663,1,46,0.0,3.43037223815918,44.7217318624796,44.72415709175573,178.6549981877688,163.01365656895774,0.0008094310760498,0.0947341993451118,0,0,0
14996,523474.11256016354,2010-10-21 18:37:55,60.03016618495327,1,46,0.0,3.4544930458068848,44.7217318624796,44.72415709175573,178.6549981877688,163.01365656895774,0.0005504131549969,0.0947341993451118,0,0,0
14997,523504.1278368284,2010-10-21 18:38:25,90.04544285488448,1,46,0.0,3.4731099605560303,44.7217318624796,44.72415709175573,178.6549981877688,163.01365656895774,0.0004532813909463,0.0947341993451118,0,0,0
14998,523534.0959968241,2010-10-21 18:38:55,120.01360284054104,1,46,0.0,3.4876797199249268,44.7217318624796,44.72415709175573,178.6549981877688,163.01365656895774,0.0003237724304199,0.0947341993451118,0,0,0
14999,523564.10393205227,2010-10-21 18:39:26,30.01514104190444,2,46,0.5501165986061096,3.6403379440307617,44.72631831910252,44.72415709175573,178.6715462692168,163.01365656895774,0.0014245987404137,0.0947341993451118,0,0,0
15000,523594.1190699113,2010-10-21 18:39:56,60.03027890588852,2,46,0.550297200679779,3.682751893997192,44.730904705328015,44.72415709175573,178.68834615536923,163.01365656895774,0.0009713172912597,0.0947341993451118,0,0,0
15001,523624.1342185169,2010-10-21 18:40:26,90.0454275216694,2,46,0.5499359965324402,3.713024616241455,44.735490994118415,44.72415709175573,178.70530896345042,163.01365656895774,0.0007122993702068,0.0947341993451118,0,0,0
15002,523654.1493390177,2010-10-21 18:40:56,120.06054797225391,2,46,0.5499359965324402,3.7364981174468994,44.74007728341493,44.72415709175573,178.72239359419387,163.01365656895774,0.0005827903514727,0.0947341993451118,0,0,0
15003,523684.1644884705,2010-10-21 18:41:26,150.07569746020852,2,46,0.5501165986061096,3.755114793777466,44.74466361075443,44.72415709175573,178.73957466604674,163.01365656895774,0.000453233718872,0.0947341993451118,0,0,0
15004,523714.1798198469,2010-10-21 18:41:56,180.09102883147227,2,46,0.5501165986061096,3.769522666931152,44.74924994209831,44.72415709175573,178.75683196576534,163.01365656895774,0.0003237724304199,0.0947341993451118,0,0,0
15005,523744.1947693965,2010-10-21 18:42:26,210.10597839114408,2,46,0.5499359965324402,3.77858829498291,44.75383625988355,44.72415709175573,178.77414283950517,163.01365656895774,0.0001942634553415,0.0947341993451118,0,0,0
15006,523774.2099039272,2010-10-21 18:42:56,240.12111292683304,2,46,0.5501165986061096,3.784254312515259,44.75842261160643,44.72415709175573,178.7914869977561,163.01365656895774,0.0001295089750783,0.0947341993451118,0,0,0
15007,523804.22517610085,2010-10-21 18:43:26,270.13638507549587,2,46,0.550297200679779,3.7887871265411377,44.76300891746333,44.72415709175573,178.80885377984043,163.01365656895774,9.713172767078504e-05,0.0947341993451118,0,0,0
15008,523834.2402030685,2010-10-21 18:43:56,300.1514120280545,2,46,0.5499359965324402,3.7926723957061768,44.76759521831348,44.72415709175573,178.82623963169928,163.01365656895774,6.47544875391759e-05,0.0947341993451118,0,0,0
15009,523864.2553258048,2010-10-21 18:44:26,330.16653476934823,2,46,0.5499359965324402,3.796719551086426,44.77218152996539,44.72415709175573,178.8436437773393,163.01365656895774,9.713172767078504e-05,0.0947341993451118,0,0,0
15010,523894.2704588467,2010-10-21 18:44:56,360.18166780630185,2,46,0.550297200679779,3.800604820251465,44.77676791086899,44.72415709175573,178.8610660834002,163.01365656895774,6.47544875391759e-05,0.0947341993451118,0,0,0
15011,523924.2856187657,2010-10-21 18:45:26,390.1968277302661,2,46,0.5499359965324402,3.804166316986084,44.78135418416133,44.72415709175573,178.8785054891983,163.01365656895774,6.47544875391759e-05,0.0947341993451118,0,0,0
15012,523954.3008729045,2010-10-21 18:45:56,420.2120818690428,2,46,0.5501165986061096,3.808051586151123,44.78594058037896,44.72415709175573,178.89596252886847,163.01365656895774,6.47544875391759e-05,0.0947341993451118,0,0,0
15013,523984.3158498022,2010-10-21 18:46:26,450.2270587718622,2,46,0.5501165986061096,3.811613082885742,44.790526974071234,44.72415709175573,178.9134363786535,163.01365656895774,6.47544875391759e-05,0.0947341993451118,0,0,0
15014,524014.3309957114,2010-10-21 18:46:56,480.24220470094696,2,46,0.550297200679779,3.8153364658355713,44.79511326854077,44.72415709175573,178.93092641553005,163.01365656895774,6.47544875391759e-05,0.0947341993451118,0,0,0
15015,524044.3461576704,2010-10-21 18:47:26,510.2573666700084,2,46,0.5499359965324402,3.818736076354981,44.79969955796248,44.72415709175573,178.9484327163082,163.01365656895774,9.713172767078504e-05,0.0947341993451118,0,0,0
15016,524074.3612887024,2010-10-21 18:47:56,540.2724977170024,2,46,0.5501165986061096,3.8221356868743896,44.80428584042006,44.72415709175573,178.96595490014337,163.01365656895774,6.47544875391759e-05,0.0947341993451118,0,0,0
15017,524104.3764135188,2010-10-21 18:48:26,570.2876225084055,2,46,0.550297200679779,3.825697183609009,44.808872171728,44.72415709175573,178.98349289649354,163.01365656895774,0.0001295089750783,0.0947341993451118,0,0,0
15018,524134.391577533,2010-10-21 18:48:56,600.3027866127889,2,46,0.550297200679779,3.829096794128418,44.8134584853457,44.72415709175573,179.00104649107095,163.01365656895774,9.713172767078504e-05,0.0947341993451118,0,0,0
15019,524164.4067027304,2010-10-21 18:49:26,630.317911780129,2,46,0.550297200679779,3.832496404647827,44.81804481420504,44.72415709175573,179.0186155438745,163.01365656895774,9.713172767078504e-05,0.0947341993451118,0,0,0
15020,524194.421851672,2010-10-21 18:49:56,660.3330606314969,2,46,0.5501165986061096,3.8357338905334473,44.822631116182045,44.72415709175573,179.03619973057113,163.01365656895774,9.713172767078504e-05,0.0947341993451118,0,0,0
15021,524224.4369754007,2010-10-21 18:50:26,690.3481843652642,2,46,0.5499359965324402,3.839133501052856,44.82721742705879,44.72415709175573,179.05379945313726,163.01365656895774,9.713172767078504e-05,0.0947341993451118,0,0,0
15022,524254.452092137,2010-10-21 18:50:56,720.3633011066041,2,46,0.550297200679779,3.842694997787476,44.83180366191116,44.72415709175573,179.07141433851763,163.01365656895774,0.0001295089750783,0.0947341993451118,0,0,0
15023,524284.46723239694,2010-10-21 18:51:26,750.3784413665596,2,46,0.5501165986061096,3.845932722091675,44.83639002893059,44.72415709175573,179.08904528136333,163.01365656895774,9.713172767078504e-05,0.0947341993451118,0,0,0
15024,524314.4823977294,2010-10-21 18:51:56,780.3936067040162,2,46,0.5501165986061096,3.849494218826294,44.840976437540775,44.72415709175573,179.10669209275247,163.01365656895774,9.713172767078504e-05,0.0947341993451118,0,0,0
15025,524344.4977480579,2010-10-21 18:52:26,810.4089570325272,2,46,0.550297200679779,3.852731943130493,44.84556280830812,44.72415709175573,179.1243545428995,163.01365656895774,6.47544875391759e-05,0.0947341993451118,0,0,0
15026,524374.5127756521,2010-10-21 18:52:56,840.4239846517476,2,46,0.5501165986061096,3.8561315536499023,44.85014911013875,44.72415709175573,179.14203230046246,163.01365656895774,9.713172767078504e-05,0.0947341993451118,0,0,0
15027,524404.5278009456,2010-10-21 18:53:26,870.4390099100837,2,46,0.5501165986061096,3.859531164169312,44.854735338361714,44.72415709175573,179.15972536950247,163.01365656895774,6.47544875391759e-05,0.0947341993451118,0,0,0
15028,524434.545696297,2010-10-21 18:53:56,900.4569053868873,2,46,0.5501165986061096,3.862768888473511,44.85932212011874,44.72415709175573,179.17743589740246,163.01365656895774,9.713172767078504e-05,0.0947341993451118,0,0,0
15029,524464.5581203875,2010-10-21 18:54:26,930.4693293620254,2,46,0.5501165986061096,3.86600661277771,44.86390800643424,44.72415709175573,179.19515786498573,163.01365656895774,6.47544875391759e-05,0.0947341993451118,0,0,0
15030,524494.5732336551,2010-10-21 18:54:56,960.4844426297078,2,46,0.5499359965324402,3.869244337081909,44.86849435587302,44.72415709175573,179.2128963609831,163.01365656895774,6.47544875391759e-05,0.0947341993451118,0,0,0
15031,524524.588359028,2010-10-21 18:55:26,990.49956804266,2,46,0.5501165986061096,3.8723201751708975,44.87308069415985,44.72415709175573,179.23064928341017,163.01365656895774,6.47544875391759e-05,0.0947341993451118,0,0,0
15032,524554.6035236737,2010-10-21 18:55:56,1020.5147326733552,2,46,0.5501165986061096,3.875396013259888,44.8776670520557,44.72415709175573,179.24841624026263,163.01365656895774,9.713172767078504e-05,0.0947341993451118,0,0,0
15033,524584.6186378537,2010-10-21 18:56:26,1050.529846818224,2,46,0.5501165986061096,3.878309965133667,44.882253340584974,44.72415709175573,179.26619651998354,163.01365656895774,9.713172767078504e-05,0.0947341993451118,0,0,0
15034,524614.633994147,2010-10-21 18:56:56,1080.5452031416762,2,46,0.5501165986061096,3.881062030792236,44.886839733905816,44.72415709175573,179.28399034699876,163.01365656895774,6.47544875391759e-05,0.0947341993451118,0,0,0
15035,524644.6489205039,2010-10-21 18:57:26,1110.5601295987692,2,46,0.5501165986061096,3.8838140964508057,44.891426065287405,44.72415709175573,179.30179652328206,163.01365656895774,6.47544875391759e-05,0.0947341993451118,0,0,0
15036,524674.6644407158,2010-10-21 18:57:56,1140.5756497054194,2,46,0.550297200679779,3.886404275894165,44.896012458230686,44.72415709175573,179.31961490174393,163.01365656895774,9.713172767078504e-05,0.0947341993451118,0,0,0
15037,524704.6791971892,2010-10-21 18:58:26,1170.5904061588112,2,46,0.5501165986061096,3.8888325691223145,44.90059875659725,44.72415709175573,179.33744433633018,163.01365656895774,6.47544875391759e-05,0.0947341993451118,0,0,0
15038,524734.6943426271,2010-10-21 18:58:56,1200.6055516016845,2,46,0.5501165986061096,3.891098976135254,44.905185131936165,44.72415709175573,179.35528484987984,163.01365656895774,6.47544875391759e-05,0.0947341993451118,0,0,0
15039,524764.7096072169,2010-10-21 18:59:26,1230.6208161764705,2,46,0.5499359965324402,3.893203496932984,44.90977150865146,44.72415709175573,179.37313548656857,163.01365656895774,6.47544875391759e-05,0.0947341993451118,0,0,0
15040,524794.7247553064,2010-10-21 18:59:56,1260.6359643010271,2,46,0.5499359965324402,3.894984245300293,44.91435791389738,44.72415709175573,179.39099566554682,163.01365656895774,3.237724376958795e-05,0.0947341993451118,0,0,0
15041,524824.7397538932,2010-10-21 19:00:26,1290.650962862827,2,46,0.5501165986061096,3.896926879882813,44.91894428874412,44.72415709175573,179.40886423752352,163.01365656895774,6.47544875391759e-05,0.0947341993451118,0,0,0
15042,524854.7550161723,2010-10-21 19:00:56,1320.6662251469045,2,46,0.5501165986061096,3.898707628250122,44.92353058922769,44.72415709175573,179.42674084230353,163.01365656895774,6.47544875391759e-05,0.0947341993451118,0,0,0
15043,524884.7700500471,2010-10-21 19:01:26,1350.6812590167033,2,46,0.5501165986061096,3.900488376617432,44.92811693806824,44.72415709175573,179.4446254315094,163.01365656895774,6.47544875391759e-05,0.0947341993451118,0,0,0
15044,524914.7853453585,2010-10-21 19:01:56,1380.696554423332,2,46,0.5499359965324402,3.901945352554321,44.93270330092768,44.72415709175573,179.46251738401952,163.01365656895774,9.713172767078504e-05,0.0947341993451118,0,0,0
15045,524944.8003370531,2010-10-21 19:02:26,1410.71154602278,2,46,0.5499359965324402,3.903402328491211,44.93728957532952,44.72415709175573,179.48041589613695,163.01365656895774,3.237724376958795e-05,0.0947341993451118,0,0,0
15046,524974.8154507871,2010-10-21 19:02:56,1440.7266597616367,2,46,0.5501165986061096,3.90469741821289,44.94187588094606,44.72415709175573,179.49832106569042,163.01365656895774,3.237724376958795e-05,0.0947341993451118,0,0,0
15047,525004.8307204996,2010-10-21 19:03:26,1470.741929474228,2,46,0.5501165986061096,3.90615439414978,44.9464622033749,44.72415709175573,179.5162324883805,163.01365656895774,3.237724376958795e-05,0.0947341993451118,0,0,0
15048,525034.8457476777,2010-10-21 19:03:56,1500.7569566322989,2,46,0.5499359965324402,3.90728759765625,44.95104848270744,44.72415709175573,179.5341499099475,163.01365656895774,0.0,0.0947341993451118,0,0,0
15049,525064.8611169335,2010-10-21 19:04:26,1530.7723258929948,2,46,0.5501165986061096,3.90874457359314,44.955634849269686,44.72415709175573,179.5520736554165,163.01365656895774,3.237724376958795e-05,0.0947341993451118,0,0,0
15050,525094.8761604122,2010-10-21 19:04:56,1560.7873693867791,2,46,0.5499359965324402,3.90987777709961,44.96022112453666,44.72415709175573,179.57000297959596,163.01365656895774,0.0,0.0947341993451118,0,0,0
15051,525124.8911460368,2010-10-21 19:05:26,1590.802355031386,2,46,0.5501165986061096,3.911334753036499,44.96480745075585,44.72415709175573,179.58793834451163,163.01365656895774,6.47544875391759e-05,0.0947341993451118,0,0,0
15052,525154.9064269072,2010-10-21 19:05:56,1620.817635871711,2,46,0.5499359965324402,3.9124679565429688,44.96939379717986,44.72415709175573,179.6058796961444,163.01365656895774,0.0,0.0947341993451118,0,0,0
15053,525184.9214254038,2010-10-21 19:06:26,1650.8326343783738,2,46,0.5501165986061096,3.9139246940612793,44.97398011698456,44.72415709175573,179.62382681807122,163.01365656895774,3.237724376958795e-05,0.0947341993451118,0,0,0
15054,525214.936580616,2010-10-21 19:06:56,1680.8477895805702,2,46,0.5499359965324402,3.915057897567749,44.97856647207174,44.72415709175573,179.64178003992728,163.01365656895774,3.237724376958795e-05,0.0947341993451118,0,0,0
15055,525244.9518401733,2010-10-21 19:07:26,1710.8630491478762,2,46,0.5499359965324402,3.9163529872894287,44.98315283117877,44.72415709175573,179.65973903339858,163.01365656895774,3.237724376958795e-05,0.0947341993451118,0,0,0
15056,525274.9668542236,2010-10-21 19:07:56,1740.8780631832412,2,46,0.5501165986061096,3.917648077011109,44.98773902680054,44.72415709175573,179.67770344122914,163.01365656895774,6.47544875391759e-05,0.0947341993451118,0,0,0
15057,525304.9822465117,2010-10-21 19:08:26,1770.8934555966407,2,46,0.5501165986061096,3.918943166732788,44.99232536250554,44.72415709175573,179.69567438821278,163.01365656895774,3.237724376958795e-05,0.0947341993451118,0,0,0
15058,525334.9972461563,2010-10-21 19:08:56,1800.908455125852,2,46,0.5501165986061096,3.920238256454468,44.99691161067364,44.72415709175573,179.71365106371306,163.01365656895774,3.237724376958795e-05,0.0947341993451118,0,0,0
15059,525365.0122558959,2010-10-21 19:09:26,1830.9234648705235,2,46,0.5501165986061096,3.921695232391357,45.001497934127954,44.72415709175573,179.7316340964732,163.01365656895774,3.237724376958795e-05,0.0947341993451118,0,0,0
15060,525395.0274155292,2010-10-21 19:09:56,1860.9386244887253,2,46,0.5499359965324402,3.923152208328247,45.00608424605171,44.72415709175573,179.74962331610448,163.01365656895774,6.47544875391759e-05,0.0947341993451118,0,0,0
15061,525425.0425476639,2010-10-21 19:10:26,1890.9537566234303,2,46,0.550297200679779,3.924285411834717,45.01067058429578,44.72415709175573,179.76761880473234,163.01365656895774,0.0,0.0947341993451118,0,0,0
15062,525455.0576766056,2010-10-21 19:10:57,1920.9688855601653,2,46,0.550297200679779,3.925904273986816,45.0152569749532,44.72415709175573,179.78562079192818,163.01365656895774,3.237724376958795e-05,0.0947341993451118,0,0,0
15063,525485.0727254427,2010-10-21 19:11:27,1950.983934417317,2,46,0.5499359965324402,3.927037477493286,45.01984329439039,44.72415709175573,179.8036286564758,163.01365656895774,3.237724376958795e-05,0.0947341993451118,0,0,0
15064,525515.0879640528,2010-10-21 19:11:57,1980.9991731476912,2,46,0.5499359965324402,3.928494453430176,45.02442956612635,44.72415709175573,179.82164278721737,163.01365656895774,3.237724376958795e-05,0.0947341993451118,0,0,0
15065,525545.1029535069,2010-10-21 19:12:27,2011.0141624965297,2,46,0.5499359965324402,3.929789543151856,45.02901579831603,44.72415709175573,179.83966309026576,163.01365656895774,3.237724376958795e-05,0.0947341993451118,0,0,0
15066,525575.1182604172,2010-10-21 19:12:57,2041.029469371742,2,46,0.5501165986061096,3.931408405303955,45.03360214902303,44.72415709175573,179.85769028708498,163.01365656895774,6.47544875391759e-05,0.0947341993451118,0,0,0
15067,525605.1334027624,2010-10-21 19:13:27,2071.044611731932,2,46,0.5501165986061096,3.9327034950256343,45.038188516071735,44.72415709175573,179.8757240673259,163.01365656895774,3.237724376958795e-05,0.0947341993451118,0,0,0
15068,525635.1487274871,2010-10-21 19:13:57,2101.059936446605,2,46,0.5497553944587708,3.934160470962525,45.04277407439242,44.72415709175573,179.89376112723633,163.01365656895774,3.237724376958795e-05,0.0947341993451118,0,0,0
15069,525665.1636732824,2010-10-21 19:14:27,2131.074882246908,2,46,0.5499359965324402,3.935617446899414,45.04735934519017,44.72415709175573,179.91180362762788,163.01365656895774,6.47544875391759e-05,0.0947341993451118,0,0,0
15070,525695.1788096325,2010-10-21 19:14:57,2161.090018617169,2,46,0.5499359965324402,3.937074422836304,45.05194477853048,44.72415709175573,179.92985325202338,163.01365656895774,3.237724376958795e-05,0.0947341993451118,0,0,0
15071,525725.1939872857,2010-10-21 19:15:27,2191.105196285357,2,46,0.5497553944587708,3.938369512557984,45.056530003335865,44.72415709175573,179.94790882895305,163.01365656895774,3.237724376958795e-05,0.0947341993451118,0,0,0
15072,525755.2091118565,2010-10-21 19:15:57,2221.120320816111,2,46,0.5501165986061096,3.940150260925293,45.06111616312344,44.72415709175573,179.9659749035875,163.01365656895774,6.47544875391759e-05,0.0947341993451118,0,0,0
15073,525785.2242365577,2010-10-21 19:16:27,2251.135445577439,2,46,0.5501165986061096,3.9414453506469727,45.06570245473669,44.72415709175573,179.98404831189143,163.01365656895774,3.237724376958795e-05,0.0947341993451118,0,0,0
15074,525815.2393858703,2010-10-21 19:16:57,2281.150594829807,2,46,0.5501165986061096,3.943064212799072,45.07028876862956,44.72415709175573,180.0021285436659,163.01365656895774,6.47544875391759e-05,0.0947341993451118,0,0,0
15075,525845.2545101754,2010-10-21 19:17:27,2311.1657191400104,2,46,0.5499359965324402,3.944359302520752,45.07487511171864,44.72415709175573,180.02021577690456,163.01365656895774,3.237724376958795e-05,0.0947341993451118,0,0,0
15076,525875.269661513,2010-10-21 19:17:57,2341.18087046755,2,46,0.5501165986061096,3.9461400508880615,45.07946151398983,44.72415709175573,180.03831021538562,163.01365656895774,6.47544875391759e-05,0.0947341993451118,0,0,0
15077,525905.2848357927,2010-10-21 19:18:27,2371.196044787393,2,46,0.5501165986061096,3.947597026824951,45.08404780942839,44.72415709175573,180.05641111379416,163.01365656895774,3.237724376958795e-05,0.0947341993451118,0,0,0
15078,525935.2999814011,2010-10-21 19:18:57,2401.211190365604,2,46,0.5501165986061096,3.949054002761841,45.08863412498816,44.72415709175573,180.07451920097407,163.01365656895774,3.237724376958795e-05,0.0947341993451118,0,0,0
15079,525965.3150741877,2010-10-21 19:19:27,2431.2262831522407,2,46,0.5501165986061096,3.950672864913941,45.09322038608159,44.72415709175573,180.0926341680656,163.01365656895774,6.47544875391759e-05,0.0947341993451118,0,0,0
15080,525995.3302456103,2010-10-21 19:19:57,2461.2414545648385,2,46,0.5499359965324402,3.95212984085083,45.09780673551502,44.72415709175573,180.11075671564947,163.01365656895774,3.237724376958795e-05,0.0947341993451118,0,0,0
15081,526025.3453388631,2010-10-21 19:20:27,2491.256547852726,2,46,0.5501165986061096,3.95391058921814,45.10239304175387,44.72415709175573,180.12888636890855,163.01365656895774,9.713172767078504e-05,0.0947341993451118,0,0,0
15082,526055.3604904563,2010-10-21 19:20:57,2521.27169941084,2,46,0.5501165986061096,3.955367565155029,45.10697936346784,44.72415709175573,180.14702340404452,163.01365656895774,3.237724376958795e-05,0.0947341993451118,0,0,0
15083,526085.3756196236,2010-10-21 19:21:27,2551.2868285881736,2,46,0.5499359965324402,3.956986427307129,45.11156569194123,44.72415709175573,180.16516786634625,163.01365656895774,3.237724376958795e-05,0.0947341993451118,0,0,0
15084,526115.39076643,2010-10-21 19:21:57,2581.30197538442,2,46,0.5501165986061096,3.958605289459229,45.11615199258622,44.72415709175573,180.18331945781256,163.01365656895774,3.237724376958795e-05,0.0947341993451118,0,0,0
15085,526145.4059183138,2010-10-21 19:22:27,2611.3171272783707,2,46,0.5499359965324402,3.960386037826538,45.12073836791323,44.72415709175573,180.201478871407,163.01365656895774,6.47544875391759e-05,0.0947341993451118,0,0,0
15086,526175.4210349398,2010-10-21 19:22:57,2641.332243899411,2,46,0.550297200679779,3.961843013763428,45.125324707978045,44.72415709175573,180.2196456581581,163.01365656895774,3.237724376958795e-05,0.0947341993451118,0,0,0
15087,526205.4361891646,2010-10-21 19:23:27,2671.347398129183,2,46,0.5501165986061096,3.9634618759155273,45.129911008276,44.72415709175573,180.23781975376795,163.01365656895774,3.237724376958795e-05,0.0947341993451118,0,0,0
15088,526235.451324372,2010-10-21 19:23:57,2701.3625333265213,2,46,0.5501165986061096,3.965080738067627,45.13449748405173,44.72415709175573,180.2560021254715,163.01365656895774,0.0,0.0947341993451118,0,0,0
15089,526265.4666906002,2010-10-21 19:24:27,2731.3778995646844,2,46,0.5504778623580933,3.966861486434937,45.13908465870124,44.72415709175573,180.27419500694623,163.01365656895774,3.237724376958795e-05,0.0947341993451118,0,0,0
15090,526295.4816137389,2010-10-21 19:24:57,2761.392822698495,2,46,0.5497553944587708,3.968480348587036,45.14367154286221,44.72415709175573,180.29239428599905,163.01365656895774,3.237724376958795e-05,0.0947341993451118,0,0,0
15091,526325.4967603898,2010-10-21 19:25:27,2791.407969384466,2,46,0.5499359965324402,3.970099210739136,45.14825781076564,44.72415709175573,180.31059879564967,163.01365656895774,0.0,0.0947341993451118,0,0,0
15092,526355.5146049547,2010-10-21 19:25:57,2821.4258140546435,2,46,0.5501165986061096,3.971879959106445,45.15284456045718,44.72415709175573,180.32881302421168,163.01365656895774,0.0,0.0947341993451118,0,0,0
15093,526385.5270341178,2010-10-21 19:26:27,2851.4382430823744,2,46,0.5499359965324402,3.973660707473755,45.157430490799634,44.72415709175573,180.3470318888267,163.01365656895774,3.237724376958795e-05,0.0947341993451118,0,0,0
15094,526415.5421681472,2010-10-21 19:26:57,2881.453377136864,2,46,0.5501165986061096,3.975441455841065,45.16201680328642,44.72415709175573,180.36526022459185,163.01365656895774,6.47544875391759e-05,0.0947341993451118,0,0,0
15095,526445.5573140011,2010-10-21 19:27:27,2911.468522965699,2,46,0.5499359965324402,3.977060317993164,45.16660319202578,44.72415709175573,180.3834969251308,163.01365656895774,3.237724376958795e-05,0.0947341993451118,0,0,0
15096,526475.5724908623,2010-10-21 19:27:57,2941.483699861964,2,46,0.5499359965324402,3.9788410663604736,45.17118956385544,44.72415709175573,180.40174108277236,163.01365656895774,3.237724376958795e-05,0.0947341993451118,0,0,0
15097,526505.5875948318,2010-10-21 19:28:27,2971.498803836485,2,46,0.5501165986061096,3.980621814727783,45.17577576979079,44.72415709175573,180.41999320261323,163.01365656895774,6.47544875391759e-05,0.0947341993451118,0,0,0
15098,526535.6029729395,2010-10-21 19:28:57,3001.51418194423,2,46,0.5499359965324402,3.982240676879883,45.18036207230093,44.72415709175573,180.43825384348617,163.01365656895774,0.0,0.0947341993451118,0,0,0
15099,526565.6178974919,2010-10-21 19:29:27,3031.5291064614885,2,46,0.5501165986061096,3.984345197677612,45.18494822516144,44.72415709175573,180.45652203228948,163.01365656895774,0.0001295089750783,0.0947341993451118,0,0,0
15100,526595.6330514511,2010-10-21 19:29:57,3061.5442604055493,2,46,0.550297200679779,3.986287832260132,45.18953444296193,44.72415709175573,180.4747988074953,163.01365656895774,9.713172767078504e-05,0.0947341993451118,0,0,0
15101,526625.6481477965,2010-10-21 19:30:27,3091.559356786144,2,46,0.5501165986061096,3.987906694412232,45.194120711123176,44.72415709175573,180.49308418650563,163.01365656895774,3.237724376958795e-05,0.0947341993451118,0,0,0
15102,526655.6631949344,2010-10-21 19:30:57,3121.5744039189985,2,46,0.5501165986061096,3.989687442779541,45.19870690252765,44.72415709175573,180.51137753643772,163.01365656895774,6.47544875391759e-05,0.0947341993451118,0,0,0
15103,526685.6784245621,2010-10-21 19:31:27,3151.5896335516986,2,46,0.550297200679779,3.991630077362061,45.2032930466122,44.72415709175573,180.52967925592472,163.01365656895774,9.713172767078504e-05,0.0947341993451118,0,0,0
15104,526715.6935694485,2010-10-21 19:31:57,3181.604778413122,2,46,0.5501165986061096,3.99341082572937,45.20787923784295,44.72415709175573,180.54798974942537,163.01365656895774,3.237724376958795e-05,0.0947341993451118,0,0,0
15105,526745.7088279984,2010-10-21 19:32:27,3211.620036967905,2,46,0.550297200679779,3.995353221893311,45.2124654517608,44.72415709175573,180.5663089196952,163.01365656895774,6.47544875391759e-05,0.0947341993451118,0,0,0
15106,526775.7239015019,2010-10-21 19:32:57,3241.6351104664705,2,46,0.5499359965324402,3.99713397026062,45.2170516054981,44.72415709175573,180.58463659636195,163.01365656895774,3.237724376958795e-05,0.0947341993451118,0,0,0
15107,526805.7389673314,2010-10-21 19:33:27,3271.650176386147,2,46,0.5501165986061096,3.99907660484314,45.221637844718735,44.72415709175573,180.60297342754788,163.01365656895774,3.237724376958795e-05,0.0947341993451118,0,0,0
15108,526835.7542614248,2010-10-21 19:33:57,3301.665470424365,2,46,0.5501165986061096,4.001019477844238,45.22622402256977,44.72415709175573,180.62131894980692,163.01365656895774,3.24249267578125e-05,0.0947341993451118,0,0,0
15109,526865.7692447987,2010-10-21 19:34:27,3331.680453763225,2,46,0.5499359965324402,4.003123760223389,45.23081017514544,44.72415709175573,180.6396734435508,163.01365656895774,6.47544875391759e-05,0.0947341993451118,0,0,0
15110,526895.7844021061,2010-10-21 19:34:57,3361.695611090718,2,46,0.5499359965324402,4.004904747009277,45.235396358418846,44.72415709175573,180.65803719558787,163.01365656895774,0.0,0.0947341993451118,0,0,0
15111,526925.7995643909,2010-10-21 19:35:27,3391.7107734708043,2,46,0.5501165986061096,4.007171154022217,45.23998250570988,44.72415709175573,180.67641014631417,163.01365656895774,6.47544875391759e-05,0.0947341993451118,0,0,0
15112,526955.8146728567,2010-10-21 19:35:57,3421.725881816219,2,46,0.5499359965324402,4.009113788604736,45.24456876636455,44.72415709175573,180.69479300714636,163.01365656895774,3.24249267578125e-05,0.0947341993451118,0,0,0
15113,526985.829940454,2010-10-21 19:36:27,3451.7411494185512,2,46,0.5499359965324402,4.011380195617676,45.24915496601221,44.72415709175573,180.7131851847864,163.01365656895774,6.47544875391759e-05,0.0947341993451118,0,0,0
15114,527015.844939121,2010-10-21 19:36:57,3481.756148105663,2,46,0.5501165986061096,4.013646602630615,45.253741230619056,44.72415709175573,180.7315872922192,163.01365656895774,6.47544875391759e-05,0.0947341993451118,0,0,0
15115,527045.8600798873,2010-10-21 19:37:27,3511.771288851831,2,46,0.5501165986061096,4.015589237213135,45.25832745287816,44.72415709175573,180.74999892528595,163.01365656895774,3.24249267578125e-05,0.0947341993451118,0,0,0
15116,527075.8752299867,2010-10-21 19:37:57,3541.7864389863967,2,46,0.5501165986061096,4.017855644226074,45.26291365723505,44.72415709175573,180.7684203692208,163.01365656895774,3.24249267578125e-05,0.0947341993451118,0,0,0
15117,527105.8903569886,2010-10-21 19:38:27,3571.8015659782845,2,46,0.550297200679779,4.019959926605225,45.26749993009324,44.72415709175573,180.78685198652923,163.01365656895774,6.47544875391759e-05,0.0947341993451118,0,0,0
15118,527135.9055152284,2010-10-21 19:38:57,3601.816724228076,2,46,0.5501165986061096,4.022064685821533,45.27208607467685,44.72415709175573,180.80529322252244,163.01365656895774,6.47544875391759e-05,0.0947341993451118,0,0,0
15119,527165.9206345612,2010-10-21 19:39:27,3631.8318435608753,2,46,0.550297200679779,4.024331092834473,45.276672299773416,44.72415709175573,180.8237450755127,163.01365656895774,6.47544875391759e-05,0.0947341993451118,0,0,0
15120,527195.9357980941,2010-10-21 19:39:57,3661.847007063759,2,46,0.550297200679779,4.026759147644043,45.28125845140131,44.72415709175573,180.84220683469377,163.01365656895774,9.70840483205393e-05,0.0947341993451118,0,0,0
15121,527225.9514249269,2010-10-21 19:40:27,3691.862633941516,2,46,0.5501165986061096,4.029025554656982,45.28584477843828,44.72415709175573,180.86067972359032,163.01365656895774,6.47544875391759e-05,0.0947341993451118,0,0,0
15122,527255.9661834955,2010-10-21 19:40:57,3721.8773924650673,2,46,0.5499359965324402,4.031130313873291,45.29043089927246,44.72415709175573,180.87916212791075,163.01365656895774,3.24249267578125e-05,0.0947341993451118,0,0,0
15123,527285.981189942,2010-10-21 19:41:27,3751.8923989065056,2,46,0.5499359965324402,4.033558368682861,45.29501707355607,44.72415709175573,180.8976553412157,163.01365656895774,9.70840483205393e-05,0.0947341993451118,0,0,0
15124,527315.9963935899,2010-10-21 19:41:57,3781.9076025945433,2,46,0.5497553944587708,4.035824775695801,45.29960330186941,44.72415709175573,180.9161593692545,163.01365656895774,3.24249267578125e-05,0.0947341993451118,0,0,0
15125,527346.0114642263,2010-10-21 19:42:27,3811.922673215938,2,46,0.5501165986061096,4.038252830505371,45.304189577798525,44.72415709175573,180.93467434254003,163.01365656895774,9.70840483205393e-05,0.0947341993451118,0,0,0
15126,527376.0266011931,2010-10-21 19:42:58,3841.937810182686,2,46,0.5501165986061096,4.040519237518311,45.30877581512653,44.72415709175573,180.95319990586307,163.01365656895774,6.47544875391759e-05,0.0947341993451118,0,0,0
15127,527406.0417659992,2010-10-21 19:43:28,3871.952974968768,2,46,0.5501165986061096,4.042947769165039,45.31336198068155,44.72415709175573,180.97173609886465,163.01365656895774,6.47544875391759e-05,0.0947341993451118,0,0,0
15128,527436.0569133969,2010-10-21 19:43:58,3901.9681225770382,2,46,0.5499359965324402,4.0452141761779785,45.31794820861081,44.72415709175573,180.9902836378588,163.01365656895774,3.24249267578125e-05,0.0947341993451118,0,0,0
15129,527466.0720266846,2010-10-21 19:44:28,3931.9832356492334,2,46,0.5499359965324402,4.047804355621338,45.32253446049093,44.72415709175573,181.008842383266,163.01365656895774,6.47544875391759e-05,0.0947341993451118,0,0,0
15130,527496.0871641176,2010-10-21 19:44:58,3961.9983731122175,2,46,0.550297200679779,4.050232410430908,45.32712073786082,44.72415709175573,181.02741243354112,163.01365656895774,6.47544875391759e-05,0.0947341993451118,0,0,0
15131,527526.102318613,2010-10-21 19:45:28,3992.01352760264,2,46,0.5499359965324402,4.052660942077637,45.33170699501764,44.72415709175573,181.04599355787144,163.01365656895774,3.24249267578125e-05,0.0947341993451118,0,0,0
15132,527556.1177657077,2010-10-21 19:45:58,4022.0289747624847,2,46,0.5499359965324402,4.055088996887207,45.33629335001338,44.72415709175573,181.064586470218,163.01365656895774,6.47544875391759e-05,0.0947341993451118,0,0,0
15133,527586.1325753938,2010-10-21 19:46:28,4052.0437843833865,2,46,0.550297200679779,4.058002948760986,45.34087961899751,44.72415709175573,181.0831905374372,163.01365656895774,0.0001295089750783,0.0947341993451118,0,0,0
15134,527616.1477297539,2010-10-21 19:46:58,4082.058938718422,2,46,0.5501165986061096,4.060269355773926,45.34546598545013,44.72415709175573,181.10180663002177,163.01365656895774,3.23295607813634e-05,0.0947341993451118,0,0,0
15135,527646.1629960579,2010-10-21 19:47:28,4112.074205032543,2,46,0.5501165986061096,4.062697887420654,45.35005228279964,44.72415709175573,181.12043372300187,163.01365656895774,6.47544875391759e-05,0.0947341993451118,0,0,0
15136,527676.178126704,2010-10-21 19:47:58,4142.0893356635,2,46,0.5499359965324402,4.065288066864014,45.354638540310425,44.72415709175573,181.139072614689,163.01365656895774,9.71794142969884e-05,0.0947341993451118,0,0,0
15137,527706.1931529498,2010-10-21 19:48:28,4172.104361914309,2,46,0.5501165986061096,4.068039894104004,45.35922472204117,44.72415709175573,181.15772309777944,163.01365656895774,6.47544875391759e-05,0.0947341993451118,0,0,0
15138,527736.2082738564,2010-10-21 19:48:58,4202.119482856118,2,46,0.550297200679779,4.070792198181152,45.363811002861766,44.72415709175573,181.1763861318977,163.01365656895774,0.0001295089750783,0.0947341993451118,0,0,0
15139,527766.2234048634,2010-10-21 19:49:28,4232.134613852987,2,46,0.5499359965324402,4.073220252990723,45.368397229213976,44.72415709175573,181.19506104677484,163.01365656895774,3.23295607813634e-05,0.0947341993451118,0,0,0
15140,527796.238559058,2010-10-21 19:49:58,4262.149768047672,2,46,0.5501165986061096,4.076134204864502,45.372983495809,44.72415709175573,181.21374849796865,163.01365656895774,0.0001295089750783,0.0947341993451118,0,0,0
15141,527826.2536950824,2010-10-21 19:50:28,4292.164904047009,2,46,0.5501165986061096,4.07888650894165,45.377569771870206,44.72415709175573,181.2324484049936,163.01365656895774,0.0001295089750783,0.0947341993451118,0,0,0
15142,527856.2688190518,2010-10-21 19:50:58,4322.180028046439,2,46,0.5501165986061096,4.081314563751221,45.38215604758931,44.72415709175573,181.2511608712279,163.01365656895774,6.47544875391759e-05,0.0947341993451118,0,0,0
15143,527886.2839675624,2010-10-21 19:51:28,4352.19517658202,2,46,0.5497553944587708,4.084228515625,45.38674231565865,44.72415709175573,181.26988587882988,163.01365656895774,6.47544875391759e-05,0.0947341993451118,0,0,0
15144,527916.2991352256,2010-10-21 19:51:58,4382.210344220211,2,46,0.5501165986061096,4.086980819702148,45.39132848917983,44.72415709175573,181.28862332001032,163.01365656895774,9.71794142969884e-05,0.0947341993451118,0,0,0
15145,527946.314235175,2010-10-21 19:52:28,4412.225444179725,2,46,0.5499359965324402,4.089894771575928,45.395914696617965,44.72415709175573,181.30737379022463,163.01365656895774,6.47544875391759e-05,0.0947341993451118,0,0,0
15146,527976.329379014,2010-10-21 19:52:58,4442.240587968475,2,46,0.5501165986061096,4.092646598815918,45.40050093229628,44.72415709175573,181.3261373543795,163.01365656895774,9.70840483205393e-05,0.0947341993451118,0,0,0
15147,528006.3446361251,2010-10-21 19:53:28,4472.255845094697,2,46,0.5499359965324402,4.095722675323486,45.40508714468216,44.72415709175573,181.3449139205113,163.01365656895774,9.71794142969884e-05,0.0947341993451118,0,0,0
15148,528036.3596917642,2010-10-21 19:53:58,4502.270900718714,2,46,0.550297200679779,4.098474502563477,45.40967335316654,44.72415709175573,181.3637037103481,163.01365656895774,6.47544875391759e-05,0.0947341993451118,0,0,0
15149,528066.3747938991,2010-10-21 19:54:28,4532.28600289375,2,46,0.5501165986061096,4.101388454437256,45.414259606733815,44.72415709175573,181.38250708493672,163.01365656895774,6.47544875391759e-05,0.0947341993451118,0,0,0
15150,528096.3899255927,2010-10-21 19:54:58,4562.301134567307,2,46,0.5501165986061096,4.104464530944824,45.41884580112885,44.72415709175573,181.40132363627887,163.01365656895774,6.47544875391759e-05,0.0947341993451118,0,0,0
15151,528126.4050991356,2010-10-21 19:55:28,4592.3163081252505,2,46,0.5501165986061096,4.107540130615234,45.423432081427066,44.72415709175573,181.4201542471848,163.01365656895774,6.47544875391759e-05,0.0947341993451118,0,0,0
15152,528156.4202176164,2010-10-21 19:55:58,4622.331426580863,2,46,0.5499359965324402,4.110292434692383,45.42801829911343,44.72415709175573,181.43899832851253,163.01365656895774,6.47544875391759e-05,0.0947341993451118,0,0,0
15153,528186.4354694994,2010-10-21 19:56:28,4652.346678484068,2,46,0.5499359965324402,4.113368034362793,45.43260457668631,44.72415709175573,181.45785654232023,163.01365656895774,6.47544875391759e-05,0.0947341993451118,0,0,0
15154,528216.4504830736,2010-10-21 19:56:58,4682.361692058284,2,46,0.5499359965324402,4.116443634033203,45.437190786587536,44.72415709175573,181.47672841385932,163.01365656895774,9.70840483205393e-05,0.0947341993451118,0,0,0
15155,528246.465641945,2010-10-21 19:57:28,4712.3768509196,2,46,0.5501165986061096,4.119519710540772,45.4417770164355,44.72415709175573,181.49561454075192,163.01365656895774,6.47544875391759e-05,0.0947341993451118,0,0,0
15156,528276.4836306942,2010-10-21 19:57:58,4742.39483979418,2,46,0.5501165986061096,4.122595310211182,45.44636371784178,44.72415709175573,181.51451690287684,163.01365656895774,6.47544875391759e-05,0.0947341993451118,0,0,0
15157,528306.4959079487,2010-10-21 19:58:28,4772.407116913308,2,46,0.5499359965324402,4.12567138671875,45.45094957111086,44.72415709175573,181.5334300434073,163.01365656895774,6.47544875391759e-05,0.0947341993451118,0,0,0
15158,528336.5111657466,2010-10-21 19:58:58,4802.422374716216,2,46,0.5501165986061096,4.12907075881958,45.45553588669772,44.72415709175573,181.5523595496828,163.01365656895774,6.47544875391759e-05,0.0947341993451118,0,0,0
15159,528366.5261778322,2010-10-21 19:59:28,4832.437386796709,2,46,0.5499359965324402,4.132146835327148,45.46012129608301,44.72415709175573,181.57129983071468,163.01365656895774,9.71794142969884e-05,0.0947341993451118,0,0,0
15160,528396.5414555046,2010-10-21 19:59:58,4862.452664474151,2,46,0.5499359965324402,4.135222434997559,45.46470668578162,44.72415709175573,181.59025465913703,163.01365656895774,6.47544875391759e-05,0.0947341993451118,0,0,0
15161,528426.556496888,2010-10-21 20:00:28,4892.467705852663,2,46,0.5501165986061096,4.138783931732178,45.469292719073,44.72415709175573,181.60922704438428,163.01365656895774,0.0001295089750783,0.0947341993451118,0,0,0
15162,528456.5720602977,2010-10-21 20:00:58,4922.483269297326,2,46,0.550297200679779,4.142183780670166,45.473879089027015,44.72415709175573,181.62821586437565,163.01365656895774,0.0001295089750783,0.0947341993451118,0,0,0
15163,528486.5867674582,2010-10-21 20:01:28,4952.497976432802,2,46,0.5501165986061096,4.145259380340576,45.47846528774434,44.72415709175573,181.64721910453068,163.01365656895774,6.47544875391759e-05,0.0947341993451118,0,0,0
15164,528516.6021499168,2010-10-21 20:01:58,4982.513358901416,2,46,0.5501165986061096,4.1486592292785645,45.48305152792455,44.72415709175573,181.66623787193484,163.01365656895774,0.0001295089750783,0.0947341993451118,0,0,0
15165,528546.6170393015,2010-10-21 20:02:28,5012.528248271076,2,46,0.5501165986061096,4.151896953582764,45.4876377328142,44.72415709175573,181.6852715041132,163.01365656895774,0.0001295089750783,0.0947341993451118,0,0,0
15166,528576.6323079565,2010-10-21 20:02:58,5042.543517021269,2,46,0.5501165986061096,4.155134677886963,45.49222401710664,44.72415709175573,181.70432052472097,163.01365656895774,9.71794142969884e-05,0.0947341993451118,0,0,0
15167,528606.6473211197,2010-10-21 20:03:28,5072.558530114285,2,46,0.5499359965324402,4.158372402191162,45.4968102606379,44.72415709175573,181.72338451038988,163.01365656895774,6.47544875391759e-05,0.0947341993451118,0,0,0
15168,528636.6624685675,2010-10-21 20:03:58,5102.573677557142,2,46,0.5499359965324402,4.161610126495361,45.501396521648246,44.72415709175573,181.74246383338044,163.01365656895774,6.47544875391759e-05,0.0947341993451118,0,0,0
15169,528666.677666411,2010-10-21 20:04:28,5132.588875385576,2,46,0.550297200679779,4.1651716232299805,45.5059827975511,44.72415709175573,181.76155847885252,163.01365656895774,0.0001295089750783,0.0947341993451118,0,0,0
15170,528696.6927199498,2010-10-21 20:04:58,5162.603928934422,2,46,0.5501165986061096,4.1685709953308105,45.51056897722782,44.72415709175573,181.7806681246326,163.01365656895774,9.70840483205393e-05,0.0947341993451118,0,0,0
15171,528726.7079921436,2010-10-21 20:05:28,5192.619201143234,2,46,0.5501165986061096,4.171970844268799,45.51515525766115,44.72415709175573,181.79979368764904,163.01365656895774,0.0001295089750783,0.0947341993451118,0,0,0
15172,528756.7230100987,2010-10-21 20:05:58,5222.634219073306,2,46,0.5501165986061096,4.175208568572998,45.51974148393408,44.72415709175573,181.8189345414137,163.01365656895774,9.71794142969884e-05,0.0947341993451118,0,0,0
15173,528786.7380919331,2010-10-21 20:06:28,5252.6493009026335,2,46,0.5501165986061096,4.178770065307617,45.52432770656039,44.72415709175573,181.8380910330537,163.01365656895774,0.0001295089750783,0.0947341993451118,0,0,0
15174,528816.7533049494,2010-10-21 20:06:58,5282.664513933959,2,46,0.5501165986061096,4.182169437408447,45.5289140499311,44.72415709175573,181.85726382424747,163.01365656895774,9.70840483205393e-05,0.0947341993451118,0,0,0
15175,528846.768437851,2010-10-21 20:07:28,5312.679646815524,2,46,0.5501165986061096,4.185730934143066,45.53350033402212,44.72415709175573,181.8764522748432,163.01365656895774,0.0001295089750783,0.0947341993451118,0,0,0
15176,528876.7836125467,2010-10-21 20:07:58,5342.694821616567,2,46,0.5499359965324402,4.189130783081055,45.538086646702446,44.72415709175573,181.89565693687504,163.01365656895774,6.47544875391759e-05,0.0947341993451118,0,0,0
15177,528906.7988683747,2010-10-21 20:08:28,5372.710077384404,2,46,0.5501165986061096,4.192853927612305,45.54267300882736,44.72415709175573,181.9148779583488,163.01365656895774,9.70840483205393e-05,0.0947341993451118,0,0,0
15178,528936.8138580744,2010-10-21 20:08:58,5402.72506706908,2,46,0.5499359965324402,4.196253299713135,45.54725934095383,44.72415709175573,181.9341150538469,163.01365656895774,9.70840483205393e-05,0.0947341993451118,0,0,0
15179,528966.8290068004,2010-10-21 20:09:28,5432.740215800149,2,46,0.5501165986061096,4.199814796447754,45.55184562458741,44.72415709175573,181.953368222684,163.01365656895774,9.70840483205393e-05,0.0947341993451118,0,0,0
15180,528967.6102490214,2010-10-21 20:09:29,5433.521458006107,2,46,0.550297200679779,4.200138568878174,45.55196500592158,44.72415709175573,181.95386961031045,163.01365656895774,0.0001618385285837,0.0947341993451118,0,0,0
15181,528997.6279808761,2010-10-21 20:09:59,30.015126400413337,3,46,0.0,4.110130310058594,45.55196500592158,44.72415709175573,181.95386961031045,163.01365656895774,-0.0004209518374409,0.0947341993451118,0,0,0
15182,529027.6431488201,2010-10-21 20:10:29,60.03029436441593,3,46,0.0,4.0989603996276855,45.55196500592158,44.72415709175573,181.95386961031045,163.01365656895774,-0.0001942634553415,0.0947341993451118,0,0,0
15183,529057.6583243129,2010-10-21 20:10:59,90.04546984715752,3,46,0.0,4.091837406158447,45.55196500592158,44.72415709175573,181.95386961031045,163.01365656895774,-0.0001295089750783,0.0947341993451118,0,0,0
15184,529087.6265447943,2010-10-21 20:11:29,120.01369032357567,3,46,0.0,4.087304592132568,45.55196500592158,44.72415709175573,181.95386961031045,163.01365656895774,-0.0001295089750783,0.0947341993451118,0,0,0
15185,529087.6310830374,2010-10-21 20:11:29,2.81200839e-06,4,46,1.0027234554290771,4.199814796447754,45.55196500670482,44.72415709175573,181.95386961359992,163.01365656895774,0.0,0.0947341993451118,0,0,0
15186,529088.49044234,2010-10-21 20:11:30,0.859362094759246,4,46,0.9521528482437134,4.199653148651123,45.55219676698577,44.72415709175573,181.9548429437429,163.01365656895774,-3.23295607813634e-05,0.0947341993451118,0,0,0
15187,529090.6466342488,2010-10-21 20:11:32,3.015554028501805,4,46,0.9017629027366638,4.199653148651123,45.55275083426801,44.72415709175573,181.95716987483195,163.01365656895774,-3.23295607813634e-05,0.0947341993451118,0,0,0
15188,529093.8653234026,2010-10-21 20:11:36,6.234243142138869,4,46,0.8513728976249695,4.199653148651123,45.55353346721533,44.72415709175573,181.960456713306,163.01365656895774,0.0,0.0947341993451118,0,0,0
15189,529098.2871472882,2010-10-21 20:11:40,10.656067057898149,4,46,0.801344096660614,4.199814796447754,45.554547294011016,44.72415709175573,181.9647145040184,163.01365656895774,0.0,0.0947341993451118,0,0,0
15190,529104.0214524912,2010-10-21 20:11:46,16.390372230790586,4,46,0.7513153553009033,4.199653148651123,45.555782540016295,44.72415709175573,181.96990220893892,163.01365656895774,0.0,0.0947341993451118,0,0,0
15191,529111.5056813223,2010-10-21 20:11:53,23.874601192202103,4,46,0.7012865543365479,4.199491024017334,45.55729098786558,44.72415709175573,181.97623731414063,163.01365656895774,-3.24249267578125e-05,0.0947341993451118,0,0,0
15192,529121.5211561472,2010-10-21 20:12:03,33.89007589183812,4,46,0.6512578129768372,4.199814796447754,45.55916932976774,44.72415709175573,181.984125867925,163.01365656895774,3.23295607813634e-05,0.0947341993451118,0,0,0
15193,529135.3179327948,2010-10-21 20:12:17,47.6868525444184,4,46,0.6012290120124817,4.199814796447754,45.561564163442505,44.72415709175573,181.99418357069533,163.01365656895774,3.23295607813634e-05,0.0947341993451118,0,0,0
15194,529156.3643308897,2010-10-21 20:12:38,68.73325065432309,4,46,0.551200270652771,4.199653148651123,45.564923008621605,44.72415709175573,182.0082898852879,163.01365656895774,0.0,0.0947341993451118,0,0,0
15195,529192.5982615337,2010-10-21 20:13:14,104.96718127833988,4,46,0.5011715292930603,4.199491024017334,45.57019726941781,44.72415709175573,182.03044048580017,163.01365656895774,-6.47544875391759e-05,0.0947341993451118,0,0,0
15196,529261.3627708743,2010-10-21 20:14:23,173.73169061391468,4,46,0.4507815241813659,4.199653148651123,45.57925058912421,44.72415709175573,182.06846222512024,163.01365656895774,-3.23295607813634e-05,0.0947341993451118,0,0,0
15197,529368.8453113167,2010-10-21 20:16:11,281.21423108632285,4,46,0.4007527530193329,4.199653148651123,45.59193445815461,44.72415709175573,182.12173140528017,163.01365656895774,-3.23295607813634e-05,0.0947341993451118,0,0,0
15198,529501.2967592442,2010-10-21 20:18:23,413.66567903389983,4,46,0.3507239818572998,4.199653148651123,45.60574362080725,44.72415709175573,182.17972655287903,163.01365656895774,-3.23295607813634e-05,0.0947341993451118,0,0,0
15199,529660.4970904542,2010-10-21 20:21:02,572.8660103041426,4,46,0.3003339767456054,4.199653148651123,45.62013353471493,44.72415709175573,182.2401607389056,163.01365656895774,-3.23295607813634e-05,0.0947341993451118,0,0,0
15200,529852.3690579999,2010-10-21 20:24:14,764.737977729495,4,46,0.2499440014362335,4.199653148651123,45.63478337693156,44.72415709175573,182.30168655161808,163.01365656895774,-3.23295607813634e-05,0.0947341993451118,0,0,0
15201,530087.8495629688,2010-10-21 20:28:10,1000.21848278363,4,46,0.1999152302742004,4.199653148651123,45.64945679369648,44.72415709175573,182.36331124046956,163.01365656895774,0.0,0.0947341993451118,0,0,0
15202,530391.9541782307,2010-10-21 20:33:14,1304.3230980004007,4,46,0.1498864591121673,4.199653148651123,45.66415102988261,44.72415709175573,182.42502332749623,163.01365656895774,-3.23295607813634e-05,0.0947341993451118,0,0,0
15203,530832.9785341003,2010-10-21 20:40:35,1745.3474538600049,4,46,0.0998576879501342,4.199491024017334,45.67925933517496,44.72415709175573,182.48847432760675,163.01365656895774,-6.47544875391759e-05,0.0947341993451118,0,0,0
15204,531657.5127437486,2010-10-21 20:54:19,2569.881663528332,4,46,0.0498289167881011,4.199814796447754,45.69570576746039,44.72415709175573,182.5575451052867,163.01365656895774,3.23295607813634e-05,0.0947341993451118,0,0,0
15205,531687.5570158899,2010-10-21 20:54:49,30.0151790416114,5,46,0.0,4.191558837890625,45.69570576746039,44.72415709175573,182.5575451052867,163.01365656895774,-3.24249267578125e-05,0.0947341993451118,0,0,0
15206,531717.5563924168,2010-10-21 20:55:19,60.01455555345631,5,46,0.0,4.190263748168945,45.69570576746039,44.72415709175573,182.5575451052867,163.01365656895774,0.0,0.0947341993451118,0,0,0
15207,531717.7738048213,2010-10-21 20:55:20,0.187219844458497,6,46,-1.9243103452026844e-05,4.190263748168945,45.69570576746039,44.72415709275648,182.5575451052867,163.01365657315114,0.0,0.0956302732229232,0,0,0
15208,531722.6019134887,2010-10-21 20:55:25,5.015328541904439,6,46,0.0008838032954372,4.190263748168945,45.695706665319214,44.72415709292348,182.55754886764595,163.0136565738509,-3.24249267578125e-05,0.0956302732229232,0,0,0
15209,531752.600516894,2010-10-21 20:55:55,30.01528841420155,7,46,-1.099568486213684,4.007332801818848,45.695706665319214,44.73332499190354,182.55754886764595,163.05060145762977,-0.0010037422180175,0.0956302732229232,0,0,0
15210,531782.6156448632,2010-10-21 20:56:25,60.03041633340016,7,46,-1.099568486213684,3.9791648387908936,45.695706665319214,44.74249282027656,182.55754886764595,163.08720154067927,-0.0006475448608398,0.0956302732229232,0,0,0
15211,531812.6307191538,2010-10-21 20:56:55,90.04549064900212,7,46,-1.0997490882873535,3.9590909481048575,45.695706665319214,44.7516605144364,182.55754886764595,163.12358426748008,-0.0004532813909463,0.0956302732229232,0,0,0
15212,531842.6458836491,2010-10-21 20:57:25,120.06065511929732,7,46,-1.099568486213684,3.943873643875122,45.695706665319214,44.760828233507006,182.55754886764595,163.15980856094637,-0.0003561496851034,0.0956302732229232,0,0,0
15213,531872.6610513575,2010-10-21 20:57:55,150.07582283768778,7,46,-1.099568486213684,3.931246519088745,45.695706665319214,44.76999596481248,182.55754886764595,163.19590555418335,-0.0003237724304199,0.0956302732229232,0,0,0
15214,531902.676207853,2010-10-21 20:58:25,180.09097933310713,7,46,-1.099568486213684,3.920076370239258,45.695706665319214,44.77916375496322,182.55754886764595,163.2318942260942,-0.0003237724304199,0.0956302732229232,0,0,0
15215,531932.6913528347,2010-10-21 20:58:55,210.1061243348808,7,46,-1.0993878841400146,3.9100396633148193,45.695706665319214,44.788331548311824,182.55754886764595,163.26778603315705,-0.0002590179501567,0.0956302732229232,0,0,0
15216,531962.7065327084,2010-10-21 20:59:25,240.12130421357847,7,46,-1.099568486213684,3.9006502628326416,45.695706665319214,44.79749936993915,182.55754886764595,163.3035888236073,-0.0002266406954731,0.0956302732229232,0,0,0
15217,531992.7217004518,2010-10-21 20:59:55,270.13647192695646,7,46,-1.099568486213684,3.891584634780884,45.695706665319214,44.80666719218935,182.55754886764595,163.33930746469002,-0.0002590179501567,0.0956302732229232,0,0,0
15218,532022.736852852,2010-10-21 21:00:25,300.15162433218177,7,46,-1.0997490882873535,3.883004665374756,45.695706665319214,44.81583498531412,182.55754886764595,163.37494508229042,-0.0002266406954731,0.0956302732229232,0,0,0
15219,532052.7520217333,2010-10-21 21:00:55,330.1667932034455,7,46,-1.0997490882873535,3.874262809753418,45.695706665319214,44.82500278870798,182.55754886764595,163.41050400946702,-0.0002590179501567,0.0956302732229232,0,0,0
15220,532082.7672865938,2010-10-21 21:01:25,360.18205807396896,7,46,-1.0997490882873535,3.86616849899292,45.695706665319214,44.83417064049824,182.55754886764595,163.44598661832848,-0.0002266406954731,0.0956302732229232,0,0,0
15221,532112.7827374128,2010-10-21 21:01:55,390.1975089280206,7,46,-1.099568486213684,3.858236074447632,45.695706665319214,44.84333857996612,182.55754886764595,163.48139514631245,-0.0001942634553415,0.0956302732229232,0,0,0
15222,532142.7976262762,2010-10-21 21:02:25,420.21239776134365,7,46,-1.099568486213684,3.8504655361175537,45.695706665319214,44.85250635190921,182.55754886764595,163.51673026655283,-0.0001942634553415,0.0956302732229232,0,0,0
15223,532172.8127653983,2010-10-21 21:02:55,450.2275369035133,7,46,-1.099568486213684,3.8428568840026855,45.695706665319214,44.8616741456088,182.55754886764595,163.55199426802486,-0.0001618862152099,0.0956302732229232,0,0,0
15224,532202.8277969674,2010-10-21 21:03:25,480.2425684374904,7,46,-1.0993878841400146,3.835086345672608,45.695706665319214,44.87084202552697,182.55754886764595,163.587188261162,-0.0001942634553415,0.0956302732229232,0,0,0
15225,532232.8429622346,2010-10-21 21:03:55,510.25773373484685,7,46,-1.0997490882873535,3.827639818191528,45.695706665319214,44.88000988976061,182.55754886764595,163.62231304797442,-0.0001618862152099,0.0956302732229232,0,0,0
15226,532262.8608454609,2010-10-21 21:04:25,540.275616936056,7,46,-1.099568486213684,3.82019305229187,45.695706665319214,44.88917862161843,182.55754886764595,163.65737301335196,-0.0001942634553415,0.0956302732229232,0,0,0
15227,532292.8732878821,2010-10-21 21:04:55,570.2880593521546,7,46,-1.099568486213684,3.812908172607422,45.695706665319214,44.89834569761458,182.55754886764595,163.69235966082567,-0.0001942634553415,0.0956302732229232,0,0,0
15228,532322.8884490491,2010-10-21 21:05:25,600.3032205242296,7,46,-1.0997490882873535,3.805785179138184,45.695706665319214,44.907513575078845,182.55754886764595,163.72728335350402,-0.0001942634553415,0.0956302732229232,0,0,0
15229,532352.9036070834,2010-10-21 21:05:55,630.3183785534718,7,46,-1.099568486213684,3.798985958099365,45.695706665319214,44.91668147261149,182.55754886764595,163.7621426934581,-0.0001618862152099,0.0956302732229232,0,0,0
15230,532382.9189169059,2010-10-21 21:06:25,660.3336884812919,7,46,-1.099568486213684,3.792186737060547,45.695706665319214,44.92584941342799,182.55754886764595,163.79693893075262,-0.0001295089750783,0.0956302732229232,0,0,0
15231,532412.9339487908,2010-10-21 21:06:55,690.348720300981,7,46,-1.0993878841400146,3.7855494022369385,45.695706665319214,44.93501726702599,182.55754886764595,163.8316735361807,-0.0001295089750783,0.0956302732229232,0,0,0
15232,532442.9493811938,2010-10-21 21:07:25,720.3641527090596,7,46,-1.099568486213684,3.77891206741333,45.695706665319214,44.94418527832677,182.55754886764595,163.86634824928404,-0.0001295089750783,0.0956302732229232,0,0,0
15233,532472.9642825183,2010-10-21 21:07:55,750.3790539934143,7,46,-1.0997490882873535,3.772436618804932,45.695706665319214,44.953353118143205,182.55754886764595,163.90096282605165,-0.0001618862152099,0.0956302732229232,0,0,0
15234,532502.979691117,2010-10-21 21:08:25,780.394462717465,7,46,-1.099568486213684,3.766123056411743,45.695706665319214,44.96252111778221,182.55754886764595,163.93551969822698,-0.0001618862152099,0.0956302732229232,0,0,0
15235,532532.9945945919,2010-10-21 21:08:55,810.4093660920295,7,46,-1.099568486213684,3.7599713802337646,45.695706665319214,44.97168897871941,182.55754886764595,163.97001902318033,-0.0001942634553415,0.0956302732229232,0,0,0
15236,532563.0098641741,2010-10-21 21:09:25,840.4246356642709,7,46,-1.099568486213684,3.753981590270996,45.695706665319214,44.9808569820879,182.55754886764595,164.00446320632918,-0.0001942634553415,0.0956302732229232,0,0,0
15237,532593.0249706799,2010-10-21 21:09:55,870.4397422853882,7,46,-1.099568486213684,3.7481539249420166,45.695706665319214,44.99002492749371,182.55754886764595,164.03885202811222,-0.0001618862152099,0.0956302732229232,0,0,0
15238,532623.04019927,2010-10-21 21:10:25,900.4549707451649,7,46,-1.0997490882873535,3.742326021194458,45.695706665319214,44.99919288369615,182.55754886764595,164.07318736153465,-0.0001618862152099,0.0956302732229232,0,0,0
15239,532653.055305034,2010-10-21 21:10:55,930.4700766494956,7,46,-1.0997490882873535,3.7364981174468994,45.695706665319214,45.0083607903476,182.55754886764595,164.10746992742824,-0.0001618862152099,0.0956302732229232,0,0,0
15240,532683.070407615,2010-10-21 21:11:25,960.4851790851816,7,46,-1.099568486213684,3.7309939861297607,45.695706665319214,45.0175286506658,182.55754886764595,164.14170055968435,-0.0001295089750783,0.0956302732229232,0,0,0
15241,532713.0855516995,2010-10-21 21:11:55,990.5003231947315,7,46,-1.099568486213684,3.725651741027832,45.695706665319214,45.02669660254275,182.55754886764595,164.1758812224158,-9.713172767078504e-05,0.0956302732229232,0,0,0
15242,532743.1007276835,2010-10-21 21:12:25,1020.5154991586724,7,46,-1.099568486213684,3.720147609710693,45.695706665319214,45.0358644616204,182.55754886764595,164.2100118319656,-0.0001295089750783,0.0956302732229232,0,0,0
15243,532773.115955622,2010-10-21 21:12:55,1050.5307271021622,7,46,-1.0993878841400146,3.7148053646087646,45.695706665319214,45.04503237200746,182.55754886764595,164.24409304004905,-0.0001618862152099,0.0956302732229232,0,0,0
15244,532803.1310490452,2010-10-21 21:13:25,1080.5458205454363,7,46,-1.099568486213684,3.709463119506836,45.695706665319214,45.05420027006188,182.55754886764595,164.27812545949266,-0.0001295089750783,0.0956302732229232,0,0,0
15245,532833.1462242473,2010-10-21 21:13:55,1110.5609957474785,7,46,-1.0997490882873535,3.704282760620117,45.695706665319214,45.0633681569071,182.55754886764595,164.3121095203461,-0.0001618862152099,0.0956302732229232,0,0,0
15246,532863.1613882063,2010-10-21 21:14:25,1140.5761596814368,7,46,-1.099568486213684,3.6991024017333984,45.695706665319214,45.07253614466709,182.55754886764595,164.3460466186648,-0.0001618862152099,0.0956302732229232,0,0,0
15247,532893.1766895427,2010-10-21 21:14:55,1170.5914610378943,7,46,-1.0997490882873535,3.6942458152771,45.695706665319214,45.08170417208309,182.55754886764595,164.37993788236196,-0.0001295089750783,0.0956302732229232,0,0,0
15248,532923.1916906509,2010-10-21 21:15:25,1200.6064621310034,7,46,-1.099568486213684,3.689227342605591,45.695706665319214,45.09087216421344,182.55754886764595,164.4137836620452,-0.0001295089750783,0.0956302732229232,0,0,0
15249,532953.2068676674,2010-10-21 21:15:55,1230.6216391475675,7,46,-1.0997490882873535,3.684370756149292,45.695706665319214,45.10004013158301,182.55754886764595,164.44758420342276,-0.0001618862152099,0.0956302732229232,0,0,0
15250,532983.2220577666,2010-10-21 21:16:25,1260.6368292367133,7,46,-1.0997490882873535,3.679514169692993,45.695706665319214,45.10920816057867,182.55754886764595,164.48134027490428,-0.0001295089750783,0.0956302732229232,0,0,0
15251,533013.2371946481,2010-10-21 21:16:55,1290.651966123261,7,46,-1.099568486213684,3.674819469451904,45.695706665319214,45.11837619588503,182.55754886764595,164.5150524711977,-0.0001295089750783,0.0956302732229232,0,0,0
15252,533043.2524785411,2010-10-21 21:17:25,1320.667250026219,7,46,-1.099568486213684,3.6701250076293945,45.695706665319214,45.12754428881959,182.55754886764595,164.54872154674274,-0.0001295089750783,0.0956302732229232,0,0,0
15253,533073.2675118644,2010-10-21 21:17:55,1350.682283339631,7,46,-1.099568486213684,3.6654303073883057,45.695706665319214,45.13671229135111,182.55754886764595,164.58234760230172,-0.0001618862152099,0.0956302732229232,0,0,0
15254,533103.2826813272,2010-10-21 21:18:25,1380.6974528073815,7,46,-1.0993878841400146,3.6608974933624263,45.695706665319214,45.14587998114794,182.55754886764595,164.61593045851558,-0.0001618862152099,0.0956302732229232,0,0,0
15255,533133.2980223175,2010-10-21 21:18:55,1410.712793922931,7,46,-1.0993878841400146,3.656364679336548,45.695706665319214,45.15504733416952,182.55754886764595,164.64947074252837,-0.0001295089750783,0.0956302732229232,0,0,0
15256,533163.3129592406,2010-10-21 21:19:25,1440.727730715784,7,46,-1.0993878841400146,3.652155637741089,45.695706665319214,45.164214657733176,182.55754886764595,164.68297051232554,-9.713172767078504e-05,0.0956302732229232,0,0,0
15257,533193.3281234202,2010-10-21 21:19:55,1470.7428949003672,7,46,-1.0993878841400146,3.64778470993042,45.695706665319214,45.1733818071505,182.55754886764595,164.71642958621342,-9.713172767078504e-05,0.0956302732229232,0,0,0
15258,533223.3433203314,2010-10-21 21:20:25,1500.7580918065023,7,46,-1.099568486213684,3.643251895904541,45.695706665319214,45.18254886448396,182.55754886764595,164.74984837277327,-0.0001618862152099,0.0956302732229232,0,0,0
15259,533253.3584730674,2010-10-21 21:20:55,1530.773244562602,7,46,-1.099568486213684,3.639042854309082,45.695706665319214,45.19171608033695,182.55754886764595,164.7832287802247,-0.0001295089750783,0.0956302732229232,0,0,0
15260,533283.3736382695,2010-10-21 21:21:26,1560.7884097747462,7,46,-1.0993878841400146,3.635157585144043,45.695706665319214,45.20088347322128,182.55754886764595,164.81657146671685,-9.713172767078504e-05,0.0956302732229232,0,0,0
15261,533313.3888623584,2010-10-21 21:21:56,1590.8036338435793,7,46,-1.099568486213684,3.630948543548584,45.695706665319214,45.21005134520206,182.55754886764595,164.84987854667858,-9.713172767078504e-05,0.0956302732229232,0,0,0
15262,533343.4041468329,2010-10-21 21:22:26,1620.818918312949,7,46,-1.099568486213684,3.627063274383545,45.695706665319214,45.21921922946057,182.55754886764595,164.8831488492569,-9.713172767078504e-05,0.0956302732229232,0,0,0
15263,533373.419170818,2010-10-21 21:22:56,1650.8339422880872,7,46,-1.099568486213684,3.623178005218506,45.695706665319214,45.22838700122528,182.55754886764595,164.916382655172,-9.713172767078504e-05,0.0956302732229232,0,0,0
15264,533403.434458791,2010-10-21 21:23:26,1680.8492302712143,7,46,-1.099568486213684,3.619292736053467,45.695706665319214,45.23755490802046,182.55754886764595,164.9495816937826,-9.713172767078504e-05,0.0956302732229232,0,0,0
15265,533433.4495148362,2010-10-21 21:23:56,1710.8642863413431,7,46,-1.099568486213684,3.6155693531036377,45.695706665319214,45.2467228165157,182.55754886764595,164.98274613575137,-0.0001295089750783,0.0956302732229232,0,0,0
15266,533463.4648659516,2010-10-21 21:24:26,1740.8796374317528,7,46,-1.0993878841400146,3.6120078563690186,45.695706665319214,45.255890718499536,182.55754886764595,165.01587683333722,-9.713172767078504e-05,0.0956302732229232,0,0,0
15267,533493.4798456214,2010-10-21 21:24:56,1770.8946171014684,7,46,-1.0993878841400146,3.60860824584961,45.695706665319214,45.2650584934397,182.55754886764595,165.0489740133525,-6.47544875391759e-05,0.0956302732229232,0,0,0
15268,533523.4951178151,2010-10-21 21:25:26,1800.9098893052685,7,46,-1.0997490882873535,3.6047229766845694,45.695706665319214,45.27422643254821,182.55754886764595,165.0820391023597,-0.0001295089750783,0.0956302732229232,0,0,0
15269,533553.5101450182,2010-10-21 21:25:56,1830.9249165034391,7,46,-1.099568486213684,3.601485252380371,45.695706665319214,45.28339425217708,182.55754886764595,165.11507246767962,-9.713172767078504e-05,0.0956302732229232,0,0,0
15270,533583.5254483045,2010-10-21 21:26:26,1860.9402197897064,7,46,-1.0997490882873535,3.598085641860962,45.695706665319214,45.29256216217752,182.55754886764595,165.14807529277934,-9.713172767078504e-05,0.0956302732229232,0,0,0
15271,533613.5404722746,2010-10-21 21:26:56,1890.95524375482,7,46,-1.099568486213684,3.5950098037719727,45.695706665319214,45.30172997537053,182.55754886764595,165.181047388411,-3.237724376958795e-05,0.0956302732229232,0,0,0
15272,533643.5556492211,2010-10-21 21:27:26,1920.9704207212592,7,46,-1.099568486213684,3.5916104316711426,45.695706665319214,45.31089778568263,182.55754886764595,165.2139897716247,-0.0001294612884521,0.0956302732229232,0,0,0
15273,533673.5708065536,2010-10-21 21:27:56,1950.9855780337148,7,46,-1.099568486213684,3.5885345935821533,45.695706665319214,45.320065603411614,182.55754886764595,165.24690313938976,-0.0001295089750783,0.0956302732229232,0,0,0
15274,533703.585975911,2010-10-21 21:28:26,1981.000747386178,7,46,-1.099568486213684,3.585296869277954,45.695706665319214,45.32923356248092,182.55754886764595,165.2797884513771,-9.713172767078504e-05,0.0956302732229232,0,0,0
15275,533733.6012743803,2010-10-21 21:28:56,2011.016045890527,7,46,-1.099568486213684,3.5825448036193848,45.695706665319214,45.33840149430458,182.55754886764595,165.31264561265144,-6.47544875391759e-05,0.0956302732229232,0,0,0
15276,533763.6163042802,2010-10-21 21:29:26,2041.031075755344,7,46,-1.099568486213684,3.5794689655303955,45.695706665319214,45.3475693145728,182.55754886764595,165.3454748679228,-6.47544875391759e-05,0.0956302732229232,0,0,0
15277,533793.6314673119,2010-10-21 21:29:56,2071.0462388221413,7,46,-1.099568486213684,3.5763931274414062,45.695706665319214,45.35673721939978,182.55754886764595,165.3782769327166,-9.713172767078504e-05,0.0956302732229232,0,0,0
15278,533823.6466415065,2010-10-21 21:30:26,2101.06141301166,7,46,-1.099568486213684,3.573317289352417,45.695706665319214,45.36590507594958,182.55754886764595,165.41105119966028,-9.713172767078504e-05,0.0956302732229232,0,0,0
15279,533853.6617921724,2010-10-21 21:30:56,2131.0765636725378,7,46,-1.099568486213684,3.5704033374786377,45.695706665319214,45.37507294559801,182.55754886764595,165.4437981245665,-6.47544875391759e-05,0.0956302732229232,0,0,0
15280,533883.6769669133,2010-10-21 21:31:26,2161.09173839338,7,46,-1.0997490882873535,3.5673274993896484,45.695706665319214,45.38424082228298,182.55754886764595,165.4765176464819,-9.713172767078504e-05,0.0956302732229232,0,0,0
15281,533913.6922425355,2010-10-21 21:31:56,2191.107014025725,7,46,-1.099568486213684,3.564413547515869,45.695706665319214,45.39340875255572,182.55754886764595,165.509209985768,-6.47544875391759e-05,0.0956302732229232,0,0,0
15282,533943.7073796978,2010-10-21 21:32:26,2221.1221511979857,7,46,-1.099568486213684,3.56149959564209,45.695706665319214,45.402576628950925,182.55754886764595,165.541875051616,-6.47544875391759e-05,0.0956302732229232,0,0,0
15283,533973.7226011852,2010-10-21 21:32:56,2251.13737267536,7,46,-1.099568486213684,3.5584237575531006,45.695706665319214,45.41174448388148,182.55754886764595,165.57451290647575,-6.47544875391759e-05,0.0956302732229232,0,0,0
15284,534003.7376181779,2010-10-21 21:33:26,2281.152389678121,7,46,-1.0993878841400146,3.5555098056793213,45.695706665319214,45.420912348220526,182.55754886764595,165.60712292771206,-9.713172767078504e-05,0.0956302732229232,0,0,0
15285,534033.7527795205,2010-10-21 21:33:56,2311.1675510055834,7,46,-1.099568486213684,3.552433967590332,45.695706665319214,45.430080205718426,182.55754886764595,165.6397051538067,-9.713172767078504e-05,0.0956302732229232,0,0,0
15286,534063.7680858693,2010-10-21 21:34:26,2341.1828573494718,7,46,-1.099568486213684,3.5493581295013428,45.695706665319214,45.439248144683205,182.55754886764595,165.67225956895908,-9.713172767078504e-05,0.0956302732229232,0,0,0
15287,534093.7833724289,2010-10-21 21:34:56,2371.198144014312,7,46,-1.0993878841400146,3.546282291412353,45.695706665319214,45.44841610371158,182.55754886764595,165.70478557442462,-6.47544875391759e-05,0.0956302732229232,0,0,0
15288,534123.7982775929,2010-10-21 21:35:26,2401.2130490730747,7,46,-1.099568486213684,3.5430445671081543,45.695706665319214,45.45758395424196,182.55754886764595,165.7372822561911,-9.713172767078504e-05,0.0956302732229232,0,0,0
15289,534153.8135997462,2010-10-21 21:35:56,2431.228371236389,7,46,-1.0997490882873535,3.539806842803955,45.695706665319214,45.46675186691574,182.55754886764595,165.7697499109983,-6.47544875391759e-05,0.0956302732229232,0,0,0
15290,534183.8313616201,2010-10-21 21:36:26,2461.246133110213,7,46,-1.0993878841400146,3.536731004714966,45.695706665319214,45.475920573149054,182.55754886764595,165.80219061061135,-6.47544875391759e-05,0.0956302732229232,0,0,0
15291,534213.8439421203,2010-10-21 21:36:56,2491.258713640535,7,46,-1.0997490882873535,3.5331695079803467,45.695706665319214,45.48508772779057,182.55754886764595,165.8345954398866,-6.47544875391759e-05,0.0956302732229232,0,0,0
15292,534243.8589409578,2010-10-21 21:37:26,2521.2737124429345,7,46,-1.099568486213684,3.529769897460937,45.695706665319214,45.49425557894324,182.55754886764595,165.8669715204729,-9.713172767078504e-05,0.0956302732229232,0,0,0
15293,534273.8741108766,2010-10-21 21:37:56,2551.28888238186,7,46,-1.099568486213684,3.5260465145111084,45.695706665319214,45.50342351975388,182.55754886764595,165.8993156915186,-9.713172767078504e-05,0.0956302732229232,0,0,0
15294,534303.8894139824,2010-10-21 21:38:26,2581.3041855628644,7,46,-1.0997490882873535,3.5223231315612797,45.695706665319214,45.51259155348694,182.55754886764595,165.93162653914823,-0.0001295089750783,0.0956302732229232,0,0,0
15295,534333.9044395817,2010-10-21 21:38:56,2611.3192110868627,7,46,-1.0997490882873535,3.51843786239624,45.695706665319214,45.52175943687483,182.55754886764595,165.96390165802916,-0.0001295089750783,0.0956302732229232,0,0,0
15296,534363.9200459182,2010-10-21 21:39:26,2641.3348174334496,7,46,-1.099568486213684,3.514390707015991,45.695706665319214,45.5309275562079,182.55754886764595,165.99614085174056,-0.0001295089750783,0.0956302732229232,0,0,0
15297,534393.9347921712,2010-10-21 21:39:56,2671.3495636964435,7,46,-1.099568486213684,3.5100200176239014,45.695706665319214,45.54009546193119,182.55754886764595,166.02834050393008,-9.713172767078504e-05,0.0956302732229232,0,0,0
15298,534423.9501824141,2010-10-21 21:40:26,2701.364953889309,7,46,-1.099568486213684,3.5054872035980225,45.695706665319214,45.54926350478408,182.55754886764595,166.06049948018912,-6.47544875391759e-05,0.0956302732229232,0,0,0
15299,534453.9651059791,2010-10-21 21:40:56,2731.379877459206,7,46,-1.099568486213684,3.5004687309265137,45.695706665319214,45.55843140091779,182.55754886764595,166.0926136804256,-0.0001295089750783,0.0956302732229232,0,0,0
15300,534483.9803967491,2010-10-21 21:41:26,2761.395168329529,7,46,-1.099568486213684,3.494964599609375,45.695706665319214,45.56759934198139,182.55754886764595,166.12468041193142,-0.0001618862152099,0.0956302732229232,0,0,0
15301,534513.9954376564,2010-10-21 21:41:56,2791.41020914163,7,46,-1.0997490882873535,3.4889748096466064,45.695706665319214,45.57676725141336,182.55754886764595,166.1566948624856,-0.0001942634553415,0.0956302732229232,0,0,0
15302,534544.0107436846,2010-10-21 21:42:26,2821.425515204818,7,46,-1.099568486213684,3.482337474822998,45.695706665319214,45.5859352294684,182.55754886764595,166.18865167348108,-0.0001618862152099,0.0956302732229232,0,0,0
15303,534574.0259238991,2010-10-21 21:42:56,2851.440695419353,7,46,-1.099568486213684,3.47489070892334,45.695706665319214,45.595103117150494,182.55754886764595,166.22054273530327,-0.0001618862152099,0.0956302732229232,0,0,0
15304,534604.0409660295,2010-10-21 21:43:26,2881.45573750964,7,46,-1.0997490882873535,3.465986967086792,45.695706665319214,45.60427101679012,182.55754886764595,166.2523601129762,-0.0002590179501567,0.0956302732229232,0,0,0
15305,534634.0561061791,2010-10-21 21:43:56,2911.47087765932,7,46,-1.099568486213684,3.4562737941741943,45.695706665319214,45.613438921040405,182.55754886764595,166.2840924734216,-0.0002590179501567,0.0956302732229232,0,0,0
15306,534664.0712759276,2010-10-21 21:44:26,2941.4860474278203,7,46,-1.0993878841400146,3.444617986679077,45.695706665319214,45.62260687178138,182.55754886764595,166.31572581908455,-0.0002913951757363,0.0956302732229232,0,0,0
15307,534694.0864313303,2010-10-21 21:44:56,2971.501202860591,7,46,-1.099568486213684,3.43037223815918,45.695706665319214,45.63177480297643,182.55754886764595,166.34724167475292,-0.0004208564641885,0.0956302732229232,0,0,0
15308,534724.1016038056,2010-10-21 21:45:26,3001.5163753057623,7,46,-1.0997490882873535,3.413050413131714,45.695706665319214,45.64094275302402,182.55754886764595,166.37861511882645,-0.0005180359003134,0.0956302732229232,0,0,0
15309,534754.1168640094,2010-10-21 21:45:56,3031.531635614917,7,46,-1.099568486213684,3.391357660293579,45.695706665319214,45.65011074135335,182.55754886764595,166.40981105778877,-0.0006475448608398,0.0956302732229232,0,0,0
15310,534784.1319837633,2010-10-21 21:46:26,3061.546755273528,7,46,-1.0997490882873535,3.362380027770996,45.695706665319214,45.65927868995947,182.55754886764595,166.44077666168678,-0.0008741855854168,0.0956302732229232,0,0,0
15311,534814.1472236466,2010-10-21 21:46:56,3091.5619951267004,7,46,-1.099568486213684,3.3227181434631348,45.695706665319214,45.66844667031068,182.55754886764595,166.4714309324554,-0.0011979580158367,0.0956302732229232,0,0,0
15312,534844.162266589,2010-10-21 21:47:26,3121.5770380991858,7,46,-1.099568486213684,3.266220092773437,45.695706665319214,45.677614506493406,182.55754886764595,166.50164956871413,-0.0017807006370276,0.0956302732229232,0,0,0
15313,534874.1774345029,2010-10-21 21:47:56,3151.592206018076,7,46,-1.099568486213684,3.1841440200805664,45.695706665319214,45.686782418627175,182.55754886764595,166.53124313059905,-0.0025901317130774,0.0956302732229232,0,0,0
15314,534904.1926150533,2010-10-21 21:48:26,3181.60738653336,7,46,-1.0997490882873535,3.0554447174072266,45.695706665319214,45.695950348532726,182.55754886764595,166.55989413935757,-0.0042090415954589,0.0956302732229232,0,0,0
15315,534928.4578568871,2010-10-21 21:48:51,3205.8726283572137,7,46,-1.099568486213684,2.855354070663452,45.695706665319214,45.70336202518419,182.55754886764595,166.58189406248778,-0.008936071768403,0.0956302732229232,0,0,0
15316,534939.7858591944,2010-10-21 21:49:02,3217.200630724652,7,46,-1.099568486213684,2.699943780899048,45.695706665319214,45.70682210602643,182.55754886764595,166.59151546804202,-0.0117528913542628,0.0956302732229232,0,0,0
15317,534999.8179442732,2010-10-21 21:50:02,60.01494287377772,8,46,0.0,3.34311580657959,45.695706665319214,45.70682210602643,182.55754886764595,166.59151546804202,0.0013922214275225,0.0956302732229232,0,0,0
15318,535000.0233150979,2010-10-21 21:50:02,0.187503676856165,9,46,-1.9243103452026844e-05,3.34311580657959,45.695706665319214,45.7068221070287,182.55754886764595,166.5915154713927,0.0,0.0931148082017898,0,0,0
15319,535004.8515085515,2010-10-21 21:50:07,5.015697170640674,9,46,0.0008838032954372,3.3515336513519287,45.69570754174081,45.70682210711349,182.55755180191068,166.59151547167616,0.0011979102855548,0.0931148082017898,0,0,0
