Data_Point,Test_Time(s),Date_Time,Step_Time(s),Step_Index,Cycle_Index,Current(A),Voltage(V),Charge_Capacity(Ah),Discharge_Capacity(Ah),Charge_Energy(Wh),Discharge_Energy(Wh),dV/dt(V/s),Internal_Resistance(Ohm),Is_FC_Data,AC_Impedance(Ohm),ACI_Phase_Angle(Deg)
7424,256891.17349382376,2010-10-18 16:34:24,30.015155843795306,1,23,0.0,3.422116041183472,22.086443172672727,22.089791105939437,88.12834112900536,80.69153026394423,0.0007770538213662,0.0923885703086853,0,0,0
7425,256921.1886239134,2010-10-18 16:34:54,60.03028592839076,1,23,0.0,3.4462368488311768,22.086443172672727,22.089791105939437,88.12834112900536,80.69153026394423,0.0005827903514727,0.0923885703086853,0,0,0
7426,256951.2037747848,2010-10-18 16:35:24,90.04543680480582,1,23,0.0,3.4645299911499023,22.086443172672727,22.089791105939437,88.12834112900536,80.69153026394423,0.0004532813909463,0.0923885703086853,0,0,0
7427,256981.1720408849,2010-10-18 16:35:54,120.01370289490733,1,23,0.0,3.4794235229492188,22.086443172672727,22.089791105939437,88.12834112900536,80.69153026394423,0.0003885269106831,0.0923885703086853,0,0,0
7428,257011.1891797915,2010-10-18 16:36:24,30.01511283660816,2,23,0.5501165986061096,3.631919860839844,22.091029643221603,22.089791105939437,88.1448477162713,80.69153026394423,0.0014569759368896,0.0923885703086853,0,0,0
7429,257041.2043927426,2010-10-18 16:36:54,60.0303258579074,2,23,0.5499359965324402,3.674981355667114,22.095616060974685,22.089791105939437,88.16161068441005,80.69153026394423,0.0009065151098184,0.0923885703086853,0,0,0
7430,257071.21946396047,2010-10-18 16:37:24,90.04539701563898,2,23,0.5501165986061096,3.7060635089874263,22.10020244197148,22.089791105939437,88.17854045281997,80.69153026394423,0.0007446765666827,0.0923885703086853,0,0,0
7431,257101.2346067117,2010-10-18 16:37:54,120.06053976680342,2,23,0.5501165986061096,3.730022668838501,22.10478888541813,22.089791105939437,88.19559491163868,80.69153026394423,0.0006151676061563,0.0923885703086853,0,0,0
7432,257131.2497519039,2010-10-18 16:38:24,150.07568497910177,2,23,0.5501165986061096,3.749125242233277,22.109375270933946,22.089791105939437,88.21274742254775,80.69153026394423,0.0004532813909463,0.0923885703086853,0,0,0
7433,257161.2649037427,2010-10-18 16:38:54,180.0908368279404,2,23,0.5501165986061096,3.7640185356140137,22.11396164796082,22.089791105939437,88.2299783818592,80.69153026394423,0.0003561496851034,0.0923885703086853,0,0,0
7434,257191.28020666807,2010-10-18 16:39:24,210.10613983852065,2,23,0.5499359965324402,3.773893594741821,22.11854803890061,22.089791105939437,88.24726658382487,80.69153026394423,0.0001942634553415,0.0923885703086853,0,0,0
7435,257221.29518081903,2010-10-18 16:39:54,240.1211138992566,2,23,0.5499359965324402,3.7800452709198,22.123134404776508,22.089791105939437,88.26459060684664,80.69153026394423,0.0001295089750783,0.0923885703086853,0,0,0
7436,257251.3103287732,2010-10-18 16:40:24,270.1362618533885,2,23,0.5499359965324402,3.7844161987304688,22.12772074568036,22.089791105939437,88.28193786036132,80.69153026394423,6.47544875391759e-05,0.0923885703086853,0,0,0
7437,257281.32548706303,2010-10-18 16:40:54,300.15142011320523,2,23,0.5499359965324402,3.788301467895508,22.1323071231756,22.089791105939437,88.29930405634096,80.69153026394423,9.713172767078504e-05,0.0923885703086853,0,0,0
7438,257311.34061177928,2010-10-18 16:41:24,330.166544859496,2,23,0.5501165986061096,3.792348623275757,22.13689352076477,22.089791105939437,88.31668797213734,80.69153026394423,0.0001618862152099,0.0923885703086853,0,0,0
7439,257341.35578118687,2010-10-18 16:41:54,360.1817143573213,2,23,0.5499359965324402,3.795910120010376,22.141479916185396,22.089791105939437,88.3340891421257,80.69153026394423,9.713172767078504e-05,0.0923885703086853,0,0,0
7440,257371.3708959182,2010-10-18 16:42:24,390.1968289583269,2,23,0.5501165986061096,3.799471616744995,22.146066326567517,22.089791105939437,88.351507136815,80.69153026394423,6.47544875391759e-05,0.0923885703086853,0,0,0
7441,257401.3863352636,2010-10-18 16:42:54,420.2122684340201,2,23,0.5501165986061096,3.8030331134796143,22.150652706592727,22.089791105939437,88.36894145449043,80.69153026394423,6.47544875391759e-05,0.0923885703086853,0,0,0
7442,257431.40118904956,2010-10-18 16:43:24,450.2271220946821,2,23,0.5501165986061096,3.8067564964294434,22.15523913401807,22.089791105939437,88.38639214894219,80.69153026394423,0.0001295089750783,0.0923885703086853,0,0,0
7443,257461.4166080141,2010-10-18 16:43:54,480.2425410692804,2,23,0.5501165986061096,3.8099942207336426,22.159825667108823,22.089791105939437,88.40385917870482,80.69153026394423,6.47544875391759e-05,0.0923885703086853,0,0,0
7444,257491.4314896846,2010-10-18 16:44:24,510.25742273975146,2,23,0.5501165986061096,3.8135557174682617,22.164412013036493,22.089791105939437,88.42134119374457,80.69153026394423,9.713172767078504e-05,0.0923885703086853,0,0,0
7445,257521.44662839567,2010-10-18 16:44:54,540.2725614458342,2,23,0.5501165986061096,3.816793441772461,22.16899841422987,22.089791105939437,88.43883920265866,80.69153026394423,9.713172767078504e-05,0.0923885703086853,0,0,0
7446,257551.46175365825,2010-10-18 16:45:24,570.2876867234493,2,23,0.5499359965324402,3.82019305229187,22.173584727257893,22.089791105939437,88.45635201161728,80.69153026394423,9.713172767078504e-05,0.0923885703086853,0,0,0
7447,257581.47703082443,2010-10-18 16:45:54,600.3029638745797,2,23,0.5501165986061096,3.8232688903808594,22.17817115389667,22.089791105939437,88.47388015788172,80.69153026394423,3.237724376958795e-05,0.0923885703086853,0,0,0
7448,257611.4920897116,2010-10-18 16:46:24,630.3180228068417,2,23,0.5499359965324402,3.8265066146850586,22.18275752625252,22.089791105939437,88.49142286458857,80.69153026394423,6.47544875391759e-05,0.0923885703086853,0,0,0
7449,257641.50722271344,2010-10-18 16:46:54,660.3331557936704,2,23,0.5501165986061096,3.829906225204468,22.18734390534671,22.089791105939437,88.50898039360153,80.69153026394423,0.0001295089750783,0.0923885703086853,0,0,0
7450,257671.5223421615,2010-10-18 16:47:24,690.3482752668189,2,23,0.5501165986061096,3.832982063293457,22.19193032226117,22.089791105939437,88.5265529971036,80.69153026394423,6.47544875391759e-05,0.0923885703086853,0,0,0
7451,257701.53746347423,2010-10-18 16:47:54,720.3633965444646,2,23,0.5501165986061096,3.836381435394287,22.19651666017336,22.089791105939437,88.54414026438525,80.69153026394423,9.713172767078504e-05,0.0923885703086853,0,0,0
7452,257731.5526480196,2010-10-18 16:48:24,750.3785811148555,2,23,0.5501165986061096,3.839781045913696,22.20110300108168,22.089791105939437,88.56174272936472,80.69153026394423,0.0001295089750783,0.0923885703086853,0,0,0
7453,257761.56779873563,2010-10-18 16:48:54,780.3937318108209,2,23,0.5501165986061096,3.843018770217896,22.205689315505257,22.089791105939437,88.57936050136979,80.69153026394423,9.713172767078504e-05,0.0923885703086853,0,0,0
7454,257791.58300580207,2010-10-18 16:49:24,810.4089388772787,2,23,0.550297200679779,3.846580266952514,22.21027560799921,22.089791105939437,88.59699365575139,80.69153026394423,0.0001295089750783,0.0923885703086853,0,0,0
7455,257821.59821978075,2010-10-18 16:49:54,840.4241528309018,2,23,0.5501165986061096,3.849817991256714,22.21486197916381,22.089791105939437,88.61464271976116,80.69153026394423,9.713172767078504e-05,0.0923885703086853,0,0,0
7456,257851.61322801164,2010-10-18 16:50:24,870.4391610918752,2,23,0.5501165986061096,3.853217601776123,22.21944833440224,22.089791105939437,88.6323071669238,80.69153026394423,9.713172767078504e-05,0.0923885703086853,0,0,0
7457,257881.62870552216,2010-10-18 16:50:54,900.4546386976002,2,23,0.5499359965324402,3.856293439865112,22.224034707590715,22.089791105939437,88.64998674323164,80.69153026394423,6.47544875391759e-05,0.0923885703086853,0,0,0
7458,257911.64376259976,2010-10-18 16:51:24,930.4696956499276,2,23,0.5501165986061096,3.859854936599731,22.2286210191719,22.089791105939437,88.66768109401309,80.69153026394423,0.0001295089750783,0.0923885703086853,0,0,0
7459,257941.6586441399,2010-10-18 16:51:54,960.4845771900737,2,23,0.5501165986061096,3.8629307746887207,22.23320723921445,22.089791105939437,88.6853898043451,80.69153026394423,6.47544875391759e-05,0.0923885703086853,0,0,0
7460,257971.67380248,2010-10-18 16:52:24,990.499735525078,2,23,0.550297200679779,3.86600661277771,22.237793602487383,22.089791105939437,88.70311338623141,80.69153026394423,6.47544875391759e-05,0.0923885703086853,0,0,0
7461,258001.68895684005,2010-10-18 16:52:54,1020.5148898851754,2,23,0.550297200679779,3.868920564651489,22.2423799392955,22.089791105939437,88.72085087606827,80.69153026394423,6.47544875391759e-05,0.0923885703086853,0,0,0
7462,258031.7041037265,2010-10-18 16:53:24,1050.5300368017213,2,23,0.5501165986061096,3.871834516525269,22.246966271496905,22.089791105939437,88.73860199376414,80.69153026394423,6.47544875391759e-05,0.0923885703086853,0,0,0
7463,258061.7192518611,2010-10-18 16:53:54,1080.5451849463277,2,23,0.5501165986061096,3.874586582183838,22.25155263224953,22.089791105939437,88.75636640100547,80.69153026394423,6.47544875391759e-05,0.0923885703086853,0,0,0
7464,258091.73439429147,2010-10-18 16:54:24,1110.5603273416052,2,23,0.5501165986061096,3.877500534057617,22.25613900956637,22.089791105939437,88.77414351534625,80.69153026394423,6.47544875391759e-05,0.0923885703086853,0,0,0
7465,258121.74980643403,2010-10-18 16:54:54,1140.5757395192634,2,23,0.5499359965324402,3.879928827285767,22.260725441268537,22.089791105939437,88.79193296109437,80.69153026394423,9.713172767078504e-05,0.0923885703086853,0,0,0
7466,258151.76479265507,2010-10-18 16:55:24,1170.5907257352942,2,23,0.5499359965324402,3.882357120513916,22.265311690309964,22.089791105939437,88.80973316732158,80.69153026394423,6.47544875391759e-05,0.0923885703086853,0,0,0
7467,258181.7799633208,2010-10-18 16:55:54,1200.605896375968,2,23,0.5501165986061096,3.8847854137420654,22.2698980811908,22.089791105939437,88.82754490348346,80.69153026394423,6.47544875391759e-05,0.0923885703086853,0,0,0
7468,258211.7950805885,2010-10-18 16:56:24,1230.6210137338442,2,23,0.5499359965324402,3.886889934539795,22.27448436002749,22.089791105939437,88.8453665017198,80.69153026394423,6.47544875391759e-05,0.0923885703086853,0,0,0
7469,258241.81012312984,2010-10-18 16:56:54,1260.636056180018,2,23,0.5501165986061096,3.888994455337525,22.27907071024649,22.089791105939437,88.86319813751088,80.69153026394423,6.47544875391759e-05,0.0923885703086853,0,0,0
7470,258271.82524064812,2010-10-18 16:57:24,1290.651173693282,2,23,0.5501165986061096,3.890937089920044,22.283657047153287,22.089791105939437,88.88103881943756,80.69153026394423,3.237724376958795e-05,0.0923885703086853,0,0,0
7471,258301.8403805121,2010-10-18 16:57:55,1320.6663135622628,2,23,0.5501165986061096,3.892879724502564,22.288243435327797,22.089791105939437,88.8988882014175,80.69153026394423,6.47544875391759e-05,0.0923885703086853,0,0,0
7472,258331.85552749384,2010-10-18 16:58:25,1350.6814605439713,2,23,0.5501165986061096,3.894336700439453,22.292829882676028,22.089791105939437,88.91674577006248,80.69153026394423,3.237724376958795e-05,0.0923885703086853,0,0,0
7473,258361.8706796885,2010-10-18 16:58:55,1380.696612733659,2,23,0.5501165986061096,3.895793676376343,22.297416333902504,22.089791105939437,88.93461027060683,80.69153026394423,3.237724376958795e-05,0.0923885703086853,0,0,0
7474,258391.8859349,2010-10-18 16:59:25,1410.7118679501218,2,23,0.5501165986061096,3.8974125385284415,22.302002735115316,22.089791105939437,88.9524815127941,80.69153026394423,9.713172767078504e-05,0.0923885703086853,0,0,0
7475,258421.90095222852,2010-10-18 16:59:55,1440.7268852736822,2,23,0.5501165986061096,3.898707628250122,22.30658908821833,22.089791105939437,88.97035899397466,80.69153026394423,3.237724376958795e-05,0.0923885703086853,0,0,0
7476,258451.91613519995,2010-10-18 17:00:25,1470.7420683052376,2,23,0.5501165986061096,3.9000027179718018,22.311175479675143,22.089791105939437,88.9882428840784,80.69153026394423,3.237724376958795e-05,0.0923885703086853,0,0,0
7477,258481.9312571844,2010-10-18 17:00:55,1500.757190234507,2,23,0.5501165986061096,3.901135921478272,22.31576187096985,22.089791105939437,89.00613262915245,80.69153026394423,-3.237724376958795e-05,0.0923885703086853,0,0,0
7478,258511.94638457728,2010-10-18 17:01:25,1530.7723176324068,2,23,0.5501165986061096,3.902431011199951,22.320348237506032,22.089791105939437,89.02402811519951,80.69153026394423,3.237724376958795e-05,0.0923885703086853,0,0,0
7479,258541.9616667208,2010-10-18 17:01:55,1560.7875997709675,2,23,0.550297200679779,3.903726100921631,22.324934601249755,22.089791105939437,89.04192924058415,80.69153026394423,-3.237724376958795e-05,0.0923885703086853,0,0,0
7480,258571.97676551243,2010-10-18 17:02:25,1590.802698562571,2,23,0.5499359965324402,3.905021190643311,22.329521048717343,22.089791105939437,89.05983641271358,80.69153026394423,6.47544875391759e-05,0.0923885703086853,0,0,0
7481,258601.9918383243,2010-10-18 17:02:55,1620.8177714045005,2,23,0.5501165986061096,3.9063162803649902,22.334107432225927,22.089791105939437,89.07774877942643,80.69153026394423,6.47544875391759e-05,0.0923885703086853,0,0,0
7482,258632.00698128092,2010-10-18 17:03:25,1650.8329143561646,2,23,0.550297200679779,3.90744948387146,22.33869373619772,22.089791105939437,89.0956665338368,80.69153026394423,3.237724376958795e-05,0.0923885703086853,0,0,0
7483,258662.02215473863,2010-10-18 17:03:55,1680.8480877837842,2,23,0.5501165986061096,3.9085826873779297,22.34328011947912,22.089791105939437,89.11359020171408,80.69153026394423,3.237724376958795e-05,0.0923885703086853,0,0,0
7484,258692.03725604148,2010-10-18 17:04:25,1710.8631890866468,2,23,0.5501165986061096,3.90987777709961,22.34786640983852,22.089791105939437,89.13151923451493,80.69153026394423,3.237724376958795e-05,0.0923885703086853,0,0,0
7485,258722.05241439657,2010-10-18 17:04:55,1740.8783474717757,2,23,0.5501165986061096,3.911172866821289,22.35245287494804,22.089791105939437,89.1494546220232,80.69153026394423,3.237724376958795e-05,0.0923885703086853,0,0,0
7486,258752.06754595484,2010-10-18 17:05:25,1770.893479030044,2,23,0.5501165986061096,3.912306070327759,22.357039239199626,22.089791105939437,89.16739541175932,80.69153026394423,0.0,0.0923885703086853,0,0,0
7487,258782.08280854463,2010-10-18 17:05:55,1800.908741624896,2,23,0.5501165986061096,3.9136011600494394,22.36162565972863,22.089791105939437,89.18534217333038,80.69153026394423,6.47544875391759e-05,0.0923885703086853,0,0,0
7488,258812.09797168663,2010-10-18 17:06:25,1830.923904741818,2,23,0.5501165986061096,3.914896011352539,22.36621204168344,22.089791105939437,89.20329469587776,80.69153026394423,3.237724376958795e-05,0.0923885703086853,0,0,0
7489,258842.113175495,2010-10-18 17:06:55,1860.9391085451432,2,23,0.5501165986061096,3.9161911010742183,22.37079846965809,22.089791105939437,89.22125302818823,80.69153026394423,3.237724376958795e-05,0.0923885703086853,0,0,0
7490,258872.13079705916,2010-10-18 17:07:25,1890.956730249622,2,23,0.5501165986061096,3.9174861907958975,22.37538515197688,22.089791105939437,89.23921827915102,80.69153026394423,3.237724376958795e-05,0.0923885703086853,0,0,0
7491,258902.14326726948,2010-10-18 17:07:55,1920.9692003246555,2,23,0.5499359965324402,3.918781280517578,22.37997108375041,22.089791105939437,89.25718653386993,80.69153026394423,3.237724376958795e-05,0.0923885703086853,0,0,0
7492,258932.1585326513,2010-10-18 17:08:25,1950.984465706453,2,23,0.550297200679779,3.920076370239258,22.384557382237745,22.089791105939437,89.27516225279776,80.69153026394423,3.237724376958795e-05,0.0923885703086853,0,0,0
7493,258962.17373547217,2010-10-18 17:08:55,1980.9996685473795,2,23,0.5501165986061096,3.921533346176148,22.389143718442984,22.089791105939437,89.29314416119847,80.69153026394423,6.47544875391759e-05,0.0923885703086853,0,0,0
7494,258992.18869437516,2010-10-18 17:09:25,2011.01462745535,2,23,0.5499359965324402,3.922666549682617,22.39372998350898,22.089791105939437,89.31113187477622,80.69153026394423,0.0,0.0923885703086853,0,0,0
7495,259022.2038363093,2010-10-18 17:09:55,2041.0297693594032,2,23,0.5499359965324402,3.924123525619507,22.398316339701545,22.089791105939437,89.32912609803613,80.69153026394423,0.0,0.0923885703086853,0,0,0
7496,259052.2191148238,2010-10-18 17:10:25,2071.0450478889697,2,23,0.5499359965324402,3.9254186153411865,22.40290271977006,22.089791105939437,89.34712667579856,80.69153026394423,0.0,0.0923885703086853,0,0,0
7497,259082.23414655824,2010-10-18 17:10:55,2101.060079628459,2,23,0.5501165986061096,3.926875591278076,22.407489109005084,22.089791105939437,89.36513347943983,80.69153026394423,3.237724376958795e-05,0.0923885703086853,0,0,0
7498,259112.2494025316,2010-10-18 17:11:25,2131.075335621857,2,23,0.5499359965324402,3.928170680999756,22.412075482285697,22.089791105939437,89.38314657104243,80.69153026394423,3.237724376958795e-05,0.0923885703086853,0,0,0
7499,259142.2644178201,2010-10-18 17:11:55,2161.0903508752585,2,23,0.5499359965324402,3.929465770721436,22.41666186188913,22.089791105939437,89.40116602688566,80.69153026394423,0.0,0.0923885703086853,0,0,0
7500,259172.2795593181,2010-10-18 17:12:25,2191.1054923582624,2,23,0.5499359965324402,3.930922746658325,22.421248203666323,22.089791105939437,89.41919178892493,80.69153026394423,3.237724376958795e-05,0.0923885703086853,0,0,0
7501,259202.29470914195,2010-10-18 17:12:55,2221.1206422171413,2,23,0.5501165986061096,3.932379722595215,22.42583456317025,22.089791105939437,89.43722401674364,80.69153026394423,0.0,0.0923885703086853,0,0,0
7502,259232.30984158732,2010-10-18 17:13:25,2251.135774667633,2,23,0.550297200679779,3.933836698532105,22.43042098452097,22.089791105939437,89.45526307655477,80.69153026394423,0.0,0.0923885703086853,0,0,0
7503,259262.3249997119,2010-10-18 17:13:55,2281.150932762037,2,23,0.5501165986061096,3.935293674468994,22.435007407620738,22.089791105939437,89.47330869255629,80.69153026394423,3.237724376958795e-05,0.0923885703086853,0,0,0
7504,259292.34015840772,2010-10-18 17:14:25,2311.166091498041,2,23,0.5499359965324402,3.936588764190674,22.439593881994625,22.089791105939437,89.49136100046279,80.69153026394423,0.0,0.0923885703086853,0,0,0
7505,259322.3553909929,2010-10-18 17:14:55,2341.1813240780866,2,23,0.5499359965324402,3.938207626342773,22.444180256542907,22.089791105939437,89.50941959624517,80.69153026394423,6.47544875391759e-05,0.0923885703086853,0,0,0
7506,259352.37039771,2010-10-18 17:15:25,2371.1963307801752,2,23,0.5497553944587708,3.939502716064453,22.44876652855437,22.089791105939437,89.5274845733198,80.69153026394423,0.0,0.0923885703086853,0,0,0
7507,259382.38588342592,2010-10-18 17:15:55,2401.2118165161637,2,23,0.5499359965324402,3.9411215782165527,22.453352910250363,22.089791105939437,89.54555682586165,80.69153026394423,3.237724376958795e-05,0.0923885703086853,0,0,0
7508,259412.4007375577,2010-10-18 17:16:25,2431.226670632962,2,23,0.5501165986061096,3.9425785541534415,22.457939247537336,22.089791105939437,89.56363568546884,80.69153026394423,3.237724376958795e-05,0.0923885703086853,0,0,0
7509,259442.4158949053,2010-10-18 17:16:55,2461.241827955443,2,23,0.5501165986061096,3.944197416305542,22.462525615815263,22.089791105939437,89.58172168247648,80.69153026394423,3.237724376958795e-05,0.0923885703086853,0,0,0
7510,259472.4310216416,2010-10-18 17:17:25,2491.256954721768,2,23,0.5501165986061096,3.9458162784576416,22.4671120128147,22.089791105939437,89.59981487576732,80.69153026394423,3.237724376958795e-05,0.0923885703086853,0,0,0
7511,259502.4461845329,2010-10-18 17:17:55,2521.272117603103,2,23,0.5501165986061096,3.947435140609741,22.471698465174526,22.089791105939437,89.61791540387526,80.69153026394423,6.47544875391759e-05,0.0923885703086853,0,0,0
7512,259532.46130989076,2010-10-18 17:18:25,2551.2872429709428,2,23,0.5499359965324402,3.948892116546631,22.47628476926324,22.089791105939437,89.63602256149794,80.69153026394423,0.0,0.0923885703086853,0,0,0
7513,259562.4764780903,2010-10-18 17:18:55,2581.302411170533,2,23,0.5501165986061096,3.9505109786987305,22.480871132958505,22.089791105939437,89.65413719674044,80.69153026394423,6.47544875391759e-05,0.0923885703086853,0,0,0
7514,259592.49159782912,2010-10-18 17:19:25,2611.3175308792684,2,23,0.5499359965324402,3.95196795463562,22.48545754908941,22.089791105939437,89.67225938446451,80.69153026394423,3.237724376958795e-05,0.0923885703086853,0,0,0
7515,259622.50687547648,2010-10-18 17:19:55,2641.33280853666,2,23,0.550297200679779,3.9537487030029297,22.490043959310466,22.089791105939437,89.69038888302065,80.69153026394423,6.47544875391759e-05,0.0923885703086853,0,0,0
7516,259652.5219076621,2010-10-18 17:20:25,2671.3478407072243,2,23,0.5501165986061096,3.9552056789398193,22.494630311741275,22.089791105939437,89.70852558270508,80.69153026394423,3.237724376958795e-05,0.0923885703086853,0,0,0
7517,259682.53719935447,2010-10-18 17:20:55,2701.363132409621,2,23,0.5501165986061096,3.956824541091919,22.4992167454718,22.089791105939437,89.72667013343215,80.69153026394423,3.237724376958795e-05,0.0923885703086853,0,0,0
7518,259712.5521875404,2010-10-18 17:21:25,2731.378120610599,2,23,0.5501165986061096,3.9587671756744394,22.503803148732395,22.089791105939437,89.74482192531937,80.69153026394423,6.47544875391759e-05,0.0923885703086853,0,0,0
7519,259742.56743340852,2010-10-18 17:21:55,2761.3933664938,2,23,0.5501165986061096,3.960224151611328,22.50838959774823,22.089791105939437,89.76298154833448,80.69153026394423,3.237724376958795e-05,0.0923885703086853,0,0,0
7520,259772.58245374463,2010-10-18 17:22:25,2791.4083867997933,2,23,0.5499359965324402,3.961843013763428,22.512975962753647,22.089791105939437,89.7811485018487,80.69153026394423,3.237724376958795e-05,0.0923885703086853,0,0,0
7521,259802.5978507896,2010-10-18 17:22:55,2821.423783965036,2,23,0.5501165986061096,3.963623762130737,22.51756240637464,22.089791105939437,89.79932340043908,80.69153026394423,3.237724376958795e-05,0.0923885703086853,0,0,0
7522,259832.61286438885,2010-10-18 17:23:25,2851.438797439002,2,23,0.5499359965324402,3.965242624282837,22.522148770858124,22.089791105939437,89.81750574930514,80.69153026394423,3.237724376958795e-05,0.0923885703086853,0,0,0
7523,259862.6278896873,2010-10-18 17:23:55,2881.453822772525,2,23,0.5501165986061096,3.9670233726501465,22.526735145770125,22.089791105939437,89.83569601833736,80.69153026394423,6.47544875391759e-05,0.0923885703086853,0,0,0
7524,259892.6431559212,2010-10-18 17:24:25,2911.469088986397,2,23,0.5501165986061096,3.968804121017456,22.531321588384067,22.089791105939437,89.8538942990041,80.69153026394423,6.47544875391759e-05,0.0923885703086853,0,0,0
7525,259922.65820091876,2010-10-18 17:24:55,2941.4841339889417,2,23,0.5501165986061096,3.970422983169556,22.53590802508535,22.089791105939437,89.87210048109884,80.69153026394423,6.47544875391759e-05,0.0923885703086853,0,0,0
7526,259952.6732925425,2010-10-18 17:25:25,2971.4992256126807,2,23,0.5501165986061096,3.972365617752075,22.54049448012174,22.089791105939437,89.89031468901044,80.69153026394423,6.47544875391759e-05,0.0923885703086853,0,0,0
7527,259982.68845783983,2010-10-18 17:25:55,3001.5143909150497,2,23,0.5501165986061096,3.973984479904175,22.54508092848649,22.089791105939437,89.90853674900043,80.69153026394423,6.47544875391759e-05,0.0923885703086853,0,0,0
7528,260012.7036294028,2010-10-18 17:26:25,3031.529562457972,2,23,0.550297200679779,3.9756033420562735,22.549667465122656,22.089791105939437,89.9267673009857,80.69153026394423,3.237724376958795e-05,0.0923885703086853,0,0,0
7529,260042.71891411772,2010-10-18 17:26:55,3061.544847172954,2,23,0.5499359965324402,3.977384090423584,22.55425392308017,22.089791105939437,89.94500574238647,80.69153026394423,0.0,0.0923885703086853,0,0,0
7530,260072.7341496352,2010-10-18 17:27:25,3091.560082700345,2,23,0.5499359965324402,3.979002952575684,22.55884035580432,22.089791105939437,89.96325180866222,80.69153026394423,0.0,0.0923885703086853,0,0,0
7531,260102.74905706983,2010-10-18 17:27:55,3121.574990125004,2,23,0.5501165986061096,3.981107473373413,22.563426663803995,22.089791105939437,89.98150616742608,80.69153026394423,3.237724376958795e-05,0.0923885703086853,0,0,0
7532,260132.76422703883,2010-10-18 17:28:25,3151.5901601240785,2,23,0.5499359965324402,3.982888221740722,22.56801302250216,22.089791105939437,89.99976908218433,80.69153026394423,6.47544875391759e-05,0.0923885703086853,0,0,0
7533,260162.7793467576,2010-10-18 17:28:55,3181.605279812764,2,23,0.5501165986061096,3.984992742538452,22.57259941273954,22.089791105939437,90.0180404669273,80.69153026394423,6.47544875391759e-05,0.0923885703086853,0,0,0
7534,260192.79448391483,2010-10-18 17:29:25,3211.6204169900366,2,23,0.5499359965324402,3.986611604690552,22.57718578283215,22.089791105939437,90.03632024162827,80.69153026394423,6.47544875391759e-05,0.0923885703086853,0,0,0
7535,260222.8096324504,2010-10-18 17:29:56,3241.635565535643,2,23,0.5501165986061096,3.988392353057861,22.58177215874456,22.089791105939437,90.05460859167286,80.69153026394423,3.237724376958795e-05,0.0923885703086853,0,0,0
7536,260252.8247782592,2010-10-18 17:30:26,3271.6507113243774,2,23,0.5499359965324402,3.990334987640381,22.58635850082598,22.089791105939437,90.07290545276138,80.69153026394423,3.237724376958795e-05,0.0923885703086853,0,0,0
7537,260282.840087375,2010-10-18 17:30:56,3301.666020420124,2,23,0.5499359965324402,3.9921157360076895,22.590944822354736,22.089791105939437,90.09121093162992,80.69153026394423,0.0,0.0923885703086853,0,0,0
7538,260312.85518058267,2010-10-18 17:31:26,3331.681113647861,2,23,0.5495747923851013,3.994058132171631,22.595531235456523,22.089791105939437,90.10952561927245,80.69153026394423,3.23295607813634e-05,0.0923885703086853,0,0,0
7539,260342.87021527952,2010-10-18 17:31:56,3361.6961483547457,2,23,0.5501165986061096,3.99616265296936,22.600117562220618,22.089791105939437,90.12784887006764,80.69153026394423,6.47544875391759e-05,0.0923885703086853,0,0,0
7540,260372.88534982523,2010-10-18 17:32:26,3391.7112829004595,2,23,0.5501165986061096,3.99826717376709,22.60470391775111,22.089791105939437,90.1461813176343,80.69153026394423,9.713172767078504e-05,0.0923885703086853,0,0,0
7541,260402.9005789517,2010-10-18 17:32:56,3421.726512142185,2,23,0.5501165986061096,4.000209808349609,22.609290299871063,22.089791105939437,90.1645227722024,80.69153026394423,6.47544875391759e-05,0.0923885703086853,0,0,0
7542,260432.91564200423,2010-10-18 17:33:26,3451.741575084441,2,23,0.5501165986061096,4.002152442932129,22.6138765414229,22.089791105939437,90.18287294373984,80.69153026394423,3.23295607813634e-05,0.0923885703086853,0,0,0
7543,260462.93079722143,2010-10-18 17:33:56,3481.7567302766124,2,23,0.5501165986061096,4.004095077514648,22.618462862103723,22.089791105939437,90.20123273755948,80.69153026394423,6.47544875391759e-05,0.0923885703086853,0,0,0
7544,260492.945938128,2010-10-18 17:34:26,3511.77187122328,2,23,0.5501165986061096,4.006199836730957,22.623049150406807,22.089791105939437,90.2196018645236,80.69153026394423,0.0,0.0923885703086853,0,0,0
7545,260522.96108088412,2010-10-18 17:34:56,3541.787013969431,2,23,0.5501165986061096,4.0084662437438965,22.627635534954656,22.089791105939437,90.2379809179306,80.69153026394423,6.47544875391759e-05,0.0923885703086853,0,0,0
7546,260552.97622339972,2010-10-18 17:35:26,3571.802156474984,2,23,0.5501165986061096,4.010408878326416,22.63222184711629,22.089791105939437,90.2563691880324,80.69153026394423,3.24249267578125e-05,0.0923885703086853,0,0,0
7547,260582.99135725372,2010-10-18 17:35:56,3601.817290318949,2,23,0.5497553944587708,4.012513160705566,22.636808146894364,22.089791105939437,90.27476719352062,80.69153026394423,3.23295607813634e-05,0.0923885703086853,0,0,0
7548,260613.0065064159,2010-10-18 17:36:26,3631.832439491117,2,23,0.5499359965324402,4.014779567718506,22.641394534056875,22.089791105939437,90.29317541373868,80.69153026394423,6.47544875391759e-05,0.0923885703086853,0,0,0
7549,260643.02167489612,2010-10-18 17:36:56,3661.847607976418,2,23,0.5501165986061096,4.016884326934815,22.64598089790584,22.089791105939437,90.31159347519724,80.69153026394423,6.47544875391759e-05,0.0923885703086853,0,0,0
7550,260673.0372261655,2010-10-18 17:37:26,3691.8631592657857,2,23,0.5501165986061096,4.019150733947754,22.650567374727668,22.089791105939437,90.33002208286278,80.69153026394423,6.47544875391759e-05,0.0923885703086853,0,0,0
7551,260703.05193288496,2010-10-18 17:37:56,3721.877865940112,2,23,0.5501165986061096,4.021417140960693,22.65515364991433,22.089791105939437,90.34845994384804,80.69153026394423,6.47544875391759e-05,0.0923885703086853,0,0,0
7552,260733.0670772251,2010-10-18 17:38:26,3751.893010310312,2,23,0.5499359965324402,4.023521423339844,22.6597399743264,22.089791105939437,90.36690831831312,80.69153026394423,3.23295607813634e-05,0.0923885703086853,0,0,0
7553,260763.08243768383,2010-10-18 17:38:56,3781.9083707941327,2,23,0.5501165986061096,4.025787830352783,22.664326344686216,22.089791105939437,90.38536720391222,80.69153026394423,3.23295607813634e-05,0.0923885703086853,0,0,0
7554,260793.10003761903,2010-10-18 17:39:26,3811.925970799531,2,23,0.5501165986061096,4.028216361999512,22.668913057364577,22.089791105939437,90.40383794327548,80.69153026394423,6.47544875391759e-05,0.0923885703086853,0,0,0
7555,260823.11251001485,2010-10-18 17:39:56,3841.9384430900855,2,23,0.5501165986061096,4.030320644378662,22.673498993297617,22.089791105939437,90.42231611229064,80.69153026394423,3.23295607813634e-05,0.0923885703086853,0,0,0
7556,260853.1276233728,2010-10-18 17:40:26,3871.953556432956,2,23,0.5501165986061096,4.032749176025391,22.67808534014561,22.089791105939437,90.44080656414864,80.69153026394423,6.47544875391759e-05,0.0923885703086853,0,0,0
7557,260883.14281576767,2010-10-18 17:40:56,3901.9687488579234,2,23,0.5499359965324402,4.035015106201172,22.68267169114405,22.089791105939437,90.45930775894176,80.69153026394423,6.47544875391759e-05,0.0923885703086853,0,0,0
7558,260913.15793184732,2010-10-18 17:41:26,3931.983865032851,2,23,0.5501165986061096,4.0374436378479,22.68725810186664,22.089791105939437,90.47781996869,80.69153026394423,3.24249267578125e-05,0.0923885703086853,0,0,0
7559,260943.17317826187,2010-10-18 17:41:56,3961.999111352139,2,23,0.5499359965324402,4.03971004486084,22.691844516661465,22.089791105939437,90.49634300069964,80.69153026394423,3.24249267578125e-05,0.0923885703086853,0,0,0
7560,260973.18821615676,2010-10-18 17:42:26,3992.0141492118814,2,23,0.5501165986061096,4.04213809967041,22.69643080068485,22.089791105939437,90.51487624204756,80.69153026394423,3.23295607813634e-05,0.0923885703086853,0,0,0
7561,261003.20335375503,2010-10-18 17:42:56,4022.0292868402794,2,23,0.5501165986061096,4.0447282791137695,22.70101723249053,22.089791105939437,90.53342124313944,80.69153026394423,6.47544875391759e-05,0.0923885703086853,0,0,0
7562,261033.21861596897,2010-10-18 17:43:26,4052.0445490241054,2,23,0.5497553944587708,4.046994686126709,22.705603670797387,22.089791105939437,90.55197734998178,80.69153026394423,3.23295607813634e-05,0.0923885703086853,0,0,0
7563,261063.2336363652,2010-10-18 17:43:56,4082.059569460424,2,23,0.5501165986061096,4.0494232177734375,22.71019008295588,22.089791105939437,90.57054467359566,80.69153026394423,3.24249267578125e-05,0.0923885703086853,0,0,0
7564,261093.24877564263,2010-10-18 17:44:26,4112.074708717882,2,23,0.5501165986061096,4.052013397216797,22.714776445405104,22.089791105939437,90.58912320437967,80.69153026394423,6.47544875391759e-05,0.0923885703086853,0,0,0
7565,261123.26393084988,2010-10-18 17:44:56,4142.08986394514,2,23,0.5501165986061096,4.054765224456787,22.71936286017413,22.089791105939437,90.60771346522284,80.69153026394423,9.70840483205393e-05,0.0923885703086853,0,0,0
7566,261153.2790639269,2010-10-18 17:45:26,4172.104996982094,2,23,0.5501165986061096,4.057193756103516,22.72394928341455,22.089791105939437,90.62631540680492,80.69153026394423,3.24249267578125e-05,0.0923885703086853,0,0,0
7567,261183.29437855145,2010-10-18 17:45:56,4202.120311636695,2,23,0.5501165986061096,4.059621810913086,22.728535726602917,22.089791105939437,90.64492921717948,80.69153026394423,6.47544875391759e-05,0.0923885703086853,0,0,0
7568,261213.309360562,2010-10-18 17:46:26,4232.13529361717,2,23,0.5501165986061096,4.062211990356445,22.7331221424313,22.089791105939437,90.66355443308194,80.69153026394423,6.47544875391759e-05,0.0923885703086853,0,0,0
7569,261243.32451475668,2010-10-18 17:46:56,4262.150447851954,2,23,0.550297200679779,4.064964294433594,22.737708509571043,22.089791105939437,90.68219144158272,80.69153026394423,6.47544875391759e-05,0.0923885703086853,0,0,0
7570,261273.3396432824,2010-10-18 17:47:26,4292.165576367639,2,23,0.5501165986061096,4.067716121673584,22.74229487657865,22.089791105939437,90.700840539876,80.69153026394423,9.70840483205393e-05,0.0923885703086853,0,0,0
7571,261303.3550611643,2010-10-18 17:47:56,4322.180994254527,2,23,0.5499359965324402,4.0701446533203125,22.746881321941288,22.089791105939437,90.71950215070636,80.69153026394423,6.47544875391759e-05,0.0923885703086853,0,0,0
7572,261333.36993802772,2010-10-18 17:48:26,4352.195871118018,2,23,0.5501165986061096,4.072896480560303,22.75146770115226,22.089791105939437,90.73817568712664,80.69153026394423,9.70840483205393e-05,0.0923885703086853,0,0,0
7573,261363.3850930846,2010-10-18 17:48:56,4382.211026164826,2,23,0.5499359965324402,4.075486660003662,22.75605408096023,22.089791105939437,90.75686160168924,80.69153026394423,6.47544875391759e-05,0.0923885703086853,0,0,0
7574,261393.4002359761,2010-10-18 17:49:26,4412.226169046316,2,23,0.5501165986061096,4.078400611877441,22.76064047902485,22.089791105939437,90.77556012566797,80.69153026394423,3.23295607813634e-05,0.0923885703086853,0,0,0
7575,261423.415494566,2010-10-18 17:49:56,4442.241427631173,2,23,0.5499359965324402,4.08115291595459,22.76522691527816,22.089791105939437,90.79427156027518,80.69153026394423,6.47544875391759e-05,0.0923885703086853,0,0,0
7576,261453.430541744,2010-10-18 17:50:26,4472.256474819164,2,23,0.5499359965324402,4.083743095397949,22.769813253180523,22.089791105939437,90.81299530661666,80.69153026394423,3.24249267578125e-05,0.0923885703086853,0,0,0
7577,261483.44580120096,2010-10-18 17:50:56,4502.271734266171,2,23,0.5501165986061096,4.0866570472717285,22.774399687509028,22.089791105939437,90.83173237180488,80.69153026394423,9.71794142969884e-05,0.0923885703086853,0,0,0
7578,261513.460925035,2010-10-18 17:51:26,4532.286858100188,2,23,0.5499359965324402,4.089570999145508,22.778986122894835,22.089791105939437,90.85048236333284,80.69153026394423,9.71794142969884e-05,0.0923885703086853,0,0,0
7579,261543.47594419817,2010-10-18 17:51:56,4562.301877283383,2,23,0.5501165986061096,4.092484951019287,22.783572587878577,22.089791105939437,90.86924561310468,80.69153026394423,9.71794142969884e-05,0.0923885703086853,0,0,0
7580,261573.4911055156,2010-10-18 17:52:26,4592.3170386509455,2,23,0.5501165986061096,4.095398902893066,22.78815896014003,22.089791105939437,90.88802166038954,80.69153026394423,6.47544875391759e-05,0.0923885703086853,0,0,0
7581,261603.50628358976,2010-10-18 17:52:56,4622.33221667502,2,23,0.5499359965324402,4.098150730133057,22.792745391172552,22.089791105939437,90.90681138700371,80.69153026394423,3.23295607813634e-05,0.0923885703086853,0,0,0
7582,261633.5214004364,2010-10-18 17:53:26,4652.347333531648,2,23,0.5501165986061096,4.101226806640625,22.79733180001867,22.089791105939437,90.92561452686866,80.69153026394423,9.71794142969884e-05,0.0923885703086853,0,0,0
7583,261663.53652376911,2010-10-18 17:53:56,4682.362456824316,2,23,0.5501165986061096,4.104302406311035,22.801918171872607,22.089791105939437,90.94443113157244,80.69153026394423,6.47544875391759e-05,0.0923885703086853,0,0,0
7584,261693.55166510172,2010-10-18 17:54:26,4712.377598192033,2,23,0.5501165986061096,4.107054710388184,22.806504573141783,22.089791105939437,90.96326175074616,80.69153026394423,3.24249267578125e-05,0.0923885703086853,0,0,0
7585,261723.5671939001,2010-10-18 17:54:56,4742.393127070545,2,23,0.5499359965324402,4.110292434692383,22.8110910077225,22.089791105939437,90.98210642143088,80.69153026394423,6.47544875391759e-05,0.0923885703086853,0,0,0
7586,261753.58208387627,2010-10-18 17:55:26,4772.408016946467,2,23,0.5501165986061096,4.113368034362793,22.81567725021869,22.089791105939437,91.0009642520685,80.69153026394423,0.0001295089750783,0.0923885703086853,0,0,0
7587,261783.59709134023,2010-10-18 17:55:56,4802.423024455566,2,23,0.5501165986061096,4.116605758666992,22.820263557126477,22.089791105939437,91.0198363630577,80.69153026394423,9.71794142969884e-05,0.0923885703086853,0,0,0
7588,261813.61225712884,2010-10-18 17:56:26,4832.438190214072,2,23,0.5499359965324402,4.119519710540772,22.824849895448672,22.089791105939437,91.0387227656988,80.69153026394423,9.71794142969884e-05,0.0923885703086853,0,0,0
7589,261843.62740162932,2010-10-18 17:56:56,4862.453334724621,2,23,0.5501165986061096,4.122757434844971,22.82943630773605,22.089791105939437,91.05762385727276,80.69153026394423,9.71794142969884e-05,0.0923885703086853,0,0,0
7590,261873.6425384608,2010-10-18 17:57:26,4892.468471505908,2,23,0.5501165986061096,4.12599515914917,22.83402266918356,22.089791105939437,91.07653909018666,80.69153026394423,9.71794142969884e-05,0.0923885703086853,0,0,0
7591,261903.65769727697,2010-10-18 17:57:56,4922.483630342161,2,23,0.5501165986061096,4.12907075881958,22.838609127918257,22.089791105939437,91.09546939870089,80.69153026394423,6.47544875391759e-05,0.0923885703086853,0,0,0
7592,261933.67281924136,2010-10-18 17:58:26,4952.49875229148,2,23,0.550297200679779,4.132308483123779,22.84319614178606,22.089791105939437,91.11441670914546,80.69153026394423,0.0001295089750783,0.0923885703086853,0,0,0
7593,261963.6881546928,2010-10-18 17:58:56,4982.514087747926,2,23,0.5499359965324402,4.135222434997559,22.847783319207306,22.089791105939437,91.13337951465265,80.69153026394423,3.23295607813634e-05,0.0923885703086853,0,0,0
7594,261993.7032292239,2010-10-18 17:59:26,5012.529162279065,2,23,0.550297200679779,4.138622283935547,22.85237041096518,22.089791105939437,91.15235683811824,80.69153026394423,6.47544875391759e-05,0.0923885703086853,0,0,0
7595,262023.71838838092,2010-10-18 17:59:56,5042.544321436118,2,23,0.550297200679779,4.142183780670166,22.85695760465293,22.089791105939437,91.17134961323428,80.69153026394423,0.0001295089750783,0.0923885703086853,0,0,0
7596,262053.733393464,2010-10-18 18:00:26,5072.559326524183,2,23,0.5501165986061096,4.145421504974365,22.861544120328137,22.089791105939437,91.19035476467918,80.69153026394423,6.47544875391759e-05,0.0923885703086853,0,0,0
7597,262083.748563839,2010-10-18 18:00:56,5102.574497014482,2,23,0.5499359965324402,4.1486592292785645,22.86613047963095,22.089791105939437,91.20937482418312,80.69153026394423,6.47544875391759e-05,0.0923885703086853,0,0,0
7598,262113.76368122696,2010-10-18 18:01:26,5132.589614282134,2,23,0.5499359965324402,4.1520586013793945,22.870716818780128,22.089791105939437,91.22841012040132,80.69153026394423,3.23295607813634e-05,0.0923885703086853,0,0,0
7599,262143.77894795217,2010-10-18 18:01:57,5162.604881047379,2,23,0.5499359965324402,4.155458450317383,22.87530321403985,22.089791105939437,91.2474612035978,80.69153026394423,6.47544875391759e-05,0.0923885703086853,0,0,0
7600,262173.793969411,2010-10-18 18:02:27,5192.619902471159,2,23,0.5501165986061096,4.158857822418213,22.87988952167419,22.089791105939437,91.2665275128364,80.69153026394423,6.47544875391759e-05,0.0923885703086853,0,0,0
7601,262203.8092259407,2010-10-18 18:02:57,5222.635159146257,2,23,0.5499359965324402,4.162257671356201,22.88447586723274,22.089791105939437,91.2856097187474,80.69153026394423,6.47544875391759e-05,0.0923885703086853,0,0,0
7602,262233.8242851186,2010-10-18 18:03:27,5252.650218173756,2,23,0.5501165986061096,4.165980815887451,22.889062171429973,22.089791105939437,91.30470768429063,80.69153026394423,9.70840483205393e-05,0.0923885703086853,0,0,0
7603,262263.8393960003,2010-10-18 18:03:57,5282.665329055491,2,23,0.5501165986061096,4.16938066482544,22.89364847790213,22.089791105939437,91.32382178191564,80.69153026394423,6.47544875391759e-05,0.0923885703086853,0,0,0
7604,262293.8546359437,2010-10-18 18:04:27,5312.680569114176,2,23,0.5501165986061096,4.1727800369262695,22.898234834494804,22.089791105939437,91.34295225800192,80.69153026394423,6.47544875391759e-05,0.0923885703086853,0,0,0
7605,262323.8697111866,2010-10-18 18:04:57,5342.695644241802,2,23,0.550297200679779,4.176665306091309,22.90282117507787,22.089791105939437,91.36209897895029,80.69153026394423,9.70840483205393e-05,0.0923885703086853,0,0,0
7606,262353.8848288202,2010-10-18 18:05:27,5372.710761875366,2,23,0.5501165986061096,4.180065155029297,22.907407497661232,22.089791105939437,91.38126205417596,80.69153026394423,6.47544875391759e-05,0.0923885703086853,0,0,0
7607,262383.9000583126,2010-10-18 18:05:57,5402.725991392779,2,23,0.5501165986061096,4.183788299560547,22.911993721055524,22.089791105939437,91.400441150679,80.69153026394423,0.0001295089750783,0.0923885703086853,0,0,0
7608,262413.91508635785,2010-10-18 18:06:27,5432.741019418011,2,23,0.5499359965324402,4.187188148498535,22.916579182558845,22.089791105939437,91.41963342074315,80.69153026394423,6.47544875391759e-05,0.0923885703086853,0,0,0
7609,262443.93034674216,2010-10-18 18:06:57,5462.756279802353,2,23,0.5501165986061096,4.191073417663574,22.92116486928339,22.089791105939437,91.43884335377932,80.69153026394423,9.71794142969884e-05,0.0923885703086853,0,0,0
7610,262473.94551905704,2010-10-18 18:07:27,5492.7714521172,2,23,0.5497553944587708,4.194634914398193,22.92575038265447,22.089791105939437,91.4580693421728,80.69153026394423,6.47544875391759e-05,0.0923885703086853,0,0,0
7611,262503.96052710246,2010-10-18 18:07:57,5522.786460152611,2,23,0.5499359965324402,4.198358058929443,22.93033582354414,22.089791105939437,91.47731198170172,80.69153026394423,9.71794142969884e-05,0.0923885703086853,0,0,0
7612,262516.3355877664,2010-10-18 18:08:09,5535.161520866622,2,23,0.5501165986061096,4.200138568878174,22.93222637871237,22.089791105939437,91.48525062855128,80.69153026394423,0.0001618385285837,0.0923885703086853,0,0,0
7613,262546.3631158056,2010-10-18 18:08:39,30.01517558800395,3,23,0.0,4.111587524414063,22.93222637871237,22.089791105939437,91.48525062855128,80.69153026394423,-0.0004208564641885,0.0923885703086853,0,0,0
7614,262576.37814826187,2010-10-18 18:09:09,60.03020806432957,3,23,0.0,4.100255489349365,22.93222637871237,22.089791105939437,91.48525062855128,80.69153026394423,-0.0002265930233988,0.0923885703086853,0,0,0
7615,262606.3934008468,2010-10-18 18:09:39,90.04546062918351,3,23,0.0,4.093617916107178,22.93222637871237,22.089791105939437,91.48525062855128,80.69153026394423,-0.0001295089750783,0.0923885703086853,0,0,0
7616,262636.3615997144,2010-10-18 18:10:09,120.01365949674572,3,23,0.0,4.089085102081299,22.93222637871237,22.089791105939437,91.48525062855128,80.69153026394423,-0.0001295089750783,0.0923885703086853,0,0,0
7617,262636.37626822974,2010-10-18 18:10:09,0.015794294241031,4,23,1.0025428533554075,4.199814796447754,22.932230777172503,22.089791105939437,91.4852691012692,80.69153026394423,0.0,0.0923885703086853,0,0,0
7618,262637.219853995,2010-10-18 18:10:10,0.859380014420556,4,23,0.951972246170044,4.199814796447754,22.93245810368651,22.089791105939437,91.48622382344688,80.69153026394423,0.0,0.0923885703086853,0,0,0
7619,262639.3136366306,2010-10-18 18:10:12,2.95316268006416,4,23,0.9019435048103333,4.199653148651123,22.93299627079839,22.089791105939437,91.48848401237086,80.69153026394423,-3.23295607813634e-05,0.0923885703086853,0,0,0
7620,262642.50117100705,2010-10-18 18:10:16,6.140697041472593,4,23,0.8519147038459778,4.199814796447754,22.93377166544809,22.089791105939437,91.49174050858312,80.69153026394423,0.0,0.0923885703086853,0,0,0
7621,262646.82906016853,2010-10-18 18:10:20,10.46858617284617,4,23,0.8018859624862671,4.199814796447754,22.934764501236163,22.089791105939437,91.49591022097434,80.69153026394423,3.23295607813634e-05,0.0923885703086853,0,0,0
7622,262652.4852921991,2010-10-18 18:10:25,16.124818233520465,4,23,0.7518571615219116,4.199976921081543,22.93598348665084,22.089791105939437,91.50102974056652,80.69153026394423,3.24249267578125e-05,0.0923885703086853,0,0,0
7623,262659.7823037672,2010-10-18 18:10:33,23.421829926894723,4,23,0.7018284201622009,4.199814796447754,22.93745456693601,22.089791105939437,91.50720801324393,80.69153026394423,0.0,0.0923885703086853,0,0,0
7624,262669.39120196307,2010-10-18 18:10:42,33.03072797240815,4,23,0.651619017124176,4.199814796447754,22.93925799962188,22.089791105939437,91.51478210178382,80.69153026394423,-3.24249267578125e-05,0.0923885703086853,0,0,0
7625,262682.7347335645,2010-10-18 18:10:56,46.3742595788735,4,23,0.6015902757644653,4.199814796447754,22.94157593660853,22.089791105939437,91.5245170300024,80.69153026394423,3.23295607813634e-05,0.0923885703086853,0,0,0
7626,262702.82824303774,2010-10-18 18:11:16,66.46776908217404,4,23,0.5515614748001099,4.199814796447754,22.94478447842289,22.089791105939437,91.5379923770178,80.69153026394423,0.0,0.0923885703086853,0,0,0
7627,262736.4526418606,2010-10-18 18:11:49,100.09216789498444,4,23,0.5015327334403992,4.199814796447754,22.949681637863,22.089791105939437,91.55855960360634,80.69153026394423,3.23295607813634e-05,0.0923885703086853,0,0,0
7628,262799.3109939851,2010-10-18 18:12:52,162.95052002452263,4,23,0.4511427283287048,4.199653148651123,22.957961172604183,22.089791105939437,91.59333215630038,80.69153026394423,-3.23295607813634e-05,0.0923885703086853,0,0,0
7629,262900.1376601407,2010-10-18 18:14:33,263.777186280422,4,23,0.4009333550930023,4.199814796447754,22.96986844475585,22.089791105939437,91.64334057436606,80.69153026394423,0.0,0.0923885703086853,0,0,0
7630,263029.0417164067,2010-10-18 18:16:42,392.68124245619856,4,23,0.3509045839309692,4.199814796447754,22.98331430978513,22.089791105939437,91.6998108839502,80.69153026394423,0.0,0.0923885703086853,0,0,0
7631,263182.63294933306,2010-10-18 18:19:16,546.2724753674543,4,23,0.3006952106952667,4.199814796447754,22.99719951727313,22.089791105939437,91.75812631224038,80.69153026394423,3.23295607813634e-05,0.0923885703086853,0,0,0
7632,263367.9268658866,2010-10-18 18:22:21,731.5663920212684,4,23,0.2506664395332336,4.199653148651123,23.011369171000705,22.089791105939437,91.81763639093626,80.69153026394423,-3.23295607813634e-05,0.0923885703086853,0,0,0
7633,263594.9857071583,2010-10-18 18:26:08,958.625233167664,4,23,0.2004570513963699,4.199653148651123,23.02556693873746,22.089791105939437,91.87726444640316,80.69153026394423,-3.23295607813634e-05,0.0923885703086853,0,0,0
7634,263893.35606043995,2010-10-18 18:31:06,1256.9955864543167,4,23,0.1504282802343368,4.199653148651123,23.04005176608945,22.089791105939437,91.93809813962406,80.69153026394423,-3.23295607813634e-05,0.0923885703086853,0,0,0
7635,264324.3959930998,2010-10-18 18:38:17,1688.035519104152,4,23,0.1003995165228843,4.199814796447754,23.054905064434035,22.089791105939437,92.0004793309564,80.69153026394423,0.0,0.0923885703086853,0,0,0
7636,265115.9145536619,2010-10-18 18:51:29,2479.5540796812825,4,23,0.0503707453608512,4.199814796447754,23.07083732702561,22.089791105939437,92.06739198258114,80.69153026394423,0.0,0.0923885703086853,0,0,0
7637,265128.82059410075,2010-10-18 18:51:42,2492.460120115133,4,23,0.0498289167881011,4.199814796447754,23.071018398434138,22.089791105939437,92.06815245117215,80.69153026394423,0.0,0.0923885703086853,0,0,0
7638,265158.84339766524,2010-10-18 18:52:12,30.01524541703939,5,23,0.0,4.191558837890625,23.071018398434138,22.089791105939437,92.06815245117215,80.69153026394423,-6.47544875391759e-05,0.0923885703086853,0,0,0
7639,265188.8429426018,2010-10-18 18:52:42,60.01479036868812,5,23,0.0,4.1901021003723145,23.071018398434138,22.089791105939437,92.06815245117215,80.69153026394423,-3.23295607813634e-05,0.0923885703086853,0,0,0
7640,265189.0388777878,2010-10-18 18:52:42,0.187434318995034,6,23,-1.9243103452026844e-05,4.190263748168945,23.071018398434138,22.089791106941327,92.06815245117215,80.69153026814242,0.0,0.0956302732229232,0,0,0
7641,265193.8669475883,2010-10-18 18:52:47,5.015504114485333,6,23,0.0008838032954372,4.1901021003723145,23.07101937105041,22.089791107025103,92.06815652672417,80.69153026849347,-6.47544875391759e-05,0.0956302732229232,0,0,0
7642,265223.8907149923,2010-10-18 18:53:17,30.01506823043585,7,23,-1.099568486213684,4.004742622375488,23.07101937105041,22.098958223433907,92.06815652672417,80.72845141620903,-0.0010037422180175,0.0956302732229232,0,0,0
7643,265253.90598248935,2010-10-18 18:53:47,60.03033574254296,7,23,-1.0993878841400146,3.975765228271485,23.07101937105041,22.10812532439072,92.06815652672417,80.7650206254285,-0.0006151676061563,0.0956302732229232,0,0,0
7644,265283.9210142789,2010-10-18 18:54:17,90.04536752213208,7,23,-1.099568486213684,3.9555294513702393,23.07101937105041,22.117292270750923,92.06815652672417,80.80136785976617,-0.0004209041653666,0.0956302732229232,0,0,0
7645,265313.93640511844,2010-10-18 18:54:47,120.0607583866714,7,23,-1.0993878841400146,3.939988374710083,23.07101937105041,22.126459292499597,92.06815652672417,80.83755377906175,-0.0003561496851034,0.0956302732229232,0,0,0
7646,265343.9514188932,2010-10-18 18:55:17,150.07577222654925,7,23,-1.099568486213684,3.927037477493286,23.07101937105041,22.135626230963464,92.06815652672417,80.87361057859549,-0.0003237724304199,0.0956302732229232,0,0,0
7647,265373.9664387129,2010-10-18 18:55:47,180.09079199119344,7,23,-1.0993878841400146,3.916029214859009,23.07101937105041,22.14479318798233,92.06815652672417,80.90955850186013,-0.0002590179501567,0.0956302732229232,0,0,0
7648,265403.9815906871,2010-10-18 18:56:17,210.10594392524445,7,23,-1.099568486213684,3.9059925079345694,23.07101937105041,22.153960184628936,92.06815652672417,80.94540974888253,-0.0002590179501567,0.0956302732229232,0,0,0
7649,265433.9967026816,2010-10-18 18:56:47,240.1210559498288,7,23,-1.0993878841400146,3.8966031074523926,23.07101937105041,22.16312722222856,92.06815652672417,80.98117139570824,-0.0001942634553415,0.0956302732229232,0,0,0
7650,265464.0118289567,2010-10-18 18:57:17,270.1361822299423,7,23,-1.099568486213684,3.8875374794006343,23.07101937105041,22.172294226139886,92.06815652672417,81.0168489760899,-0.0002266406954731,0.0956302732229232,0,0,0
7651,265494.02716919006,2010-10-18 18:57:47,300.1515224783306,7,23,-1.099568486213684,3.878795623779297,23.07101937105041,22.18146131308292,92.06815652672417,81.05244611991704,-0.0002590179501567,0.0956302732229232,0,0,0
7652,265524.04216710024,2010-10-18 18:58:17,330.16652037346927,7,23,-1.099568486213684,3.870377540588379,23.07101937105041,22.190628211991363,92.06815652672417,81.0879641605516,-0.0002266406954731,0.0956302732229232,0,0,0
7653,265554.05732019217,2010-10-18 18:58:47,360.1816734453561,7,23,-1.099568486213684,3.862121343612671,23.07101937105041,22.19979524802077,92.06815652672417,81.1234057746736,-0.0002266406954731,0.0956302732229232,0,0,0
7654,265584.07257510285,2010-10-18 18:59:17,390.1969284563066,7,23,-1.099568486213684,3.854027032852173,23.07101937105041,22.20896232251025,92.06815652672417,81.15877224491148,-0.0001942634553415,0.0956302732229232,0,0,0
7655,265614.0875811884,2010-10-18 18:59:47,420.2119344616583,7,23,-1.0993878841400146,3.845770835876465,23.07101937105041,22.21812919662771,92.06815652672417,81.19406392237049,-0.0002266406954731,0.0956302732229232,0,0,0
7656,265644.10273572395,2010-10-18 19:00:17,450.2270889671181,7,23,-1.0993878841400146,3.8380002975463863,23.07101937105041,22.227295518166084,92.06815652672417,81.2292806027396,-0.0002266406954731,0.0956302732229232,0,0,0
7657,265674.1178578336,2010-10-18 19:00:47,480.24221110691263,7,23,-1.0993878841400146,3.830229997634888,23.07101937105041,22.236461855797053,92.06815652672417,81.2644258118541,-0.0001942634553415,0.0956302732229232,0,0,0
7658,265704.13312806253,2010-10-18 19:01:17,510.2574813408032,7,23,-1.0993878841400146,3.82262134552002,23.07101937105041,22.245628974395824,92.06815652672417,81.29950346482742,-0.0002266406954731,0.0956302732229232,0,0,0
7659,265734.14819053863,2010-10-18 19:01:48,540.2725437868226,7,23,-1.099568486213684,3.815174579620361,23.07101937105041,22.254795946693196,92.06815652672417,81.33451154722741,-0.0002266406954731,0.0956302732229232,0,0,0
7660,265764.1633315004,2010-10-18 19:02:18,570.2876847485271,7,23,-1.099568486213684,3.807565927505493,23.07101937105041,22.263963017367978,92.06815652672417,81.36945176775802,-0.0002266406954731,0.0956302732229232,0,0,0
7661,265794.17848971003,2010-10-18 19:02:48,600.302842958219,7,23,-1.099568486213684,3.800766706466675,23.07101937105041,22.273130049723537,92.06815652672417,81.40432529335146,-0.0001618862152099,0.0956302732229232,0,0,0
7662,265824.1936704659,2010-10-18 19:03:18,630.3180237141028,7,23,-1.099568486213684,3.793643712997437,23.07101937105041,22.282297115233348,92.06815652672417,81.43913399978396,-0.0001942634553415,0.0956302732229232,0,0,0
7663,265854.20875782403,2010-10-18 19:03:48,660.3331110722107,7,23,-1.099568486213684,3.786682605743408,23.07101937105041,22.29146409680529,92.06815652672417,81.4738780757463,-0.0001618862152099,0.0956302732229232,0,0,0
7664,265884.22391010897,2010-10-18 19:04:18,690.3482633922238,7,23,-1.0997490882873535,3.77972149848938,23.07101937105041,22.30063119755496,92.06815652672417,81.50855996013044,-0.0002266406954731,0.0956302732229232,0,0,0
7665,265914.2390814464,2010-10-18 19:04:48,720.3634347296338,7,23,-1.0997490882873535,3.773084163665772,23.07101937105041,22.309798304228117,92.06815652672417,81.54318019783345,-0.0002266406954731,0.0956302732229232,0,0,0
7666,265944.25418897474,2010-10-18 19:05:18,750.3785422479872,7,23,-1.099568486213684,3.766608715057373,23.07101937105041,22.31896534288539,92.06815652672417,81.57773979945208,-0.0001942634553415,0.0956302732229232,0,0,0
7667,265974.269332548,2010-10-18 19:05:48,780.3936857961381,7,23,-1.099568486213684,3.760133266448975,23.07101937105041,22.3281324054052,92.06815652672417,81.61224000281217,-0.0001942634553415,0.0956302732229232,0,0,0
7668,266004.28448078776,2010-10-18 19:06:18,810.4088340309695,7,23,-1.0993878841400146,3.753981590270996,23.07101937105041,22.33729949470225,92.06815652672417,81.64668184291338,-0.0001618862152099,0.0956302732229232,0,0,0
7669,266034.2996516039,2010-10-18 19:06:48,840.4240048721431,7,23,-1.0993878841400146,3.747992038726807,23.07101937105041,22.346466617268167,92.06815652672417,81.68106745847659,-0.0001942634553415,0.0956302732229232,0,0,0
7670,266064.3147614831,2010-10-18 19:07:18,870.4391147313304,7,23,-1.099568486213684,3.741840362548828,23.07101937105041,22.355633724557418,92.06815652672417,81.71539766731476,-0.0001942634553415,0.0956302732229232,0,0,0
7671,266094.3299200236,2010-10-18 19:07:48,900.4542733921465,7,23,-1.099568486213684,3.7360124588012695,23.07101937105041,22.36480084919352,92.06815652672417,81.74967284450699,-0.0001618862152099,0.0956302732229232,0,0,0
7672,266124.34505355184,2010-10-18 19:08:18,930.4694068300996,7,23,-1.0993878841400146,3.730184555053711,23.07101937105041,22.37396800297926,92.06815652672417,81.7838947664012,-0.0001618862152099,0.0956302732229232,0,0,0
7673,266154.3603584271,2010-10-18 19:08:48,960.4847117153522,7,23,-1.0993878841400146,3.724680423736572,23.07101937105041,22.38313516719193,92.06815652672417,81.81806471182021,-0.0001618862152099,0.0956302732229232,0,0,0
7674,266184.375330137,2010-10-18 19:09:18,990.4996834202168,7,23,-1.099568486213684,3.719014406204224,23.07101937105041,22.3923022176586,92.06815652672417,81.85218238022705,-0.0001295089750783,0.0956302732229232,0,0,0
7675,266214.3904746425,2010-10-18 19:09:48,1020.5148279207408,7,23,-1.0993878841400146,3.713348388671875,23.07101937105041,22.401469371047448,92.06815652672417,81.88624910939626,-0.0001618862152099,0.0956302732229232,0,0,0
7676,266244.4056426416,2010-10-18 19:10:18,1050.5299959047934,7,23,-1.099568486213684,3.708168029785156,23.07101937105041,22.41063649060276,92.06815652672417,81.9202658609306,-9.713172767078504e-05,0.0956302732229232,0,0,0
7677,266274.42078940774,2010-10-18 19:10:48,1080.545142665952,7,23,-1.099568486213684,3.702502012252808,23.07101937105041,22.419803532132228,92.06815652672417,81.95423294158725,-0.0001618862152099,0.0956302732229232,0,0,0
7678,266304.4385838527,2010-10-18 19:11:18,1110.5629371410284,7,23,-1.099568486213684,3.697321653366089,23.07101937105041,22.42897143139424,92.06815652672417,81.98815430712307,-0.0001295089750783,0.0956302732229232,0,0,0
7679,266334.45106269966,2010-10-18 19:11:48,1140.5754159478238,7,23,-1.099568486213684,3.69214129447937,23.07101937105041,22.43813782720956,92.06815652672417,82.02202185751948,-0.0001618862152099,0.0956302732229232,0,0,0
7680,266364.46620104986,2010-10-18 19:12:18,1170.5905543230822,7,23,-1.0993878841400146,3.6869609355926514,23.07101937105041,22.447304975959423,92.06815652672417,82.05584495786255,-0.0001295089750783,0.0956302732229232,0,0,0
7681,266394.4813765627,2010-10-18 19:12:48,1200.6057298358987,7,23,-1.099568486213684,3.682104349136353,23.07101937105041,22.456472098871107,92.06815652672417,82.08962224746523,-0.0001295089750783,0.0956302732229232,0,0,0
7682,266424.4964797903,2010-10-18 19:13:18,1230.6208330635584,7,23,-1.0992072820663452,3.6772477626800537,23.07101937105041,22.465639267863377,92.06815652672417,82.12335408282098,-9.713172767078504e-05,0.0956302732229232,0,0,0
7683,266454.5116378847,2010-10-18 19:13:48,1260.6359911529505,7,23,-1.099568486213684,3.672229528427124,23.07101937105041,22.47480648852376,92.06815652672417,82.15704040323915,-9.70840483205393e-05,0.0956302732229232,0,0,0
7684,266484.52677369857,2010-10-18 19:14:18,1290.651126946775,7,23,-1.099568486213684,3.6672110557556152,23.07101937105041,22.48397362546393,92.06815652672417,82.19068128375497,-9.713172767078504e-05,0.0956302732229232,0,0,0
7685,266514.542037326,2010-10-18 19:14:48,1320.6663905792127,7,23,-1.0993878841400146,3.662678241729736,23.07101937105041,22.493140835149607,92.06815652672417,82.22427870021772,-9.713172767078504e-05,0.0956302732229232,0,0,0
7686,266544.5571810145,2010-10-18 19:15:18,1350.681534262701,7,23,-1.0997490882873535,3.6578216552734375,23.07101937105041,22.5023080074949,92.06815652672417,82.25783339390576,-0.0001618862152099,0.0956302732229232,0,0,0
7687,266574.5721840675,2010-10-18 19:15:48,1380.6965373156945,7,23,-1.099568486213684,3.653288841247559,23.07101937105041,22.511475086345285,92.06815652672417,82.2913455671796,-0.0001618862152099,0.0956302732229232,0,0,0
7688,266604.5873343725,2010-10-18 19:16:18,1410.7116876156729,7,23,-1.099568486213684,3.6485941410064697,23.07101937105041,22.520642261783955,92.06815652672417,82.32481569350097,-0.0001618862152099,0.0956302732229232,0,0,0
7689,266634.6024882263,2010-10-18 19:16:48,1440.7268414695086,7,23,-1.099568486213684,3.644061326980591,23.07101937105041,22.529809272102668,92.06815652672417,82.3582430245236,-0.0001618862152099,0.0956302732229232,0,0,0
7690,266664.6176383208,2010-10-18 19:17:18,1470.7419915689873,7,23,-1.099568486213684,3.639690399169922,23.07101937105041,22.538976330169668,92.06815652672417,82.391629804783,-0.0001295089750783,0.0956302732229232,0,0,0
7691,266694.63275341806,2010-10-18 19:17:48,1500.7571066562048,7,23,-1.099568486213684,3.635481357574463,23.07101937105041,22.548143353842956,92.06815652672417,82.42497637009495,-9.713172767078504e-05,0.0956302732229232,0,0,0
7692,266724.6479047005,2010-10-18 19:18:18,1530.7722579737192,7,23,-1.099568486213684,3.631110429763794,23.07101937105041,22.557310458175188,92.06815652672417,82.45828376984235,-0.0001295089750783,0.0956302732229232,0,0,0
7693,266754.6631858666,2010-10-18 19:18:48,1560.7875391248187,7,23,-1.0997490882873535,3.627063274383545,23.07101937105041,22.56647759557421,92.06815652672417,82.49155254482439,-9.713172767078504e-05,0.0956302732229232,0,0,0
7694,266784.6781869146,2010-10-18 19:19:18,1590.802540157778,7,23,-1.0997490882873535,3.622854232788086,23.07101937105041,22.575644609095075,92.06815652672417,82.52478249080103,-0.0001295089750783,0.0956302732229232,0,0,0
7695,266814.6936183252,2010-10-18 19:19:48,1620.8179716084703,7,23,-1.0993878841400146,3.618968963623047,23.07101937105041,22.58481179056656,92.06815652672417,82.55797573037535,-9.713172767078504e-05,0.0956302732229232,0,0,0
7696,266844.70848690305,2010-10-18 19:20:18,1650.8328401612482,7,23,-1.099568486213684,3.614759922027588,23.07101937105041,22.593978816542187,92.06815652672417,82.59113169588235,-0.0001295089750783,0.0956302732229232,0,0,0
7697,266874.7236826914,2010-10-18 19:20:48,1680.8480360297972,7,23,-1.0993878841400146,3.611036539077759,23.07101937105041,22.60314603045908,92.06815652672417,82.62425239886906,-0.0001295089750783,0.0956302732229232,0,0,0
7698,266904.7387555333,2010-10-18 19:21:18,1710.8631087764893,7,23,-1.0993878841400146,3.60715126991272,23.07101937105041,22.61231315020195,92.06815652672417,82.65733731709899,-9.713172767078504e-05,0.0956302732229232,0,0,0
7699,266934.7539005702,2010-10-18 19:21:48,1740.8782538183627,7,23,-1.099568486213684,3.6035897731781006,23.07101937105041,22.62148024435782,92.06815652672417,82.69038772299872,-9.713172767078504e-05,0.0956302732229232,0,0,0
7700,266964.7690826845,2010-10-18 19:22:18,1770.8934359276195,7,23,-1.0993878841400146,3.600028276443481,23.07101937105041,22.630647385789864,92.06815652672417,82.72340522626016,-6.47544875391759e-05,0.0956302732229232,0,0,0
7701,266994.78432688845,2010-10-18 19:22:48,1800.9086801466733,7,23,-1.099568486213684,3.5963048934936523,23.07101937105041,22.6398145273768,92.06815652672417,82.75638971664786,-9.713172767078504e-05,0.0956302732229232,0,0,0
7702,267024.79932869336,2010-10-18 19:23:18,1830.923681931506,7,23,-1.099568486213684,3.592905282974243,23.07101937105041,22.648981607046156,92.06815652672417,82.78934210430538,-9.713172767078504e-05,0.0956302732229232,0,0,0
7703,267054.8144685573,2010-10-18 19:23:48,1860.938821795475,7,23,-1.0993878841400146,3.589344024658203,23.07101937105041,22.658148748486585,92.06815652672417,82.82226317484862,-0.0001295089750783,0.0956302732229232,0,0,0
7704,267084.8296408772,2010-10-18 19:24:18,1890.9539941454088,7,23,-1.0993878841400146,3.586268186569214,23.07101937105041,22.66731594132503,92.06815652672417,82.85515292412548,-3.237724376958795e-05,0.0956302732229232,0,0,0
7705,267114.844813999,2010-10-18 19:24:48,1920.969167267266,7,23,-1.0993878841400146,3.5828685760498047,23.07101937105041,22.67648306302417,92.06815652672417,82.88801187161043,-9.713172767078504e-05,0.0956302732229232,0,0,0
7706,267144.8598963045,2010-10-18 19:25:18,1950.9842495527312,7,23,-1.0997490882873535,3.5794689655303955,23.07101937105041,22.68565026218509,92.06815652672417,82.92084127396117,-9.713172767078504e-05,0.0956302732229232,0,0,0
7707,267174.8751666788,2010-10-18 19:25:48,1980.999519967072,7,23,-1.0993878841400146,3.5762312412261963,23.07101937105041,22.694817563824067,92.06815652672417,82.95364120067244,-6.47544875391759e-05,0.0956302732229232,0,0,0
7708,267204.890182248,2010-10-18 19:26:18,2011.0145355262343,7,23,-1.099568486213684,3.573155403137207,23.07101937105041,22.70398474511608,92.06815652672417,82.9864108523142,-9.713172767078504e-05,0.0956302732229232,0,0,0
7709,267234.9055407468,2010-10-18 19:26:48,2041.029894015084,7,23,-1.099568486213684,3.569755792617798,23.07101937105041,22.71315206708017,92.06815652672417,83.01915132697437,-9.713172767078504e-05,0.0956302732229232,0,0,0
7710,267264.9206453279,2010-10-18 19:27:18,2071.0449985760665,7,23,-1.099568486213684,3.5666799545288086,23.07101937105041,22.722319285693665,92.06815652672417,83.05186210925993,-9.713172767078504e-05,0.0956302732229232,0,0,0
7711,267294.93565223046,2010-10-18 19:27:48,2101.060005473642,7,23,-1.099568486213684,3.5634422302246094,23.07101937105041,22.731486466718525,92.06815652672417,83.08454386878579,-9.713172767078504e-05,0.0956302732229232,0,0,0
7712,267324.95075125265,2010-10-18 19:28:18,2131.075104490808,7,23,-1.099568486213684,3.56036639213562,23.07101937105041,22.740653613481925,92.06815652672417,83.11719798971892,-9.713172767078504e-05,0.0956302732229232,0,0,0
7713,267354.9659012268,2010-10-18 19:28:48,2161.0902544649744,7,23,-1.099568486213684,3.557452440261841,23.07101937105041,22.7498208050931,92.06815652672417,83.14982375083018,-6.47544875391759e-05,0.0956302732229232,0,0,0
7714,267384.9810360482,2010-10-18 19:29:18,2191.1053893164503,7,23,-1.0992072820663452,3.554376602172852,23.07101937105041,22.75898804531152,92.06815652672417,83.18242132731609,-6.47544875391759e-05,0.0956302732229232,0,0,0
7715,267414.99619856867,2010-10-18 19:29:48,2221.1205518218485,7,23,-1.0997490882873535,3.5511388778686523,23.07101937105041,22.76815525338084,92.06815652672417,83.21499006857069,-9.713172767078504e-05,0.0956302732229232,0,0,0
7716,267445.0113224728,2010-10-18 19:30:18,2251.135675836315,7,23,-1.099568486213684,3.548063039779663,23.07101937105041,22.77732246771226,92.06815652672417,83.2475304102452,-6.47544875391759e-05,0.0956302732229232,0,0,0
7717,267475.0264831437,2010-10-18 19:30:48,2281.150836386841,7,23,-1.0993878841400146,3.544987201690674,23.07101937105041,22.78648965993111,92.06815652672417,83.28004184953103,-6.47544875391759e-05,0.0956302732229232,0,0,0
7718,267505.04184183804,2010-10-18 19:31:18,2311.16619511629,7,23,-1.0997490882873535,3.5415875911712646,23.07101937105041,22.79565695622271,92.06815652672417,83.31252458662041,-0.0001295089750783,0.0956302732229232,0,0,0
7719,267535.05674425024,2010-10-18 19:31:48,2341.1810974933683,7,23,-1.0997490882873535,3.538349866867065,23.07101937105041,22.804824151050543,92.06815652672417,83.34497750837704,-9.713172767078504e-05,0.0956302732229232,0,0,0
7720,267565.0718914324,2010-10-18 19:32:18,2371.1962447056508,7,23,-1.099568486213684,3.535274028778076,23.07101937105041,22.81399136985497,92.06815652672417,83.37740073378575,-9.713172767078504e-05,0.0956302732229232,0,0,0
7721,267595.0870747597,2010-10-18 19:32:48,2401.211428088081,7,23,-1.0992072820663452,3.532036304473877,23.07101937105041,22.82315864287805,92.06815652672417,83.40979412446791,-3.237724376958795e-05,0.0956302732229232,0,0,0
7722,267625.1021773257,2010-10-18 19:33:18,2431.226530593942,7,23,-1.0993878841400146,3.528636693954468,23.07101937105041,22.832325866783428,92.06815652672417,83.44215725757151,-6.47544875391759e-05,0.0956302732229232,0,0,0
7723,267655.1174469481,2010-10-18 19:33:49,2461.2418002012705,7,23,-1.0997490882873535,3.5250751972198486,23.07101937105041,22.841493163010337,92.06815652672417,83.4744896439312,-9.713172767078504e-05,0.0956302732229232,0,0,0
7724,267685.13246115384,2010-10-18 19:34:19,2491.256814392023,7,23,-1.0993878841400146,3.5218374729156494,23.07101937105041,22.850660266946573,92.06815652672417,83.50679030900204,-6.47544875391759e-05,0.0956302732229232,0,0,0
7725,267715.14760875213,2010-10-18 19:34:49,2521.271962000293,7,23,-1.099568486213684,3.5182759761810303,23.07101937105041,22.85982748114789,92.06815652672417,83.53905935419307,-9.713172767078504e-05,0.0956302732229232,0,0,0
7726,267745.1627290774,2010-10-18 19:35:19,2551.2870823255653,7,23,-1.0993878841400146,3.514552593231201,23.07101937105041,22.868994675440597,92.06815652672417,83.57129491406906,-9.713172767078504e-05,0.0956302732229232,0,0,0
7727,267775.17781261593,2010-10-18 19:35:49,2581.302165889216,7,23,-1.099568486213684,3.510667562484741,23.07101937105041,22.87816190223104,92.06815652672417,83.60349585449369,-9.713172767078504e-05,0.0956302732229232,0,0,0
7728,267805.1931424935,2010-10-18 19:36:19,2611.317495751719,7,23,-1.0993878841400146,3.506782293319702,23.07101937105041,22.887329245086807,92.06815652672417,83.6356610628907,-3.237724376958795e-05,0.0956302732229232,0,0,0
7729,267835.20816999243,2010-10-18 19:36:49,2641.332523240615,7,23,-1.0997490882873535,3.5022494792938232,23.07101937105041,22.896496519362383,92.06815652672417,83.66778759282414,-0.0001618862152099,0.0956302732229232,0,0,0
7730,267865.2233033151,2010-10-18 19:37:19,2671.347656613406,7,23,-1.0997490882873535,3.4977166652679443,23.07101937105041,22.90566378179319,92.06815652672417,83.69987406141595,-0.0001618862152099,0.0956302732229232,0,0,0
7731,267895.2384026931,2010-10-18 19:37:49,2701.362755941346,7,23,-1.099568486213684,3.4930219650268555,23.07101937105041,22.91483105753517,92.06815652672417,83.73191830581544,-0.0001295089750783,0.0956302732229232,0,0,0
7732,267925.2536173385,2010-10-18 19:38:19,2731.3779706017303,7,23,-1.099568486213684,3.4880034923553467,23.07101937105041,22.92399829071201,92.06815652672417,83.76391695064578,-0.0001295089750783,0.0956302732229232,0,0,0
7733,267955.26887698605,2010-10-18 19:38:49,2761.393230264274,7,23,-1.0993878841400146,3.482337474822998,23.07101937105041,22.933165625703445,92.06815652672417,83.79586695275873,-0.0001618862152099,0.0956302732229232,0,0,0
7734,267985.2838934424,2010-10-18 19:39:19,2791.4082467056355,7,23,-1.099568486213684,3.4760239124298096,23.07101937105041,22.942332802437097,92.06815652672417,83.8277615133042,-0.0001942634553415,0.0956302732229232,0,0,0
7735,268015.2991528443,2010-10-18 19:39:49,2821.42350608748,7,23,-1.099568486213684,3.469062805175781,23.07101937105041,22.95150001863677,92.06815652672417,83.85959642255659,-0.0001942634553415,0.0956302732229232,0,0,0
7736,268045.3141693709,2010-10-18 19:40:19,2851.438522609041,7,23,-1.0993878841400146,3.461454153060913,23.07101937105041,22.960667205414943,92.06815652672417,83.89136395905619,-0.0002266406954731,0.0956302732229232,0,0,0
7737,268075.32935494377,2010-10-18 19:40:49,2881.45370820198,7,23,-1.099568486213684,3.452712297439575,23.07101937105041,22.969834475022896,92.06815652672417,83.9230558298734,-0.0001942634553415,0.0956302732229232,0,0,0
7738,268105.34459150373,2010-10-18 19:41:19,2911.4689447569326,7,23,-1.099568486213684,3.442189693450928,23.07101937105041,22.979001726366462,92.06815652672417,83.9546602111322,-0.0002913951757363,0.0956302732229232,0,0,0
7739,268135.35962148383,2010-10-18 19:41:49,2941.483974757087,7,23,-1.0993878841400146,3.4302103519439697,23.07101937105041,22.98816895792613,92.06815652672417,83.98616172357352,-0.0003237247583456,0.0956302732229232,0,0,0
7740,268165.37475618493,2010-10-18 19:42:19,2971.499109468213,7,23,-1.0993878841400146,3.4154787063598637,23.07101937105041,22.997336183957938,92.06815652672417,84.01754138173273,-0.0004532813909463,0.0956302732229232,0,0,0
7741,268195.39021500887,2010-10-18 19:42:49,3001.5145683773408,7,23,-1.099568486213684,3.397671222686768,23.07101937105041,23.006503596593227,92.06815652672417,84.04877432606276,-0.0005504131549969,0.0956302732229232,0,0,0
7742,268225.4087808364,2010-10-18 19:43:19,3031.533134234939,7,23,-1.0993878841400146,3.375978469848633,23.07101937105041,23.015671829342285,92.06815652672417,84.07983017788423,-0.0006151676061563,0.0956302732229232,0,0,0
7743,268255.42022722505,2010-10-18 19:43:49,3061.544580498319,7,23,-1.0993878841400146,3.347324848175049,23.07101937105041,23.02483765286003,92.06815652672417,84.1106477285302,-0.0008093834039755,0.0956302732229232,0,0,0
7744,268285.4353543523,2010-10-18 19:44:19,3091.5597076155186,7,23,-1.0993878841400146,3.309119701385498,23.07101937105041,23.034004624719305,92.06815652672417,84.14116647488864,-0.0011332035064697,0.0956302732229232,0,0,0
7745,268315.4505148677,2010-10-18 19:44:49,3121.574868166045,7,23,-1.099568486213684,3.25634503364563,23.07101937105041,23.043171561379644,92.06815652672417,84.17127275073283,-0.0015864849556237,0.0956302732229232,0,0,0
7746,268345.46563436097,2010-10-18 19:45:19,3151.589987619143,7,23,-1.099568486213684,3.179773092269897,23.07101937105041,23.052338661630177,92.06815652672417,84.20079549914611,-0.0023634911049157,0.0956302732229232,0,0,0
7747,268375.4807736585,2010-10-18 19:45:49,3181.6051269317377,7,23,-1.099568486213684,3.062567710876465,23.07101937105041,23.06150592303162,92.06815652672417,84.22944955150847,-0.0037881373427808,0.0956302732229232,0,0,0
7748,268403.24594987574,2010-10-18 19:46:17,3209.370303149002,7,23,-1.0992072820663452,2.8624770641326904,23.07101937105041,23.069986026583404,92.06815652672417,84.25467549651492,-0.0077381134033203,0.0956302732229232,0,0,0
7749,268416.74573775096,2010-10-18 19:46:30,3222.870091034193,7,23,-1.099568486213684,2.699620008468628,23.07101937105041,23.07410918138149,92.06815652672417,84.26615833827417,-0.0105225564911961,0.0956302732229232,0,0,0
7750,268476.7585475247,2010-10-18 19:47:30,60.01486627787717,8,23,0.0,3.3782448768615723,23.07101937105041,23.07410918138149,92.06815652672417,84.26615833827417,0.0013274669181555,0.0956302732229232,0,0,0
7751,268476.9604898426,2010-10-18 19:47:31,0.187612467997162,9,23,-1.9243103452026844e-05,3.3784067630767822,23.07101937105041,23.074109182384337,92.06815652672417,84.26615834166219,0.0,0.0923051163554191,0,0,0
7752,268481.78850689664,2010-10-18 19:47:35,5.015629471914618,9,23,0.0003419754502829,3.3865010738372803,23.07101992058989,23.074109182884705,92.06815838580953,84.26615834335479,0.0011332035064697,0.0923051163554191,0,0,0
