Data_Point,Test_Time(s),Date_Time,Step_Time(s),Step_Index,Cycle_Index,Current(A),Voltage(V),Charge_Capacity(Ah),Discharge_Capacity(Ah),Charge_Energy(Wh),Discharge_Energy(Wh),dV/dt(V/s),Internal_Resistance(Ohm),Is_FC_Data,AC_Impedance(Ohm),ACI_Phase_Angle(Deg)
10398,361334.0721748941,2010-10-19 21:35:18,30.01516783367778,1,32,0.0,3.3818063735961914,30.96983989777826,30.981642580271807,123.64934421874486,113.05218634127274,0.0007770538213662,0.0900387018918991,0,0,0
10399,361364.0875423152,2010-10-19 21:35:48,60.03053524977637,1,32,0.0,3.4072225093841557,30.96983989777826,30.981642580271807,123.64934421874486,113.05218634127274,0.0006151676061563,0.0900387018918991,0,0,0
10400,361394.1025554984,2010-10-19 21:36:18,90.04554855331749,1,32,0.0,3.4263250827789307,30.96983989777826,30.981642580271807,123.64934421874486,113.05218634127274,0.0004209041653666,0.0900387018918991,0,0,0
10401,361424.07083254587,2010-10-19 21:36:48,120.0138255105031,1,32,0.0,3.441865921020508,30.96983989777826,30.981642580271807,123.64934421874486,113.05218634127274,0.0003885269106831,0.0900387018918991,0,0,0
10402,361454.088279815,2010-10-19 21:37:18,30.0151667960918,2,32,0.550297200679779,3.5967905521392822,30.97442646571872,30.981642580271807,123.6656774871377,113.05218634127274,0.0015540600288659,0.0900387018918991,0,0,0
10403,361484.10355866025,2010-10-19 21:37:48,60.03044563643234,2,32,0.5501165986061096,3.6448707580566406,30.979013127814223,30.981642580271807,123.6822924637912,113.05218634127274,0.0010360718006268,0.0900387018918991,0,0,0
10404,361514.1186173519,2010-10-19 21:38:18,90.04550432308214,2,32,0.5499359965324402,3.679514169692993,30.983599637085685,30.981642580271807,123.69909314359286,113.05218634127274,0.0008094310760498,0.0900387018918991,0,0,0
10405,361544.1338008747,2010-10-19 21:38:48,120.0606878408495,2,32,0.5501165986061096,3.706387281417847,30.98818616505584,30.981642580271807,123.71603332529509,113.05218634127274,0.0006151676061563,0.0900387018918991,0,0,0
10406,361574.1490488882,2010-10-19 21:39:18,150.07593588944755,2,32,0.550297200679779,3.728403806686402,30.99277279991303,30.981642580271807,123.7330853498504,113.05218634127274,0.0005504131549969,0.0900387018918991,0,0,0
10407,361604.1644087454,2010-10-19 21:39:48,180.09129575171968,2,32,0.5501165986061096,3.746373176574707,30.99735934670937,30.981642580271807,123.75022788914688,113.05218634127274,0.0004532813909463,0.0900387018918991,0,0,0
10408,361634.17931234057,2010-10-19 21:40:18,210.1061993117462,2,32,0.550297200679779,3.7599713802337646,31.001945804024604,30.981642580271807,123.76744299519298,113.05218634127274,0.0003561496851034,0.0900387018918991,0,0,0
10409,361664.194511758,2010-10-19 21:40:48,240.1213987391653,2,32,0.550297200679779,3.7683894634246826,31.006532386988106,30.981642580271807,123.78470938155952,113.05218634127274,0.0001618862152099,0.0900387018918991,0,0,0
10410,361694.2096822132,2010-10-19 21:41:18,270.13656918435174,2,32,0.5501165986061096,3.7737317085266113,31.01111893903555,30.981642580271807,123.80200613037356,113.05218634127274,0.0001618862152099,0.0900387018918991,0,0,0
10411,361724.2248595756,2010-10-19 21:41:48,300.15174653675314,2,32,0.5501165986061096,3.7776169776916495,31.01570546137052,30.981642580271807,123.81932335202832,113.05218634127274,9.713172767078504e-05,0.0900387018918991,0,0,0
10412,361754.240033725,2010-10-19 21:42:18,330.1669207413091,2,32,0.5499359965324402,3.7811784744262695,31.02029203863211,30.981642580271807,123.8366582495233,113.05218634127274,3.237724376958795e-05,0.0900387018918991,0,0,0
10413,361784.255198456,2010-10-19 21:42:48,360.18208542212903,2,32,0.5501165986061096,3.7850637435913086,31.024878492577248,30.981642580271807,123.85400938102534,113.05218634127274,9.713172767078504e-05,0.0900387018918991,0,0,0
10414,361814.27045783785,2010-10-19 21:43:18,390.1973449342978,2,32,0.5499359965324402,3.7884633541107178,31.02946501913828,30.981642580271807,123.87137729094208,113.05218634127274,6.47544875391759e-05,0.0900387018918991,0,0,0
10415,361844.28553632885,2010-10-19 21:43:48,420.21242329498136,2,32,0.5501165986061096,3.792024850845337,31.034051509764307,30.981642580271807,123.88876112031244,113.05218634127274,9.713172767078504e-05,0.0900387018918991,0,0,0
10416,361874.3007207739,2010-10-19 21:44:18,450.2276077951973,2,32,0.5499359965324402,3.795262575149536,31.03863796138272,30.981642580271807,123.90616060075348,113.05218634127274,3.237724376958795e-05,0.0900387018918991,0,0,0
10417,361904.3158793696,2010-10-19 21:44:48,480.2427663607761,2,32,0.5501165986061096,3.798662185668945,31.043224462730745,30.981642580271807,123.92357574094925,113.05218634127274,9.713172767078504e-05,0.0900387018918991,0,0,0
10418,361934.33110152365,2010-10-19 21:45:18,510.257988504812,2,32,0.5501165986061096,3.801899909973145,31.04781097537133,30.981642580271807,123.94100616432964,113.05218634127274,6.47544875391759e-05,0.0900387018918991,0,0,0
10419,361964.34626372834,2010-10-19 21:45:48,540.2731507295105,2,32,0.5499359965324402,3.805137634277344,31.05239751773673,30.981642580271807,123.95845160922786,113.05218634127274,9.713172767078504e-05,0.0900387018918991,0,0,0
10420,361994.3614433614,2010-10-19 21:46:18,570.288330372621,2,32,0.550297200679779,3.808537244796753,31.056984111042127,30.981642580271807,123.97591204404678,113.05218634127274,9.713172767078504e-05,0.0900387018918991,0,0,0
10421,362024.37662563607,2010-10-19 21:46:48,600.3035126071902,2,32,0.5501165986061096,3.811451196670532,31.061570759855247,30.981642580271807,123.99338724694722,113.05218634127274,3.237724376958795e-05,0.0900387018918991,0,0,0
10422,362054.3919136292,2010-10-19 21:47:18,630.3188006354299,2,32,0.5501165986061096,3.814688920974731,31.066157380043776,30.981642580271807,124.01087692126114,113.05218634127274,6.47544875391759e-05,0.0900387018918991,0,0,0
10423,362084.40697998495,2010-10-19 21:47:48,660.3338670162559,2,32,0.5501165986061096,3.8180885314941406,31.07074388785672,30.981642580271807,124.0283808354403,113.05218634127274,9.713172767078504e-05,0.0900387018918991,0,0,0
10424,362114.4221410418,2010-10-19 21:48:18,690.3490280128937,2,32,0.5499359965324402,3.82100248336792,31.075330386260905,30.981642580271807,124.04589922740644,113.05218634127274,6.47544875391759e-05,0.0900387018918991,0,0,0
10425,362144.437328384,2010-10-19 21:48:48,720.3642153652179,2,32,0.5501165986061096,3.824402093887329,31.079916969264097,30.981642580271807,124.06343259488594,113.05218634127274,9.713172767078504e-05,0.0900387018918991,0,0,0
10426,362174.45261507394,2010-10-19 21:49:18,750.3795020601345,2,32,0.5499359965324402,3.827639818191528,31.084503593014468,30.981642580271807,124.08098110024842,113.05218634127274,9.713172767078504e-05,0.0900387018918991,0,0,0
10427,362204.46768890833,2010-10-19 21:49:48,780.3945758995496,2,32,0.5499359965324402,3.830877542495728,31.089090099623256,30.981642580271807,124.09854446932316,113.05218634127274,6.47544875391759e-05,0.0900387018918991,0,0,0
10428,362234.48296496674,2010-10-19 21:50:18,810.4098519579568,2,32,0.5501165986061096,3.834438800811768,31.09367668095739,30.981642580271807,124.11612371729537,113.05218634127274,6.47544875391759e-05,0.0900387018918991,0,0,0
10429,362264.4981534268,2010-10-19 21:50:48,840.4250404180417,2,32,0.5499359965324402,3.837676525115967,31.098263266925127,30.981642580271807,124.13371885498393,113.05218634127274,3.237724376958795e-05,0.0900387018918991,0,0,0
10430,362294.5133426087,2010-10-19 21:51:18,870.4402295798759,2,32,0.5499359965324402,3.841399908065796,31.102849816962696,30.981642580271807,124.15132970836906,113.05218634127274,9.713172767078504e-05,0.0900387018918991,0,0,0
10431,362324.5284476358,2010-10-19 21:51:48,900.4553347573953,2,32,0.550297200679779,3.844799518585205,31.107436325393497,30.981642580271807,124.16895614676184,113.05218634127274,9.713172767078504e-05,0.0900387018918991,0,0,0
10432,362354.5435645426,2010-10-19 21:52:18,930.4704515237978,2,32,0.5499359965324402,3.8481991291046143,31.112022838508665,30.981642580271807,124.18659813647406,113.05218634127274,9.713172767078504e-05,0.0900387018918991,0,0,0
10433,362384.5587385617,2010-10-19 21:52:48,960.4856256531664,2,32,0.550297200679779,3.851598739624024,31.11660943778412,30.981642580271807,124.20425579769022,113.05218634127274,9.713172767078504e-05,0.0900387018918991,0,0,0
10434,362414.573891804,2010-10-19 21:53:18,990.5007787852032,2,32,0.5499359965324402,3.8546745777130127,31.12119604358651,30.981642580271807,124.22192847176044,113.05218634127274,6.47544875391759e-05,0.0900387018918991,0,0,0
10435,362444.5891910151,2010-10-19 21:53:49,1020.5160780113514,2,32,0.5501165986061096,3.857912302017212,31.125782647608283,30.981642580271807,124.23961591158232,113.05218634127274,9.713172767078504e-05,0.0900387018918991,0,0,0
10436,362474.6042419775,2010-10-19 21:54:19,1050.5311289587123,2,32,0.5501165986061096,3.861150026321411,31.13036915461087,30.981642580271807,124.25731735325652,113.05218634127274,9.713172767078504e-05,0.0900387018918991,0,0,0
10437,362504.61945769045,2010-10-19 21:54:49,1080.5463447068078,2,32,0.5499359965324402,3.8637402057647705,31.13495573326516,30.981642580271807,124.2750330750189,113.05218634127274,0.0,0.0900387018918991,0,0,0
10438,362534.6346087173,2010-10-19 21:55:19,1110.56149571856,2,32,0.550297200679779,3.8669779300689697,31.13954230242378,30.981642580271807,124.29276229596152,113.05218634127274,9.713172767078504e-05,0.0900387018918991,0,0,0
10439,362564.64977612,2010-10-19 21:55:49,1140.5766631211636,2,32,0.5501165986061096,3.869729995727539,31.144128834775547,30.981642580271807,124.31050449887316,113.05218634127274,6.47544875391759e-05,0.0900387018918991,0,0,0
10440,362594.66496603366,2010-10-19 21:56:19,1170.5918530298593,2,32,0.5501165986061096,3.872482061386109,31.14871535752369,30.981642580271807,124.328259208377,113.05218634127274,6.47544875391759e-05,0.0900387018918991,0,0,0
10441,362624.6801833657,2010-10-19 21:56:49,1200.6070703869643,2,32,0.5501165986061096,3.875072240829468,31.153301984553323,30.981642580271807,124.3460262459582,113.05218634127274,9.713172767078504e-05,0.0900387018918991,0,0,0
10442,362654.69531013205,2010-10-19 21:57:19,1230.6221971282273,2,32,0.5499359965324402,3.8773386478424072,31.15788853728359,30.981642580271807,124.36380434391874,113.05218634127274,6.47544875391759e-05,0.0900387018918991,0,0,0
10443,362684.71058952366,2010-10-19 21:57:49,1260.6374766452543,2,32,0.5501165986061096,3.8796050548553462,31.16247513279789,30.981642580271807,124.38159329623498,113.05218634127274,6.47544875391759e-05,0.0900387018918991,0,0,0
10444,362714.7257099542,2010-10-19 21:58:19,1290.6525969254142,2,32,0.550297200679779,3.881709575653076,31.16706174078521,30.981642580271807,124.39939235772542,113.05218634127274,0.0,0.0900387018918991,0,0,0
10445,362744.7408473771,2010-10-19 21:58:49,1320.6677343432864,2,32,0.5501165986061096,3.883652210235596,31.17164834557149,30.981642580271807,124.41720083113614,113.05218634127274,0.0,0.0900387018918991,0,0,0
10446,362774.75601517566,2010-10-19 21:59:19,1350.682902146889,2,32,0.550297200679779,3.885756731033325,31.17623491942644,30.981642580271807,124.43501792703482,113.05218634127274,0.0001618862152099,0.0900387018918991,0,0,0
10447,362804.7711854856,2010-10-19 21:59:49,1380.6980724467137,2,32,0.5499359965324402,3.887213706970215,31.1808215181778,30.981642580271807,124.45284325356748,113.05218634127274,3.237724376958795e-05,0.0900387018918991,0,0,0
10448,362834.786364071,2010-10-19 22:00:19,1410.7132510672757,2,32,0.5501165986061096,3.888994455337525,31.185408109255064,30.981642580271807,124.47067620075248,113.05218634127274,6.47544875391759e-05,0.0900387018918991,0,0,0
10449,362864.8015450124,2010-10-19 22:00:49,1440.7284319835587,2,32,0.5499359965324402,3.890289545059204,31.18999477882665,30.981642580271807,124.48851662840066,113.05218634127274,3.237724376958795e-05,0.0900387018918991,0,0,0
10450,362894.8167152421,2010-10-19 22:01:19,1470.7436022132083,2,32,0.5501165986061096,3.891908407211304,31.19458133029457,30.981642580271807,124.50636337094156,113.05218634127274,3.237724376958795e-05,0.0900387018918991,0,0,0
10451,362924.8319113512,2010-10-19 22:01:49,1500.758798342407,2,32,0.5501165986061096,3.893365383148194,31.199167935610728,30.981642580271807,124.52421679495582,113.05218634127274,9.713172767078504e-05,0.0900387018918991,0,0,0
10452,362954.8470730295,2010-10-19 22:02:19,1530.7739600558314,2,32,0.5501165986061096,3.894498586654663,31.20375452151298,30.981642580271807,124.5420764247407,113.05218634127274,6.47544875391759e-05,0.0900387018918991,0,0,0
10453,362984.86226668255,2010-10-19 22:02:49,1560.7891536787845,2,32,0.5501165986061096,3.895793676376343,31.208341184965857,30.981642580271807,124.55994190288207,113.05218634127274,3.237724376958795e-05,0.0900387018918991,0,0,0
10454,363014.8774213636,2010-10-19 22:03:19,1590.8043083396312,2,32,0.550297200679779,3.8970887660980233,31.212927800609933,30.981642580271807,124.5778132041366,113.05218634127274,6.47544875391759e-05,0.0900387018918991,0,0,0
10455,363044.892593939,2010-10-19 22:03:49,1620.8194809401894,2,32,0.550297200679779,3.898383855819702,31.217514344068643,30.981642580271807,124.59569003694332,113.05218634127274,3.237724376958795e-05,0.0900387018918991,0,0,0
10456,363074.90778523113,2010-10-19 22:04:19,1650.8346722523827,2,32,0.5501165986061096,3.899517059326172,31.22210091304949,30.981642580271807,124.6135728434157,113.05218634127274,-3.237724376958795e-05,0.0900387018918991,0,0,0
10457,363104.92408453976,2010-10-19 22:04:49,1680.8509716612944,2,32,0.5499359965324402,3.9006502628326416,31.226687669430063,30.981642580271807,124.63146210461832,113.05218634127274,3.237724376958795e-05,0.0900387018918991,0,0,0
10458,363134.93819592544,2010-10-19 22:05:19,1710.8650830219162,2,32,0.5501165986061096,3.9021072387695312,31.23127409600784,30.981642580271807,124.64935596202032,113.05218634127274,3.237724376958795e-05,0.0900387018918991,0,0,0
10459,363164.9533094237,2010-10-19 22:05:49,1740.8801965001237,2,32,0.5501165986061096,3.903402328491211,31.235860652354145,30.981642580271807,124.66725605435096,113.05218634127274,3.237724376958795e-05,0.0900387018918991,0,0,0
10460,363194.96847859566,2010-10-19 22:06:19,1770.8953655768994,2,32,0.5501165986061096,3.90469741821289,31.240447219613227,30.981642580271807,124.6851620901974,113.05218634127274,3.237724376958795e-05,0.0900387018918991,0,0,0
10461,363224.9836781384,2010-10-19 22:06:49,1800.9105651446682,2,32,0.5501165986061096,3.90583062171936,31.24503378439212,30.981642580271807,124.70307384558144,113.05218634127274,3.237724376958795e-05,0.0900387018918991,0,0,0
10462,363254.99907418585,2010-10-19 22:07:19,1830.9259612873625,2,32,0.550297200679779,3.90728759765625,31.249620411193323,30.981642580271807,124.72099179810488,113.05218634127274,6.47544875391759e-05,0.0900387018918991,0,0,0
10463,363285.01400341,2010-10-19 22:07:49,1860.9408903810263,2,32,0.5501165986061096,3.9085826873779297,31.254206910225225,30.981642580271807,124.73891515014574,113.05218634127274,3.237724376958795e-05,0.0900387018918991,0,0,0
10464,363315.0293147813,2010-10-19 22:08:19,1890.9562017574567,2,32,0.5501165986061096,3.9097158908844,31.25879349860534,30.981642580271807,124.75684484895068,113.05218634127274,0.0,0.0900387018918991,0,0,0
10465,363345.044405984,2010-10-19 22:08:49,1920.9712930052592,2,32,0.5501165986061096,3.911172866821289,31.26338006496001,30.981642580271807,124.77478038479887,113.05218634127274,3.237724376958795e-05,0.0900387018918991,0,0,0
10466,363375.0595447752,2010-10-19 22:09:19,1950.9864317664792,2,32,0.5501165986061096,3.9124679565429688,31.267966608725636,30.981642580271807,124.79272188510237,113.05218634127274,6.47544875391759e-05,0.0900387018918991,0,0,0
10467,363405.0747149899,2010-10-19 22:09:49,1981.0016019610416,2,32,0.5501165986061096,3.913762807846069,31.27255319493347,30.981642580271807,124.81066961452105,113.05218634127274,3.23295607813634e-05,0.0900387018918991,0,0,0
10468,363435.0898899112,2010-10-19 22:10:19,2011.0167769074465,2,32,0.5501165986061096,3.915057897567749,31.27713976316964,30.981642580271807,124.82862342409864,113.05218634127274,3.237724376958795e-05,0.0900387018918991,0,0,0
10469,363465.1050743864,2010-10-19 22:10:49,2041.0319613575373,2,32,0.5501165986061096,3.9163529872894287,31.28172636865588,30.981642580271807,124.84658338056488,113.05218634127274,6.47544875391759e-05,0.0900387018918991,0,0,0
10470,363495.1204130809,2010-10-19 22:11:19,2071.0473000670904,2,32,0.5501165986061096,3.917648077011109,31.28631291553849,30.981642580271807,124.86454935712024,113.05218634127274,3.237724376958795e-05,0.0900387018918991,0,0,0
10471,363525.1356909037,2010-10-19 22:11:49,2101.06257787987,2,32,0.5499359965324402,3.919105052947998,31.290899440034057,30.981642580271807,124.88252145414964,113.05218634127274,3.237724376958795e-05,0.0900387018918991,0,0,0
10472,363555.15066710976,2010-10-19 22:12:19,2131.07755412104,2,32,0.550297200679779,3.920562028884888,31.2954859361886,30.981642580271807,124.90049976457595,113.05218634127274,6.47544875391759e-05,0.0900387018918991,0,0,0
10473,363585.1657837759,2010-10-19 22:12:49,2161.092670747093,2,32,0.5501165986061096,3.921857118606568,31.30007270513739,30.981642580271807,124.91848540685208,113.05218634127274,6.47544875391759e-05,0.0900387018918991,0,0,0
10474,363615.1809410984,2010-10-19 22:13:19,2191.1078280695733,2,32,0.550297200679779,3.923314094543457,31.30465997725237,30.981642580271807,124.9364794586872,113.05218634127274,3.237724376958795e-05,0.0900387018918991,0,0,0
10475,363645.1961453278,2010-10-19 22:13:49,2221.123032303973,2,32,0.550297200679779,3.9247710704803462,31.3092470548958,30.981642580271807,124.95447917543478,113.05218634127274,3.237724376958795e-05,0.0900387018918991,0,0,0
10476,363675.2113554018,2010-10-19 22:14:19,2251.1382424130143,2,32,0.550297200679779,3.926228046417236,31.31383363559097,30.981642580271807,124.97248338973306,113.05218634127274,6.47544875391759e-05,0.0900387018918991,0,0,0
10477,363705.2265461074,2010-10-19 22:14:49,2281.153433068571,2,32,0.5501165986061096,3.927523136138916,31.318420189551365,30.981642580271807,124.99049396404033,113.05218634127274,6.47544875391759e-05,0.0900387018918991,0,0,0
10478,363735.24182044656,2010-10-19 22:15:19,2311.1687075430305,2,32,0.5501165986061096,3.928818225860596,31.32300673404748,30.981642580271807,125.00851110773992,113.05218634127274,0.0,0.0900387018918991,0,0,0
10479,363765.2568731082,2010-10-19 22:15:49,2341.183760094389,2,32,0.5499359965324402,3.930275201797485,31.327593251085613,30.981642580271807,125.026534783647,113.05218634127274,0.0,0.0900387018918991,0,0,0
10480,363795.2720400947,2010-10-19 22:16:19,2371.1989270659183,2,32,0.5501165986061096,3.931732177734375,31.332179864234465,30.981642580271807,125.0445654950619,113.05218634127274,0.0,0.0900387018918991,0,0,0
10481,363825.287216179,2010-10-19 22:16:49,2401.2141031501587,2,32,0.5501165986061096,3.9333510398864746,31.33676635416468,30.981642580271807,125.0626024315233,113.05218634127274,6.47544875391759e-05,0.0900387018918991,0,0,0
10482,363855.30238899007,2010-10-19 22:17:19,2431.229275991317,2,32,0.5501165986061096,3.934808015823364,31.34135289468158,30.981642580271807,125.08064633011551,113.05218634127274,0.0,0.0900387018918991,0,0,0
10483,363885.3175659264,2010-10-19 22:17:49,2461.2444529226686,2,32,0.5501165986061096,3.936426877975464,31.345939510034835,30.981642580271807,125.09869740886208,113.05218634127274,3.237724376958795e-05,0.0900387018918991,0,0,0
10484,363915.3327418904,2010-10-19 22:18:19,2491.25962888661,2,32,0.5501165986061096,3.937721967697144,31.35052608531085,30.981642580271807,125.11675503439074,113.05218634127274,3.237724376958795e-05,0.0900387018918991,0,0,0
10485,363945.347935007,2010-10-19 22:18:49,2521.2748220033004,2,32,0.550297200679779,3.939502716064453,31.355112676232,30.981642580271807,125.13481976111372,113.05218634127274,6.47544875391759e-05,0.0900387018918991,0,0,0
10486,363975.363243366,2010-10-19 22:19:19,2551.290130337148,2,32,0.5501165986061096,3.940797805786133,31.35969918998202,30.981642580271807,125.15289117724645,113.05218634127274,0.0,0.0900387018918991,0,0,0
10487,364005.3783955808,2010-10-19 22:19:49,2581.3052825619234,2,32,0.5499359965324402,3.942416667938232,31.36428577468967,30.981642580271807,125.17096984628564,113.05218634127274,3.237724376958795e-05,0.0900387018918991,0,0,0
10488,364035.39344556566,2010-10-19 22:20:19,2611.320332556911,2,32,0.5501165986061096,3.944035530090332,31.368872216813138,30.981642580271807,125.18905503755768,113.05218634127274,6.47544875391759e-05,0.0900387018918991,0,0,0
10489,364065.4089734467,2010-10-19 22:20:49,2641.3358605432,2,32,0.5501165986061096,3.945654392242432,31.37345876659836,30.981642580271807,125.20714776341065,113.05218634127274,6.47544875391759e-05,0.0900387018918991,0,0,0
10490,364095.4238165611,2010-10-19 22:21:19,2671.35070356234,2,32,0.5499359965324402,3.947111368179321,31.37804529633701,30.981642580271807,125.22524758448158,113.05218634127274,6.47544875391759e-05,0.0900387018918991,0,0,0
10491,364125.4389917581,2010-10-19 22:21:49,2701.365878724282,2,32,0.5501165986061096,3.948730230331421,31.382631944418005,30.981642580271807,125.24335517196816,113.05218634127274,6.47544875391759e-05,0.0900387018918991,0,0,0
10492,364155.4541645541,2010-10-19 22:22:19,2731.38105152534,2,32,0.5501165986061096,3.950187206268311,31.387218429421143,30.981642580271807,125.26146938022862,113.05218634127274,3.237724376958795e-05,0.0900387018918991,0,0,0
10493,364185.4693668437,2010-10-19 22:22:49,2761.396253860005,2,32,0.5501165986061096,3.95180606842041,31.391804994045025,30.981642580271807,125.27959130286192,113.05218634127274,0.0,0.0900387018918991,0,0,0
10494,364215.48464700737,2010-10-19 22:23:19,2791.411534008606,2,32,0.550297200679779,3.95358681678772,31.396391603046208,30.981642580271807,125.29772084005312,113.05218634127274,3.237724376958795e-05,0.0900387018918991,0,0,0
10495,364245.49971159874,2010-10-19 22:23:49,2821.4265986851847,2,32,0.5501165986061096,3.9552056789398193,31.400978118663083,30.981642580271807,125.31585750101658,113.05218634127274,3.237724376958795e-05,0.0900387018918991,0,0,0
10496,364275.51487512665,2010-10-19 22:24:19,2851.4417621279185,2,32,0.5501165986061096,3.956824541091919,31.40556467792695,30.981642580271807,125.33400192951136,113.05218634127274,6.47544875391759e-05,0.0900387018918991,0,0,0
10497,364305.53009864414,2010-10-19 22:24:49,2881.456985635353,2,32,0.5501165986061096,3.958605289459229,31.410151298025973,30.981642580271807,125.35215406542402,113.05218634127274,6.47544875391759e-05,0.0900387018918991,0,0,0
10498,364335.5452331498,2010-10-19 22:25:19,2911.472120150992,2,32,0.5501165986061096,3.960224151611328,31.41473785393505,30.981642580271807,125.37031366199342,113.05218634127274,6.47544875391759e-05,0.0900387018918991,0,0,0
10499,364365.5605306316,2010-10-19 22:25:50,2941.48741760773,2,32,0.550297200679779,3.9620048999786377,31.419324401404285,30.981642580271807,125.38848099363284,113.05218634127274,6.47544875391759e-05,0.0900387018918991,0,0,0
10500,364395.5756091827,2010-10-19 22:26:20,2971.502496153876,2,32,0.5497553944587708,3.9634618759155273,31.42391089556531,30.981642580271807,125.40665582453256,113.05218634127274,0.0,0.0900387018918991,0,0,0
10501,364425.59079680574,2010-10-19 22:26:50,3001.517683801937,2,32,0.5499359965324402,3.965080738067627,31.428497428566587,30.981642580271807,125.424838704577,113.05218634127274,3.237724376958795e-05,0.0900387018918991,0,0,0
10502,364455.6059387298,2010-10-19 22:27:20,3031.532825700978,2,32,0.5499359965324402,3.966861486434937,31.43308397102574,30.981642580271807,125.44302949406378,113.05218634127274,0.0,0.0900387018918991,0,0,0
10503,364485.6212404272,2010-10-19 22:27:50,3061.5481274534222,2,32,0.5501165986061096,3.968642234802246,31.43767054317695,30.981642580271807,125.46122822633517,113.05218634127274,6.47544875391759e-05,0.0900387018918991,0,0,0
10504,364515.63628824666,2010-10-19 22:28:20,3091.563175242913,2,32,0.5501165986061096,3.970422983169556,31.44225712865052,30.981642580271807,125.47943504354858,113.05218634127274,6.47544875391759e-05,0.0900387018918991,0,0,0
10505,364545.6515033983,2010-10-19 22:28:50,3121.5783903644465,2,32,0.5501165986061096,3.972365617752075,31.44684360667202,30.981642580271807,125.49764948414754,113.05218634127274,6.47544875391759e-05,0.0900387018918991,0,0,0
10506,364575.6666253126,2010-10-19 22:29:20,3151.593512308754,2,32,0.5501165986061096,3.9741463661193848,31.451430015561247,30.981642580271807,125.51587171452316,113.05218634127274,6.47544875391759e-05,0.0900387018918991,0,0,0
10507,364605.681812304,2010-10-19 22:29:50,3181.608699265092,2,32,0.5501165986061096,3.975765228271485,31.456016446795868,30.981642580271807,125.53410227672796,113.05218634127274,3.237724376958795e-05,0.0900387018918991,0,0,0
10508,364635.6969949546,2010-10-19 22:30:20,3211.623881950785,2,32,0.5501165986061096,3.977707862854004,31.46060296060209,30.981642580271807,125.55234152137568,113.05218634127274,6.47544875391759e-05,0.0900387018918991,0,0,0
10509,364665.7121865625,2010-10-19 22:30:50,3241.639073523628,2,32,0.550297200679779,3.9794886112213135,31.46518950491727,30.981642580271807,125.57058879020354,113.05218634127274,6.47544875391759e-05,0.0900387018918991,0,0,0
10510,364695.7273672783,2010-10-19 22:31:20,3271.654254279512,2,32,0.550297200679779,3.981431245803833,31.469776039573443,30.981642580271807,125.58884502092208,113.05218634127274,6.47544875391759e-05,0.0900387018918991,0,0,0
10511,364725.7425216935,2010-10-19 22:31:50,3301.669408684722,2,32,0.550297200679779,3.983211994171143,31.47436256786601,30.981642580271807,125.60710979044724,113.05218634127274,6.47544875391759e-05,0.0900387018918991,0,0,0
10512,364755.7577008854,2010-10-19 22:32:20,3331.6845878566583,2,32,0.5499359965324402,3.984992742538452,31.47894908636077,30.981642580271807,125.6253830813578,113.05218634127274,6.47544875391759e-05,0.0900387018918991,0,0,0
10513,364785.7728851451,2010-10-19 22:32:50,3361.699772101237,2,32,0.5501165986061096,3.9870972633361816,31.48353559757136,30.981642580271807,125.6436650576014,113.05218634127274,6.47544875391759e-05,0.0900387018918991,0,0,0
10514,364815.7877659484,2010-10-19 22:33:20,3391.714652789259,2,32,0.5499359965324402,3.988878011703491,31.488122098174266,30.981642580271807,125.6619557624319,113.05218634127274,6.47544875391759e-05,0.0900387018918991,0,0,0
10515,364845.80323454674,2010-10-19 22:33:50,3421.73012153791,2,32,0.550297200679779,3.9909825325012207,31.492708585381912,30.981642580271807,125.6802553188524,113.05218634127274,9.713172767078504e-05,0.0900387018918991,0,0,0
10516,364875.8184175732,2010-10-19 22:34:20,3451.745304544402,2,32,0.5501165986061096,3.99292516708374,31.49729510188009,30.981642580271807,125.6985639963858,113.05218634127274,3.237724376958795e-05,0.0900387018918991,0,0,0
10517,364905.8336014169,2010-10-19 22:34:50,3481.7604884080324,2,32,0.5501165986061096,3.9948675632476807,31.50188164732768,30.981642580271807,125.71688188722167,113.05218634127274,6.47544875391759e-05,0.0900387018918991,0,0,0
10518,364935.8487665688,2010-10-19 22:35:20,3511.775653534964,2,32,0.5499359965324402,3.9968101978302,31.506468096117093,30.981642580271807,125.73520862160586,113.05218634127274,6.47544875391759e-05,0.0900387018918991,0,0,0
10519,364965.8639449186,2010-10-19 22:35:50,3541.7908319099142,2,32,0.5499359965324402,3.99875283241272,31.511054616054448,30.981642580271807,125.75354487630442,113.05218634127274,3.237724376958795e-05,0.0900387018918991,0,0,0
10520,364995.8792565458,2010-10-19 22:36:20,3571.8061435419813,2,32,0.5501165986061096,4.000857353210449,31.515641082753486,30.981642580271807,125.77189033724429,113.05218634127274,6.47544875391759e-05,0.0900387018918991,0,0,0
10521,365025.8945118876,2010-10-19 22:36:50,3601.821398994032,2,32,0.5501165986061096,4.002962112426758,31.520227513592005,30.981642580271807,125.79024523846124,113.05218634127274,3.24249267578125e-05,0.0900387018918991,0,0,0
10522,365055.90965043823,2010-10-19 22:37:20,3631.8365375246767,2,32,0.5501165986061096,4.005066394805908,31.524813987805324,30.981642580271807,125.80861000780448,113.05218634127274,3.23295607813634e-05,0.0900387018918991,0,0,0
10523,365085.9246625989,2010-10-19 22:37:50,3661.851549590132,2,32,0.5501165986061096,4.007332801818848,31.529400466058064,30.981642580271807,125.82698458646452,113.05218634127274,3.23295607813634e-05,0.0900387018918991,0,0,0
10524,365115.9399660606,2010-10-19 22:38:20,3691.8668530518366,2,32,0.5501165986061096,4.009599208831787,31.53398703571676,30.981642580271807,125.84536940675956,113.05218634127274,6.47544875391759e-05,0.0900387018918991,0,0,0
10525,365145.95503929845,2010-10-19 22:38:50,3721.881926259678,2,32,0.550297200679779,4.011703968048096,31.53857351514661,30.981642580271807,125.86376382855632,113.05218634127274,6.47544875391759e-05,0.0900387018918991,0,0,0
10526,365175.9704523634,2010-10-19 22:39:20,3751.8973394197847,2,32,0.5499359965324402,4.013808250427246,31.54316001169501,30.981642580271807,125.88216844324629,113.05218634127274,6.47544875391759e-05,0.0900387018918991,0,0,0
10527,365205.9853753168,2010-10-19 22:39:50,3781.9122623631206,2,32,0.5501165986061096,4.0160746574401855,31.547746436025207,30.981642580271807,125.90058290663109,113.05218634127274,3.23295607813634e-05,0.0900387018918991,0,0,0
10528,365236.0007045327,2010-10-19 22:40:20,3811.927591498812,2,32,0.5501165986061096,4.018503189086914,31.552332934470197,30.981642580271807,125.91900794837152,113.05218634127274,6.47544875391759e-05,0.0900387018918991,0,0,0
10529,365266.0157747079,2010-10-19 22:40:50,3841.942661794395,2,32,0.5501165986061096,4.0206074714660645,31.5569193849902,30.981642580271807,125.93744303886524,113.05218634127274,3.23295607813634e-05,0.0900387018918991,0,0,0
10530,365296.0309243312,2010-10-19 22:41:20,3871.957811332475,2,32,0.5497553944587708,4.022712230682373,31.561505883153888,30.981642580271807,125.95588885971564,113.05218634127274,3.24249267578125e-05,0.0900387018918991,0,0,0
10531,365326.04609668616,2010-10-19 22:41:50,3901.972983652334,2,32,0.5499359965324402,4.025302410125732,31.566092337559716,30.981642580271807,125.97434497198998,113.05218634127274,6.47544875391759e-05,0.0900387018918991,0,0,0
10532,365356.0612745349,2010-10-19 22:42:20,3931.988161500972,2,32,0.5501165986061096,4.027568817138672,31.57067877913387,30.981642580271807,125.99281165907792,113.05218634127274,3.24249267578125e-05,0.0900387018918991,0,0,0
10533,365386.0765899362,2010-10-19 22:42:50,3962.0034769074455,2,32,0.5499359965324402,4.029673099517822,31.575265360965076,30.981642580271807,126.01128960996252,113.05218634127274,3.23295607813634e-05,0.0900387018918991,0,0,0
10534,365416.0916323624,2010-10-19 22:43:20,3992.018519358632,2,32,0.550297200679779,4.032263278961182,31.57985178584139,30.981642580271807,126.02977764709978,113.05218634127274,6.47544875391759e-05,0.0900387018918991,0,0,0
10535,365446.1072465184,2010-10-19 22:43:50,4022.03413352972,2,32,0.5501165986061096,4.034529685974121,31.58443828292525,30.981642580271807,126.04827691623858,113.05218634127274,3.24249267578125e-05,0.0900387018918991,0,0,0
10536,365476.1221433618,2010-10-19 22:44:20,4052.0490303278943,2,32,0.5501165986061096,4.0371198654174805,31.58902473260259,30.981642580271807,126.06678690964613,113.05218634127274,6.47544875391759e-05,0.0900387018918991,0,0,0
10537,365506.1372022338,2010-10-19 22:44:50,4082.0640892000074,2,32,0.5501165986061096,4.039547920227051,31.59361124418725,30.981642580271807,126.08530825353402,113.05218634127274,9.70840483205393e-05,0.0900387018918991,0,0,0
10538,365536.1523512355,2010-10-19 22:45:20,4112.079238206761,2,32,0.5501165986061096,4.04181432723999,31.598197727733304,30.981642580271807,126.1038406076931,113.05218634127274,6.47544875391759e-05,0.0900387018918991,0,0,0
10539,365566.1675415854,2010-10-19 22:45:50,4142.094428581619,2,32,0.5501165986061096,4.04440450668335,31.602784163580395,30.981642580271807,126.12238408993272,113.05218634127274,9.70840483205393e-05,0.0900387018918991,0,0,0
10540,365596.1827361508,2010-10-19 22:46:20,4172.109623156945,2,32,0.5501165986061096,4.046833038330078,31.60737061565482,30.981642580271807,126.14093905272682,113.05218634127274,9.71794142969884e-05,0.0900387018918991,0,0,0
10541,365626.19803575776,2010-10-19 22:46:50,4202.124922764043,2,32,0.550297200679779,4.049584865570068,31.611957047132627,30.981642580271807,126.15950549728844,113.05218634127274,9.70840483205393e-05,0.0900387018918991,0,0,0
10542,365656.2131202087,2010-10-19 22:47:20,4232.140007209892,2,32,0.5501165986061096,4.051851272583008,31.616543491472868,30.981642580271807,126.17808357118548,113.05218634127274,6.47544875391759e-05,0.0900387018918991,0,0,0
10543,365686.2284120765,2010-10-19 22:47:50,4262.155299047627,2,32,0.550297200679779,4.054603576660156,31.621129916338024,30.981642580271807,126.19667325856793,113.05218634127274,9.71794142969884e-05,0.0900387018918991,0,0,0
10544,365716.2434330391,2010-10-19 22:48:20,4292.170320010256,2,32,0.5501165986061096,4.057193756103516,31.62571640760501,30.981642580271807,126.21527501978898,113.05218634127274,6.47544875391759e-05,0.0900387018918991,0,0,0
10545,365746.2586237698,2010-10-19 22:48:50,4322.185510761051,2,32,0.550297200679779,4.059945583343506,31.630302881415044,30.981642580271807,126.23388865465284,113.05218634127274,9.70840483205393e-05,0.0900387018918991,0,0,0
10546,365776.273799403,2010-10-19 22:49:20,4352.200686399179,2,32,0.5501165986061096,4.062374114990234,31.63488942956428,30.981642580271807,126.25251428756302,113.05218634127274,9.71794142969884e-05,0.0900387018918991,0,0,0
10547,365806.288977427,2010-10-19 22:49:50,4382.215864388168,2,32,0.550297200679779,4.064964294433594,31.639475884190052,30.981642580271807,126.27115167074692,113.05218634127274,9.71794142969884e-05,0.0900387018918991,0,0,0
10548,365836.3042006588,2010-10-19 22:50:20,4412.231087660015,2,32,0.5501165986061096,4.067716121673584,31.644062297205025,30.981642580271807,126.289801099589,113.05218634127274,9.70840483205393e-05,0.0900387018918991,0,0,0
10549,365866.3193645927,2010-10-19 22:50:50,4442.246251578936,2,32,0.5501165986061096,4.070306301116943,31.64864875303704,30.981642580271807,126.30846308396627,113.05218634127274,6.47544875391759e-05,0.0900387018918991,0,0,0
10550,365896.3346523553,2010-10-19 22:51:20,4472.261539321463,2,32,0.5501165986061096,4.073058605194092,31.65323522708783,30.981642580271807,126.32713755968246,113.05218634127274,9.71794142969884e-05,0.0900387018918991,0,0,0
10551,365926.3497017288,2010-10-19 22:51:50,4502.276588724976,2,32,0.5499359965324402,4.075810432434082,31.657821648376743,30.981642580271807,126.34582444542109,113.05218634127274,9.70840483205393e-05,0.0900387018918991,0,0,0
10552,365956.3648867102,2010-10-19 22:52:20,4532.291773686341,2,32,0.5497553944587708,4.078562736511231,31.66240811835128,30.981642580271807,126.36452427436352,113.05218634127274,6.47544875391759e-05,0.0900387018918991,0,0,0
10553,365986.38027860224,2010-10-19 22:52:50,4562.307165683705,2,32,0.5501165986061096,4.081314563751221,31.66699459954739,30.981642580271807,126.38323700519804,113.05218634127274,6.47544875391759e-05,0.0900387018918991,0,0,0
10554,366016.3953750179,2010-10-19 22:53:20,4592.322261984099,2,32,0.5499359965324402,4.084228515625,31.671581041730423,30.981642580271807,126.4019624516026,113.05218634127274,6.47544875391759e-05,0.0900387018918991,0,0,0
10555,366046.4104468223,2010-10-19 22:53:50,4622.337333783429,2,32,0.550297200679779,4.087142467498779,31.676167498616685,30.981642580271807,126.42070117414036,113.05218634127274,9.70840483205393e-05,0.0900387018918991,0,0,0
10556,366076.42580786254,2010-10-19 22:54:20,4652.352694979025,2,32,0.5501165986061096,4.090056419372559,31.680754043903967,30.981642580271807,126.43945341862162,113.05218634127274,9.70840483205393e-05,0.0900387018918991,0,0,0
10557,366106.4408079531,2010-10-19 22:54:50,4682.36769491926,2,32,0.5499359965324402,4.092808723449707,31.685340439169337,30.981642580271807,126.45821831453058,113.05218634127274,6.47544875391759e-05,0.0900387018918991,0,0,0
10558,366136.456106247,2010-10-19 22:55:20,4712.38299324316,2,32,0.550297200679779,4.095884323120117,31.689926915846844,30.981642580271807,126.476996927495,113.05218634127274,9.70840483205393e-05,0.0900387018918991,0,0,0
10559,366166.4711537407,2010-10-19 22:55:50,4742.398040706838,2,32,0.5499359965324402,4.0987982749938965,31.69451341029489,30.981642580271807,126.49578918326856,113.05218634127274,6.47544875391759e-05,0.0900387018918991,0,0,0
10560,366196.4863404063,2010-10-19 22:56:20,4772.413227372452,2,32,0.5501165986061096,4.101874351501465,31.69909989430824,30.981642580271807,126.51459510533488,113.05218634127274,9.71794142969884e-05,0.0900387018918991,0,0,0
10561,366226.5015469916,2010-10-19 22:56:50,4802.42843395771,2,32,0.5501165986061096,4.104788303375244,31.703686416590497,30.981642580271807,126.53341491888824,113.05218634127274,6.47544875391759e-05,0.0900387018918991,0,0,0
10562,366256.5167031461,2010-10-19 22:57:20,4832.443590167417,2,32,0.5501165986061096,4.107863903045654,31.7082728858318,30.981642580271807,126.55224853776308,113.05218634127274,9.70840483205393e-05,0.0900387018918991,0,0,0
10563,366286.53191328526,2010-10-19 22:57:51,4862.458800371695,2,32,0.5499359965324402,4.110777854919434,31.712859335222443,30.981642580271807,126.5710961476845,113.05218634127274,6.47544875391759e-05,0.0900387018918991,0,0,0
10564,366316.5470691892,2010-10-19 22:58:21,4892.473956185417,2,32,0.5501165986061096,4.114015579223633,31.717445781645857,30.981642580271807,126.58995795605192,113.05218634127274,9.70840483205393e-05,0.0900387018918991,0,0,0
10565,366346.5622584413,2010-10-19 22:58:51,4922.489145432462,2,32,0.5499359965324402,4.117091178894043,31.72203222716809,30.981642580271807,126.60883408070733,113.05218634127274,6.47544875391759e-05,0.0900387018918991,0,0,0
10566,366376.5774272574,2010-10-19 22:59:21,4952.5043142536015,2,32,0.5501165986061096,4.120328903198242,31.726618699199967,30.981642580271807,126.62772471115258,113.05218634127274,9.70840483205393e-05,0.0900387018918991,0,0,0
10567,366406.5926071311,2010-10-19 22:59:51,4982.519494127287,2,32,0.5501165986061096,4.1234049797058105,31.731205178304467,30.981642580271807,126.6466298975686,113.05218634127274,6.47544875391759e-05,0.0900387018918991,0,0,0
10568,366436.60780456354,2010-10-19 23:00:21,5012.534691534671,2,32,0.5499359965324402,4.12664270401001,31.735791689303685,30.981642580271807,126.66554988505972,113.05218634127274,6.47544875391759e-05,0.0900387018918991,0,0,0
10569,366466.62298803614,2010-10-19 23:00:51,5042.549875022364,2,32,0.5501165986061096,4.129880428314209,31.740378220235844,30.981642580271807,126.68448480529496,113.05218634127274,9.71794142969884e-05,0.0900387018918991,0,0,0
10570,366496.6381756041,2010-10-19 23:01:21,5072.565062715537,2,32,0.5501165986061096,4.133118152618408,31.744964750706217,30.981642580271807,126.70343469759725,113.05218634127274,3.24249267578125e-05,0.0900387018918991,0,0,0
10571,366526.653341954,2010-10-19 23:01:51,5102.5802289402045,2,32,0.5497553944587708,4.136355876922607,31.74955120841972,30.981642580271807,126.7223992153889,113.05218634127274,6.47544875391759e-05,0.0900387018918991,0,0,0
10572,366556.6685250157,2010-10-19 23:02:21,5132.595411986798,2,32,0.5501165986061096,4.1397552490234375,31.75413772218194,30.981642580271807,126.74137919856416,113.05218634127274,6.47544875391759e-05,0.0900387018918991,0,0,0
10573,366586.6837122275,2010-10-19 23:02:51,5162.610599238873,2,32,0.5501165986061096,4.143155097961426,31.75872429928709,30.981642580271807,126.76037474075096,113.05218634127274,6.47544875391759e-05,0.0900387018918991,0,0,0
10574,366616.6988851339,2010-10-19 23:03:21,5192.625772130155,2,32,0.5501165986061096,4.146716594696045,31.763310763214225,30.981642580271807,126.7793852768244,113.05218634127274,9.71794142969884e-05,0.0900387018918991,0,0,0
10575,366646.7140812631,2010-10-19 23:03:51,5222.640968259354,2,32,0.5501165986061096,4.150115966796875,31.767897250881948,30.981642580271807,126.79841154522316,113.05218634127274,0.0001295089750783,0.0900387018918991,0,0,0
10576,366676.7292692921,2010-10-19 23:04:21,5252.65615625829,2,32,0.5501165986061096,4.153515815734863,31.7724837623653,30.981642580271807,126.8174536471884,113.05218634127274,9.71794142969884e-05,0.0900387018918991,0,0,0
10577,366706.74445227353,2010-10-19 23:04:51,5282.671339254758,2,32,0.5501165986061096,4.156915187835693,31.77707018774821,30.981642580271807,126.83651104817427,113.05218634127274,9.70840483205393e-05,0.0900387018918991,0,0,0
10578,366736.75961511984,2010-10-19 23:05:21,5312.68650209098,2,32,0.5501165986061096,4.160315036773682,31.78165660574241,30.981642580271807,126.85558431774474,113.05218634127274,6.47544875391759e-05,0.0900387018918991,0,0,0
10579,366766.7747925624,2010-10-19 23:05:51,5342.70167955867,2,32,0.5499359965324402,4.163876533508301,31.7862430838059,30.981642580271807,126.87467380302074,113.05218634127274,9.71794142969884e-05,0.0900387018918991,0,0,0
10580,366796.79010777344,2010-10-19 23:06:21,5372.716994744595,2,32,0.5501165986061096,4.16743803024292,31.79082960272468,30.981642580271807,126.89377940686262,113.05218634127274,0.0001295089750783,0.0900387018918991,0,0,0
10581,366826.8051682194,2010-10-19 23:06:51,5402.732055215692,2,32,0.5499359965324402,4.170999526977539,31.795416018806677,30.981642580271807,126.91290070640146,113.05218634127274,0.0001295089750783,0.0900387018918991,0,0,0
10582,366856.82046099455,2010-10-19 23:07:21,5432.747347960686,2,32,0.550297200679779,4.174561023712158,31.800002532020464,30.981642580271807,126.93203869931762,113.05218634127274,0.0001295089750783,0.0900387018918991,0,0,0
10583,366886.8355196712,2010-10-19 23:07:51,5462.762406687437,2,32,0.5501165986061096,4.177960395812988,31.8045890058538,30.981642580271807,126.95119280616916,113.05218634127274,0.0001295089750783,0.0900387018918991,0,0,0
10584,366916.8507393492,2010-10-19 23:08:21,5492.777626320213,2,32,0.550297200679779,4.1816840171813965,31.809175481710597,30.981642580271807,126.97036341267945,113.05218634127274,0.0001295089750783,0.0900387018918991,0,0,0
10585,366946.8660905848,2010-10-19 23:08:51,5522.79297756601,2,32,0.5501165986061096,4.185083389282227,31.81376203747596,30.981642580271807,126.98955102729424,113.05218634127274,6.47544875391759e-05,0.0900387018918991,0,0,0
10586,366976.88116468,2010-10-19 23:09:21,5552.808051766326,2,32,0.5501165986061096,4.188807010650635,31.818348453126276,30.981642580271807,127.00875470314315,113.05218634127274,6.47544875391759e-05,0.0900387018918991,0,0,0
10587,367006.8962616018,2010-10-19 23:09:51,5582.823148698295,2,32,0.5501165986061096,4.192692279815674,31.82293497582402,30.981642580271807,127.02797572899196,113.05218634127274,9.71794142969884e-05,0.0900387018918991,0,0,0
10588,367036.9115718604,2010-10-19 23:10:21,5612.838458836639,2,32,0.550297200679779,4.196415424346924,31.827521520998637,30.981642580271807,127.0472137051194,113.05218634127274,9.71794142969884e-05,0.0900387018918991,0,0,0
10589,367066.27050282,2010-10-19 23:10:50,5642.197389816158,2,32,0.550297200679779,4.200138568878174,31.832007739499463,30.981642580271807,127.06604738671952,113.05218634127274,0.0001295089750783,0.0900387018918991,0,0,0
10590,367096.29370523925,2010-10-19 23:11:20,30.0151880741232,3,32,0.0,4.115796089172363,31.832007739499463,30.981642580271807,127.06604738671952,113.05218634127274,-0.0003561973571777,0.0900387018918991,0,0,0
10591,367126.30890362913,2010-10-19 23:11:50,60.03038645894383,3,32,0.0,4.105112075805664,31.832007739499463,30.981642580271807,127.06604738671952,113.05218634127274,-0.0002265930233988,0.0900387018918991,0,0,0
10592,367156.32405628485,2010-10-19 23:12:20,90.04553917494371,3,32,0.0,4.0989603996276855,31.832007739499463,30.981642580271807,127.06604738671952,113.05218634127274,-0.0001295089750783,0.0900387018918991,0,0,0
10593,367186.2923591766,2010-10-19 23:12:50,120.01384203669146,3,32,0.0,4.094751358032227,31.832007739499463,30.981642580271807,127.06604738671952,113.05218634127274,-9.70840483205393e-05,0.0900387018918991,0,0,0
10594,367186.3022776747,2010-10-19 23:12:51,2.606496191e-06,4,32,1.0016398429870603,4.199814796447754,31.83200774022468,30.981642580271807,127.06604738976527,113.05218634127274,0.0,0.0900387018918991,0,0,0
10595,367187.0523551536,2010-10-19 23:12:51,0.750080115441562,4,32,0.9510692358016968,4.199653148651123,31.83220954827185,30.981642580271807,127.06689493026768,113.05218634127274,-3.23295607813634e-05,0.0900387018918991,0,0,0
10596,367189.0678298016,2010-10-19 23:12:53,2.765554708272926,4,32,0.900498628616333,4.199814796447754,31.83272674846805,30.981642580271807,127.0690670216852,113.05218634127274,0.0,0.0900387018918991,0,0,0
10597,367192.1459126662,2010-10-19 23:12:56,5.843637582898918,4,32,0.8504698276519775,4.199814796447754,31.83347399112567,30.981642580271807,127.07220522278207,113.05218634127274,3.23295607813634e-05,0.0900387018918991,0,0,0
10598,367196.33335787314,2010-10-19 23:13:01,10.031082819874149,4,32,0.8002604842185974,4.199814796447754,31.83443272920677,30.981642580271807,127.07623165857994,113.05218634127274,0.0,0.0900387018918991,0,0,0
10599,367201.8801612088,2010-10-19 23:13:06,15.577886115395293,4,32,0.7500510811805725,4.199491024017334,31.83562575801052,30.981642580271807,127.08124205596889,113.05218634127274,-3.24249267578125e-05,0.0900387018918991,0,0,0
10600,367209.0830918331,2010-10-19 23:13:13,22.780816794935067,4,32,0.6998416781425476,4.199653148651123,31.837074245224144,30.981642580271807,127.087325311575,113.05218634127274,0.0,0.0900387018918991,0,0,0
10601,367218.55180593714,2010-10-19 23:13:23,32.24953086885777,4,32,0.6498129367828369,4.199653148651123,31.83884598712147,30.981642580271807,127.09476614654658,113.05218634127274,0.0,0.0900387018918991,0,0,0
10602,367231.6298730695,2010-10-19 23:13:36,45.32759801119714,4,32,0.5997841358184814,4.199814796447754,31.84111079013508,30.981642580271807,127.10427773976215,113.05218634127274,0.0,0.0900387018918991,0,0,0
10603,367251.2544521689,2010-10-19 23:13:56,64.95217708057004,4,32,0.5497553944587708,4.199814796447754,31.84423400621047,30.981642580271807,127.11739441771772,113.05218634127274,3.23295607813634e-05,0.0900387018918991,0,0,0
10604,367283.8320972394,2010-10-19 23:14:28,97.52982215097629,4,32,0.4997266232967376,4.199491024017334,31.848963290013685,30.981642580271807,127.1372561179902,113.05218634127274,-6.47544875391759e-05,0.0900387018918991,0,0,0
10605,367342.6437577482,2010-10-19 23:15:27,156.34148265484745,4,32,0.4496978521347046,4.199491024017334,31.85668405924076,30.981642580271807,127.16968126263032,113.05218634127274,-6.47544875391759e-05,0.0900387018918991,0,0,0
10606,367436.7205044726,2010-10-19 23:17:01,250.41822941446372,4,32,0.3996690809726715,4.199653148651123,31.86775224656035,30.981642580271807,127.21616461977924,113.05218634127274,0.0,0.0900387018918991,0,0,0
10607,367555.51574735536,2010-10-19 23:19:00,369.21347228207225,4,32,0.3496403098106384,4.199653148651123,31.880101182201795,30.981642580271807,127.26802695661632,113.05218634127274,0.0,0.0900387018918991,0,0,0
10608,367698.388664175,2010-10-19 23:21:23,512.0863891217342,4,32,0.2996115386486053,4.199653148651123,31.89296666114833,30.981642580271807,127.32205858929645,113.05218634127274,0.0,0.0900387018918991,0,0,0
10609,367867.02667466574,2010-10-19 23:24:11,680.7243996074833,4,32,0.2495827823877334,4.199814796447754,31.90580626522029,30.981642580271807,127.37598157581068,113.05218634127274,3.23295607813634e-05,0.0900387018918991,0,0,0
10610,368075.9922932644,2010-10-19 23:27:40,889.6900181760695,4,32,0.1995540112257003,4.199653148651123,31.918804389698625,30.981642580271807,127.43056969580026,113.05218634127274,0.0,0.0900387018918991,0,0,0
10611,368351.75382433954,2010-10-19 23:32:16,1165.4515492562232,4,32,0.1495252400636673,4.199653148651123,31.93211046876136,30.981642580271807,127.4864516338796,113.05218634127274,-3.23295607813634e-05,0.0900387018918991,0,0,0
10612,368757.0603838606,2010-10-19 23:39:01,1570.7581088023228,4,32,0.0994964689016342,4.199653148651123,31.94595114658003,30.981642580271807,127.5445788125974,113.05218634127274,0.0,0.0900387018918991,0,0,0
10613,369510.205353577,2010-10-19 23:51:34,2323.903078493707,4,32,0.0498289167881011,4.199653148651123,31.960962370910018,30.981642580271807,127.60762208877716,113.05218634127274,-3.23295607813634e-05,0.0900387018918991,0,0,0
10614,369540.21795634186,2010-10-19 23:52:05,30.01515720719331,5,32,0.0,4.191720962524414,31.960962370910018,30.981642580271807,127.60762208877716,113.05218634127274,-6.47544875391759e-05,0.0900387018918991,0,0,0
10615,369570.2175105966,2010-10-19 23:52:35,60.014711487090906,5,32,0.0,4.190587520599365,31.960962370910018,30.981642580271807,127.60762208877716,113.05218634127274,-3.24249267578125e-05,0.0900387018918991,0,0,0
10616,369570.4035312995,2010-10-19 23:52:35,0.187657851105833,6,32,-0.001102898735553,4.191558837890625,31.960962370910018,30.981642637762807,127.60762208877716,113.05218658224966,0.0,0.0954576581716537,0,0,0
10617,369575.2315398875,2010-10-19 23:52:40,5.015666308723279,6,32,0.0007031940040178,4.190749645233154,31.96096325451398,30.98164263784657,127.6076257918326,113.05218658260088,-6.47544875391759e-05,0.0954576581716537,0,0,0
10618,369605.26085934776,2010-10-19 23:53:10,30.015373706776888,7,32,-1.0997490882873535,4.015427112579346,31.960963254561324,30.99081099121089,127.607625792031,113.08919841580884,-0.0008742332574911,0.0954576581716537,0,0,0
10619,369635.2760087856,2010-10-19 23:53:40,60.03052317468151,7,32,-1.0997490882873535,3.988392353057861,31.960963254561324,30.999979201258824,127.607625792031,113.12587992406822,-0.0006475448608398,0.0954576581716537,0,0,0
10620,369665.2911463338,2010-10-19 23:54:10,90.0456607028286,7,32,-1.0997490882873535,3.969775438308716,31.960963254561324,31.00914734009075,127.607625792031,113.16235674383915,-0.0004209041653666,0.0954576581716537,0,0,0
10621,369695.3061906095,2010-10-19 23:54:40,120.06070496853695,7,32,-1.0997490882873535,3.9552056789398193,31.960963254561324,31.018315471081088,127.607625792031,113.19868362456128,-0.0003561496851034,0.0954576581716537,0,0,0
10622,369725.32152320887,2010-10-19 23:55:10,150.07603757287393,7,32,-1.099568486213684,3.943064212799072,31.960963254561324,31.027483636607027,127.607625792031,113.23488836220277,-0.0002590179501567,0.0954576581716537,0,0,0
10623,369755.3366774085,2010-10-19 23:55:40,180.09119176755917,7,32,-1.0993878841400146,3.932217836380005,31.960963254561324,31.036651710838736,127.607625792031,113.27098744834234,-0.0002590179501567,0.0954576581716537,0,0,0
10624,369785.3517225714,2010-10-19 23:56:10,210.10623693551625,7,32,-1.099568486213684,3.9221808910369873,31.960963254561324,31.04581976701419,127.607625792031,113.30699129914916,-0.0002590179501567,0.0954576581716537,0,0,0
10625,369815.36691778334,2010-10-19 23:56:40,240.121432127379,7,32,-1.099568486213684,3.9127917289733887,31.960963254561324,31.05498788606243,127.607625792031,113.34290670505771,-0.0002265930233988,0.0954576581716537,0,0,0
10626,369845.382084364,2010-10-19 23:57:10,270.1365987279836,7,32,-1.099568486213684,3.903726100921631,31.960963254561324,31.06415604228532,127.607625792031,113.37873792450895,-0.0002590179501567,0.0954576581716537,0,0,0
10627,369875.3972645684,2010-10-19 23:57:40,300.1517790778556,7,32,-1.099568486213684,3.894984245300293,31.960963254561324,31.07332413529832,127.607625792031,113.4144884236542,-0.0002590179501567,0.0954576581716537,0,0,0
10628,369905.41242321423,2010-10-19 23:58:10,330.1669376283969,7,32,-1.0997490882873535,3.886728048324585,31.960963254561324,31.082492127114424,127.607625792031,113.45016114325428,-0.0001942634553415,0.0954576581716537,0,0,0
10629,369935.4277380543,2010-10-19 23:58:40,360.18225245342234,7,32,-1.099568486213684,3.878471851348877,31.960963254561324,31.09166019504777,127.607625792031,113.48575709332196,-0.0001942634553415,0.0954576581716537,0,0,0
10630,369965.4427745758,2010-10-19 23:59:10,390.19728893472967,7,32,-1.0997490882873535,3.870215654373169,31.960963254561324,31.10082823179259,127.607625792031,113.52127705699264,-0.0002266406954731,0.0954576581716537,0,0,0
10631,369995.45806838834,2010-10-19 23:59:40,420.2125827574107,7,32,-1.099568486213684,3.862283229827881,31.960963254561324,31.10999633477523,127.607625792031,113.55672316740798,-0.0002266406954731,0.0954576581716537,0,0,0
10632,370025.47340551903,2010-10-20 00:00:10,450.2279199130911,7,32,-1.099568486213684,3.8543508052825928,31.960963254561324,31.11916450918597,127.607625792031,113.59209617344465,-0.0001942634553415,0.0954576581716537,0,0,0
10633,370055.48842032126,2010-10-20 00:00:40,480.2429346903051,7,32,-1.0993878841400146,3.846580266952514,31.960963254561324,31.128332530768063,127.607625792031,113.62739621086924,-0.0001618862152099,0.0954576581716537,0,0,0
10634,370085.5034716346,2010-10-20 00:01:10,510.2579860035782,7,32,-1.0997490882873535,3.838809728622437,31.960963254561324,31.13750057162807,127.607625792031,113.66262593607928,-0.0002266406954731,0.0954576581716537,0,0,0
10635,370115.51863531285,2010-10-20 00:01:40,540.273149676887,7,32,-1.0997490882873535,3.831363201141357,31.960963254561324,31.146668638719277,127.607625792031,113.69778679838264,-0.0001942634553415,0.0954576581716537,0,0,0
10636,370145.5339887742,2010-10-20 00:02:10,570.2885032384559,7,32,-1.099568486213684,3.823916435241699,31.960963254561324,31.155836807803272,127.607625792031,113.7328798000302,-0.0001942634553415,0.0954576581716537,0,0,0
10637,370175.5490163483,2010-10-20 00:02:40,600.3035307173262,7,32,-1.0997490882873535,3.816793441772461,31.960963254561324,31.165004849646213,127.607625792031,113.76790457045104,-0.0001942634553415,0.0954576581716537,0,0,0
10638,370205.56420388113,2010-10-20 00:03:10,630.3187182701503,7,32,-1.0997490882873535,3.8095085620880127,31.960963254561324,31.17417287416143,127.607625792031,113.80286340147906,-0.0001942634553415,0.0954576581716537,0,0,0
10639,370235.5793359005,2010-10-20 00:03:40,660.3338502895679,7,32,-1.099568486213684,3.8027093410491934,31.960963254561324,31.183340943405355,127.607625792031,113.83775810031256,-0.0001618862152099,0.0954576581716537,0,0,0
10640,370265.59451236064,2010-10-20 00:04:10,690.349026774808,7,32,-1.0997490882873535,3.795910120010376,31.960963254561324,31.19250901191049,127.607625792031,113.87258947972592,-0.0001295089750783,0.0954576581716537,0,0,0
10641,370295.6096712721,2010-10-20 00:04:40,720.3641857263488,7,32,-1.0997490882873535,3.788949012756348,31.960963254561324,31.201677098125725,127.607625792031,113.90735876166664,-0.0001942634553415,0.0954576581716537,0,0,0
10642,370325.6249149147,2010-10-20 00:05:10,750.3794292837534,7,32,-1.099568486213684,3.7823116779327393,31.960963254561324,31.21084524297907,127.607625792031,113.94206697195582,-0.0001942634553415,0.0954576581716537,0,0,0
10643,370355.64000939054,2010-10-20 00:05:40,780.3945237746383,7,32,-1.099568486213684,3.775998115539551,31.960963254561324,31.22001330982643,127.607625792031,113.97671485580766,-0.0001618862152099,0.0954576581716537,0,0,0
10644,370385.6551870838,2010-10-20 00:06:10,810.4097015881889,7,32,-1.099568486213684,3.7696845531463614,31.960963254561324,31.229181385606168,127.607625792031,114.01130412993196,-0.0001618862152099,0.0954576581716537,0,0,0
10645,370415.6704594079,2010-10-20 00:06:40,840.4249737970017,7,32,-1.0997490882873535,3.763370990753174,31.960963254561324,31.238349492135946,127.607625792031,114.0458361825494,-0.0001942634553415,0.0954576581716537,0,0,0
10646,370445.68551260594,2010-10-20 00:07:10,870.4400269699097,7,32,-1.0997490882873535,3.757381200790405,31.960963254561324,31.247517554139566,127.607625792031,114.08031230702954,-0.0002266406954731,0.0954576581716537,0,0,0
10647,370475.70080968674,2010-10-20 00:07:40,900.4553240757734,7,32,-1.099568486213684,3.751553535461426,31.960963254561324,31.256685705055407,127.607625792031,114.11473392741404,-0.0001295089750783,0.0954576581716537,0,0,0
10648,370505.7157578278,2010-10-20 00:08:10,930.4702722118972,7,32,-1.099568486213684,3.745725631713867,31.960963254561324,31.26585362762828,127.607625792031,114.14910020389348,-0.0001618862152099,0.0954576581716537,0,0,0
10649,370535.7311841909,2010-10-20 00:08:40,960.4856986049848,7,32,-1.099568486213684,3.739735841751098,31.960963254561324,31.275021009104453,127.607625792031,114.18341117779632,-0.0001942634553415,0.0954576581716537,0,0,0
10650,370565.7463159546,2010-10-20 00:09:10,990.5008303086154,7,32,-1.0997490882873535,3.73423171043396,31.960963254561324,31.28418826048624,127.607625792031,114.21766984899534,-0.0001942634553415,0.0954576581716537,0,0,0
10651,370595.76135002496,2010-10-20 00:09:40,1020.515864383926,7,32,-1.0992072820663452,3.7288894653320312,31.960963254561324,31.293355541050225,127.607625792031,114.25187731161267,-6.47544875391759e-05,0.0954576581716537,0,0,0
10652,370625.7765531967,2010-10-20 00:10:10,1050.5310675857522,7,32,-1.0997490882873535,3.7232234477996826,31.960963254561324,31.302522832601703,127.607625792031,114.28603525408032,-0.0001618862152099,0.0954576581716537,0,0,0
10653,370655.79157351766,2010-10-20 00:10:40,1080.546087876708,7,32,-1.0993878841400146,3.717881202697754,31.960963254561324,31.31168999399324,127.607625792031,114.32014301470466,-0.0001618862152099,0.0954576581716537,0,0,0
10654,370685.8068401526,2010-10-20 00:11:10,1110.5613545366914,7,32,-1.0993878841400146,3.712700843811035,31.960963254561324,31.320857287084056,127.607625792031,114.3542024334972,-0.0001618862152099,0.0954576581716537,0,0,0
10655,370715.8221294089,2010-10-20 00:11:40,1140.5766438080293,7,32,-1.099568486213684,3.707520484924317,31.960963254561324,31.330025083801967,127.607625792031,114.38821585017538,-0.0001295089750783,0.0954576581716537,0,0,0
10656,370745.8371716245,2010-10-20 00:12:10,1170.5916860136033,7,32,-1.0997490882873535,3.7023401260375977,31.960963254561324,31.33919277993069,127.607625792031,114.42218158552706,-0.0001295089750783,0.0954576581716537,0,0,0
10657,370775.8523722048,2010-10-20 00:12:40,1200.6068865989082,7,32,-1.0997490882873535,3.697321653366089,31.960963254561324,31.34836059569216,127.607625792031,114.45610126490516,-0.0001295089750783,0.0954576581716537,0,0,0
10658,370805.8675447753,2010-10-20 00:13:10,1230.6220591693914,7,32,-1.099568486213684,3.69246506690979,31.960963254561324,31.35752840361933,127.607625792031,114.48997538927752,-0.0001295089750783,0.0954576581716537,0,0,0
10659,370835.8826939374,2010-10-20 00:13:40,1260.6372083164963,7,32,-1.099568486213684,3.687608480453491,31.960963254561324,31.36669629591445,127.607625792031,114.52380458912818,-0.0001295089750783,0.0954576581716537,0,0,0
10660,370865.8978799264,2010-10-20 00:14:11,1290.6523942853728,7,32,-1.099568486213684,3.682751893997192,31.960963254561324,31.375864118751483,127.607625792031,114.55758926728224,-0.0001295089750783,0.0954576581716537,0,0,0
10661,370895.9130567725,2010-10-20 00:14:41,1320.6675711565747,7,32,-1.099568486213684,3.6778953075408936,31.960963254561324,31.38503200423079,127.607625792031,114.59133031960532,-0.0001295089750783,0.0954576581716537,0,0,0
10662,370925.928219704,2010-10-20 00:15:11,1350.68273409806,7,32,-1.0997490882873535,3.6732006072998047,31.960963254561324,31.3941999048949,127.607625792031,114.6250282241247,-0.0001295089750783,0.0954576581716537,0,0,0
10663,370955.9433957882,2010-10-20 00:15:41,1380.697910177288,7,32,-1.099568486213684,3.668668031692505,31.960963254561324,31.40336776162521,127.607625792031,114.65868325351596,-0.0001295089750783,0.0954576581716537,0,0,0
10664,370985.958620634,2010-10-20 00:16:11,1410.7131350481195,7,32,-1.099568486213684,3.664297103881836,31.960963254561324,31.412535631987183,127.607625792031,114.69229644604442,-9.713172767078504e-05,0.0954576581716537,0,0,0
10665,371015.9737315157,2010-10-20 00:16:41,1440.7282459047935,7,32,-1.0997490882873535,3.659440517425537,31.960963254561324,31.421703511261843,127.607625792031,114.72586841428172,-0.0001295089750783,0.0954576581716537,0,0,0
10666,371045.988905635,2010-10-20 00:17:11,1470.7434199940622,7,32,-1.099568486213684,3.655069589614868,31.960963254561324,31.43087135320837,127.607625792031,114.75939910665312,-0.0001618862152099,0.0954576581716537,0,0,0
10667,371076.0040576192,2010-10-20 00:17:41,1500.7585719682131,7,32,-1.099929690361023,3.650860548019409,31.960963254561324,31.44003920001817,127.607625792031,114.7928893210024,-0.0001295089750783,0.0954576581716537,0,0,0
10668,371106.01935375767,2010-10-20 00:18:11,1530.7738681567907,7,32,-1.099568486213684,3.6463277339935294,31.960963254561324,31.44920706877364,127.607625792031,114.82634002091952,-0.0001618862152099,0.0954576581716537,0,0,0
10669,371136.0344045948,2010-10-20 00:18:41,1560.7889189788395,7,32,-1.099568486213684,3.642442464828491,31.960963254561324,31.45837480323884,127.607625792031,114.85975129505913,-9.713172767078504e-05,0.0954576581716537,0,0,0
10670,371166.0496901268,2010-10-20 00:19:11,1590.804204525895,7,32,-1.0993878841400146,3.638395309448242,31.960963254561324,31.467542640870192,127.607625792031,114.89312508761222,-9.713172767078504e-05,0.0954576581716537,0,0,0
10671,371196.06478322926,2010-10-20 00:19:41,1620.8192976383448,7,32,-1.099568486213684,3.634186267852783,31.960963254561324,31.47671047477258,127.607625792031,114.92646155720776,-0.0001295089750783,0.0954576581716537,0,0,0
10672,371226.0799382509,2010-10-20 00:20:11,1650.8344526350288,7,32,-1.0993878841400146,3.630300998687744,31.960963254561324,31.4858782719265,127.607625792031,114.9597611041755,-9.713172767078504e-05,0.0954576581716537,0,0,0
10673,371256.0950605612,2010-10-20 00:20:41,1680.8495749703106,7,32,-1.099568486213684,3.626415729522705,31.960963254561324,31.495046117103666,127.607625792031,114.99302447430696,-6.47544875391759e-05,0.0954576581716537,0,0,0
10674,371286.1103176022,2010-10-20 00:21:11,1710.8648320965328,7,32,-1.099568486213684,3.622530460357666,31.960963254561324,31.50421397740103,127.607625792031,115.02625238694708,-6.47544875391759e-05,0.0954576581716537,0,0,0
10675,371316.1254003689,2010-10-20 00:21:41,1740.8799147829975,7,32,-1.099568486213684,3.618807077407837,31.960963254561324,31.513381817033377,127.607625792031,115.05944552036556,-6.47544875391759e-05,0.0954576581716537,0,0,0
10676,371346.1405766335,2010-10-20 00:22:11,1770.8950910276385,7,32,-1.099568486213684,3.615083694458008,31.960963254561324,31.52254963430329,127.607625792031,115.0926046465264,-6.47544875391759e-05,0.0954576581716537,0,0,0
10677,371376.1558213388,2010-10-20 00:22:41,1800.9103357429285,7,32,-1.099568486213684,3.6115221977233887,31.960963254561324,31.53171746060426,127.607625792031,115.12573059602444,-9.713172767078504e-05,0.0954576581716537,0,0,0
10678,371406.1710828259,2010-10-20 00:23:11,1830.925597214982,7,32,-1.099568486213684,3.6079607009887695,31.960963254561324,31.540885298117537,127.607625792031,115.15882416257558,-9.713172767078504e-05,0.0954576581716537,0,0,0
10679,371436.186085924,2010-10-20 00:23:41,1860.9406002780008,7,32,-1.099568486213684,3.6047229766845694,31.960963254561324,31.55005305660204,127.607625792031,115.19188600811064,-6.47544875391759e-05,0.0954576581716537,0,0,0
10680,371466.2013801728,2010-10-20 00:24:11,1890.955894591906,7,32,-1.0997490882873535,3.601323366165161,31.960963254561324,31.559220879167896,127.607625792031,115.22491786354608,-9.713172767078504e-05,0.0954576581716537,0,0,0
10681,371496.2165525127,2010-10-20 00:24:41,1920.971066906752,7,32,-1.099568486213684,3.598247528076172,31.960963254561324,31.56838871053374,127.607625792031,115.257920285298,-9.713172767078504e-05,0.0954576581716537,0,0,0
10682,371526.2318238843,2010-10-20 00:25:11,1950.986338328604,7,32,-1.099568486213684,3.5951716899871826,31.960963254561324,31.57755669897313,127.607625792031,115.29089450739691,-9.713172767078504e-05,0.0954576581716537,0,0,0
10683,371556.233827995,2010-10-20 00:25:41,1980.988342504396,7,32,-1.099568486213684,3.5920960903167725,31.960963254561324,31.586720590957828,127.607625792031,115.3238260862746,-9.70840483205393e-05,0.0954576581716537,0,0,0
10684,371586.246475407,2010-10-20 00:26:11,2011.000989806132,7,32,-1.099568486213684,3.589182138442993,31.960963254561324,31.59588781223709,127.607625792031,115.35674198859488,-6.47544875391759e-05,0.0954576581716537,0,0,0
10685,371616.26149251504,2010-10-20 00:26:41,2041.0160069041303,7,32,-1.099568486213684,3.586106300354004,31.960963254561324,31.60505580523389,127.607625792031,115.38963320557107,-6.47544875391759e-05,0.0954576581716537,0,0,0
10686,371646.2766601984,2010-10-20 00:27:11,2071.031174582421,7,32,-1.099568486213684,3.5831923484802246,31.960963254561324,31.614223840510306,127.607625792031,115.42249733749428,-6.47544875391759e-05,0.0954576581716537,0,0,0
10687,371676.2918471697,2010-10-20 00:27:41,2101.0463615237204,7,32,-1.099568486213684,3.5804402828216557,31.960963254561324,31.62339183745612,127.607625792031,115.45533461731716,-6.47544875391759e-05,0.0954576581716537,0,0,0
10688,371706.3071263659,2010-10-20 00:28:11,2131.061640820198,7,32,-1.099568486213684,3.577364444732666,31.960963254561324,31.63255993629757,127.607625792031,115.48814547634387,-6.47544875391759e-05,0.0954576581716537,0,0,0
10689,371736.3221831279,2010-10-20 00:28:41,2161.0766974818007,7,32,-1.099568486213684,3.5744504928588867,31.960963254561324,31.64172795694812,127.607625792031,115.52092931575086,-6.47544875391759e-05,0.0954576581716537,0,0,0
10690,371766.33778671245,2010-10-20 00:29:11,2191.092301116629,7,32,-1.099568486213684,3.5715365409851074,31.960963254561324,31.650896051330697,127.607625792031,115.55368666249758,-6.47544875391759e-05,0.0954576581716537,0,0,0
10691,371796.3525358527,2010-10-20 00:29:41,2221.1070502116813,7,32,-1.099568486213684,3.568622589111328,31.960963254561324,31.660063946625133,127.607625792031,115.58641655420452,-6.47544875391759e-05,0.0954576581716537,0,0,0
10692,371826.36769130046,2010-10-20 00:30:11,2251.1222056594897,7,32,-1.099568486213684,3.565708637237549,31.960963254561324,31.66923201307525,127.607625792031,115.61912052245508,-6.47544875391759e-05,0.0954576581716537,0,0,0
10693,371856.38287526433,2010-10-20 00:30:41,2281.1373896484315,7,32,-1.099568486213684,3.5629565715789795,31.960963254561324,31.678400034628496,127.607625792031,115.6517975733348,-6.47544875391759e-05,0.0954576581716537,0,0,0
10694,371886.3980638949,2010-10-20 00:31:11,2311.152578263904,7,32,-1.099568486213684,3.5598807334899902,31.960963254561324,31.687568001468893,127.607625792031,115.68444816437396,-9.713172767078504e-05,0.0954576581716537,0,0,0
10695,371916.4132341095,2010-10-20 00:31:41,2341.167748493553,7,32,-1.099568486213684,3.556966781616211,31.960963254561324,31.69673605284315,127.607625792031,115.71707168043648,-9.713172767078504e-05,0.0954576581716537,0,0,0
10696,371946.4284008104,2010-10-20 00:32:11,2371.182915204433,7,32,-1.099568486213684,3.5538909435272217,31.960963254561324,31.705904114109387,127.607625792031,115.74966766348328,-6.47544875391759e-05,0.0954576581716537,0,0,0
10697,371976.4438606368,2010-10-20 00:32:41,2401.1983750258337,7,32,-1.099568486213684,3.5508151054382324,31.960963254561324,31.71507218750949,127.607625792031,115.78223588108938,-9.713172767078504e-05,0.0954576581716537,0,0,0
10698,372006.4587475353,2010-10-20 00:33:11,2431.213261919322,7,32,-1.0993878841400146,3.547739267349243,31.960963254561324,31.724240169901275,127.607625792031,115.81477547424844,-6.47544875391759e-05,0.0954576581716537,0,0,0
10699,372036.4739260004,2010-10-20 00:33:41,2461.2284403794843,7,32,-1.0997490882873535,3.544501543045044,31.960963254561324,31.733408262298862,127.607625792031,115.84728681229166,-9.713172767078504e-05,0.0954576581716537,0,0,0
10700,372066.4890867815,2010-10-20 00:34:11,2491.2436011355226,7,32,-1.099568486213684,3.5414257049560547,31.960963254561324,31.74257634487899,127.607625792031,115.87976867319348,-6.47544875391759e-05,0.0954576581716537,0,0,0
10701,372096.5042649711,2010-10-20 00:34:41,2521.2587793250104,7,32,-1.099568486213684,3.538026094436645,31.960963254561324,31.75174447470621,127.607625792031,115.9122207603292,-6.47544875391759e-05,0.0954576581716537,0,0,0
10702,372126.51945925056,2010-10-20 00:35:11,2551.2739737449488,7,32,-1.099568486213684,3.5344645977020264,31.960963254561324,31.760912635506863,127.607625792031,115.94464185352716,-0.0001295089750783,0.0954576581716537,0,0,0
10703,372156.53464118944,2010-10-20 00:35:41,2581.2891555735064,7,32,-1.099929690361023,3.5309031009674072,31.960963254561324,31.770080752874023,127.607625792031,115.97703110712855,-0.0001295089750783,0.0954576581716537,0,0,0
10704,372186.5498149679,2010-10-20 00:36:11,2611.3043293770625,7,32,-1.0997490882873535,3.527179718017578,31.960963254561324,31.779248830809305,127.607625792031,116.00938716749612,-0.0001295089750783,0.0954576581716537,0,0,0
10705,372216.5649731426,2010-10-20 00:36:41,2641.319487501542,7,32,-1.0997490882873535,3.523456335067749,31.960963254561324,31.78841699216832,127.607625792031,116.0417090989507,-0.0001295089750783,0.0954576581716537,0,0,0
10706,372246.5801486253,2010-10-20 00:37:11,2671.334662984284,7,32,-1.0997490882873535,3.5194091796875,31.960963254561324,31.797585097548268,127.607625792031,116.07399475064076,-0.0001295089750783,0.0954576581716537,0,0,0
10707,372276.5953365239,2010-10-20 00:37:41,2701.3498508779576,7,32,-1.099568486213684,3.515200138092041,31.960963254561324,31.806753227007285,127.607625792031,116.10624266011868,-0.0001295089750783,0.0954576581716537,0,0,0
10708,372306.6105012098,2010-10-20 00:38:11,2731.365015558777,7,32,-1.099568486213684,3.510667562484741,31.960963254561324,31.815921348235943,127.607625792031,116.13845031959733,-0.0001295089750783,0.0954576581716537,0,0,0
10709,372336.62568007095,2010-10-20 00:38:41,2761.3801944650518,7,32,-1.099568486213684,3.5059728622436523,31.960963254561324,31.82508953327461,127.607625792031,116.17061559579864,-0.0001295089750783,0.0954576581716537,0,0,0
10710,372366.6408691376,2010-10-20 00:39:11,2791.395383526636,7,32,-1.099568486213684,3.500630617141724,31.960963254561324,31.834257690956036,127.607625792031,116.20273437603278,-9.713172767078504e-05,0.0954576581716537,0,0,0
10711,372396.6560613469,2010-10-20 00:39:41,2821.41057572604,7,32,-1.099568486213684,3.494802713394165,31.960963254561324,31.84342579960651,127.607625792031,116.23480244301264,-0.0001618862152099,0.0954576581716537,0,0,0
10712,372426.67134091415,2010-10-20 00:40:11,2851.4258552931924,7,32,-1.099568486213684,3.488489151000977,31.960963254561324,31.852594048411717,127.607625792031,116.2668148776106,-0.0001618862152099,0.0954576581716537,0,0,0
10713,372456.68686566735,2010-10-20 00:40:41,2881.4413800614607,7,32,-1.099568486213684,3.4808804988861084,31.960963254561324,31.86176235330796,127.607625792031,116.2987649275644,-0.0002590179501567,0.0954576581716537,0,0,0
10714,372486.7017074936,2010-10-20 00:41:11,2911.456221927728,7,32,-1.0997490882873535,3.4727861881256104,31.960963254561324,31.870930364915317,127.607625792031,116.33064208820632,-0.0002266406954731,0.0954576581716537,0,0,0
10715,372516.71696255455,2010-10-20 00:41:41,2941.4714769086027,7,32,-1.0997490882873535,3.4632349014282227,31.960963254561324,31.880098530802165,127.607625792031,116.36243818674603,-0.0002913951757363,0.0954576581716537,0,0,0
10716,372546.73208252894,2010-10-20 00:42:11,2971.4865968980384,7,32,-1.0997490882873535,3.4517409801483154,31.960963254561324,31.8892666687909,127.607625792031,116.39413890949994,-0.0003561496851034,0.0954576581716537,0,0,0
10717,372576.7471223837,2010-10-20 00:42:41,3001.501636742728,7,32,-1.0997490882873535,3.438466310501098,31.960963254561324,31.89843477401985,127.607625792031,116.42572715438052,-0.0004209041653666,0.0954576581716537,0,0,0
10718,372606.76249914814,2010-10-20 00:43:11,3031.51701351715,7,32,-1.099568486213684,3.4219541549682617,31.960963254561324,31.90760304382098,127.607625792031,116.457180075929,-0.0005504131549969,0.0954576581716537,0,0,0
10719,372636.777484517,2010-10-20 00:43:41,3061.531998871033,7,32,-1.099568486213684,3.4010708332061768,31.960963254561324,31.916771242004312,127.607625792031,116.48846285643847,-0.0006475448608398,0.0954576581716537,0,0,0
10720,372666.79278465547,2010-10-20 00:44:11,3091.5472990144667,7,32,-1.099568486213684,3.3735501766204834,31.960963254561324,31.925939459414465,127.607625792031,116.51952574390069,-0.0008418083307333,0.0954576581716537,0,0,0
10721,372696.807867357,2010-10-20 00:44:41,3121.5623817209816,7,32,-1.099568486213684,3.335021495819092,31.960963254561324,31.935107674827,127.607625792031,116.550288813231,-0.0012303352123126,0.0954576581716537,0,0,0
10722,372726.8230296218,2010-10-20 00:45:11,3151.57754398578,7,32,-1.099568486213684,3.280303955078125,31.960963254561324,31.94427575904364,127.607625792031,116.58062863637242,-0.0016836166614666,0.0954576581716537,0,0,0
10723,372756.8382287484,2010-10-20 00:45:41,3181.5927431124496,7,32,-1.099568486213684,3.2003324031829834,31.960963254561324,31.953443928237945,127.607625792031,116.61036004957266,-0.0025254250504076,0.0954576581716537,0,0,0
10724,372786.8533752238,2010-10-20 00:46:11,3211.607889592908,7,32,-1.099568486213684,3.076489925384521,31.960963254561324,31.96261212086752,127.607625792031,116.63917985858944,-0.0040795328095555,0.0954576581716537,0,0,0
10725,372812.4937625083,2010-10-20 00:46:37,3237.2482768673462,7,32,-1.0997490882873535,2.876399040222168,31.960963254561324,31.970443998894893,127.607625792031,116.66259854287648,-0.0087418556213378,0.0954576581716537,0,0,0
10726,372825.16531256505,2010-10-20 00:46:50,3249.9198269190138,7,32,-1.0997490882873535,2.699296236038208,31.960963254561324,31.97431451810094,127.607625792031,116.67340566367696,-0.0122061725705862,0.0954576581716537,0,0,0
10727,372885.1649198429,2010-10-20 00:47:50,60.01474674496438,8,32,0.0,3.3314599990844727,31.960963254561324,31.97431451810094,127.607625792031,116.67340566367696,0.0013598442310467,0.0954576581716537,0,0,0
10728,372885.3537913533,2010-10-20 00:47:50,0.187512639193066,9,32,-1.9243103452026844e-05,3.3317837715148926,31.960963254561324,31.974314519103253,127.607625792031,116.67340566701648,0.0,0.0923051163554191,0,0,0
10729,372890.1822233666,2010-10-20 00:47:55,5.01594465244147,9,32,0.0005225847125984,3.3400399684906006,31.960964167549253,31.974314519270283,127.60762883830542,116.673405667573,0.0011655807029455,0.0923051163554191,0,0,0
