Data_Point,Test_Time(s),Date_Time,Step_Time(s),Step_Index,Cycle_Index,Current(A),Voltage(V),Charge_Capacity(Ah),Discharge_Capacity(Ah),Charge_Energy(Wh),Discharge_Energy(Wh),dV/dt(V/s),Internal_Resistance(Ohm),Is_FC_Data,AC_Impedance(Ohm),ACI_Phase_Angle(Deg)
9740,338097.0559802504,2010-10-19 15:07:58,30.01532510063543,1,30,0.0,3.416935682296753,29.0045169064288,29.009012266580665,115.7842019902424,105.87355543577571,0.0007770538213662,0.0931148082017898,0,0,0
9741,338127.07092653186,2010-10-19 15:08:28,60.03027151747432,1,30,0.0,3.441542148590088,29.0045169064288,29.009012266580665,115.7842019902424,105.87355543577571,0.0005504131549969,0.0931148082017898,0,0,0
9742,338157.086090556,2010-10-19 15:08:58,90.04543532612048,1,30,0.0,3.459835290908813,29.0045169064288,29.009012266580665,115.7842019902424,105.87355543577571,0.0004209041653666,0.0931148082017898,0,0,0
9743,338187.05455734633,2010-10-19 15:09:28,120.0139021565286,1,30,0.0,3.47489070892334,29.0045169064288,29.009012266580665,115.7842019902424,105.87355543577571,0.0004209041653666,0.0931148082017898,0,0,0
9744,338217.06389218324,2010-10-19 15:09:58,30.01512636532589,2,30,0.5499359965324402,3.6278727054595943,29.009103299363296,29.009012266580665,115.80068811106288,105.87355543577571,0.0015217304462566,0.0931148082017898,0,0,0
9745,338247.0790702625,2010-10-19 15:10:29,60.03030446960116,2,30,0.5501165986061096,3.671905755996704,29.013689701502123,29.009012266580665,115.81743449879774,105.87355543577571,0.0010036944877356,0.0931148082017898,0,0,0
9746,338277.094219555,2010-10-19 15:10:59,90.04545377710602,2,30,0.5501165986061096,3.7029876708984375,29.018276024208017,29.009012266580665,115.83434991272463,105.87355543577571,0.0007122993702068,0.0931148082017898,0,0,0
9747,338307.1093473338,2010-10-19 15:11:29,120.06058155595484,2,30,0.550297200679779,3.727594375610352,29.022862376842603,29.009012266580665,115.85139178710538,105.87355543577571,0.0006475448608398,0.0931148082017898,0,0,0
9748,338337.1244671628,2010-10-19 15:11:59,150.07570137496532,2,30,0.5501165986061096,3.747182607650757,29.027448719445577,29.009012266580665,115.86853355948062,105.87355543577571,0.0005180359003134,0.0931148082017898,0,0,0
9749,338367.1397417777,2010-10-19 15:12:29,180.09097596471204,2,30,0.5501165986061096,3.762399673461914,29.03203511948735,29.009012266580665,115.88575583130336,105.87355543577571,0.0003237724304199,0.0931148082017898,0,0,0
9750,338397.15476104605,2010-10-19 15:12:59,210.10599525316945,2,30,0.550297200679779,3.773084163665772,29.03662144093475,29.009012266580665,115.90303718732078,105.87355543577571,0.0002913951757363,0.0931148082017898,0,0,0
9751,338427.16996111505,2010-10-19 15:13:29,240.12119544248745,2,30,0.5501165986061096,3.77891206741333,29.04120782416456,29.009012266580665,115.9203559937352,105.87355543577571,6.47544875391759e-05,0.0931148082017898,0,0,0
9752,338457.1850848388,2010-10-19 15:13:59,270.1363190359049,2,30,0.5501165986061096,3.783606767654419,29.04579421431125,29.009012266580665,115.93769863268874,105.87355543577571,0.0001618862152099,0.0931148082017898,0,0,0
9753,338487.2001952895,2010-10-19 15:14:29,300.1514294765415,2,30,0.5501165986061096,3.787492036819458,29.05038053521389,29.009012266580665,115.95506001335136,105.87355543577571,0.0001618862152099,0.0931148082017898,0,0,0
9754,338517.2153459102,2010-10-19 15:14:59,330.166580082282,2,30,0.5501165986061096,3.791215419769287,29.05496695618769,29.009012266580665,115.97243953069356,105.87355543577571,9.713172767078504e-05,0.0931148082017898,0,0,0
9755,338547.230490095,2010-10-19 15:15:29,360.18172431714424,2,30,0.5499359965324402,3.794938802719116,29.05955334878901,29.009012266580665,115.98983610325284,105.87355543577571,9.713172767078504e-05,0.0931148082017898,0,0,0
9756,338577.2456226909,2010-10-19 15:15:59,390.1968568929486,2,30,0.550297200679779,3.798662185668945,29.064139800208025,29.009012266580665,116.00724990687074,105.87355543577571,9.713172767078504e-05,0.0931148082017898,0,0,0
9757,338607.2607597478,2010-10-19 15:16:29,420.2119939599463,2,30,0.5501165986061096,3.8020617961883545,29.0687262673254,29.009012266580665,116.02468032841114,105.87355543577571,9.713172767078504e-05,0.0931148082017898,0,0,0
9758,338637.2761683065,2010-10-19 15:16:59,450.22740261382216,2,30,0.5499359965324402,3.805785179138184,29.0733127815075,29.009012266580665,116.0421272765792,105.87355543577571,9.713172767078504e-05,0.0931148082017898,0,0,0
9759,338667.29107509454,2010-10-19 15:17:29,480.2423093066566,2,30,0.550297200679779,3.8091847896575928,29.077899245417324,29.009012266580665,116.05959022084696,105.87355543577571,9.713172767078504e-05,0.0931148082017898,0,0,0
9760,338697.3063204915,2010-10-19 15:17:59,510.25755471367097,2,30,0.5501165986061096,3.812746286392212,29.08248575438328,29.009012266580665,116.07706912953245,105.87355543577571,9.713172767078504e-05,0.0931148082017898,0,0,0
9761,338727.3213329229,2010-10-19 15:18:29,540.2725671149634,2,30,0.5499359965324402,3.815984010696411,29.087072113799618,29.009012266580665,116.09456322960028,105.87355543577571,6.47544875391759e-05,0.0931148082017898,0,0,0
9762,338757.3364867266,2010-10-19 15:18:59,570.2877209286993,2,30,0.5499359965324402,3.81938362121582,29.091658553973748,29.009012266580665,116.11207285899258,105.87355543577571,6.47544875391759e-05,0.0931148082017898,0,0,0
9763,338787.3516334326,2010-10-19 15:19:29,600.3028676146704,2,30,0.5501165986061096,3.82262134552002,29.09624504157124,29.009012266580665,116.12959760682392,105.87355543577571,0.0001295089750783,0.0931148082017898,0,0,0
9764,338817.36677702586,2010-10-19 15:19:59,630.3180112129462,2,30,0.5499359965324402,3.825697183609009,29.10083150589315,29.009012266580665,116.14713714390132,105.87355543577571,9.713172767078504e-05,0.0931148082017898,0,0,0
9765,338847.3819335915,2010-10-19 15:20:29,660.3331677785404,2,30,0.5501165986061096,3.829096794128418,29.10541799079789,29.009012266580665,116.16469170836244,105.87355543577571,9.713172767078504e-05,0.0931148082017898,0,0,0
9766,338877.3971079965,2010-10-19 15:20:59,690.3483422086584,2,30,0.5501165986061096,3.832334518432617,29.110004434454392,29.009012266580665,116.18226114071544,105.87355543577571,9.713172767078504e-05,0.0931148082017898,0,0,0
9767,338907.4124269067,2010-10-19 15:21:29,720.3636611188655,2,30,0.5501165986061096,3.8357338905334473,29.11459089528387,29.009012266580665,116.19984571519548,105.87355543577571,0.0001295089750783,0.0931148082017898,0,0,0
9768,338937.4130781807,2010-10-19 15:21:59,750.3643125632344,2,30,0.5499359965324402,3.8389716148376474,29.11917505725348,29.009012266580665,116.21743691525364,105.87355543577571,6.47544875391759e-05,0.0931148082017898,0,0,0
9769,338967.42704849475,2010-10-19 15:22:29,780.3782827921126,2,30,0.5501165986061096,3.8425331115722656,29.123761295939044,29.009012266580665,116.23505174454304,105.87355543577571,9.713172767078504e-05,0.0931148082017898,0,0,0
9770,338997.4420146859,2010-10-19 15:22:59,810.3932489030353,2,30,0.5501165986061096,3.8460946083068848,29.128347725647007,29.009012266580665,116.2526829825263,105.87355543577571,9.713172767078504e-05,0.0931148082017898,0,0,0
9771,339027.4571964894,2010-10-19 15:23:29,840.4084306914926,2,30,0.5499359965324402,3.849170446395874,29.1329341918938,29.009012266580665,116.27033005658576,105.87355543577571,6.47544875391759e-05,0.0931148082017898,0,0,0
9772,339057.4724406583,2010-10-19 15:23:59,870.4236748503963,2,30,0.5499359965324402,3.852731943130493,29.13752073235579,29.009012266580665,116.28799301655356,105.87355543577571,6.47544875391759e-05,0.0931148082017898,0,0,0
9773,339087.48757456243,2010-10-19 15:24:29,900.4388088296986,2,30,0.5499359965324402,3.8561315536499023,29.142107168318425,29.009012266580665,116.3056708775825,105.87355543577571,0.0001295089750783,0.0931148082017898,0,0,0
9774,339117.50258689857,2010-10-19 15:24:59,930.4538211106913,2,30,0.5501165986061096,3.8593692779541016,29.14669364788134,29.009012266580665,116.3233640480344,105.87355543577571,0.0001295089750783,0.0931148082017898,0,0,0
9775,339147.5177355645,2010-10-19 15:25:29,960.4689697515346,2,30,0.5501165986061096,3.862607002258301,29.151280078881733,29.009012266580665,116.3410718412489,105.87355543577571,9.713172767078504e-05,0.0931148082017898,0,0,0
9776,339177.53288276674,2010-10-19 15:25:59,990.4841169537924,2,30,0.5499359965324402,3.86552095413208,29.15586651760599,29.009012266580665,116.35879406245964,105.87355543577571,6.47544875391759e-05,0.0931148082017898,0,0,0
9777,339207.5480318737,2010-10-19 15:26:29,1020.4992660758352,2,30,0.550297200679779,3.868920564651489,29.16045298768092,29.009012266580665,116.3765305422789,105.87355543577571,0.0001295089750783,0.0931148082017898,0,0,0
9778,339237.56318664487,2010-10-19 15:26:59,1050.514420846957,2,30,0.5501165986061096,3.8715107440948486,29.1650393962795,29.009012266580665,116.39428056639063,105.87355543577571,9.713172767078504e-05,0.0931148082017898,0,0,0
9779,339267.57831210794,2010-10-19 15:27:29,1080.529546300009,2,30,0.5501165986061096,3.874586582183838,29.169625834647505,29.009012266580665,116.41204407441586,105.87355543577571,9.713172767078504e-05,0.0931148082017898,0,0,0
9780,339297.593466067,2010-10-19 15:27:59,1110.5447002490823,2,30,0.550297200679779,3.8773386478424072,29.17421232906604,29.009012266580665,116.42982065788632,105.87355543577571,3.237724376958795e-05,0.0931148082017898,0,0,0
9781,339327.6087304012,2010-10-19 15:28:29,1140.559964603319,2,30,0.5501165986061096,3.8797669410705566,29.17879875550733,29.009012266580665,116.4476093017437,105.87355543577571,6.47544875391759e-05,0.0931148082017898,0,0,0
9782,339357.6240403039,2010-10-19 15:28:59,1170.575274521114,2,30,0.5501165986061096,3.882357120513916,29.183385228644127,29.009012266580665,116.46540982175252,105.87355543577571,9.713172767078504e-05,0.0931148082017898,0,0,0
9783,339387.6391037024,2010-10-19 15:29:29,1200.5903379245196,2,30,0.5499359965324402,3.884623527526856,29.187971696413875,29.009012266580665,116.48322141365936,105.87355543577571,6.47544875391759e-05,0.0931148082017898,0,0,0
9784,339417.6540890261,2010-10-19 15:29:59,1230.6053232082263,2,30,0.5499359965324402,3.886728048324585,29.19255806460174,29.009012266580665,116.50104299323152,105.87355543577571,0.0,0.0931148082017898,0,0,0
9785,339447.6692098126,2010-10-19 15:30:29,1260.6204440146985,2,30,0.5499359965324402,3.888994455337525,29.19714447025281,29.009012266580665,116.51887451548389,105.87355543577571,6.47544875391759e-05,0.0931148082017898,0,0,0
9786,339477.68433472933,2010-10-19 15:30:59,1290.6355689063512,2,30,0.5499359965324402,3.890937089920044,29.201730984664124,29.009012266580665,116.53671563132042,105.87355543577571,6.47544875391759e-05,0.0931148082017898,0,0,0
9787,339507.6995101018,2010-10-19 15:31:29,1320.6507443088929,2,30,0.5501165986061096,3.8927178382873535,29.206317517979244,29.009012266580665,116.55456541849648,105.87355543577571,6.47544875391759e-05,0.0931148082017898,0,0,0
9788,339537.71464446705,2010-10-19 15:31:59,1350.6658787593694,2,30,0.5499359965324402,3.894174814224243,29.21090403874077,29.009012266580665,116.57242318680473,105.87355543577571,3.237724376958795e-05,0.0931148082017898,0,0,0
9789,339567.729782707,2010-10-19 15:32:29,1380.6810169140783,2,30,0.5501165986061096,3.8959555625915527,29.21549061813151,29.009012266580665,116.59028821734624,105.87355543577571,6.47544875391759e-05,0.0931148082017898,0,0,0
9790,339597.7449328416,2010-10-19 15:32:59,1410.696167148894,2,30,0.5499359965324402,3.897250652313232,29.22007702533888,29.009012266580665,116.60815960394478,105.87355543577571,6.47544875391759e-05,0.0931148082017898,0,0,0
9791,339627.76008337707,2010-10-19 15:33:29,1440.7113175842098,2,30,0.5499359965324402,3.898707628250122,29.22466348263084,29.009012266580665,116.62603778569397,105.87355543577571,3.237724376958795e-05,0.0931148082017898,0,0,0
9792,339657.7752434464,2010-10-19 15:33:59,1470.7264776735865,2,30,0.5499359965324402,3.9000027179718018,29.22924997804604,29.009012266580665,116.64392246878008,105.87355543577571,3.237724376958795e-05,0.0931148082017898,0,0,0
9793,339687.790502738,2010-10-19 15:34:29,1500.7417370454054,2,30,0.550297200679779,3.9014596939086914,29.23383646427236,29.009012266580665,116.66181309011964,105.87355543577571,6.47544875391759e-05,0.0931148082017898,0,0,0
9794,339717.8055098862,2010-10-19 15:34:59,1530.7567440632808,2,30,0.5501165986061096,3.902592897415161,29.23842291059396,29.009012266580665,116.6797094717312,105.87355543577571,3.237724376958795e-05,0.0931148082017898,0,0,0
9795,339747.82065931906,2010-10-19 15:35:29,1560.7718935011103,2,30,0.5499359965324402,3.903887987136841,29.24300938980434,29.009012266580665,116.69761174818098,105.87355543577571,3.237724376958795e-05,0.0931148082017898,0,0,0
9796,339777.83582014526,2010-10-19 15:35:59,1590.7870543473734,2,30,0.5501165986061096,3.905183076858521,29.247595871576276,29.009012266580665,116.71551986471918,105.87355543577571,3.237724376958795e-05,0.0931148082017898,0,0,0
9797,339807.8510763041,2010-10-19 15:36:29,1620.802310521222,2,30,0.5499359965324402,3.9063162803649902,29.252182369790457,29.009012266580665,116.73343358579268,105.87355543577571,3.237724376958795e-05,0.0931148082017898,0,0,0
9798,339837.86609082564,2010-10-19 15:36:59,1650.817325032774,2,30,0.5501165986061096,3.90761137008667,29.256768736548413,29.009012266580665,116.75135260060588,105.87355543577571,6.47544875391759e-05,0.0931148082017898,0,0,0
9799,339867.8812871604,2010-10-19 15:37:29,1680.8325213975602,2,30,0.5501165986061096,3.9089064598083496,29.26135519598307,29.009012266580665,116.76927766504166,105.87355543577571,3.237724376958795e-05,0.0931148082017898,0,0,0
9800,339897.8965988977,2010-10-19 15:37:59,1710.8478332050647,2,30,0.550297200679779,3.9100396633148193,29.265941664922355,29.009012266580665,116.78720857070876,105.87355543577571,3.237724376958795e-05,0.0931148082017898,0,0,0
9801,339927.9115378259,2010-10-19 15:38:29,1740.8627720380025,2,30,0.550297200679779,3.911496639251709,29.270528136392443,29.009012266580665,116.80514521627649,105.87355543577571,3.237724376958795e-05,0.0931148082017898,0,0,0
9802,339957.92670842144,2010-10-19 15:38:59,1770.8779426335636,2,30,0.5499359965324402,3.9126298427581783,29.2751145338092,29.009012266580665,116.82308744862904,105.87355543577571,3.237724376958795e-05,0.0931148082017898,0,0,0
9803,339987.94182987954,2010-10-19 15:39:29,1800.8930640916592,2,30,0.5501165986061096,3.9139246940612793,29.279701000249347,29.009012266580665,116.84103585479824,105.87355543577571,3.237724376958795e-05,0.0931148082017898,0,0,0
9804,340017.9569937934,2010-10-19 15:39:59,1830.9082279704803,2,30,0.5501165986061096,3.915219783782959,29.28428739905817,29.009012266580665,116.8589900091077,105.87355543577571,3.237724376958795e-05,0.0931148082017898,0,0,0
9805,340047.9722415062,2010-10-19 15:40:29,1860.9234757183287,2,30,0.5499359965324402,3.9166767597198486,29.288873836983623,29.009012266580665,116.8769501554004,105.87355543577571,6.47544875391759e-05,0.0931148082017898,0,0,0
9806,340077.98727708025,2010-10-19 15:40:59,1890.9385112923749,2,30,0.550297200679779,3.917971849441528,29.29346023255957,29.009012266580665,116.89491629156755,105.87355543577571,6.47544875391759e-05,0.0931148082017898,0,0,0
9807,340108.002536011,2010-10-19 15:41:29,1920.9537702030443,2,30,0.550297200679779,3.919266939163208,29.298046678904715,29.009012266580665,116.91288865875256,105.87355543577571,3.237724376958795e-05,0.0931148082017898,0,0,0
9808,340138.0175709233,2010-10-19 15:41:59,1950.9688051304788,2,30,0.550297200679779,3.920562028884888,29.302633153793508,29.009012266580665,116.93086733233636,105.87355543577571,0.0,0.0931148082017898,0,0,0
9809,340168.0327036345,2010-10-19 15:42:29,1980.9839378165584,2,30,0.5499359965324402,3.921857118606568,29.307219660628967,29.009012266580665,116.9488522640747,105.87355543577571,0.0,0.0931148082017898,0,0,0
9810,340198.0479844247,2010-10-19 15:43:00,2010.999218636833,2,30,0.5501165986061096,3.923314094543457,29.31180607373653,29.009012266580665,116.966843063832,105.87355543577571,3.237724376958795e-05,0.0931148082017898,0,0,0
9811,340228.0630046154,2010-10-19 15:43:30,2041.014238822527,2,30,0.5501165986061096,3.9246091842651367,29.316392459205645,29.009012266580665,116.98484002291296,105.87355543577571,3.237724376958795e-05,0.0931148082017898,0,0,0
9812,340258.078093798,2010-10-19 15:44:00,2071.029328035257,2,30,0.5499359965324402,3.925904273986816,29.320978821976617,29.009012266580665,117.00284323880588,105.87355543577571,3.237724376958795e-05,0.0931148082017898,0,0,0
9813,340288.093243291,2010-10-19 15:44:30,2101.044477523212,2,30,0.5499359965324402,3.927361249923706,29.325564382213425,29.009012266580665,117.02084942279798,105.87355543577571,3.237724376958795e-05,0.0931148082017898,0,0,0
9814,340318.10834729567,2010-10-19 15:45:00,2131.059581497733,2,30,0.5501165986061096,3.928818225860596,29.33015000567565,29.009012266580665,117.03886230436592,105.87355543577571,6.47544875391759e-05,0.0931148082017898,0,0,0
9815,340348.12353179586,2010-10-19 15:45:30,2161.0747659728863,2,30,0.5501165986061096,3.9301133155822754,29.33473555688569,29.009012266580665,117.056881394133,105.87355543577571,0.0,0.0931148082017898,0,0,0
9816,340378.13882371376,2010-10-19 15:46:00,2191.090057915883,2,30,0.5501165986061096,3.931732177734375,29.33932108256199,29.009012266580665,117.0749069016707,105.87355543577571,6.47544875391759e-05,0.0931148082017898,0,0,0
9817,340408.1538505661,2010-10-19 15:46:30,2221.105084828341,2,30,0.5499359965324402,3.9331891536712646,29.343906639385445,29.009012266580665,117.09293915919652,105.87355543577571,6.47544875391759e-05,0.0931148082017898,0,0,0
9818,340438.16897329735,2010-10-19 15:47:00,2251.120207514497,2,30,0.5499359965324402,3.934484243392944,29.348492246465508,29.009012266580665,117.11097820954674,105.87355543577571,3.237724376958795e-05,0.0931148082017898,0,0,0
9819,340468.1841277025,2010-10-19 15:47:30,2281.135361874595,2,30,0.5499359965324402,3.936103105545044,29.35307873545973,29.009012266580665,117.12902756353792,105.87355543577571,9.713172767078504e-05,0.0931148082017898,0,0,0
9820,340498.19942337484,2010-10-19 15:48:00,2311.150657556911,2,30,0.5501165986061096,3.9375600814819336,29.35766530398318,29.009012266580665,117.14708379879606,105.87355543577571,3.237724376958795e-05,0.0931148082017898,0,0,0
9821,340528.21449777065,2010-10-19 15:48:30,2341.1657320078502,2,30,0.5501165986061096,3.9390170574188232,29.3622517879386,29.009012266580665,117.16514664591968,105.87355543577571,6.47544875391759e-05,0.0931148082017898,0,0,0
9822,340558.2296978397,2010-10-19 15:49:00,2371.1809320467933,2,30,0.5501165986061096,3.940474033355713,29.366838293424927,29.009012266580665,117.18321646669192,105.87355543577571,3.237724376958795e-05,0.0931148082017898,0,0,0
9823,340588.2447101758,2010-10-19 15:49:30,2401.1959443478363,2,30,0.5499359965324402,3.9419310092926025,29.37142480898136,29.009012266580665,117.20129326305532,105.87355543577571,3.237724376958795e-05,0.0931148082017898,0,0,0
9824,340618.2599934622,2010-10-19 15:50:00,2431.211227649296,2,30,0.5501165986061096,3.943549871444702,29.3760113769621,29.009012266580665,117.21937724683352,105.87355543577571,3.237724376958795e-05,0.0931148082017898,0,0,0
9825,340648.2750053523,2010-10-19 15:50:30,2461.2262395292883,2,30,0.5501165986061096,3.945006847381592,29.38059793147792,29.009012266580665,117.23746822426156,105.87355543577571,3.237724376958795e-05,0.0931148082017898,0,0,0
9826,340678.29015670985,2010-10-19 15:51:00,2491.2413909169777,2,30,0.5501165986061096,3.9466257095336914,29.38518448055871,29.009012266580665,117.25556630087584,105.87355543577571,3.237724376958795e-05,0.0931148082017898,0,0,0
9827,340708.3053156213,2010-10-19 15:51:30,2521.256549793331,2,30,0.5499359965324402,3.948244571685791,29.38977099246428,29.009012266580665,117.27367117989787,105.87355543577571,3.237724376958795e-05,0.0931148082017898,0,0,0
9828,340738.320459786,2010-10-19 15:52:00,2551.271693993106,2,30,0.5501165986061096,3.94986343383789,29.394357532106547,29.009012266580665,117.29178337614783,105.87355543577571,6.47544875391759e-05,0.0931148082017898,0,0,0
9829,340768.3355898505,2010-10-19 15:52:30,2581.2868240576518,2,30,0.5501165986061096,3.95132040977478,29.39894401632595,29.009012266580665,117.30990262113151,105.87355543577571,3.237724376958795e-05,0.0931148082017898,0,0,0
9830,340798.350737955,2010-10-19 15:53:00,2611.3019722523827,2,30,0.5501165986061096,3.95293927192688,29.403530503659084,29.009012266580665,117.32802908992836,105.87355543577571,3.237724376958795e-05,0.0931148082017898,0,0,0
9831,340828.3660410007,2010-10-19 15:53:30,2641.3172752078253,2,30,0.5501165986061096,3.95455813407898,29.40811701536293,29.009012266580665,117.34616303629994,105.87355543577571,6.47544875391759e-05,0.0931148082017898,0,0,0
9832,340858.3812422176,2010-10-19 15:54:00,2671.33247641468,2,30,0.5501165986061096,3.956176996231079,29.41270357481135,29.009012266580665,117.36430453564203,105.87355543577571,6.47544875391759e-05,0.0931148082017898,0,0,0
9833,340888.39623109024,2010-10-19 15:54:30,2701.347465387581,2,30,0.5499359965324402,3.9576339721679688,29.417290106877715,29.009012266580665,117.38245323758792,105.87355543577571,6.47544875391759e-05,0.0931148082017898,0,0,0
9834,340918.41135244304,2010-10-19 15:55:00,2731.362586645177,2,30,0.5499359965324402,3.959252834320069,29.42187655400919,29.009012266580665,117.4006090814175,105.87355543577571,0.0,0.0931148082017898,0,0,0
9835,340948.4264800966,2010-10-19 15:55:30,2761.3777143037264,2,30,0.5501165986061096,3.961033582687378,29.42646309582229,29.009012266580665,117.41877270207222,105.87355543577571,6.47544875391759e-05,0.0931148082017898,0,0,0
9836,340978.4420544284,2010-10-19 15:56:00,2791.393288735772,2,30,0.5501165986061096,3.962490558624268,29.431049707152187,29.009012266580665,117.43694417463348,105.87355543577571,0.0,0.0931148082017898,0,0,0
9837,341008.4569210464,2010-10-19 15:56:30,2821.4081552584903,2,30,0.5501165986061096,3.964433193206787,29.435636146056257,29.009012266580665,117.45512257983088,105.87355543577571,6.47544875391759e-05,0.0931148082017898,0,0,0
9838,341038.4719100844,2010-10-19 15:57:00,2851.423144256454,2,30,0.5501165986061096,3.966052055358887,29.44022267004001,29.009012266580665,117.47330902389342,105.87355543577571,3.237724376958795e-05,0.0931148082017898,0,0,0
9839,341068.4871832005,2010-10-19 15:57:30,2881.438417402603,2,30,0.5501165986061096,3.9676709175109854,29.444809260029185,29.009012266580665,117.49150352016198,105.87355543577571,3.237724376958795e-05,0.0931148082017898,0,0,0
9840,341098.50221993745,2010-10-19 15:58:00,2911.453454134536,2,30,0.5501165986061096,3.969451665878296,29.44939579697967,29.009012266580665,117.50970563007142,105.87355543577571,6.47544875391759e-05,0.0931148082017898,0,0,0
9841,341128.5173651748,2010-10-19 15:58:30,2941.4685993819207,2,30,0.5501165986061096,3.971070528030396,29.453982334204333,29.009012266580665,117.52791562284804,105.87355543577571,3.237724376958795e-05,0.0931148082017898,0,0,0
9842,341158.5326189426,2010-10-19 15:59:00,2971.4838531196983,2,30,0.5501165986061096,3.972851276397705,29.45856891304068,29.009012266580665,117.54613372905064,105.87355543577571,3.237724376958795e-05,0.0931148082017898,0,0,0
9843,341188.5476480455,2010-10-19 15:59:30,3001.4988822226164,2,30,0.5504778623580933,3.9749557971954346,29.463155433937843,29.009012266580665,117.56435963988126,105.87355543577571,9.713172767078504e-05,0.0931148082017898,0,0,0
9844,341218.56280220015,2010-10-19 16:00:00,3031.5140363772016,2,30,0.5501165986061096,3.976574659347534,29.46774195922877,29.009012266580665,117.58259361881716,105.87355543577571,9.713172767078504e-05,0.0931148082017898,0,0,0
9845,341248.57793329726,2010-10-19 16:00:30,3061.529167479333,2,30,0.5501165986061096,3.977869749069214,29.47232858730764,29.009012266580665,117.60083591920603,105.87355543577571,3.237724376958795e-05,0.0931148082017898,0,0,0
9846,341278.5933472894,2010-10-19 16:01:00,3091.544581471513,2,30,0.5499359965324402,3.979974269866944,29.47691507169592,29.009012266580665,117.6190857611909,105.87355543577571,3.237724376958795e-05,0.0931148082017898,0,0,0
9847,341308.6083670891,2010-10-19 16:01:30,3121.5596013263826,2,30,0.5501165986061096,3.981755018234253,29.481501480793657,29.009012266580665,117.63734379449718,105.87355543577571,3.237724376958795e-05,0.0931148082017898,0,0,0
9848,341338.6233886733,2010-10-19 16:02:00,3151.5746228654493,2,30,0.5499359965324402,3.9835357666015625,29.48608796730599,29.009012266580665,117.65561053401214,105.87355543577571,3.237724376958795e-05,0.0931148082017898,0,0,0
9849,341368.6385266777,2010-10-19 16:02:30,3181.5897608547457,2,30,0.550297200679779,3.985478401184082,29.49067437050905,29.009012266580665,117.67388530453606,105.87355543577571,3.237724376958795e-05,0.0931148082017898,0,0,0
9850,341398.6538055632,2010-10-19 16:03:00,3211.6050397702734,2,30,0.550297200679779,3.9874210357666016,29.49526087931681,29.009012266580665,117.69216891301546,105.87355543577571,3.237724376958795e-05,0.0931148082017898,0,0,0
9851,341428.66882571875,2010-10-19 16:03:30,3241.620059930905,2,30,0.5499359965324402,3.989039897918701,29.49984735582116,29.009012266580665,117.71046079123435,105.87355543577571,3.237724376958795e-05,0.0931148082017898,0,0,0
9852,341458.6839726805,2010-10-19 16:04:00,3271.635206857476,2,30,0.5501165986061096,3.9909825325012207,29.504433738155704,29.009012266580665,117.7287608136566,105.87355543577571,6.47544875391759e-05,0.0931148082017898,0,0,0
9853,341488.6991021936,2010-10-19 16:04:30,3301.650336375659,2,30,0.5501165986061096,3.9927632808685294,29.509020203755373,29.009012266580665,117.74706979606538,105.87355543577571,3.237724376958795e-05,0.0931148082017898,0,0,0
9854,341518.71424821793,2010-10-19 16:05:00,3331.665482394969,2,30,0.5501165986061096,3.9948675632476807,29.51360660269672,29.009012266580665,117.76538717657016,105.87355543577571,6.47544875391759e-05,0.0931148082017898,0,0,0
9855,341548.72943660786,2010-10-19 16:05:30,3361.680670789892,2,30,0.5501165986061096,3.9968101978302,29.518193010045778,29.009012266580665,117.78371341439652,105.87355543577571,6.47544875391759e-05,0.0931148082017898,0,0,0
9856,341578.7445581962,2010-10-19 16:06:00,3391.6957924033745,2,30,0.5499359965324402,3.99875283241272,29.522779456048397,29.009012266580665,117.80204886699484,105.87355543577571,6.47544875391759e-05,0.0931148082017898,0,0,0
9857,341608.7596872282,2010-10-19 16:06:30,3421.710921410284,2,30,0.5499359965324402,4.000533580780029,29.527365875321973,29.009012266580665,117.82039333226194,105.87355543577571,0.0,0.0931148082017898,0,0,0
9858,341638.77483830013,2010-10-19 16:07:00,3451.7260724721614,2,30,0.5501165986061096,4.002799987792969,29.5319522277576,29.009012266580665,117.83874683182182,105.87355543577571,6.47544875391759e-05,0.0931148082017898,0,0,0
9859,341668.79010403785,2010-10-19 16:07:30,3481.7413383451835,2,30,0.5499359965324402,4.004904747009277,29.53653857133165,29.009012266580665,117.85710966104304,105.87355543577571,6.47544875391759e-05,0.0931148082017898,0,0,0
9860,341698.8051807343,2010-10-19 16:08:00,3511.756414906382,2,30,0.5499359965324402,4.006847381591797,29.54112500619465,29.009012266580665,117.87548245848974,105.87355543577571,6.47544875391759e-05,0.0931148082017898,0,0,0
9861,341728.82039307896,2010-10-19 16:08:30,3541.77162726102,2,30,0.5501165986061096,4.008951663970947,29.545711388308305,29.009012266580665,117.89386464454442,105.87355543577571,3.23295607813634e-05,0.0931148082017898,0,0,0
9862,341758.8354346329,2010-10-19 16:09:00,3571.78666885507,2,30,0.5501165986061096,4.011218070983887,29.55029772765832,29.009012266580665,117.912256335174,105.87355543577571,6.47544875391759e-05,0.0931148082017898,0,0,0
9863,341788.8505666173,2010-10-19 16:09:30,3601.8018007993,2,30,0.5501165986061096,4.013484477996826,29.5548841540906,29.009012266580665,117.93065824516825,105.87355543577571,9.70840483205393e-05,0.0931148082017898,0,0,0
9864,341818.86595670483,2010-10-19 16:10:00,3631.8171908768777,2,30,0.5501165986061096,4.015427112579346,29.559470675205556,29.009012266580665,117.94907042682874,105.87355543577571,3.23295607813634e-05,0.0931148082017898,0,0,0
9865,341848.8808681896,2010-10-19 16:10:30,3661.83210237168,2,30,0.550297200679779,4.017855644226074,29.56405713446059,29.009012266580665,117.96749235623852,105.87355543577571,6.47544875391759e-05,0.0931148082017898,0,0,0
9866,341878.8960265046,2010-10-19 16:11:00,3691.847260711697,2,30,0.5501165986061096,4.019959926605225,29.56864358917164,29.009012266580665,117.985924295697,105.87355543577571,6.47544875391759e-05,0.0931148082017898,0,0,0
9867,341908.9111510504,2010-10-19 16:11:30,3721.862385262501,2,30,0.5499359965324402,4.022064685821533,29.573229940051803,29.009012266580665,118.00436605340636,105.87355543577571,3.24249267578125e-05,0.0931148082017898,0,0,0
9868,341938.9263116861,2010-10-19 16:12:00,3751.877545863151,2,30,0.5501165986061096,4.024331092834473,29.57781635842602,29.009012266580665,118.02281837936872,105.87355543577571,6.47544875391759e-05,0.0931148082017898,0,0,0
9869,341968.9415858197,2010-10-19 16:12:30,3781.892820056911,2,30,0.5499359965324402,4.026759147644043,29.582402798324267,29.009012266580665,118.04128108301332,105.87355543577571,9.70840483205393e-05,0.0931148082017898,0,0,0
9870,341998.95660992514,2010-10-19 16:13:00,3811.907844132299,2,30,0.5501165986061096,4.029025554656982,29.586989245794182,29.009012266580665,118.05975424056592,105.87355543577571,6.47544875391759e-05,0.0931148082017898,0,0,0
9871,342028.9717409671,2010-10-19 16:13:30,3841.9229751792927,2,30,0.5501165986061096,4.031130313873291,29.591575658494275,29.009012266580665,118.07823768740462,105.87355543577571,6.47544875391759e-05,0.0931148082017898,0,0,0
9872,342058.98689699644,2010-10-19 16:14:00,3871.938131263688,2,30,0.5501165986061096,4.033558368682861,29.596162051284026,29.009012266580665,118.09673165816366,105.87355543577571,0.0,0.0931148082017898,0,0,0
9873,342089.00205895543,2010-10-19 16:14:30,3901.953293137512,2,30,0.5501165986061096,4.035824775695801,29.60074846955915,29.009012266580665,118.11523650410533,105.87355543577571,6.47544875391759e-05,0.0931148082017898,0,0,0
9874,342119.0171740076,2010-10-19 16:15:01,3931.9684081896417,2,30,0.5501165986061096,4.03841495513916,29.605334958185026,29.009012266580665,118.13375252207364,105.87355543577571,6.47544875391759e-05,0.0931148082017898,0,0,0
9875,342149.0323183427,2010-10-19 16:15:31,3961.983552524754,2,30,0.550297200679779,4.0408430099487305,29.609921379798443,29.009012266580665,118.1522791356644,105.87355543577571,0.0001295089750783,0.0931148082017898,0,0,0
9876,342179.047494026,2010-10-19 16:16:01,3991.998728228046,2,30,0.5501165986061096,4.042947769165039,29.614507876351603,29.009012266580665,118.17081699585106,105.87355543577571,6.47544875391759e-05,0.0931148082017898,0,0,0
9877,342209.0626168374,2010-10-19 16:16:31,4022.0138510445263,2,30,0.5501165986061096,4.0452141761779785,29.61909433041933,29.009012266580665,118.18936573059035,105.87355543577571,3.24249267578125e-05,0.0931148082017898,0,0,0
9878,342239.07774923777,2010-10-19 16:17:01,4052.028983429856,2,30,0.550297200679779,4.047966003417969,29.62368077727572,29.009012266580665,118.20792567564928,105.87355543577571,6.47544875391759e-05,0.0931148082017898,0,0,0
9879,342269.09290174826,2010-10-19 16:17:31,4082.044135950369,2,30,0.5501165986061096,4.050394535064697,29.62826721676013,29.009012266580665,118.22649693037188,105.87355543577571,6.47544875391759e-05,0.0931148082017898,0,0,0
9880,342299.1080534066,2010-10-19 16:18:01,4112.059287633795,2,30,0.5501165986061096,4.052822589874268,29.632853588030883,29.009012266580665,118.24507927314352,105.87355543577571,6.47544875391759e-05,0.0931148082017898,0,0,0
9881,342329.1231890952,2010-10-19 16:18:31,4142.074423332382,2,30,0.5501165986061096,4.055412769317627,29.637439924322184,29.009012266580665,118.26367299080512,105.87355543577571,6.47544875391759e-05,0.0931148082017898,0,0,0
9882,342359.13835099904,2010-10-19 16:19:01,4172.089585206207,2,30,0.5501165986061096,4.057841300964356,29.64202640436425,29.009012266580665,118.28227897264397,105.87355543577571,6.47544875391759e-05,0.0931148082017898,0,0,0
9883,342389.15355542896,2010-10-19 16:19:31,4202.10478961103,2,30,0.5499359965324402,4.060431480407715,29.64661292581477,29.009012266580665,118.30089687068332,105.87355543577571,6.47544875391759e-05,0.0931148082017898,0,0,0
9884,342419.1686660951,2010-10-19 16:20:01,4232.119900267205,2,30,0.5499359965324402,4.063021659851074,29.651199420836907,29.009012266580665,118.3195260450048,105.87355543577571,3.24249267578125e-05,0.0931148082017898,0,0,0
9885,342449.18381298165,2010-10-19 16:20:31,4262.135047163701,2,30,0.550297200679779,4.0657734870910645,29.65578585218792,29.009012266580665,118.33816706317272,105.87355543577571,6.47544875391759e-05,0.0931148082017898,0,0,0
9886,342479.19892888586,2010-10-19 16:21:01,4292.150163093016,2,30,0.5501165986061096,4.068363666534424,29.66037228728764,29.009012266580665,118.35682019953876,105.87355543577571,6.47544875391759e-05,0.0931148082017898,0,0,0
9887,342509.2140761383,2010-10-19 16:21:31,4322.165310320337,2,30,0.5501165986061096,4.070953845977783,29.66495875572201,29.009012266580665,118.37548577092642,105.87355543577571,3.23295607813634e-05,0.0931148082017898,0,0,0
9888,342539.22923229286,2010-10-19 16:22:01,4352.180466499969,2,30,0.5499359965324402,4.073544025421143,29.66954523525065,29.009012266580665,118.39416365544182,105.87355543577571,0.0,0.0931148082017898,0,0,0
9889,342569.2444866522,2010-10-19 16:22:31,4382.195720829221,2,30,0.5499359965324402,4.076620101928711,29.674131681787163,29.009012266580665,118.4128539220971,105.87355543577571,0.0001295089750783,0.0931148082017898,0,0,0
9890,342599.2595283064,2010-10-19 16:23:01,4412.210762498458,2,30,0.5501165986061096,4.07921028137207,29.678718072279715,29.009012266580665,118.43155656506258,105.87355543577571,3.24249267578125e-05,0.0931148082017898,0,0,0
9891,342629.2746576742,2010-10-19 16:23:31,4442.225891856242,2,30,0.5501165986061096,4.0819621086120605,29.683304532498287,29.009012266580665,118.45027218624726,105.87355543577571,3.23295607813634e-05,0.0931148082017898,0,0,0
9892,342659.2899351762,2010-10-19 16:24:01,4472.241169408372,2,30,0.5501165986061096,4.08487606048584,29.68789089604485,29.009012266580665,118.46900016673143,105.87355543577571,9.70840483205393e-05,0.0931148082017898,0,0,0
9893,342689.3049434923,2010-10-19 16:24:31,4502.25617769942,2,30,0.5501165986061096,4.087628364562988,29.69247727795238,29.009012266580665,118.48774114971556,105.87355543577571,6.47544875391759e-05,0.0931148082017898,0,0,0
9894,342719.3202150144,2010-10-19 16:25:01,4532.271449231546,2,30,0.5499359965324402,4.0903801918029785,29.697063717722862,29.009012266580665,118.50649537624368,105.87355543577571,3.23295607813634e-05,0.0931148082017898,0,0,0
9895,342749.3352486737,2010-10-19 16:25:31,4562.286482885807,2,30,0.5501165986061096,4.093456268310547,29.70165019570019,29.009012266580665,118.52526297839108,105.87355543577571,9.71794142969884e-05,0.0931148082017898,0,0,0
9896,342779.3506118793,2010-10-19 16:26:01,4592.301846206699,2,30,0.5501165986061096,4.096208095550537,29.706236681395325,29.009012266580665,118.54404390524884,105.87355543577571,6.47544875391759e-05,0.0931148082017898,0,0,0
9897,342809.35090533644,2010-10-19 16:26:31,4622.302139643804,2,30,0.5501165986061096,4.0992841720581055,29.71082084648111,29.009012266580665,118.5628286972631,105.87355543577571,6.47544875391759e-05,0.0931148082017898,0,0,0
9898,342839.3651145961,2010-10-19 16:27:01,4652.316348893396,2,30,0.5501165986061096,4.102198123931885,29.715407202684236,29.009012266580665,118.58163599464042,105.87355543577571,9.71794142969884e-05,0.0931148082017898,0,0,0
9899,342869.3803322689,2010-10-19 16:27:31,4682.331566481076,2,30,0.5501165986061096,4.105112075805664,29.71999369611619,29.009012266580665,118.60045741577504,105.87355543577571,9.71794142969884e-05,0.0931148082017898,0,0,0
9900,342899.3953089963,2010-10-19 16:28:01,4712.346543183396,2,30,0.5501165986061096,4.108349800109863,29.72458013689179,29.009012266580665,118.61929241136212,105.87355543577571,0.0001295089750783,0.0931148082017898,0,0,0
9901,342929.4106259968,2010-10-19 16:28:31,4742.361860203893,2,30,0.5499359965324402,4.1111016273498535,29.72916671092628,29.009012266580665,118.63814185207626,105.87355543577571,6.47544875391759e-05,0.0931148082017898,0,0,0
9902,342959.42578813125,2010-10-19 16:29:01,4772.377022318316,2,30,0.5501165986061096,4.114339351654053,29.73375313697163,29.009012266580665,118.65700467307508,105.87355543577571,0.0001295089750783,0.0931148082017898,0,0,0
9903,342989.4408142367,2010-10-19 16:29:31,4802.392048418751,2,30,0.5501165986061096,4.117414951324463,29.73833958144516,29.009012266580665,118.67588165509176,105.87355543577571,9.70840483205393e-05,0.0931148082017898,0,0,0
9904,343019.4563866286,2010-10-19 16:30:01,4832.407620840788,2,30,0.550297200679779,4.120491027832031,29.742926146483978,29.009012266580665,118.69477334946772,105.87355543577571,6.47544875391759e-05,0.0931148082017898,0,0,0
9905,343049.47112864105,2010-10-19 16:30:31,4862.422362848176,2,30,0.5501165986061096,4.123728752136231,29.747512536027635,29.009012266580665,118.71367866404331,105.87355543577571,6.47544875391759e-05,0.0931148082017898,0,0,0
9906,343079.486372434,2010-10-19 16:31:01,4892.43760666623,2,30,0.550297200679779,4.12664270401001,29.75209893100733,29.009012266580665,118.73259858180847,105.87355543577571,6.47544875391759e-05,0.0931148082017898,0,0,0
9907,343109.50139264483,2010-10-19 16:31:31,4922.452626826861,2,30,0.5501165986061096,4.13004207611084,29.756685395708672,29.009012266580665,118.75153343223424,105.87355543577571,9.70840483205393e-05,0.0931148082017898,0,0,0
9908,343139.51655660884,2010-10-19 16:32:01,4952.467790790895,2,30,0.5501165986061096,4.133118152618408,29.761271823639447,29.009012266580665,118.77048279335295,105.87355543577571,9.71794142969884e-05,0.0931148082017898,0,0,0
9909,343169.53171776084,2010-10-19 16:32:31,4982.482951998057,2,30,0.5501165986061096,4.136517524719238,29.765858258713884,29.009012266580665,118.78944693302212,105.87355543577571,9.70840483205393e-05,0.0931148082017898,0,0,0
9910,343199.5468454144,2010-10-19 16:33:01,5012.4980796165055,2,30,0.5501165986061096,4.139593601226807,29.77044471866,29.009012266580665,118.80842618208216,105.87355543577571,6.47544875391759e-05,0.0931148082017898,0,0,0
9911,343229.56225048937,2010-10-19 16:33:31,5042.513484676424,2,30,0.5501165986061096,4.143155097961426,29.77503124836779,29.009012266580665,118.82742089828818,105.87355543577571,9.71794142969884e-05,0.0931148082017898,0,0,0
9912,343259.57725559745,2010-10-19 16:34:01,5072.528489774515,2,30,0.5501165986061096,4.146392822265625,29.77961761600065,29.009012266580665,118.84643027842976,105.87355543577571,6.47544875391759e-05,0.0931148082017898,0,0,0
9913,343289.5922958031,2010-10-19 16:34:31,5102.543529985117,2,30,0.5501165986061096,4.149954319000244,29.784203999616484,29.009012266580665,118.86545530589504,105.87355543577571,0.0001295089750783,0.0931148082017898,0,0,0
9914,343319.607539561,2010-10-19 16:35:01,5132.558773773096,2,30,0.5501165986061096,4.153353691101074,29.788790375203728,29.009012266580665,118.88449586122114,105.87355543577571,6.47544875391759e-05,0.0931148082017898,0,0,0
9915,343349.62256069906,2010-10-19 16:35:31,5162.573794876075,2,30,0.5499359965324402,4.156591415405273,29.79337674238991,29.009012266580665,118.90355193380582,105.87355543577571,6.47544875391759e-05,0.0931148082017898,0,0,0
9916,343379.6378775892,2010-10-19 16:36:01,5192.589111891561,2,30,0.5499359965324402,4.160152912139893,29.79796315441681,29.009012266580665,118.92262393159938,105.87355543577571,9.70840483205393e-05,0.0931148082017898,0,0,0
9917,343409.6528716147,2010-10-19 16:36:31,5222.604105801767,2,30,0.5499359965324402,4.163552761077881,29.802549509958432,29.009012266580665,118.941711607398,105.87355543577571,9.71794142969884e-05,0.0931148082017898,0,0,0
9918,343439.6680875131,2010-10-19 16:37:01,5252.619321835575,2,30,0.5499359965324402,4.1671142578125,29.807135928455136,29.009012266580665,118.96081551306182,105.87355543577571,9.71794142969884e-05,0.0931148082017898,0,0,0
9919,343469.6831465106,2010-10-19 16:37:31,5282.63438069265,2,30,0.5499359965324402,4.17051362991333,29.811722261534563,29.009012266580665,118.97993522655868,105.87355543577571,9.70840483205393e-05,0.0931148082017898,0,0,0
9920,343499.69829488575,2010-10-19 16:38:01,5312.649529062818,2,30,0.5501165986061096,4.174237251281738,29.8163086199493,29.009012266580665,118.99907133312809,105.87355543577571,0.0001619339018361,0.0931148082017898,0,0,0
9921,343529.7134514413,2010-10-19 16:38:31,5342.664685648463,2,30,0.5501165986061096,4.177960395812988,29.82089506237385,29.009012266580665,119.01822411022636,105.87355543577571,0.0001295089750783,0.0931148082017898,0,0,0
9922,343559.7285917815,2010-10-19 16:39:01,5372.679825988618,2,30,0.5501165986061096,4.181521892547607,29.825481507575088,29.009012266580665,119.03739335770749,105.87355543577571,9.70840483205393e-05,0.0931148082017898,0,0,0
9923,343589.7437663169,2010-10-19 16:39:31,5402.695000529011,2,30,0.5501165986061096,4.184921741485596,29.830068010591564,29.009012266580665,119.05657935328594,105.87355543577571,0.0001295089750783,0.0931148082017898,0,0,0
9924,343619.7588829229,2010-10-19 16:40:01,5432.710117130001,2,30,0.5499359965324402,4.188644886016846,29.83465439614914,29.009012266580665,119.07578134984686,105.87355543577571,9.70840483205393e-05,0.0931148082017898,0,0,0
9925,343649.7740366564,2010-10-19 16:40:31,5462.725270868549,2,30,0.5501165986061096,4.192206382751465,29.839240788235276,29.009012266580665,119.09500012383334,105.87355543577571,9.70840483205393e-05,0.0931148082017898,0,0,0
9926,343679.789267853,2010-10-19 16:41:01,5492.740502090209,2,30,0.5499359965324402,4.195767879486084,29.84382725484556,29.009012266580665,119.11423606163468,105.87355543577571,6.47544875391759e-05,0.0931148082017898,0,0,0
9927,343709.8042891314,2010-10-19 16:41:31,5522.755523368627,2,30,0.5501165986061096,4.199491024017334,29.848414366927432,29.009012266580665,119.13349163105164,105.87355543577571,3.23295607813634e-05,0.0931148082017898,0,0,0
9928,343712.35118532536,2010-10-19 16:41:34,5525.302419502452,2,30,0.550297200679779,4.200138568878174,29.84880361610158,29.009012266580665,119.13512639425366,105.87355543577571,0.0001295089750783,0.0931148082017898,0,0,0
9929,343742.3708554292,2010-10-19 16:42:04,30.015165833693207,3,30,0.0,4.111749172210693,29.84880361610158,29.009012266580665,119.13512639425366,105.87355543577571,-0.0003885269106831,0.0931148082017898,0,0,0
9930,343772.3860003257,2010-10-19 16:42:34,60.03031070514204,3,30,0.0,4.100579261779785,29.84880361610158,29.009012266580665,119.13512639425366,105.87355543577571,-0.0002590179501567,0.0931148082017898,0,0,0
9931,343802.4011245808,2010-10-19 16:43:04,90.04543502035844,3,30,0.0,4.093941688537598,29.84880361610158,29.009012266580665,119.13512639425366,105.87355543577571,-0.0001295089750783,0.0931148082017898,0,0,0
9932,343832.3694129966,2010-10-19 16:43:34,120.01372339600236,3,30,0.0,4.089408874511719,29.84880361610158,29.009012266580665,119.13512639425366,105.87355543577571,-0.0001295089750783,0.0931148082017898,0,0,0
9933,343832.37584645,2010-10-19 16:43:34,2.716771029e-06,4,30,1.0144630670547483,4.199814796447754,29.848803616867155,29.009012266580665,119.13512639746892,105.87355543577571,0.0,0.0931148082017898,0,0,0
9934,343832.8601892312,2010-10-19 16:43:35,0.484345508035411,4,30,0.9638924598693848,4.199653148651123,29.84893524913036,29.009012266580665,119.13567922278088,105.87355543577571,-3.23295607813634e-05,0.0931148082017898,0,0,0
9935,343834.68833840144,2010-10-19 16:43:36,2.312494673262593,4,30,0.913321852684021,4.199814796447754,29.849410855625067,29.009012266580665,119.13767666914129,105.87355543577571,0.0,0.0931148082017898,0,0,0
9936,343837.6101469624,2010-10-19 16:43:39,5.234303239226996,4,30,0.8631125092506409,4.199814796447754,29.85013071752734,29.009012266580665,119.14069995505795,105.87355543577571,0.0,0.0931148082017898,0,0,0
9937,343841.67254489305,2010-10-19 16:43:43,9.296701174851169,4,30,0.8127225041389465,4.199814796447754,29.85107506664439,29.009012266580665,119.14466604890484,105.87355543577571,0.0,0.0931148082017898,0,0,0
9938,343846.9849622216,2010-10-19 16:43:49,14.609118493398933,4,30,0.7626937627792358,4.199653148651123,29.852236155998945,29.009012266580665,119.14954241176906,105.87355543577571,-3.23295607813634e-05,0.0931148082017898,0,0,0
9939,343853.85985030304,2010-10-19 16:43:56,21.48400660993553,4,30,0.7126649618148804,4.199814796447754,29.85364326447927,29.009012266580665,119.15545200716448,105.87355543577571,-3.24249267578125e-05,0.0931148082017898,0,0,0
9940,343862.95347327454,2010-10-19 16:44:05,30.57762957139332,4,30,0.6626362204551697,4.199976921081543,29.85537740536996,29.009012266580665,119.1627350616898,105.87355543577571,6.47544875391759e-05,0.0931148082017898,0,0,0
9941,343875.26577287354,2010-10-19 16:44:17,42.88992914533144,4,30,0.6126074194908142,4.199653148651123,29.85755337061212,29.009012266580665,119.17187372140144,105.87355543577571,0.0,0.0931148082017898,0,0,0
9942,343893.3748462715,2010-10-19 16:44:35,60.99900254827416,4,30,0.5625786781311035,4.199814796447754,29.86050058884349,29.009012266580665,119.18425150785356,105.87355543577571,0.0,0.0931148082017898,0,0,0
9943,343923.265041946,2010-10-19 16:45:05,90.88919825295352,4,30,0.512549877166748,4.199653148651123,29.864945063610104,29.009012266580665,119.20291747715594,105.87355543577571,-3.23295607813634e-05,0.0931148082017898,0,0,0
9944,343977.8891600307,2010-10-19 16:46:00,145.51331630756653,4,30,0.4625211060047149,4.199814796447754,29.87230555414354,29.009012266580665,119.23383018297696,105.87355543577571,0.0,0.0931148082017898,0,0,0
9945,344070.0595491606,2010-10-19 16:47:32,237.68370541233537,4,30,0.4124923348426819,4.199814796447754,29.883472726800303,29.009012266580665,119.28073031308988,105.87355543577571,0.0,0.0931148082017898,0,0,0
9946,344192.38574806205,2010-10-19 16:49:34,360.0099043288658,4,30,0.3624635636806488,4.199653148651123,29.896617803549105,29.009012266580665,119.33593723205006,105.87355543577571,-3.23295607813634e-05,0.0931148082017898,0,0,0
9947,344339.74287386524,2010-10-19 16:52:02,507.3670301270088,4,30,0.3124347925186157,4.199653148651123,29.91041220368536,29.009012266580665,119.39387119744876,105.87355543577571,-3.23295607813634e-05,0.0931148082017898,0,0,0
9948,344515.75556973607,2010-10-19 16:54:58,683.379726012909,4,30,0.2624060213565826,4.199653148651123,29.924441008970536,29.009012266580665,119.45278964630307,105.87355543577571,-3.23295607813634e-05,0.0931148082017898,0,0,0
9949,344729.674897798,2010-10-19 16:58:31,897.299054074771,4,30,0.2123772650957107,4.199814796447754,29.938507675427463,29.009012266580665,119.51186717258402,105.87355543577571,0.0,0.0931148082017898,0,0,0
9950,345003.3258994293,2010-10-19 17:03:05,1170.9500556810822,4,30,0.1623484939336776,4.199653148651123,29.95269250325109,29.009012266580665,119.57144094789416,105.87355543577571,-3.23295607813634e-05,0.0931148082017898,0,0,0
9951,345390.88223094057,2010-10-19 17:09:33,1558.5063872073474,4,30,0.1123197302222251,4.199814796447754,29.96735964404809,29.009012266580665,119.63304023973268,105.87355543577571,0.0,0.0931148082017898,0,0,0
9952,346049.4186124048,2010-10-19 17:20:31,2217.0427686564976,4,30,0.0622909590601921,4.199814796447754,29.98291045110145,29.009012266580665,119.69835085125132,105.87355543577571,0.0,0.0931148082017898,0,0,0
9953,346312.1018367955,2010-10-19 17:24:54,2479.7259930623245,4,30,0.0498289167881011,4.199653148651123,29.987029504538373,29.009012266580665,119.71565015685157,105.87355543577571,-3.23295607813634e-05,0.0931148082017898,0,0,0
9954,346342.1162252972,2010-10-19 17:25:24,30.015227447253157,5,30,0.0,4.191558837890625,29.987029504538373,29.009012266580665,119.71565015685157,105.87355543577571,-3.24249267578125e-05,0.0931148082017898,0,0,0
9955,346372.1157431463,2010-10-19 17:25:54,60.014745321416456,5,30,0.0,4.190263748168945,29.987029504538373,29.009012266580665,119.71565015685157,105.87355543577571,0.0,0.0931148082017898,0,0,0
9956,346372.30366379314,2010-10-19 17:25:54,0.187861999907462,6,30,-0.0014641173183918,4.190911293029785,29.987029504538373,29.009012342984,119.71565015685157,105.87355575597532,0.0,0.0965279787778854,0,0,0
9957,346377.13132918073,2010-10-19 17:25:59,5.015527292251457,6,30,0.0005225847125984,4.190263748168945,29.987030156665604,29.00901235007648,119.71565288943656,105.87355578570084,0.0,0.0965279787778854,0,0,0
9958,346407.1622377516,2010-10-19 17:26:29,30.01513890658256,7,30,-1.099568486213684,4.006199836730957,29.987030156665604,29.01818044086181,119.71565288943656,105.91049122833896,-0.0009388923645019,0.0965279787778854,0,0,0
9959,346437.1773969688,2010-10-19 17:26:59,60.03029811877294,7,30,-1.0993878841400146,3.977384090423584,29.987030156665604,29.02734847127999,119.71565288943656,105.94707786223886,-0.0006151676061563,0.0965279787778854,0,0,0
9960,346467.19265436067,2010-10-19 17:27:29,90.04555551566982,7,30,-1.099568486213684,3.957148313522339,29.987030156665604,29.0365164794196,119.71565288943656,105.98344519555948,-0.0004532813909463,0.0965279787778854,0,0,0
9961,346497.20771999966,2010-10-19 17:27:59,120.06062117970944,7,30,-1.099568486213684,3.9419310092926025,29.987030156665604,29.04568427323491,119.71565288943656,106.01965159430952,-0.0003561496851034,0.0965279787778854,0,0,0
9962,346527.2228534977,2010-10-19 17:28:29,150.07575465776242,7,30,-1.0997490882873535,3.929141998291016,29.987030156665604,29.054851481544997,119.71565288943656,106.05572843955834,-0.0003561496851034,0.0965279787778854,0,0,0
9963,346557.2382359463,2010-10-19 17:28:59,180.09113716146396,7,30,-1.0993878841400146,3.918295621871948,29.987030156665604,29.06401880011191,119.71565288943656,106.09169771171985,-0.0002590179501567,0.0965279787778854,0,0,0
9964,346587.253146183,2010-10-19 17:29:29,210.1060473429933,7,30,-1.0997490882873535,3.90793514251709,29.987030156665604,29.07318592710181,119.71565288943656,106.12756957200912,-0.0002590179501567,0.0965279787778854,0,0,0
9965,346617.26830909937,2010-10-19 17:29:59,240.12121028447825,7,30,-1.099568486213684,3.898383855819702,29.987030156665604,29.082353111544123,119.71565288943656,106.16335122629522,-0.0002913951757363,0.0965279787778854,0,0,0
9966,346647.28344382055,2010-10-19 17:30:29,270.13634495049195,7,30,-1.099568486213684,3.889318227767944,29.987030156665604,29.09152032129008,119.71565288943656,106.19904803907995,-0.0002913951757363,0.0965279787778854,0,0,0
9967,346677.2985902709,2010-10-19 17:30:59,300.15149139085105,7,30,-1.0997490882873535,3.8805763721466064,29.987030156665604,29.100687571946448,119.71565288943656,106.23466322475548,-0.0002590179501567,0.0965279787778854,0,0,0
9968,346707.3138733017,2010-10-19 17:31:29,330.1667744517104,7,30,-1.0993878841400146,3.8723201751708975,29.987030156665604,29.109854787490125,119.71565288943656,106.2701994708879,-0.0002266406954731,0.0965279787778854,0,0,0
9969,346737.32887874567,2010-10-19 17:31:59,360.18177998588794,7,30,-1.099568486213684,3.863902091979981,29.987030156665604,29.11902198339941,119.71565288943656,106.30565914140324,-0.0002590179501567,0.0965279787778854,0,0,0
9970,346767.34402618353,2010-10-19 17:32:29,390.1969273435331,7,30,-1.0993878841400146,3.855969667434693,29.987030156665604,29.12818921108277,119.71565288943656,106.3410435496414,-0.0001942634553415,0.0965279787778854,0,0,0
9971,346797.3591727041,2010-10-19 17:32:59,420.2120738590796,7,30,-1.099568486213684,3.847713470458984,29.987030156665604,29.137356503196084,119.71565288943656,106.3763539973456,-0.0002266406954731,0.0965279787778854,0,0,0
9972,346827.3742831096,2010-10-19 17:33:29,450.2271842696412,7,30,-1.099568486213684,3.840104818344116,29.987030156665604,29.14652365463388,119.71565288943656,106.41159102887045,-0.0001618862152099,0.0965279787778854,0,0,0
9973,346857.3894308332,2010-10-19 17:34:00,480.24233197816096,7,30,-1.099568486213684,3.832334518432617,29.987030156665604,29.155690844885445,119.71565288943656,106.44675716094028,-0.0001942157687153,0.0965279787778854,0,0,0
9974,346887.4045798349,2010-10-19 17:34:30,510.25748102501615,7,30,-1.099568486213684,3.824725866317749,29.987030156665604,29.164857970458367,119.71565288943656,106.48185322499752,-0.0001942634553415,0.0965279787778854,0,0,0
9975,346917.41975940287,2010-10-19 17:35:00,540.2726605578519,7,30,-1.099568486213684,3.817279100418091,29.987030156665604,29.17402511801138,119.71565288943656,106.51688022395764,-0.0001942634553415,0.0965279787778854,0,0,0
9976,346947.434883693,2010-10-19 17:35:30,570.2877848730682,7,30,-1.099568486213684,3.809670448303223,29.987030156665604,29.183192342077835,119.71565288943656,106.5518392730876,-0.0002266406954731,0.0965279787778854,0,0,0
9977,346977.45002783765,2010-10-19 17:36:00,600.3029289575558,7,30,-1.099568486213684,3.8027093410491934,29.987030156665604,29.19235959083712,119.71565288943656,106.58673118715876,-0.0001618862152099,0.0965279787778854,0,0,0
9978,347007.46517444344,2010-10-19 17:36:30,630.3180755984146,7,30,-1.099568486213684,3.795586347579956,29.987030156665604,29.20152687401512,119.71565288943656,106.62155875397386,-0.0001942634553415,0.0965279787778854,0,0,0
9979,347037.4803271945,2010-10-19 17:37:00,660.3332283144144,7,30,-1.099568486213684,3.788625240325928,29.987030156665604,29.210694173312152,119.71565288943656,106.65632296250348,-0.0001942634553415,0.0965279787778854,0,0,0
9980,347067.49545954977,2010-10-19 17:37:30,690.3483607348314,7,30,-1.099568486213684,3.7819879055023193,29.987030156665604,29.21986150450328,119.71565288943656,106.6910244031208,-0.0001618862152099,0.0965279787778854,0,0,0
9981,347097.5106048372,2010-10-19 17:38:00,720.3635059872297,7,30,-1.099568486213684,3.775188684463501,29.987030156665604,29.22902884221209,119.71565288943656,106.72566378233724,-0.0002266406954731,0.0965279787778854,0,0,0
9982,347127.5257579893,2010-10-19 17:38:30,750.3786591443289,7,30,-1.0992072820663452,3.768713235855103,29.987030156665604,29.2381961768452,119.71565288943656,106.76024267195264,-0.0001942634553415,0.0965279787778854,0,0,0
9983,347157.54103554145,2010-10-19 17:39:00,780.3939366814212,7,30,-1.0993878841400146,3.762399673461914,29.987030156665604,29.2473635246613,119.71565288943656,106.79476263916511,-9.713172767078504e-05,0.0965279787778854,0,0,0
9984,347187.5560180081,2010-10-19 17:39:30,810.4089191481077,7,30,-1.0992072820663452,3.756247997283936,29.987030156665604,29.2565307863943,119.71565288943656,106.82922434333295,-0.0001618862152099,0.0965279787778854,0,0,0
9985,347217.57128926454,2010-10-19 17:40:00,840.4241904546715,7,30,-1.099568486213684,3.749934673309326,29.987030156665604,29.265698153049247,119.71565288943656,106.86362900773636,-0.0001618862152099,0.0965279787778854,0,0,0
9986,347247.586318142,2010-10-19 17:40:30,870.43921929694,7,30,-1.0993878841400146,3.7439448833465576,29.987030156665604,29.274865496472888,119.71565288943656,106.89797792120126,-0.0001295089750783,0.0965279787778854,0,0,0
9987,347277.60159965896,2010-10-19 17:41:00,900.4545008189641,7,30,-1.099568486213684,3.737793207168579,29.987030156665604,29.284032845564685,119.71565288943656,106.93227211293802,-0.0001942634553415,0.0965279787778854,0,0,0
9988,347307.61675223964,2010-10-19 17:41:30,930.469653409652,7,30,-1.0993878841400146,3.7321271896362314,29.987030156665604,29.29320012303026,119.71565288943656,106.96651178716884,-0.0001618862152099,0.0965279787778854,0,0,0
9989,347337.6317733125,2010-10-19 17:42:00,960.484674437444,7,30,-1.0993878841400146,3.726299285888672,29.987030156665604,29.302367144378696,119.71565288943656,107.00069738034294,-0.0001618862152099,0.0965279787778854,0,0,0
9990,347367.6469036026,2010-10-19 17:42:30,990.4998047325644,7,30,-1.0993878841400146,3.7206332683563232,29.987030156665604,29.31153362382542,119.71565288943656,107.03482875921816,-0.0001295089750783,0.0965279787778854,0,0,0
9991,347397.6620828448,2010-10-19 17:43:00,1020.5149839746751,7,30,-1.099568486213684,3.715129137039185,29.987030156665604,29.320700432246657,119.71565288943656,107.06890951851553,-9.713172767078504e-05,0.0965279787778854,0,0,0
9992,347427.67721881904,2010-10-19 17:43:30,1050.530119979025,7,30,-1.099568486213684,3.709463119506836,29.987030156665604,29.32986779668636,119.71565288943656,107.10294117896784,-0.0001618862152099,0.0965279787778854,0,0,0
9993,347457.69235995115,2010-10-19 17:44:00,1080.5452610760665,7,30,-1.0997490882873535,3.7041208744049072,29.987030156665604,29.33903516649973,119.71565288943656,107.136922178976,-0.0001295089750783,0.0965279787778854,0,0,0
9994,347487.70751878736,2010-10-19 17:44:30,1110.5604199173324,7,30,-1.099568486213684,3.698616743087769,29.987030156665604,29.348202597783796,119.71565288943656,107.17085328337032,-9.713172767078504e-05,0.0965279787778854,0,0,0
9995,347517.72286082525,2010-10-19 17:45:00,1140.575761980243,7,30,-1.0993878841400146,3.69343638420105,29.987030156665604,29.357369982504043,119.71565288943656,107.20473521730968,-0.0001295089750783,0.0965279787778854,0,0,0
9996,347547.7248624697,2010-10-19 17:45:30,1170.577763750039,7,30,-1.099568486213684,3.687770366668701,29.987030156665604,29.366533301479816,119.71565288943656,107.23855348379904,-0.0001618862152099,0.0965279787778854,0,0,0
9997,347577.7373785895,2010-10-19 17:46:00,1200.590279854792,7,30,-1.099568486213684,3.682751893997192,29.987030156665604,29.375699773461392,119.71565288943656,107.27233580550444,-0.0001942634553415,0.0965279787778854,0,0,0
9998,347607.75247542624,2010-10-19 17:46:30,1230.6053765812485,7,30,-1.0993878841400146,3.678057193756104,29.987030156665604,29.384867170492356,119.71565288943656,107.30607508316578,-9.713172767078504e-05,0.0965279787778854,0,0,0
9999,347637.7676213904,2010-10-19 17:47:00,1260.6205225203585,7,30,-1.099568486213684,3.6728768348693848,29.987030156665604,29.39403456344723,119.71565288943656,107.33976806247378,-0.0001295089750783,0.0965279787778854,0,0,0
10000,347667.7827886677,2010-10-19 17:47:30,1290.6356897976495,7,30,-1.0993878841400146,3.668020486831665,29.987030156665604,29.4032019061537,119.71565288943656,107.37341576783892,-9.713172767078504e-05,0.0965279787778854,0,0,0
10001,347697.798100405,2010-10-19 17:48:00,1320.6510015951294,7,30,-1.0993878841400146,3.663163900375366,29.987030156665604,29.412369380967007,119.71565288943656,107.40701943420645,-0.0001295089750783,0.0965279787778854,0,0,0
10002,347727.8130889619,2010-10-19 17:48:30,1350.665990121919,7,30,-1.099568486213684,3.6583073139190674,29.987030156665604,29.421536661185776,119.71565288943656,107.4405784556434,-0.0001295089750783,0.0965279787778854,0,0,0
10003,347757.82820450526,2010-10-19 17:49:00,1380.6811056301858,7,30,-1.0993878841400146,3.6539363861083984,29.987030156665604,29.43070405064443,119.71565288943656,107.47409524812508,-9.713172767078504e-05,0.0965279787778854,0,0,0
10004,347787.8433672613,2010-10-19 17:49:30,1410.6962684162836,7,30,-1.099568486213684,3.6490797996521,29.987030156665604,29.43987147691665,119.71565288943656,107.50756974922194,-0.0001295089750783,0.0965279787778854,0,0,0
10005,347817.85849713034,2010-10-19 17:50:00,1440.7113982803296,7,30,-1.099568486213684,3.6445469856262207,29.987030156665604,29.44903882163805,119.71565288943656,107.54100145991973,-0.0001618862152099,0.0965279787778854,0,0,0
10006,347847.87364517467,2010-10-19 17:50:30,1470.7265463296983,7,30,-1.099568486213684,3.640176057815552,29.987030156665604,29.458206116681165,119.71565288943656,107.57439231245792,-0.0001295089750783,0.0965279787778854,0,0,0
10007,347877.88879466767,2010-10-19 17:51:00,1500.7416958176534,7,30,-1.0993878841400146,3.635805130004883,29.987030156665604,29.467373476505458,119.71565288943656,107.60774330992491,-0.0001295089750783,0.0965279787778854,0,0,0
10008,347907.90412389865,2010-10-19 17:51:30,1530.7570259157435,7,30,-1.0997490882873535,3.631434202194214,29.987030156665604,29.476540873449583,119.71565288943656,107.64105485052696,-9.713172767078504e-05,0.0965279787778854,0,0,0
10009,347937.9191090319,2010-10-19 17:52:00,1560.772010161865,7,30,-1.0993878841400146,3.627387046813965,29.987030156665604,29.48570812029473,119.71565288943656,107.67432644534942,-9.713172767078504e-05,0.0965279787778854,0,0,0
10010,347967.9346449229,2010-10-19 17:52:30,1590.7875460929547,7,30,-1.0992072820663452,3.623178005218506,29.987030156665604,29.49487548462416,119.71565288943656,107.70755978691928,-9.713172767078504e-05,0.0965279787778854,0,0,0
10011,347997.9493793264,2010-10-19 17:53:00,1620.802280476341,7,30,-1.099568486213684,3.618807077407837,29.987030156665604,29.50404271982105,119.71565288943656,107.740754200626,-0.0001618862152099,0.0965279787778854,0,0,0
10012,348027.9645544532,2010-10-19 17:53:30,1650.8174555831456,7,30,-1.099568486213684,3.614921808242798,29.987030156665604,29.51321008062709,119.71565288943656,107.77391134014248,-9.713172767078504e-05,0.0965279787778854,0,0,0
10013,348057.9796726782,2010-10-19 17:54:00,1680.8325737981584,7,30,-1.099568486213684,3.610874652862549,29.987030156665604,29.522377402126843,119.71565288943656,107.8070322885556,-9.713172767078504e-05,0.0965279787778854,0,0,0
10014,348087.9948275496,2010-10-19 17:54:30,1710.8477286895802,7,30,-1.099568486213684,3.6073131561279297,29.987030156665604,29.531544767028976,119.71565288943656,107.84011835803643,-6.47544875391759e-05,0.0965279787778854,0,0,0
10015,348118.0100074985,2010-10-19 17:55:00,1740.8629087437153,7,30,-1.0997490882873535,3.6035897731781006,29.987030156665604,29.540712107928837,119.71565288943656,107.87317001427252,-6.47544875391759e-05,0.0965279787778854,0,0,0
10016,348148.0251229015,2010-10-19 17:55:30,1770.8780240564947,7,30,-1.0997490882873535,3.5998663902282715,29.987030156665604,29.549879468672877,119.71565288943656,107.90618835566856,-0.0001295089750783,0.0965279787778854,0,0,0
10017,348178.0406616196,2010-10-19 17:56:00,1800.8935627895678,7,30,-1.0993878841400146,3.5967905521392822,29.987030156665604,29.559046986927346,119.71565288943656,107.9391750513182,-3.237724376958795e-05,0.0965279787778854,0,0,0
10018,348208.0554043086,2010-10-19 17:56:30,1830.9083054686296,7,30,-1.099568486213684,3.593067169189453,29.987030156665604,29.568214236428567,119.71565288943656,107.97212951058444,-9.713172767078504e-05,0.0965279787778854,0,0,0
10019,348238.07055253844,2010-10-19 17:57:00,1860.9234536683737,7,30,-1.099568486213684,3.589667797088623,29.987030156665604,29.577381651169706,119.71565288943656,108.00505361168489,-0.0001295089750783,0.0965279787778854,0,0,0
10020,348268.0857068885,2010-10-19 17:57:30,1890.938608048521,7,30,-1.0993878841400146,3.586430072784424,29.987030156665604,29.58654905385476,119.71565288943656,108.03794716365024,-6.47544875391759e-05,0.0965279787778854,0,0,0
10021,348298.1008426623,2010-10-19 17:58:00,1920.9537439125204,7,30,-1.0993878841400146,3.5831923484802246,29.987030156665604,29.59571646624959,119.71565288943656,108.0708105191838,-9.713172767078504e-05,0.0965279787778854,0,0,0
10022,348328.11601342325,2010-10-19 17:58:30,1950.9689145782568,7,30,-1.099568486213684,3.5797927379608154,29.987030156665604,29.60488387280687,119.71565288943656,108.10364387918467,-9.713172767078504e-05,0.0965279787778854,0,0,0
10023,348358.1311433324,2010-10-19 17:59:00,1980.9840444623524,7,30,-1.099568486213684,3.576555013656616,29.987030156665604,29.6140512813584,119.71565288943656,108.13644754307796,-0.0001295089750783,0.0965279787778854,0,0,0
10024,348388.1464219121,2010-10-19 17:59:30,2010.9993230520683,7,30,-1.099568486213684,3.573479175567627,29.987030156665604,29.62321868846857,119.71565288943656,108.16922151630548,-3.237724376958795e-05,0.0965279787778854,0,0,0
10025,348418.16163120914,2010-10-19 18:00:00,2041.0145324743976,7,30,-1.099568486213684,3.5704033374786377,29.987030156665604,29.63238609692789,119.71565288943656,108.201967269994,-9.713172767078504e-05,0.0965279787778854,0,0,0
10026,348448.1765740921,2010-10-19 18:00:30,2071.029475222092,7,30,-1.0997490882873535,3.5673274993896484,29.987030156665604,29.641553474292376,119.71565288943656,108.23468493513874,-9.713172767078504e-05,0.0965279787778854,0,0,0
10027,348478.1917281214,2010-10-19 18:01:00,2101.044629246352,7,30,-1.099568486213684,3.564251661300659,29.987030156665604,29.650720911583797,119.71565288943656,108.26737460367494,-9.713172767078504e-05,0.0965279787778854,0,0,0
10028,348508.20712556737,2010-10-19 18:01:30,2131.060026717357,7,30,-1.099568486213684,3.56149959564209,29.987030156665604,29.65988825878182,119.71565288943656,108.30003628117692,-6.47544875391759e-05,0.0965279787778854,0,0,0
10029,348538.2220496285,2010-10-19 18:02:00,2161.0749508185786,7,30,-1.0993878841400146,3.55826187133789,29.987030156665604,29.66905552926404,119.71565288943656,108.33267003482084,-9.713172767078504e-05,0.0965279787778854,0,0,0
10030,348568.2372154071,2010-10-19 18:02:30,2191.09011656706,7,30,-1.0993878841400146,3.5551860332489014,29.987030156665604,29.6782228543348,119.71565288943656,108.3652756638762,-9.713172767078504e-05,0.0965279787778854,0,0,0
10031,348598.2523483788,2010-10-19 18:03:00,2221.1052495388503,7,30,-1.099568486213684,3.552110195159912,29.987030156665604,29.68739025059193,119.71565288943656,108.397853844084,-0.0001618862152099,0.0965279787778854,0,0,0
10032,348628.2676051141,2010-10-19 18:03:30,2251.120506284123,7,30,-1.0997490882873535,3.549034357070923,29.987030156665604,29.696557717948696,119.71565288943656,108.43040462592111,-6.47544875391759e-05,0.0965279787778854,0,0,0
10033,348658.2827362663,2010-10-19 18:04:00,2281.1356374213424,7,30,-1.0993878841400146,3.546120405197144,29.987030156665604,29.705725111727943,119.71565288943656,108.46292693663436,-6.47544875391759e-05,0.0965279787778854,0,0,0
10034,348688.29777377524,2010-10-19 18:04:30,2311.1506749302107,7,30,-1.0993878841400146,3.5430445671081543,29.987030156665604,29.71489250822588,119.71565288943656,108.4954202935332,0.0,0.0965279787778854,0,0,0
10035,348718.3129360851,2010-10-19 18:05:00,2341.165837235109,7,30,-1.0993878841400146,3.539644956588745,29.987030156665604,29.724059898204995,119.71565288943656,108.52788445031425,-6.47544875391759e-05,0.0965279787778854,0,0,0
10036,348748.3280763401,2010-10-19 18:05:30,2371.1809774950643,7,30,-1.099568486213684,3.536407232284546,29.987030156665604,29.73322730692178,119.71565288943656,108.56031889342968,-0.0001295089750783,0.0965279787778854,0,0,0
10037,348778.34332758666,2010-10-19 18:06:00,2401.196228726596,7,30,-1.0993878841400146,3.5331695079803467,29.987030156665604,29.742394760486977,119.71565288943656,108.59272371313338,-9.713172767078504e-05,0.0965279787778854,0,0,0
10038,348808.358488047,2010-10-19 18:06:31,2431.211389262084,7,30,-1.0993878841400146,3.529769897460937,29.987030156665604,29.75156223943959,119.71565288943656,108.62509845997468,-9.713172767078504e-05,0.0965279787778854,0,0,0
10039,348838.37349535053,2010-10-19 18:07:01,2461.2263964754466,7,30,-1.0997490882873535,3.5262084007263184,29.987030156665604,29.76072963523913,119.71565288943656,108.6574419893728,-0.0001295089750783,0.0965279787778854,0,0,0
10040,348868.38908612827,2010-10-19 18:07:31,2491.2419872632563,7,30,-1.099568486213684,3.522646903991699,29.987030156665604,29.76989714162708,119.71565288943656,108.6897540219378,-0.0001295089750783,0.0965279787778854,0,0,0
10041,348898.4037979504,2010-10-19 18:08:01,2521.2566990804003,7,30,-1.099568486213684,3.51924729347229,29.987030156665604,29.77906445758959,119.71565288943656,108.7220320764509,-9.713172767078504e-05,0.0965279787778854,0,0,0
10042,348928.4189326416,2010-10-19 18:08:31,2551.271833776489,7,30,-1.0997490882873535,3.515362024307251,29.987030156665604,29.7882319233248,119.71565288943656,108.75427714065138,-9.713172767078504e-05,0.0965279787778854,0,0,0
10043,348958.4342418676,2010-10-19 18:09:01,2581.2871430276227,7,30,-1.0993878841400146,3.511638879776001,29.987030156665604,29.79739948267848,119.71565288943656,108.78648802177844,-0.0001294612884521,0.0965279787778854,0,0,0
10044,348988.44937020284,2010-10-19 18:09:31,2611.302271332783,7,30,-1.0993878841400146,3.507591724395752,29.987030156665604,29.80656693505621,119.71565288943656,108.81866208211378,-9.713172767078504e-05,0.0965279787778854,0,0,0
10045,349018.4643815766,2010-10-19 18:10:01,2641.3172827065146,7,30,-1.0997490882873535,3.503220796585083,29.987030156665604,29.815734322224163,119.71565288943656,108.85079746529036,-9.713172767078504e-05,0.0965279787778854,0,0,0
10046,349048.4795224631,2010-10-19 18:10:31,2671.3324236431567,7,30,-1.0993878841400146,3.498849868774414,29.987030156665604,29.82490171372236,119.71565288943656,108.8828925391696,-9.713172767078504e-05,0.0965279787778854,0,0,0
10047,349078.49467937456,2010-10-19 18:11:01,2701.347580504488,7,30,-1.0993878841400146,3.4938313961029053,29.987030156665604,29.83406917384443,119.71565288943656,108.91494408899268,-0.0001295089750783,0.0965279787778854,0,0,0
10048,349108.5099592725,2010-10-19 18:11:31,2731.3628604124897,7,30,-1.099568486213684,3.488489151000977,29.987030156665604,29.843236579609396,119.71565288943656,108.94694844176878,-9.713172767078504e-05,0.0965279787778854,0,0,0
10049,349138.5249113585,2010-10-19 18:12:01,2761.3778124884325,7,30,-1.099929690361023,3.482337474822998,29.987030156665604,29.852403947639356,119.71565288943656,108.97890187350748,-0.0002266406954731,0.0965279787778854,0,0,0
10050,349168.54011533724,2010-10-19 18:12:31,2791.393016467195,7,30,-1.0993878841400146,3.4761857986450195,29.987030156665604,29.861571338804644,119.71565288943656,109.01079914476294,-0.0001618862152099,0.0965279787778854,0,0,0
10051,349198.55522511626,2010-10-19 18:13:01,2821.408126266233,7,30,-1.099568486213684,3.469224691390991,29.987030156665604,29.870738679797338,119.71565288943656,109.04263463501344,-0.0001618862152099,0.0965279787778854,0,0,0
10052,349228.57044260367,2010-10-19 18:13:31,2851.423343773713,7,30,-1.0993878841400146,3.460968494415283,29.987030156665604,29.879906086903723,119.71565288943656,109.07440074208472,-0.0002590179501567,0.0965279787778854,0,0,0
10053,349258.58569957456,2010-10-19 18:14:01,2881.438600704448,7,30,-1.0992072820663452,3.4517409801483154,29.987030156665604,29.88907349373821,119.71565288943656,109.10608750217656,-0.0002590179501567,0.0965279787778854,0,0,0
10054,349288.6007365019,2010-10-19 18:14:31,2911.453637671967,7,30,-1.099568486213684,3.441218376159668,29.987030156665604,29.89824081868464,119.71565288943656,109.13768361132732,-0.0002266406954731,0.0965279787778854,0,0,0
10055,349318.6158787819,2010-10-19 18:15:01,2941.468779911857,7,30,-1.099568486213684,3.42842960357666,29.987030156665604,29.90740818635288,119.71565288943656,109.1691738055097,-0.0003885269106831,0.0965279787778854,0,0,0
10056,349348.6310330869,2010-10-19 18:15:31,2971.483934251905,7,30,-1.099568486213684,3.413374185562134,29.987030156665604,29.91657561014743,119.71565288943656,109.20053724194965,-0.0004209041653666,0.0965279787778854,0,0,0
10057,349378.64618802845,2010-10-19 18:16:01,3001.499089153351,7,30,-1.0993878841400146,3.395081043243408,29.987030156665604,29.925742968419726,119.71565288943656,109.23174751517564,-0.0004856586456298,0.0965279787778854,0,0,0
10058,349408.66131830355,2010-10-19 18:16:31,3031.514219463509,7,30,-1.099568486213684,3.371931314468384,29.987030156665604,29.934910345812938,119.71565288943656,109.26277015177524,-0.0006799221155233,0.0965279787778854,0,0,0
10059,349438.6764728942,2010-10-19 18:17:01,3061.529374054181,7,30,-1.0993878841400146,3.3413350582122803,29.987030156665604,29.944077719645986,119.71565288943656,109.29354903970358,-0.0009065627818927,0.0965279787778854,0,0,0
10060,349468.6918145862,2010-10-19 18:17:31,3091.5447157160925,7,30,-1.099568486213684,3.30037784576416,29.987030156665604,29.95324513957681,119.71565288943656,109.32400281880658,-0.0012627125252038,0.0965279787778854,0,0,0
10061,349498.7068192481,2010-10-19 18:18:01,3121.559720493384,7,30,-1.0997490882873535,3.243232250213623,29.987030156665604,29.962412425527383,119.71565288943656,109.35401324107173,-0.0017483711708337,0.0965279787778854,0,0,0
10062,349528.72192684165,2010-10-19 18:18:31,3151.574828006724,7,30,-1.099568486213684,3.160184860229492,29.987030156665604,29.971579807820245,119.71565288943656,109.38339251611866,-0.0026549338363111,0.0965279787778854,0,0,0
10063,349558.73718279,2010-10-19 18:19:01,3181.5900839299484,7,30,-1.0993878841400146,3.028895616531372,29.987030156665604,29.980747205502453,119.71565288943656,109.41181427849686,-0.0044032572768628,0.0965279787778854,0,0,0
10064,349583.0335530656,2010-10-19 18:19:25,3205.8864542355564,7,30,-1.0993878841400146,2.8288047313690186,29.987030156665604,29.988167902168048,119.71565288943656,109.43363069860362,-0.0084827896207571,0.0965279787778854,0,0,0
10065,349593.26799002144,2010-10-19 18:19:35,3216.1208911564204,7,30,-1.0997490882873535,2.699781894683838,29.987030156665604,29.99129372655308,119.71565288943656,109.4422783473135,-0.0106844427064061,0.0965279787778854,0,0,0
10066,349653.2870325949,2010-10-19 18:20:36,60.01478966693914,8,30,0.0,3.374359607696533,29.987030156665604,29.99129380170661,119.71565288943656,109.44227855021164,0.0012950897216796,0.0965279787778854,0,0,0
10067,349653.4642413777,2010-10-19 18:20:36,0.187516178012894,9,30,0.0014256311114877,3.375007152557373,29.98703023092363,29.99129380170661,119.71565314005792,109.44227855021164,0.0,0.0931148082017898,0,0,0
10068,349658.292284617,2010-10-19 18:20:41,5.015559532604336,9,30,0.0003419754502829,3.382615804672241,29.987031093403303,29.99129380179008,119.71565605469186,109.44227855049388,0.0011655807029455,0.0931148082017898,0,0,0
