Data_Point,Test_Time(s),Date_Time,Step_Time(s),Step_Index,Cycle_Index,Current(A),Voltage(V),Charge_Capacity(Ah),Discharge_Capacity(Ah),Charge_Energy(Wh),Discharge_Energy(Wh),dV/dt(V/s),Internal_Resistance(Ohm),Is_FC_Data,AC_Impedance(Ohm),ACI_Phase_Angle(Deg)
9412,326484.62616131734,2010-10-19 11:54:25,30.015148550618463,1,29,0.0,3.420820951461792,28.022022712684187,28.02599588247175,111.85218067961628,102.3020442074318,0.0008094310760498,0.0938397273421287,0,0,0
9413,326514.6414363532,2010-10-19 11:54:55,60.03042360652704,1,29,0.0,3.445103645324707,28.022022712684187,28.02599588247175,111.85218067961628,102.3020442074318,0.0006151676061563,0.0938397273421287,0,0,0
9414,326544.656440108,2010-10-19 11:55:25,90.04542731615719,1,29,0.0,3.4633967876434326,28.022022712684187,28.02599588247175,111.85218067961628,102.3020442074318,0.0004532813909463,0.0938397273421287,0,0,0
9415,326574.6247240826,2010-10-19 11:55:55,120.01371132090748,1,29,0.0,3.477966547012329,28.022022712684187,28.02599588247175,111.85218067961628,102.3020442074318,0.0003561496851034,0.0938397273421287,0,0,0
9416,326604.63548856264,2010-10-19 11:56:25,30.01513585397452,2,29,0.5499359965324402,3.630786657333374,28.026609204859668,28.02599588247175,111.86868299489764,102.3020442074318,0.0014569759368896,0.0938397273421287,0,0,0
9417,326634.6506317399,2010-10-19 11:56:55,60.03027903621333,2,29,0.5499359965324402,3.6743338108062735,28.03119571881413,28.02599588247175,111.88544285758962,102.3020442074318,0.0009712696191854,0.0938397273421287,0,0,0
9418,326664.66578589444,2010-10-19 11:57:25,90.04543316072365,2,29,0.550297200679779,3.705415964126587,28.035782289815987,28.02599588247175,111.9023705209478,102.3020442074318,0.0007122993702068,0.0938397273421287,0,0,0
9419,326694.6809443247,2010-10-19 11:57:55,120.06059161602764,2,29,0.5501165986061096,3.729213237762451,28.040368785654422,28.02599588247175,111.91942297770731,102.3020442074318,0.0005180359003134,0.0938397273421287,0,0,0
9420,326724.69607510103,2010-10-19 11:58:25,150.07572236227213,2,29,0.5501165986061096,3.748801469802856,28.04495529712647,28.02599588247175,111.9365744305968,102.3020442074318,0.0004532813909463,0.0938397273421287,0,0,0
9421,326754.7112174412,2010-10-19 11:58:55,180.09086470241215,2,29,0.5501165986061096,3.7640185356140137,28.049541847755886,28.02599588247175,111.95380531214914,102.3020442074318,0.0003561496851034,0.0938397273421287,0,0,0
9422,326784.7263694554,2010-10-19 11:59:25,210.10601675175053,2,29,0.5501165986061096,3.7740554809570312,28.05412839810463,28.02599588247175,111.971094039974,102.3020442074318,0.0001942634553415,0.0938397273421287,0,0,0
9423,326814.7417148767,2010-10-19 11:59:55,240.1213622983436,2,29,0.5499359965324402,3.77988338470459,28.058714930943104,28.02599588247175,111.98841874525726,102.3020442074318,9.713172767078504e-05,0.0938397273421287,0,0,0
9424,326844.75670887216,2010-10-19 12:00:25,270.13635625867545,2,29,0.5501165986061096,3.784578084945679,28.063301402172627,28.02599588247175,112.00576653052836,102.3020442074318,0.0001295089750783,0.0938397273421287,0,0,0
9425,326874.7718134531,2010-10-19 12:00:55,300.1514607244209,2,29,0.5501165986061096,3.788301467895508,28.06788788290599,28.02599588247175,112.02313320449136,102.3020442074318,6.47544875391759e-05,0.0938397273421287,0,0,0
9426,326904.78697359766,2010-10-19 12:01:25,330.1666209842222,2,29,0.550297200679779,3.792348623275757,28.07247442508361,28.02599588247175,112.04051763344792,102.3020442074318,0.0001295089750783,0.0938397273421287,0,0,0
9427,326934.8021209503,2010-10-19 12:01:55,360.1817682466301,2,29,0.5501165986061096,3.796072006225586,28.07706096521775,28.02599588247175,112.05791942802476,102.3020442074318,0.0001295089750783,0.0938397273421287,0,0,0
9428,326964.8173657959,2010-10-19 12:02:25,390.19701316242026,2,29,0.5501165986061096,3.799633502960205,28.081647547356315,28.02599588247175,112.07533841473608,102.3020442074318,9.713172767078504e-05,0.0938397273421287,0,0,0
9429,326994.83238239767,2010-10-19 12:02:55,420.2120296639316,2,29,0.550297200679779,3.803356885910034,28.086234057491097,28.02599588247175,112.09277394850186,102.3020442074318,0.0001295089750783,0.0938397273421287,0,0,0
9430,327024.8475323919,2010-10-19 12:03:25,450.2271796531355,2,29,0.5501165986061096,3.8067564964294434,28.090820547433648,28.02599588247175,112.11022587698425,102.3020442074318,3.237724376958795e-05,0.0938397273421287,0,0,0
9431,327054.8626884813,2010-10-19 12:03:55,480.242335762593,2,29,0.5501165986061096,3.810479879379273,28.095407076758477,28.02599588247175,112.12769404710964,102.3020442074318,0.0001295089750783,0.0938397273421287,0,0,0
9432,327084.8779390762,2010-10-19 12:04:25,510.25758635753726,2,29,0.5501165986061096,3.813717603683472,28.099993624389903,28.02599588247175,112.145178170589,102.3020442074318,6.47544875391759e-05,0.0938397273421287,0,0,0
9433,327114.8929930862,2010-10-19 12:04:55,540.2726404026188,2,29,0.5501165986061096,3.817117214202881,28.104580127026253,28.02599588247175,112.16267790033484,102.3020442074318,9.713172767078504e-05,0.0938397273421287,0,0,0
9434,327144.9081150807,2010-10-19 12:05:25,570.2877623719886,2,29,0.5499359965324402,3.82035493850708,28.10916664462855,28.02599588247175,112.18019286581726,102.3020442074318,6.47544875391759e-05,0.0938397273421287,0,0,0
9435,327174.92327936547,2010-10-19 12:05:55,600.3029266618341,2,29,0.5499359965324402,3.823754549026489,28.113753176077267,28.02599588247175,112.1977229073983,102.3020442074318,9.713172767078504e-05,0.0938397273421287,0,0,0
9436,327204.9383997409,2010-10-19 12:06:25,630.3180470021438,2,29,0.550297200679779,3.8271541595458975,28.11833970873481,28.02599588247175,112.2152679030315,102.3020442074318,0.0001295089750783,0.0938397273421287,0,0,0
9437,327234.9538256929,2010-10-19 12:06:55,660.3334729942318,2,29,0.550297200679779,3.830229997634888,28.122926259593523,28.02599588247175,112.23282788307104,102.3020442074318,0.0001295089750783,0.0938397273421287,0,0,0
9438,327264.96870262653,2010-10-19 12:07:25,690.3483498928098,2,29,0.5501165986061096,3.833467483520508,28.127512757681536,28.02599588247175,112.25040267498684,102.3020442074318,0.0001294612884521,0.0938397273421287,0,0,0
9439,327294.983878801,2010-10-19 12:07:55,720.3635260672753,2,29,0.5501165986061096,3.836867094039917,28.132099285427323,28.02599588247175,112.2679926938768,102.3020442074318,9.713172767078504e-05,0.0938397273421287,0,0,0
9440,327324.99918609223,2010-10-19 12:08:25,750.3788333936118,2,29,0.5501165986061096,3.840266704559326,28.136685813770452,28.02599588247175,112.28559813749364,102.3020442074318,9.713172767078504e-05,0.0938397273421287,0,0,0
9441,327355.01413721585,2010-10-19 12:08:55,780.3937844820939,2,29,0.5501165986061096,3.843666315078736,28.14127227829744,28.02599588247175,112.30321884396534,102.3020442074318,0.0001618862152099,0.0938397273421287,0,0,0
9442,327385.02927645826,2010-10-19 12:09:25,810.4089237245133,2,29,0.5501165986061096,3.847065925598145,28.14585939359556,28.02599588247175,112.32085769281638,102.3020442074318,9.713172767078504e-05,0.0938397273421287,0,0,0
9443,327415.0449658117,2010-10-19 12:09:55,840.4246131130664,2,29,0.5501165986061096,3.850303649902344,28.15044662752562,28.02599588247175,112.3385125989314,102.3020442074318,6.47544875391759e-05,0.0938397273421287,0,0,0
9444,327445.05960861687,2010-10-19 12:10:25,870.4392559683365,2,29,0.550297200679779,3.853541374206543,28.1550337879522,28.02599588247175,112.35618256521929,102.3020442074318,3.237724376958795e-05,0.0938397273421287,0,0,0
9445,327475.0747168019,2010-10-19 12:10:55,900.4543640731515,2,29,0.5501165986061096,3.856779098510742,28.159620919115955,28.02599588247175,112.37386759154354,102.3020442074318,3.237724376958795e-05,0.0938397273421287,0,0,0
9446,327505.08987057046,2010-10-19 12:11:25,930.4695178568124,2,29,0.550297200679779,3.860340595245361,28.16420749127001,28.02599588247175,112.39156545677544,102.3020442074318,9.713172767078504e-05,0.0938397273421287,0,0,0
9447,327535.1050293917,2010-10-19 12:11:55,960.4846766579784,2,29,0.5501165986061096,3.8632545471191406,28.16879398296676,28.02599588247175,112.4092777378943,102.3020442074318,3.237724376958795e-05,0.0938397273421287,0,0,0
9448,327565.1201591555,2010-10-19 12:12:25,990.4998064468366,2,29,0.5501165986061096,3.86649227142334,28.17338043435706,28.02599588247175,112.42700421113388,102.3020442074318,9.713172767078504e-05,0.0938397273421287,0,0,0
9449,327595.1353349089,2010-10-19 12:12:55,1020.5149822002528,2,29,0.5501165986061096,3.869729995727539,28.177966827940647,28.02599588247175,112.44474452824927,102.3020442074318,0.0001295089750783,0.0938397273421287,0,0,0
9450,327625.15044382075,2010-10-19 12:13:25,1050.5300911120794,2,29,0.5499359965324402,3.872482061386109,28.18255323545835,28.02599588247175,112.46249867323172,102.3020442074318,6.47544875391759e-05,0.0938397273421287,0,0,0
9451,327655.1657224355,2010-10-19 12:13:55,1080.5453697318703,2,29,0.5501165986061096,3.8752341270446777,28.187139781594908,28.02599588247175,112.48026661676606,102.3020442074318,6.47544875391759e-05,0.0938397273421287,0,0,0
9452,327685.18085778324,2010-10-19 12:14:25,1110.5605050444954,2,29,0.5501165986061096,3.877986192703247,28.19172623271777,28.02599588247175,112.49804696680344,102.3020442074318,6.47544875391759e-05,0.0938397273421287,0,0,0
9453,327715.19588234986,2010-10-19 12:14:55,1140.5755296411826,2,29,0.5501165986061096,3.880738258361816,28.196312708192607,28.02599588247175,112.51583967784634,102.3020442074318,6.47544875391759e-05,0.0938397273421287,0,0,0
9454,327745.2111685485,2010-10-19 12:15:25,1170.5908158548998,2,29,0.5501165986061096,3.883166551589966,28.2008992359726,28.02599588247175,112.53364429377086,102.3020442074318,3.237724376958795e-05,0.0938397273421287,0,0,0
9455,327775.22638510366,2010-10-19 12:15:55,1200.6060324801815,2,29,0.5499359965324402,3.885432958602905,28.20548579051543,28.02599588247175,112.55145999962129,102.3020442074318,6.47544875391759e-05,0.0938397273421287,0,0,0
9456,327805.2414517401,2010-10-19 12:16:25,1230.6210990214074,2,29,0.5501165986061096,3.8876993656158447,28.21007222983573,28.02599588247175,112.56928561436987,102.3020442074318,6.47544875391759e-05,0.0938397273421287,0,0,0
9457,327835.2565220357,2010-10-19 12:16:55,1260.6361693169902,2,29,0.5501165986061096,3.889642000198364,28.21465866609008,28.02599588247175,112.58712096334492,102.3020442074318,3.237724376958795e-05,0.0938397273421287,0,0,0
9458,327865.2716024465,2010-10-19 12:17:25,1290.6512497127458,2,29,0.5501165986061096,3.891908407211304,28.219245124944,28.02599588247175,112.60496549315351,102.3020442074318,9.713172767078504e-05,0.0938397273421287,0,0,0
9459,327895.28689196345,2010-10-19 12:17:55,1320.6665392597704,2,29,0.550297200679779,3.893365383148194,28.22383165069637,28.02599588247175,112.62281878368748,102.3020442074318,3.237724376958795e-05,0.0938397273421287,0,0,0
9460,327925.30203115067,2010-10-19 12:18:25,1350.6816785422902,2,29,0.5497553944587708,3.894822359085083,28.2284182623665,28.02599588247175,112.64068026435216,102.3020442074318,-3.237724376958795e-05,0.0938397273421287,0,0,0
9461,327955.3170631959,2010-10-19 12:18:55,1380.6967105123538,2,29,0.5499359965324402,3.896441221237183,28.23300470878877,28.02599588247175,112.65854805921308,102.3020442074318,0.0,0.0938397273421287,0,0,0
9462,327985.3321902229,2010-10-19 12:19:25,1410.7118374942163,2,29,0.5501165986061096,3.898221969604492,28.23759121994617,28.02599588247175,112.67642318280676,102.3020442074318,6.47544875391759e-05,0.0938397273421287,0,0,0
9463,328015.34734381107,2010-10-19 12:19:55,1440.7269910773775,2,29,0.5501165986061096,3.899517059326172,28.24217768357755,28.02599588247175,112.69430474913835,102.3020442074318,6.47544875391759e-05,0.0938397273421287,0,0,0
9464,328045.3625205319,2010-10-19 12:20:25,1470.742167833292,2,29,0.5501165986061096,3.9006502628326416,28.246764216854967,28.02599588247175,112.71219275681123,102.3020442074318,3.237724376958795e-05,0.0938397273421287,0,0,0
9465,328075.37762529345,2010-10-19 12:20:56,1500.7572726098122,2,29,0.5501165986061096,3.901945352554321,28.251350616774683,28.02599588247175,112.73008627216616,102.3020442074318,0.0,0.0938397273421287,0,0,0
9466,328105.3927057894,2010-10-19 12:21:26,1530.7723530556927,2,29,0.550297200679779,3.903402328491211,28.25593706423459,28.02599588247175,112.74798586160374,102.3020442074318,6.47544875391759e-05,0.0938397273421287,0,0,0
9467,328135.4079264147,2010-10-19 12:21:56,1560.7875736809433,2,29,0.5501165986061096,3.9045355319976807,28.26052355901666,28.02599588247175,112.7658914426734,102.3020442074318,3.237724376958795e-05,0.0938397273421287,0,0,0
9468,328165.423062394,2010-10-19 12:22:26,1590.8027096802805,2,29,0.5501165986061096,3.90583062171936,28.26511003073404,28.02599588247175,112.7838025459912,102.3020442074318,3.237724376958795e-05,0.0938397273421287,0,0,0
9469,328195.43818361644,2010-10-19 12:22:56,1620.8178308827387,2,29,0.5501165986061096,3.90712571144104,28.269696398763447,28.02599588247175,112.80171894767592,102.3020442074318,3.237724376958795e-05,0.0938397273421287,0,0,0
9470,328225.4533085933,2010-10-19 12:23:26,1650.8329558646165,2,29,0.5499359965324402,3.9082589149475098,28.274282816434525,28.02599588247175,112.81964120118066,102.3020442074318,0.0,0.0938397273421287,0,0,0
9471,328255.4684707779,2010-10-19 12:23:56,1680.848118089315,2,29,0.5499359965324402,3.9095540046691895,28.278869153353128,28.02599588247175,112.8375688726056,102.3020442074318,3.237724376958795e-05,0.0938397273421287,0,0,0
9472,328285.48364159407,2010-10-19 12:24:26,1710.863288915451,2,29,0.5501165986061096,3.910849094390869,28.283455508010768,28.02599588247175,112.85550237040168,102.3020442074318,3.237724376958795e-05,0.0938397273421287,0,0,0
9473,328315.4987824906,2010-10-19 12:24:56,1740.8784299072304,2,29,0.5501165986061096,3.911982297897339,28.288041860378105,28.02599588247175,112.87344166577785,102.3020442074318,3.237724376958795e-05,0.0938397273421287,0,0,0
9474,328345.5139071517,2010-10-19 12:25:26,1770.8935544680587,2,29,0.5499359965324402,3.9132773876190186,28.29262825163533,28.02599588247175,112.89138693395957,102.3020442074318,3.237724376958795e-05,0.0938397273421287,0,0,0
9475,328375.5292021072,2010-10-19 12:25:56,1800.908849378451,2,29,0.550297200679779,3.914734125137329,28.29721458659609,28.02599588247175,112.90933774677454,102.3020442074318,6.47544875391759e-05,0.0938397273421287,0,0,0
9476,328405.5441988896,2010-10-19 12:26:26,1830.9238461808663,2,29,0.5501165986061096,3.915867328643799,28.301801041784604,28.02599588247175,112.92729486738118,102.3020442074318,3.237724376958795e-05,0.0938397273421287,0,0,0
9477,328435.5593541819,2010-10-19 12:26:56,1860.9390015584995,2,29,0.5499359965324402,3.9171624183654794,28.306387477218056,28.02599588247175,112.94525775407004,102.3020442074318,3.237724376958795e-05,0.0938397273421287,0,0,0
9478,328465.5744866024,2010-10-19 12:27:26,1890.954133893704,2,29,0.5499359965324402,3.918619394302368,28.31097389468517,28.02599588247175,112.9632265702734,102.3020442074318,6.47544875391759e-05,0.0938397273421287,0,0,0
9479,328495.5897676031,2010-10-19 12:27:56,1920.9694148994413,2,29,0.550297200679779,3.920076370239258,28.315560316894818,28.02599588247175,112.98120143664242,102.3020442074318,9.713172767078504e-05,0.0938397273421287,0,0,0
9480,328525.60476903705,2010-10-19 12:28:26,1950.984416303325,2,29,0.5501165986061096,3.921209573745728,28.320146723243163,28.02599588247175,112.99918225434251,102.3020442074318,3.237724376958795e-05,0.0938397273421287,0,0,0
9481,328555.6199194824,2010-10-19 12:28:56,1980.9995667737285,2,29,0.5501165986061096,3.9225046634674072,28.32473317929079,28.02599588247175,113.01716936948928,102.3020442074318,3.237724376958795e-05,0.0938397273421287,0,0,0
9482,328585.6350877773,2010-10-19 12:29:26,2011.0147350485056,2,29,0.5501165986061096,3.923799753189087,28.329319579421107,28.02599588247175,113.03516246465436,102.3020442074318,3.237724376958795e-05,0.0938397273421287,0,0,0
9483,328615.6503600261,2010-10-19 12:29:56,2041.0300074127056,2,29,0.5499359965324402,3.925094842910767,28.333906069995027,28.02599588247175,113.05316220246984,102.3020442074318,0.0,0.0938397273421287,0,0,0
9484,328645.66535751027,2010-10-19 12:30:26,2071.0450047815325,2,29,0.5501165986061096,3.926551818847656,28.33849253471591,28.02599588247175,113.07116799998391,102.3020442074318,6.47544875391759e-05,0.0938397273421287,0,0,0
9485,328675.6805022915,2010-10-19 12:30:56,2101.060149587819,2,29,0.5501165986061096,3.927846908569336,28.34307893847525,28.02599588247175,113.08917992798924,102.3020442074318,3.237724376958795e-05,0.0938397273421287,0,0,0
9486,328705.6956591328,2010-10-19 12:31:26,2131.07530644915,2,29,0.5501165986061096,3.929465770721436,28.347665374124965,28.02599588247175,113.10719831884651,102.3020442074318,6.47544875391759e-05,0.0938397273421287,0,0,0
9487,328735.7108120092,2010-10-19 12:31:56,2161.0904593305627,2,29,0.5501165986061096,3.9307608604431152,28.35225179745101,28.02599588247175,113.1252231717186,102.3020442074318,3.237724376958795e-05,0.0938397273421287,0,0,0
9488,328765.7259901836,2010-10-19 12:32:26,2191.105637570175,2,29,0.5501165986061096,3.932217836380005,28.35683820406628,28.02599588247175,113.1432544228262,102.3020442074318,6.47544875391759e-05,0.0938397273421287,0,0,0
9489,328795.7411109299,2010-10-19 12:32:56,2221.1207582162465,2,29,0.5499359965324402,3.933512926101685,28.36142464273947,28.02599588247175,113.16129241139804,102.3020442074318,0.0,0.0938397273421287,0,0,0
9490,328825.7562353855,2010-10-19 12:33:26,2251.1358826567757,2,29,0.5501165986061096,3.935131788253784,28.36601104192948,28.02599588247175,113.17933683276416,102.3020442074318,6.47544875391759e-05,0.0938397273421287,0,0,0
9491,328855.77139330946,2010-10-19 12:33:56,2281.1510405757426,2,29,0.5501165986061096,3.936426877975464,28.37059746547657,28.02599588247175,113.19738801157358,102.3020442074318,3.237724376958795e-05,0.0938397273421287,0,0,0
9492,328885.7867450465,2010-10-19 12:34:26,2311.166392473164,2,29,0.5501165986061096,3.9378838539123535,28.37518399188122,28.02599588247175,113.215446292221,102.3020442074318,0.0,0.0938397273421287,0,0,0
9493,328915.80167192465,2010-10-19 12:34:56,2341.181319220981,2,29,0.5499359965324402,3.939502716064453,28.37977042123561,28.02599588247175,113.2335110158232,102.3020442074318,6.47544875391759e-05,0.0938397273421287,0,0,0
9494,328945.8168251118,2010-10-19 12:35:26,2371.196472383093,2,29,0.5499359965324402,3.940959692001343,28.384356793012493,28.02599588247175,113.2515823069512,102.3020442074318,6.47544875391759e-05,0.0938397273421287,0,0,0
9495,328975.8319667652,2010-10-19 12:35:56,2401.2116140214844,2,29,0.5501165986061096,3.942416667938232,28.388943185574817,28.02599588247175,113.26966049199264,102.3020442074318,3.237724376958795e-05,0.0938397273421287,0,0,0
9496,329005.8472442121,2010-10-19 12:36:26,2431.226891518477,2,29,0.5501165986061096,3.944035530090332,28.393529620722727,28.02599588247175,113.28774579570894,102.3020442074318,3.237724376958795e-05,0.0938397273421287,0,0,0
9497,329035.8622445233,2010-10-19 12:36:56,2461.2418917845243,2,29,0.5501165986061096,3.9454925060272217,28.39811602203797,28.02599588247175,113.30583793408223,102.3020442074318,3.237724376958795e-05,0.0938397273421287,0,0,0
9498,329065.8773933596,2010-10-19 12:37:26,2491.25704065093,2,29,0.5501165986061096,3.946787595748901,28.40270252967871,28.02599588247175,113.32393752850513,102.3020442074318,0.0,0.0938397273421287,0,0,0
9499,329095.8925605116,2010-10-19 12:37:56,2521.272207802909,2,29,0.5501165986061096,3.948568344116211,28.407288910230516,28.02599588247175,113.34204369232958,102.3020442074318,3.237724376958795e-05,0.0938397273421287,0,0,0
9500,329125.9076797842,2010-10-19 12:38:26,2551.2873270805703,2,29,0.5501165986061096,3.950187206268311,28.411875341093403,28.02599588247175,113.36015725196262,102.3020442074318,6.47544875391759e-05,0.0938397273421287,0,0,0
9501,329155.9232126627,2010-10-19 12:38:56,2581.3028599690765,2,29,0.5499359965324402,3.95180606842041,28.416461773944263,28.02599588247175,113.37827804695073,102.3020442074318,3.237724376958795e-05,0.0938397273421287,0,0,0
9502,329185.9380933407,2010-10-19 12:39:26,2611.317740637049,2,29,0.5499359965324402,3.9534249305725098,28.421048156451253,28.02599588247175,113.3964058593143,102.3020442074318,6.47544875391759e-05,0.0938397273421287,0,0,0
9503,329215.95316135563,2010-10-19 12:39:56,2641.3328086770102,2,29,0.5501165986061096,3.95504379272461,28.425634563000006,28.02599588247175,113.41454112006654,102.3020442074318,3.237724376958795e-05,0.0938397273421287,0,0,0
9504,329245.96838699334,2010-10-19 12:40:26,2671.3480342746534,2,29,0.5501165986061096,3.956500768661499,28.430220975141605,28.02599588247175,113.4326838193624,102.3020442074318,3.237724376958795e-05,0.0938397273421287,0,0,0
9505,329275.9834074748,2010-10-19 12:40:56,2701.3630547811467,2,29,0.550297200679779,3.9582815170288086,28.434807372710203,28.02599588247175,113.4508337445796,102.3020442074318,6.47544875391759e-05,0.0938397273421287,0,0,0
9506,329305.9985742057,2010-10-19 12:41:26,2731.378221502051,2,29,0.5501165986061096,3.959738492965698,28.439393784782336,28.02599588247175,113.46899124509248,102.3020442074318,3.237724376958795e-05,0.0938397273421287,0,0,0
9507,329336.013713779,2010-10-19 12:41:56,2761.3933611705324,2,29,0.5499359965324402,3.961195468902588,28.443980230464746,28.02599588247175,113.48715641991708,102.3020442074318,-3.237724376958795e-05,0.0938397273421287,0,0,0
9508,329366.0291863572,2010-10-19 12:42:26,2791.4088337687776,2,29,0.5499359965324402,3.9631381034851074,28.44856672967255,28.02599588247175,113.50532936779967,102.3020442074318,6.47544875391759e-05,0.0938397273421287,0,0,0
9509,329396.0439808905,2010-10-19 12:42:56,2821.423628181776,2,29,0.5501165986061096,3.964756965637207,28.453153035487823,28.02599588247175,113.52350917623114,102.3020442074318,3.237724376958795e-05,0.0938397273421287,0,0,0
9510,329426.05914732564,2010-10-19 12:43:26,2851.438794647044,2,29,0.5501165986061096,3.9665377140045166,28.457739502363346,28.02599588247175,113.54169734411144,102.3020442074318,3.237724376958795e-05,0.0938397273421287,0,0,0
9511,329456.074296578,2010-10-19 12:43:56,2881.4539438542984,2,29,0.550297200679779,3.968318462371826,28.46232591902319,28.02599588247175,113.5598929959354,102.3020442074318,9.713172767078504e-05,0.0938397273421287,0,0,0
9512,329486.0895323259,2010-10-19 12:44:26,2911.469179647352,2,29,0.5501165986061096,3.969775438308716,28.4669124137598,28.02599588247175,113.57809675378292,102.3020442074318,3.237724376958795e-05,0.0938397273421287,0,0,0
9513,329516.1045540304,2010-10-19 12:44:56,2941.4842012966933,2,29,0.5501165986061096,3.9715561866760254,28.471498761360728,28.02599588247175,113.59630772460632,102.3020442074318,3.237724376958795e-05,0.0938397273421287,0,0,0
9514,329546.11970054096,2010-10-19 12:45:26,2971.4993478022147,2,29,0.5501165986061096,3.973336935043335,28.47608523617843,28.02599588247175,113.61452717368364,102.3020442074318,3.237724376958795e-05,0.0938397273421287,0,0,0
9515,329576.13498436875,2010-10-19 12:45:56,3001.514631765323,2,29,0.5499359965324402,3.975117683410645,28.48067165748537,28.02599588247175,113.63275443299835,102.3020442074318,6.47544875391759e-05,0.0938397273421287,0,0,0
9516,329606.15010950604,2010-10-19 12:46:26,3031.5297567722628,2,29,0.5501165986061096,3.976898431777954,28.48525807267716,28.02599588247175,113.65098973993388,102.3020442074318,6.47544875391759e-05,0.0938397273421287,0,0,0
9517,329636.16514904995,2010-10-19 12:46:56,3061.5447963462784,2,29,0.5499359965324402,3.978355407714844,28.489844483903905,28.02599588247175,113.66923266866766,102.3020442074318,0.0,0.0938397273421287,0,0,0
9518,329666.1802780368,2010-10-19 12:47:26,3091.5599253381506,2,29,0.5501165986061096,3.980459928512573,28.49443077777763,28.02599588247175,113.68748380959812,102.3020442074318,6.47544875391759e-05,0.0938397273421287,0,0,0
9519,329696.1956425256,2010-10-19 12:47:56,3121.575289811916,2,29,0.5501165986061096,3.982240676879883,28.49901716643509,28.02599588247175,113.7057435871444,102.3020442074318,6.47544875391759e-05,0.0938397273421287,0,0,0
9520,329726.2107153124,2010-10-19 12:48:26,3151.5903626087324,2,29,0.5499359965324402,3.984021425247192,28.503603511641447,28.02599588247175,113.72401149830552,102.3020442074318,6.47544875391759e-05,0.0938397273421287,0,0,0
9521,329756.22577010933,2010-10-19 12:48:56,3181.605417415713,2,29,0.5501165986061096,3.985964059829712,28.50818983378572,28.02599588247175,113.74228778835158,102.3020442074318,9.713172767078504e-05,0.0938397273421287,0,0,0
9522,329786.2407875983,2010-10-19 12:49:26,3211.620434919723,2,29,0.550297200679779,3.987906694412232,28.51277616591188,28.02599588247175,113.7605727307668,102.3020442074318,9.713172767078504e-05,0.0938397273421287,0,0,0
9523,329816.2559813265,2010-10-19 12:49:56,3241.635628622876,2,29,0.5501165986061096,3.989687442779541,28.517362484091446,28.02599588247175,113.7788660461909,102.3020442074318,9.713172767078504e-05,0.0938397273421287,0,0,0
9524,329846.2712356909,2010-10-19 12:50:26,3271.650882992227,2,29,0.5501165986061096,3.991630077362061,28.52194880219236,28.02599588247175,113.7971681412654,102.3020442074318,6.47544875391759e-05,0.0938397273421287,0,0,0
9525,329876.28643156943,2010-10-19 12:50:56,3301.666078890851,2,29,0.5499359965324402,3.99341082572937,28.52653508314384,28.02599588247175,113.81547891122256,102.3020442074318,3.237724376958795e-05,0.0938397273421287,0,0,0
9526,329906.3014523767,2010-10-19 12:51:26,3331.681099637944,2,29,0.5501165986061096,3.995515108108521,28.531121435833025,28.02599588247175,113.83379885309482,102.3020442074318,6.47544875391759e-05,0.0938397273421287,0,0,0
9527,329936.3167273825,2010-10-19 12:51:56,3361.6963746788147,2,29,0.5501165986061096,3.99745774269104,28.53570783740424,28.02599588247175,113.85212799961155,102.3020442074318,9.713172767078504e-05,0.0938397273421287,0,0,0
9528,329966.3317341347,2010-10-19 12:52:26,3391.711381395941,2,29,0.5501165986061096,3.99940037727356,28.54029421076683,28.02599588247175,113.87046598279142,102.3020442074318,6.47544875391759e-05,0.0938397273421287,0,0,0
9529,329996.3468791716,2010-10-19 12:52:57,3421.726526432802,2,29,0.550297200679779,4.001181125640869,28.544880480074564,28.02599588247175,113.88881271477064,102.3020442074318,3.23295607813634e-05,0.0938397273421287,0,0,0
9530,330026.3620280881,2010-10-19 12:53:27,3451.7416753844195,2,29,0.5501165986061096,4.003609657287598,28.549466808751752,28.02599588247175,113.90716901278722,102.3020442074318,9.71794142969884e-05,0.0938397273421287,0,0,0
9531,330056.3772308488,2010-10-19 12:53:57,3481.756878160184,2,29,0.5501165986061096,4.005552291870117,28.55405311142848,28.02599588247175,113.92553454086456,102.3020442074318,9.71794142969884e-05,0.0938397273421287,0,0,0
9532,330086.3923191894,2010-10-19 12:54:27,3511.7719664506158,2,29,0.5499359965324402,4.007494926452637,28.55863938776329,28.02599588247175,113.9439095188986,102.3020442074318,6.47544875391759e-05,0.0938397273421287,0,0,0
9533,330116.4075013488,2010-10-19 12:54:57,3541.787148609997,2,29,0.5499359965324402,4.009437561035156,28.563225808959704,28.02599588247175,113.96229462276014,102.3020442074318,0.0,0.0938397273421287,0,0,0
9534,330146.4226051278,2010-10-19 12:55:27,3571.802252394044,2,29,0.5501165986061096,4.011703968048096,28.56781211023277,28.02599588247175,113.98068899168578,102.3020442074318,3.24249267578125e-05,0.0938397273421287,0,0,0
9535,330176.4377612773,2010-10-19 12:55:57,3601.8174085937258,2,29,0.5501165986061096,4.013970375061035,28.572398486699072,28.02599588247175,113.9990936603245,102.3020442074318,6.47544875391759e-05,0.0938397273421287,0,0,0
9536,330206.4528927454,2010-10-19 12:56:27,3631.8325400316944,2,29,0.5501165986061096,4.0160746574401855,28.576984838092347,28.02599588247175,114.0175081339744,102.3020442074318,3.23295607813634e-05,0.0938397273421287,0,0,0
9537,330236.4680298324,2010-10-19 12:56:57,3661.8476771488176,2,29,0.5501165986061096,4.018341064453125,28.581571170843457,28.02599588247175,114.0359326148259,102.3020442074318,3.23295607813634e-05,0.0938397273421287,0,0,0
9538,330266.4832088841,2010-10-19 12:57:27,3691.862856205466,2,29,0.5501165986061096,4.0206074714660645,28.58615747232608,28.02599588247175,114.05436703226938,102.3020442074318,6.47544875391759e-05,0.0938397273421287,0,0,0
9539,330296.49834930943,2010-10-19 12:57:57,3721.8779966007583,2,29,0.5501165986061096,4.022873878479004,28.59074380172241,28.02599588247175,114.07281194703292,102.3020442074318,6.47544875391759e-05,0.0938397273421287,0,0,0
9540,330326.5135935184,2010-10-19 12:58:27,3751.8932408148,2,29,0.550297200679779,4.025302410125732,28.59533014674797,28.02599588247175,114.09126725038811,102.3020442074318,6.47544875391759e-05,0.0938397273421287,0,0,0
9541,330356.5286000752,2010-10-19 12:58:57,3781.9082473665135,2,29,0.5501165986061096,4.027406692504883,28.599916460009293,28.02599588247175,114.10973288515248,102.3020442074318,6.47544875391759e-05,0.0938397273421287,0,0,0
9542,330386.5438729105,2010-10-19 12:59:27,3811.923520181837,2,29,0.5501165986061096,4.029673099517822,28.604502843512023,28.02599588247175,114.1282093572753,102.3020442074318,6.47544875391759e-05,0.0938397273421287,0,0,0
9543,330416.5588964045,2010-10-19 12:59:57,3841.9385437158767,2,29,0.5501165986061096,4.032101631164551,28.609089096915664,28.02599588247175,114.14669582985114,102.3020442074318,9.71794142969884e-05,0.0938397273421287,0,0,0
9544,330446.57403819327,2010-10-19 13:00:27,3871.953685484592,2,29,0.5499359965324402,4.034205913543701,28.61367541420814,28.02599588247175,114.16519329818966,102.3020442074318,3.23295607813634e-05,0.0938397273421287,0,0,0
9545,330476.5892178514,2010-10-19 13:00:57,3901.9688651126658,2,29,0.5501165986061096,4.0367960929870605,28.618261768702126,28.02599588247175,114.18370165008552,102.3020442074318,6.47544875391759e-05,0.0938397273421287,0,0,0
9546,330506.60432997125,2010-10-19 13:01:27,3931.9839772324863,2,29,0.5501165986061096,4.0390625,28.62284817245828,28.02599588247175,114.20222108739254,102.3020442074318,3.24249267578125e-05,0.0938397273421287,0,0,0
9547,330536.61947791534,2010-10-19 13:01:57,3961.9991252968935,2,29,0.5501165986061096,4.04149055480957,28.627434571260324,28.02599588247175,114.22075138820946,102.3020442074318,9.70840483205393e-05,0.0938397273421287,0,0,0
9548,330566.63460623554,2010-10-19 13:02:27,3992.0142535519294,2,29,0.5501165986061096,4.043919086456299,28.632020929823053,28.02599588247175,114.23929250625308,102.3020442074318,6.47544875391759e-05,0.0938397273421287,0,0,0
9549,330596.64974883135,2010-10-19 13:02:57,4022.029396122645,2,29,0.5499359965324402,4.046185493469238,28.636607317784865,28.02599588247175,114.25784479495132,102.3020442074318,6.47544875391759e-05,0.0938397273421287,0,0,0
9550,330626.6649435169,2010-10-19 13:03:27,4052.044590803233,2,29,0.5499359965324402,4.048613548278809,28.64119363352252,28.02599588247175,114.27640798634864,102.3020442074318,6.47544875391759e-05,0.0938397273421287,0,0,0
9551,330656.6809961408,2010-10-19 13:03:57,4082.0606435624177,2,29,0.5501165986061096,4.051365852355957,28.64578021080104,28.02599588247175,114.29498354445164,102.3020442074318,9.71794142969884e-05,0.0938397273421287,0,0,0
9552,330686.69524471334,2010-10-19 13:04:27,4112.074892099926,2,29,0.5501165986061096,4.053793907165527,28.65036641679085,28.02599588247175,114.31356905714212,102.3020442074318,9.70840483205393e-05,0.0938397273421287,0,0,0
9553,330716.7103313497,2010-10-19 13:04:57,4142.089978610923,2,29,0.550297200679779,4.056384086608887,28.65495283242716,28.02599588247175,114.33216697908266,102.3020442074318,9.70840483205393e-05,0.0938397273421287,0,0,0
9554,330746.7255703958,2010-10-19 13:05:27,4172.105217667109,2,29,0.5501165986061096,4.058812618255615,28.65953885352761,28.02599588247175,114.3507749283982,102.3020442074318,3.24249267578125e-05,0.0938397273421287,0,0,0
9555,330776.74058994994,2010-10-19 13:05:57,4202.120237241278,2,29,0.5499359965324402,4.0612406730651855,28.664124278975837,28.02599588247175,114.3693920142862,102.3020442074318,6.47544875391759e-05,0.0938397273421287,0,0,0
9556,330806.755893136,2010-10-19 13:06:27,4232.135540432308,2,29,0.5499359965324402,4.063830852508545,28.66870968870593,28.02599588247175,114.38802077212422,102.3020442074318,6.47544875391759e-05,0.0938397273421287,0,0,0
9557,330836.7709161788,2010-10-19 13:06:57,4262.150563465098,2,29,0.5499359965324402,4.066421031951904,28.673295018648773,28.02599588247175,114.40666107437,102.3020442074318,9.70840483205393e-05,0.0938397273421287,0,0,0
9558,330866.78605784726,2010-10-19 13:07:27,4292.165705158625,2,29,0.5501165986061096,4.069173336029053,28.677880701148617,28.02599588247175,114.42531491927534,102.3020442074318,9.71794142969884e-05,0.0938397273421287,0,0,0
9559,330896.8012305731,2010-10-19 13:07:57,4322.1808778945215,2,29,0.5501165986061096,4.071763515472412,28.68246701057022,28.02599588247175,114.44398357133656,102.3020442074318,6.47544875391759e-05,0.0938397273421287,0,0,0
9560,330926.8163401466,2010-10-19 13:08:27,4352.19598741286,2,29,0.5499359965324402,4.074515342712402,28.68705328466083,28.02599588247175,114.46266442672948,102.3020442074318,3.23295607813634e-05,0.0938397273421287,0,0,0
9561,330956.83148750925,2010-10-19 13:08:57,4382.211134795567,2,29,0.5501165986061096,4.077267646789551,28.69163951120468,28.02599588247175,114.48135746888438,102.3020442074318,3.24249267578125e-05,0.0938397273421287,0,0,0
9562,330986.8466258394,2010-10-19 13:09:27,4412.226273125713,2,29,0.5501165986061096,4.08018159866333,28.69622578065588,28.02599588247175,114.50006320924608,102.3020442074318,0.0001295089750783,0.0938397273421287,0,0,0
9563,331016.8617828311,2010-10-19 13:09:57,4442.2414300923065,2,29,0.5501165986061096,4.08293342590332,28.70081238457043,28.02599588247175,114.51878292801304,102.3020442074318,0.0001295089750783,0.0938397273421287,0,0,0
9564,331046.87690728664,2010-10-19 13:10:27,4472.256554547874,2,29,0.5501165986061096,4.085685729980469,28.705399466279577,28.02599588247175,114.53751745799944,102.3020442074318,9.71794142969884e-05,0.0938397273421287,0,0,0
9565,331076.8923661506,2010-10-19 13:10:57,4502.2720135472255,2,29,0.5501165986061096,4.088599681854248,28.70998626211917,28.02599588247175,114.55626371787184,102.3020442074318,0.0001619339018361,0.0938397273421287,0,0,0
9566,331106.9072556005,2010-10-19 13:11:27,4532.286902896835,2,29,0.5499359965324402,4.091189861297607,28.71457241403578,28.02599588247175,114.5750203047546,102.3020442074318,6.47544875391759e-05,0.0938397273421287,0,0,0
9567,331136.9223962063,2010-10-19 13:11:57,4562.302043492628,2,29,0.5501165986061096,4.094265460968018,28.719158656101,28.02599588247175,114.59379040273645,102.3020442074318,6.47544875391759e-05,0.0938397273421287,0,0,0
9568,331166.9375048174,2010-10-19 13:12:27,4592.317152108717,2,29,0.5501165986061096,4.097017765045166,28.723744855991377,28.02599588247175,114.61257360278996,102.3020442074318,9.71794142969884e-05,0.0938397273421287,0,0,0
9569,331196.9526417089,2010-10-19 13:12:57,4622.33228896519,2,29,0.5499359965324402,4.100093364715576,28.728331121575675,28.02599588247175,114.63137041123144,102.3020442074318,9.70840483205393e-05,0.0938397273421287,0,0,0
9570,331226.96779698133,2010-10-19 13:13:27,4652.347444242573,2,29,0.5501165986061096,4.103007316589356,28.732917389099924,28.02599588247175,114.65018069090677,102.3020442074318,0.0001295089750783,0.0938397273421287,0,0,0
9571,331256.9829511159,2010-10-19 13:13:57,4682.362598412196,2,29,0.5501165986061096,4.105921268463135,28.737503651478505,28.02599588247175,114.6690045822877,102.3020442074318,9.70840483205393e-05,0.0938397273421287,0,0,0
9572,331286.99910386425,2010-10-19 13:14:27,4712.37875115056,2,29,0.5499359965324402,4.108997344970703,28.742090073613163,28.02599588247175,114.68784289812618,102.3020442074318,6.47544875391759e-05,0.0938397273421287,0,0,0
9573,331317.01324192144,2010-10-19 13:14:57,4742.392889328018,2,29,0.550297200679779,4.112072944641113,28.74667616545253,28.02599588247175,114.70669379972054,102.3020442074318,6.47544875391759e-05,0.0938397273421287,0,0,0
9574,331347.0285760997,2010-10-19 13:15:27,4772.408223411039,2,29,0.5501165986061096,4.114986896514893,28.75126246887745,28.02599588247175,114.72555951755064,102.3020442074318,9.70840483205393e-05,0.0938397273421287,0,0,0
9575,331377.0436547661,2010-10-19 13:15:57,4802.423302142648,2,29,0.550297200679779,4.118224620819092,28.755848669273245,28.02599588247175,114.74443892171452,102.3020442074318,9.71794142969884e-05,0.0938397273421287,0,0,0
9576,331407.0586397541,2010-10-19 13:16:27,4832.438287050418,2,29,0.5499359965324402,4.121138572692871,28.76043490736106,28.02599588247175,114.76333271702808,102.3020442074318,6.47544875391759e-05,0.0938397273421287,0,0,0
9577,331437.073778385,2010-10-19 13:16:57,4862.453425671289,2,29,0.5501165986061096,4.12437629699707,28.765021172612368,28.02599588247175,114.78224090213509,102.3020442074318,6.47544875391759e-05,0.0938397273421287,0,0,0
9578,331467.08894519106,2010-10-19 13:17:27,4892.468592482418,2,29,0.5499359965324402,4.1274518966674805,28.76960738162362,28.02599588247175,114.80116345629176,102.3020442074318,6.47544875391759e-05,0.0938397273421287,0,0,0
9579,331497.1040925237,2010-10-19 13:17:57,4922.483739789937,2,29,0.5501165986061096,4.130851745605469,28.774193691174936,28.02599588247175,114.82010105332998,102.3020442074318,9.71794142969884e-05,0.0938397273421287,0,0,0
9580,331527.1193417753,2010-10-19 13:18:27,4952.498989056571,2,29,0.5499359965324402,4.133927345275879,28.778780009725647,28.02599588247175,114.83905338742464,102.3020442074318,9.70840483205393e-05,0.0938397273421287,0,0,0
9581,331557.134472326,2010-10-19 13:18:57,4982.514119597304,2,29,0.5501165986061096,4.137165069580078,28.78336623054213,28.02599588247175,114.85802015297756,102.3020442074318,6.47544875391759e-05,0.0938397273421287,0,0,0
9582,331587.1496150922,2010-10-19 13:19:27,5012.529262363506,2,29,0.5501165986061096,4.140564918518066,28.7879525700096,28.02599588247175,114.8770025643187,102.3020442074318,9.71794142969884e-05,0.0938397273421287,0,0,0
9583,331617.1648683639,2010-10-19 13:19:57,5042.544515755421,2,29,0.5499359965324402,4.143640518188477,28.79253889519931,28.02599588247175,114.89600011166536,102.3020442074318,6.47544875391759e-05,0.0938397273421287,0,0,0
9584,331647.17978125217,2010-10-19 13:20:27,5072.559428543446,2,29,0.5499359965324402,4.147364139556885,28.79712509169241,28.02599588247175,114.91501270593272,102.3020442074318,9.71794142969884e-05,0.0938397273421287,0,0,0
9585,331677.1949488252,2010-10-19 13:20:57,5102.574596096425,2,29,0.5501165986061096,4.150763511657715,28.80171131134327,28.02599588247175,114.93404084746211,102.3020442074318,0.0001295089750783,0.0938397273421287,0,0,0
9586,331707.21005936107,2010-10-19 13:21:27,5132.5897066523485,2,29,0.5501165986061096,4.154163360595703,28.806297537299105,28.02599588247175,114.95308455081845,102.3020442074318,9.71794142969884e-05,0.0938397273421287,0,0,0
9587,331737.2252249391,2010-10-19 13:21:57,5162.60487220033,2,29,0.5501165986061096,4.157562732696533,28.81088382667831,28.02599588247175,114.97214415691828,102.3020442074318,9.70840483205393e-05,0.0938397273421287,0,0,0
9588,331767.2404494941,2010-10-19 13:22:27,5192.620096770413,2,29,0.5501165986061096,4.1609625816345215,28.815470111635552,28.02599588247175,114.99121954099286,102.3020442074318,9.71794142969884e-05,0.0938397273421287,0,0,0
9589,331797.2554715896,2010-10-19 13:22:57,5222.635118860853,2,29,0.5501165986061096,4.164524078369141,28.82005633746368,28.02599588247175,115.0103105443622,102.3020442074318,0.0001295089750783,0.0938397273421287,0,0,0
9590,331827.270628877,2010-10-19 13:23:27,5252.650276143234,2,29,0.550297200679779,4.16808557510376,28.824642551117336,28.02599588247175,115.0294172705184,102.3020442074318,0.0001295089750783,0.0938397273421287,0,0,0
9591,331857.2857813373,2010-10-19 13:23:57,5282.665428723897,2,29,0.5501165986061096,4.171647071838379,28.829228710263145,28.02599588247175,115.04853993332186,102.3020442074318,0.0001619339018361,0.0938397273421287,0,0,0
9592,331887.3009152715,2010-10-19 13:24:27,5312.680562572874,2,29,0.5499359965324402,4.174884796142578,28.83381483919101,28.02599588247175,115.06767874623722,102.3020442074318,6.47544875391759e-05,0.0938397273421287,0,0,0
9593,331917.3160969447,2010-10-19 13:24:58,5342.69574423602,2,29,0.5499359965324402,4.178446292877197,28.838400966900693,28.02599588247175,115.0868337687046,102.3020442074318,6.47544875391759e-05,0.0938397273421287,0,0,0
9594,331947.3312743172,2010-10-19 13:25:28,5372.710921638545,2,29,0.5499359965324402,4.182007789611816,28.842987256166744,28.02599588247175,115.1060058678991,102.3020442074318,9.71794142969884e-05,0.0938397273421287,0,0,0
9595,331977.3465191377,2010-10-19 13:25:58,5402.726166418998,2,29,0.5499359965324402,4.185730934143066,28.847573534116155,28.02599588247175,115.12519443479,102.3020442074318,9.70840483205393e-05,0.0938397273421287,0,0,0
9596,332007.3615333786,2010-10-19 13:26:28,5432.7411806699,2,29,0.5501165986061096,4.189454555511475,28.85215971126036,28.02599588247175,115.14439931195136,102.3020442074318,9.71794142969884e-05,0.0938397273421287,0,0,0
9597,332037.3766675233,2010-10-19 13:26:58,5462.756314814616,2,29,0.5501165986061096,4.193016052246094,28.856746023108187,28.02599588247175,115.163621509438,102.3020442074318,9.71794142969884e-05,0.0938397273421287,0,0,0
9598,332067.39182234457,2010-10-19 13:27:28,5492.7714696057865,2,29,0.5501165986061096,4.196739196777344,28.8613322652845,28.02599588247175,115.18286027619776,102.3020442074318,9.71794142969884e-05,0.0938397273421287,0,0,0
9599,332093.000789355,2010-10-19 13:27:53,5518.380436771646,2,29,0.5501165986061096,4.200138568878174,28.86524523368994,28.02599588247175,115.19928819811368,102.3020442074318,0.0001295089750783,0.0938397273421287,0,0,0
9600,332123.0062124393,2010-10-19 13:28:23,30.01523131689749,3,29,0.0,4.111263751983643,28.86524523368994,28.02599588247175,115.19928819811368,102.3020442074318,-0.0004532813909463,0.0938397273421287,0,0,0
9601,332153.02125069505,2010-10-19 13:28:53,60.03026956761467,3,29,0.0,4.100255489349365,28.86524523368994,28.02599588247175,115.19928819811368,102.3020442074318,-0.0002265930233988,0.0938397273421287,0,0,0
9602,332183.0364221428,2010-10-19 13:29:23,90.0454410654246,3,29,0.0,4.093294143676758,28.86524523368994,28.02599588247175,115.19928819811368,102.3020442074318,-0.0001942634553415,0.0938397273421287,0,0,0
9603,332213.00478567573,2010-10-19 13:29:53,120.01380460339615,3,29,0.0,4.089085102081299,28.86524523368994,28.02599588247175,115.19928819811368,102.3020442074318,-9.71794142969884e-05,0.0938397273421287,0,0,0
9604,332213.01241378934,2010-10-19 13:29:53,2.691708566e-06,4,29,1.0056132078170776,4.199814796447754,28.865245234441836,28.02599588247175,115.19928820127149,102.3020442074318,0.0,0.0938397273421287,0,0,0
9605,332213.74678137933,2010-10-19 13:29:54,0.734370256639625,4,29,0.9555844664573668,4.199653148651123,28.865443597621937,28.02599588247175,115.200121275293,102.3020442074318,-3.23295607813634e-05,0.0938397273421287,0,0,0
9606,332215.76247892785,2010-10-19 13:29:56,2.750067850257565,4,29,0.9055556654930116,4.199814796447754,28.86596335183525,28.02599588247175,115.20230412747505,102.3020442074318,0.0,0.0938397273421287,0,0,0
9607,332218.824842044,2010-10-19 13:29:59,5.812430966408588,4,29,0.8555269241333008,4.199653148651123,28.866711164619183,28.02599588247175,115.20544477160942,102.3020442074318,0.0,0.0938397273421287,0,0,0
9608,332223.0434950754,2010-10-19 13:30:03,10.031083977759955,4,29,0.8054981231689453,4.199814796447754,28.867683314359567,28.02599588247175,115.20952759930188,102.3020442074318,-3.24249267578125e-05,0.0938397273421287,0,0,0
9609,332228.6218038924,2010-10-19 13:30:09,15.609392809772046,4,29,0.7552887797355652,4.199814796447754,28.868891182254465,28.02599588247175,115.21460040201995,102.3020442074318,0.0,0.0938397273421287,0,0,0
9610,332235.7932899823,2010-10-19 13:30:16,22.780878904731797,4,29,0.7052599787712097,4.199814796447754,28.870344002172008,28.02599588247175,115.2207019649107,102.3020442074318,3.23295607813634e-05,0.0938397273421287,0,0,0
9611,332245.2306660172,2010-10-19 13:30:26,32.21825495465622,4,29,0.6550505757331848,4.199814796447754,28.872124466637143,28.02599588247175,115.22817957330206,102.3020442074318,-3.24249267578125e-05,0.0938397273421287,0,0,0
9612,332258.2773161236,2010-10-19 13:30:39,45.264905036012834,4,29,0.6050218343734741,4.199653148651123,28.874403369035395,28.02599588247175,115.23775054225032,102.3020442074318,-3.23295607813634e-05,0.0938397273421287,0,0,0
9613,332277.6051348449,2010-10-19 13:30:58,64.59272377733737,4,29,0.5549930930137634,4.199814796447754,28.877508379205462,28.02599588247175,115.25079097651027,102.3020442074318,3.23295607813634e-05,0.0938397273421287,0,0,0
9614,332310.3858528556,2010-10-19 13:31:31,97.37344175791976,4,29,0.504964292049408,4.199814796447754,28.88231351523649,28.02599588247175,115.27097167815744,102.3020442074318,0.0,0.0938397273421287,0,0,0
9615,332370.88500353415,2010-10-19 13:32:31,157.87259241648417,4,29,0.4549355208873749,4.199814796447754,28.89033801245382,28.02599588247175,115.30467304423172,102.3020442074318,0.0,0.0938397273421287,0,0,0
9616,332469.19579345215,2010-10-19 13:34:10,256.183382359496,4,29,0.4049067497253418,4.199814796447754,28.90204371448469,28.02599588247175,115.3538348185496,102.3020442074318,-3.24249267578125e-05,0.0938397273421287,0,0,0
9617,332595.8812875185,2010-10-19 13:36:16,382.86887646094885,4,29,0.3548779785633087,4.199653148651123,28.91539247322716,28.02599588247175,115.40989720483876,102.3020442074318,0.0,0.0938397273421287,0,0,0
9618,332748.17568629,2010-10-19 13:38:49,535.1632752124526,4,29,0.3046686053276062,4.199814796447754,28.929327116217003,28.02599588247175,115.46842013618031,102.3020442074318,0.0,0.0938397273421287,0,0,0
9619,332931.0791242454,2010-10-19 13:41:52,718.0667131527808,4,29,0.2546398341655731,4.199653148651123,28.94351064703449,28.02599588247175,115.52798828130932,102.3020442074318,0.0,0.0938397273421287,0,0,0
9620,333155.1378979156,2010-10-19 13:45:36,942.1254867928528,4,29,0.20461106300354,4.199653148651123,28.95775950122321,28.02599588247175,115.58783078111972,102.3020442074318,-3.23295607813634e-05,0.0938397273421287,0,0,0
9621,333442.8834725446,2010-10-19 13:50:23,1229.8710615322034,4,29,0.1545822918415069,4.199653148651123,28.972056312265803,28.02599588247175,115.6478745874159,102.3020442074318,-3.23295607813634e-05,0.0938397273421287,0,0,0
9622,333862.5484117508,2010-10-19 13:57:23,1649.5360006531664,4,29,0.1045535281300544,4.199653148651123,28.98700727868609,28.02599588247175,115.71066570596052,102.3020442074318,0.0,0.0938397273421287,0,0,0
9623,334608.3958118183,2010-10-19 14:09:49,2395.383400820892,4,29,0.0545247569680213,4.199814796447754,29.002908676728428,28.02599588247175,115.77744867133386,102.3020442074318,0.0,0.0938397273421287,0,0,0
9624,334718.4410424932,2010-10-19 14:11:39,2505.4286315108425,4,29,0.0498289167881011,4.199814796447754,29.00451479927376,28.02599588247175,115.78419410745208,102.3020442074318,-3.24249267578125e-05,0.0938397273421287,0,0,0
9625,334748.441699937,2010-10-19 14:12:09,30.01527363236065,5,29,0.0,4.191558837890625,29.00451479927376,28.02599588247175,115.78419410745208,102.3020442074318,-3.24249267578125e-05,0.0938397273421287,0,0,0
9626,334778.44108666934,2010-10-19 14:12:39,60.014660414803046,5,29,0.0,4.1901021003723145,29.00451479927376,28.02599588247175,115.78419410745208,102.3020442074318,-9.70840483205393e-05,0.0938397273421287,0,0,0
9627,334778.615017533,2010-10-19 14:12:39,0.187467251071902,6,29,-1.9243103452026844e-05,4.1901021003723145,29.00451479927376,28.025995883473826,115.78419410745208,102.30204421163056,0.0,0.0957168191671371,0,0,0
9628,334783.44408044365,2010-10-19 14:12:44,5.016530051435886,6,29,0.0005225847125984,4.1901021003723145,29.004515740651275,28.02599588364073,115.78419805214668,102.30204421232992,-3.23295607813634e-05,0.0957168191671371,0,0,0
9629,334813.44485883164,2010-10-19 14:13:14,30.015271431876368,7,29,-1.099568486213684,4.005552291870117,29.004515740651275,28.035163335874888,115.78419805214668,102.33897423834912,-0.0010360718006268,0.0957168191671371,0,0,0
9630,334843.45988009,2010-10-19 14:13:44,60.03029267019341,7,29,-1.0997490882873535,3.976574659347534,29.004515740651275,28.0443305929753,115.78419805214668,102.37555382080706,-0.0006799221155233,0.0957168191671371,0,0,0
9631,334873.4750068964,2010-10-19 14:14:14,90.04541946659366,7,29,-1.0997490882873535,3.956662654876709,29.004515740651275,28.05349775187713,115.78419805214668,102.41191285356192,-0.0004532813909463,0.0957168191671371,0,0,0
9632,334903.490341596,2010-10-19 14:14:44,120.06075435662729,7,29,-1.099568486213684,3.9412834644317623,29.004515740651275,28.06266498004339,115.78419805214668,102.448111551406,-0.0003561496851034,0.0957168191671371,0,0,0
9633,334933.5052739578,2010-10-19 14:15:14,150.0756865329745,7,29,-1.0993878841400146,3.9286563396453857,29.004515740651275,28.07183210405175,115.78419805214668,102.48418176140972,-0.0003237724304199,0.0957168191671371,0,0,0
9634,334963.5204908638,2010-10-19 14:15:44,180.09090350913044,7,29,-1.099568486213684,3.9174861907958975,29.004515740651275,28.08099931892804,115.78419805214668,102.52014399810898,-0.0003237724304199,0.0957168191671371,0,0,0
9635,334993.5356807875,2010-10-19 14:16:14,210.10609336770105,7,29,-1.099568486213684,3.90744948387146,29.004515740651275,28.09016648899826,115.78419805214668,102.55600864970032,-0.0002266406954731,0.0957168191671371,0,0,0
9636,335023.5507061962,2010-10-19 14:16:44,240.1211187613745,7,29,-1.099568486213684,3.897574424743652,29.004515740651275,28.099333651939663,115.78419805214668,102.59178283354336,-0.0002590179501567,0.0957168191671371,0,0,0
9637,335053.56607113616,2010-10-19 14:17:14,270.1364837614516,7,29,-1.0993878841400146,3.888670682907105,29.004515740651275,28.10850090693461,115.78419805214668,102.62747219153388,-0.0002266406954731,0.0957168191671371,0,0,0
9638,335083.5809534733,2010-10-19 14:17:44,300.15136604845924,7,29,-1.099568486213684,3.8797669410705566,29.004515740651275,28.11766807101214,115.78419805214668,102.66307987569049,-0.0002590179501567,0.0957168191671371,0,0,0
9639,335113.59622572217,2010-10-19 14:18:14,330.1666383023844,7,29,-1.0993878841400146,3.871348857879639,29.004515740651275,28.1268353326634,115.78419805214668,102.69860820942203,-0.0002266406954731,0.0957168191671371,0,0,0
9640,335143.6112508352,2010-10-19 14:18:44,360.1816634404208,7,29,-1.099568486213684,3.8629307746887207,29.004515740651275,28.136002479537968,115.78419805214668,102.73405871398056,-0.0002266406954731,0.0957168191671371,0,0,0
9641,335173.62650847266,2010-10-19 14:19:14,390.1969210478423,7,29,-1.099568486213684,3.854836463928223,29.004515740651275,28.145169797432192,115.78419805214668,102.76943479955524,-0.0002266406954731,0.0957168191671371,0,0,0
9642,335203.64153201174,2010-10-19 14:19:45,420.21194460193095,7,29,-1.099568486213684,3.846904039382935,29.004515740651275,28.15433696547833,115.78419805214668,102.80473659943996,-0.0001942634553415,0.0957168191671371,0,0,0
9643,335233.6566803518,2010-10-19 14:20:15,450.2270929720997,7,29,-1.0993878841400146,3.839133501052856,29.004515740651275,28.16350423086513,115.78419805214668,102.83996689541378,-0.0002266406954731,0.0957168191671371,0,0,0
9644,335263.67183514795,2010-10-19 14:20:45,480.242247738209,7,29,-1.099568486213684,3.831686973571777,29.004515740651275,28.17267142651367,115.78419805214668,102.87512641100064,-0.0001618862152099,0.0957168191671371,0,0,0
9645,335293.68696267623,2010-10-19 14:21:15,510.25737527144577,7,29,-1.099568486213684,3.823754549026489,29.004515740651275,28.18183865223387,115.78419805214668,102.91021571450652,-0.0002266406954731,0.0957168191671371,0,0,0
9646,335323.7021099687,2010-10-19 14:21:45,540.2725226541534,7,29,-1.0993878841400146,3.816307783126831,29.004515740651275,28.19100584988172,115.78419805214668,102.94523588410571,-0.0002266406954731,0.0957168191671371,0,0,0
9647,335353.7172457926,2010-10-19 14:22:15,570.2876583928406,7,29,-1.099568486213684,3.809022903442383,29.004515740651275,28.20017302048459,115.78419805214668,102.98018830404072,-0.0002266406954731,0.0957168191671371,0,0,0
9648,335383.73240081937,2010-10-19 14:22:45,600.3028134145871,7,29,-1.0992072820663452,3.802223682403565,29.004515740651275,28.20934021170612,115.78419805214668,103.0150740451348,-9.713172767078504e-05,0.0957168191671371,0,0,0
9649,335413.74752889393,2010-10-19 14:23:15,630.3179414641105,7,29,-1.099568486213684,3.794938802719116,29.004515740651275,28.2185074181377,115.78419805214668,103.04989485895926,-0.0001618862152099,0.0957168191671371,0,0,0
9650,335443.76266921405,2010-10-19 14:23:45,660.3330818042659,7,29,-1.099568486213684,3.787815809249878,29.004515740651275,28.227674662760275,115.78419805214668,103.08465166519343,-0.0002266406954731,0.0957168191671371,0,0,0
9651,335473.7779630167,2010-10-19 14:24:15,690.3483756269471,7,29,-1.099568486213684,3.78101658821106,29.004515740651275,28.23684195725163,115.78419805214668,103.11934578978992,-0.0002266406954731,0.0957168191671371,0,0,0
9652,335503.79296392435,2010-10-19 14:24:45,720.3633764894814,7,29,-1.099568486213684,3.774541139602661,29.004515740651275,28.24600910081183,115.78419805214668,103.15397783467527,-0.0001618862152099,0.0957168191671371,0,0,0
9653,335533.8080957332,2010-10-19 14:25:15,750.3785083033869,7,29,-1.0993878841400146,3.7682275772094727,29.004515740651275,28.25517633681844,115.78419805214668,103.18855022774147,-0.0001295089750783,0.0957168191671371,0,0,0
9654,335563.8232490457,2010-10-19 14:25:45,780.3936616108609,7,29,-1.099568486213684,3.7614283561706543,29.004515740651275,28.264343579480627,115.78419805214668,103.22306319156372,-0.0001942634553415,0.0957168191671371,0,0,0
9655,335593.8384085236,2010-10-19 14:26:15,810.4088211338258,7,29,-1.099568486213684,3.7554385662078857,29.004515740651275,28.27351082219901,115.78419805214668,103.25751810973698,-0.0001295089750783,0.0957168191671371,0,0,0
9656,335623.8535368939,2010-10-19 14:26:45,840.4239494840987,7,29,-1.0993878841400146,3.7492871284484863,29.004515740651275,28.28267805644032,115.78419805214668,103.29191585928702,-0.0001295089750783,0.0957168191671371,0,0,0
9657,335653.86866797094,2010-10-19 14:27:15,870.4390805711928,7,29,-1.0997490882873535,3.743135452270508,29.004515740651275,28.291845249559525,115.78419805214668,103.32625813637368,-0.0001618862152099,0.0957168191671371,0,0,0
9658,335683.88384168927,2010-10-19 14:27:45,900.4542543747493,7,29,-1.099568486213684,3.7371456623077393,29.004515740651275,28.301012467821227,115.78419805214668,103.36054569283333,-0.0001942634553415,0.0957168191671371,0,0,0
9659,335713.8989583905,2010-10-19 14:28:15,930.4693709907772,7,29,-1.099568486213684,3.731479644775391,29.004515740651275,28.310179781026683,115.78419805214668,103.39477979265212,-0.0001618862152099,0.0957168191671371,0,0,0
9660,335743.9141128258,2010-10-19 14:28:45,960.484525385962,7,29,-1.0993878841400146,3.725813627243042,29.004515740651275,28.319346961243664,115.78419805214668,103.42896075903182,-0.0001618862152099,0.0957168191671371,0,0,0
9661,335773.92923723126,2010-10-19 14:29:15,990.4996498014282,7,29,-1.099568486213684,3.720147609710693,29.004515740651275,28.328514181681253,115.78419805214668,103.46309031922414,-0.0001618862152099,0.0957168191671371,0,0,0
9662,335803.9444060374,2010-10-19 14:29:45,1020.5148186075296,7,29,-1.099568486213684,3.7146434783935542,29.004515740651275,28.33768145119815,115.78419805214668,103.49716863830108,-0.0001618862152099,0.0957168191671371,0,0,0
9663,335833.9595332047,2010-10-19 14:30:15,1050.5299457748542,7,29,-1.0993878841400146,3.709139347076416,29.004515740651275,28.34684865681471,115.78419805214668,103.53119600660732,-0.0001618862152099,0.0957168191671371,0,0,0
9664,335863.9748836134,2010-10-19 14:30:45,1080.5452961785527,7,29,-1.0993878841400146,3.7037971019744873,29.004515740651275,28.356015912276256,115.78419805214668,103.56517395109633,-0.0001295089750783,0.0957168191671371,0,0,0
9665,335893.99005610874,2010-10-19 14:31:15,1110.5604688342485,7,29,-1.0993878841400146,3.698616743087769,29.004515740651275,28.36518314610769,115.78419805214668,103.59910328474416,-0.0001295089750783,0.0957168191671371,0,0,0
9666,335924.0049586111,2010-10-19 14:31:45,1140.5753711812515,7,29,-1.099568486213684,3.69343638420105,29.004515740651275,28.374350362092702,115.78419805214668,103.63298489377652,-0.0001295089750783,0.0957168191671371,0,0,0
9667,335954.02010208904,2010-10-19 14:32:15,1170.5905146842902,7,29,-1.099568486213684,3.688256025314331,29.004515740651275,28.383517611477497,115.78419805214668,103.66681934257056,-0.0001618862152099,0.0957168191671371,0,0,0
9668,335984.035257166,2010-10-19 14:32:45,1200.6056697260865,7,29,-1.099568486213684,3.683075666427612,29.004515740651275,28.392684857505945,115.78419805214668,103.70060718091408,-0.0001618862152099,0.0957168191671371,0,0,0
9669,336014.0505148235,2010-10-19 14:33:15,1230.6209275189703,7,29,-1.099568486213684,3.6782190799713135,29.004515740651275,28.401852143314738,115.78419805214668,103.73434954381068,-0.0001618862152099,0.0957168191671371,0,0,0
9670,336044.06552003184,2010-10-19 14:33:45,1260.6359326020236,7,29,-1.0993878841400146,3.673362493515015,29.004515740651275,28.41101931394095,115.78419805214668,103.76804621088884,-0.0001295089750783,0.0957168191671371,0,0,0
9671,336074.0806765774,2010-10-19 14:34:15,1290.6510891776427,7,29,-1.099568486213684,3.668506145477295,29.004515740651275,28.420186627166043,115.78419805214668,103.80169849885198,-0.0001295089750783,0.0957168191671371,0,0,0
9672,336104.09583933844,2010-10-19 14:34:45,1320.6662519587278,7,29,-1.099568486213684,3.663649559020996,29.004515740651275,28.429353892937097,115.78419805214668,103.83530642612848,-0.0001295089750783,0.0957168191671371,0,0,0
9673,336134.1109547064,2010-10-19 14:35:15,1350.68136727652,7,29,-1.099568486213684,3.6589548587799072,29.004515740651275,28.43852119149293,115.78419805214668,103.86887060625445,-0.0001295089750783,0.0957168191671371,0,0,0
9674,336164.12609698134,2010-10-19 14:35:45,1380.696509666785,7,29,-1.0993878841400146,3.654422044754028,29.004515740651275,28.447688428994024,115.78419805214668,103.90239186584324,-0.0001295089750783,0.0957168191671371,0,0,0
9675,336194.1412480382,2010-10-19 14:36:15,1410.7116606384377,7,29,-1.099568486213684,3.649889230728149,29.004515740651275,28.45685567479196,115.78419805214668,103.93587144856517,-0.0001295089750783,0.0957168191671371,0,0,0
9676,336224.1563929798,2010-10-19 14:36:45,1440.7268055449736,7,29,-1.099568486213684,3.6453564167022714,29.004515740651275,28.46602293944381,115.78419805214668,103.96930977425374,-0.0001618862152099,0.0957168191671371,0,0,0
9677,336254.17152671854,2010-10-19 14:37:15,1470.7419392987138,7,29,-1.0993878841400146,3.6409854888916016,29.004515740651275,28.475190015732,115.78419805214668,104.00270685091812,-0.0001295089750783,0.0957168191671371,0,0,0
9678,336284.18694044504,2010-10-19 14:37:45,1500.7573530753573,7,29,-1.0993878841400146,3.6366145610809326,29.004515740651275,28.484357265276763,115.78419805214668,104.03606430124697,-9.713172767078504e-05,0.0957168191671371,0,0,0
9679,336314.2018339851,2010-10-19 14:38:15,1530.7722466053858,7,29,-1.0997490882873535,3.632243633270264,29.004515740651275,28.49352428693128,115.78419805214668,104.06938143309576,-0.0001618862152099,0.0957168191671371,0,0,0
9680,336344.2169676737,2010-10-19 14:38:45,1560.787380268901,7,29,-1.099568486213684,3.628196477890015,29.004515740651275,28.50269149845053,115.78419805214668,104.10266047451611,-6.47544875391759e-05,0.0957168191671371,0,0,0
9681,336374.2321181541,2010-10-19 14:39:15,1590.8025307543414,7,29,-1.0993878841400146,3.623987436294556,29.004515740651275,28.511858654581022,115.78419805214668,104.13590122719071,-0.0001295089750783,0.0957168191671371,0,0,0
9682,336404.2472558777,2010-10-19 14:39:45,1620.8176684729633,7,29,-1.0993878841400146,3.619940280914306,29.004515740651275,28.5210258476157,115.78419805214668,104.16910509063032,-6.47544875391759e-05,0.0957168191671371,0,0,0
9683,336434.262388624,2010-10-19 14:40:15,1650.83280119413,7,29,-1.099568486213684,3.6162168979644775,29.004515740651275,28.530193017206628,115.78419805214668,104.20227240747666,-6.47544875391759e-05,0.0957168191671371,0,0,0
9684,336464.2775304679,2010-10-19 14:40:45,1680.8479430330208,7,29,-1.0997490882873535,3.612169742584229,29.004515740651275,28.53936016940232,115.78419805214668,104.23540390771142,-0.0001295089750783,0.0957168191671371,0,0,0
9685,336494.2926692842,2010-10-19 14:41:15,1710.8630818543909,7,29,-1.0993878841400146,3.60860824584961,29.004515740651275,28.548527391653685,115.78419805214668,104.26850073470057,-6.47544875391759e-05,0.0957168191671371,0,0,0
9686,336524.3078314738,2010-10-19 14:41:45,1740.8782440590396,7,29,-1.0993878841400146,3.6047229766845694,29.004515740651275,28.557694609049676,115.78419805214668,104.3015631989955,-6.47544875391759e-05,0.0957168191671371,0,0,0
9687,336554.32302587875,2010-10-19 14:42:15,1770.8934384890033,7,29,-1.0993878841400146,3.601161479949951,29.004515740651275,28.566861752040417,115.78419805214668,104.3345922149264,-0.0001295089750783,0.0957168191671371,0,0,0
9688,336584.33823589754,2010-10-19 14:42:45,1800.9086485629568,7,29,-1.0992072820663452,3.597923755645752,29.004515740651275,28.57602894271021,115.78419805214668,104.36758862557576,-3.237724376958795e-05,0.0957168191671371,0,0,0
9689,336614.3532169708,2010-10-19 14:43:15,1830.9236295609828,7,29,-1.099568486213684,3.594200372695923,29.004515740651275,28.58519614691283,115.78419805214668,104.40055249397209,-6.47544875391759e-05,0.0957168191671371,0,0,0
9690,336644.3683546743,2010-10-19 14:43:45,1860.93876726958,7,29,-1.099568486213684,3.5908010005950928,29.004515740651275,28.594363367135628,115.78419805214668,104.43348505030788,-9.713172767078504e-05,0.0957168191671371,0,0,0
9691,336674.3834235715,2010-10-19 14:44:15,1890.9538362619144,7,29,-1.0997490882873535,3.587401390075684,29.004515740651275,28.60353059207415,115.78419805214668,104.46638654690088,-6.47544875391759e-05,0.0957168191671371,0,0,0
9692,336704.3986545525,2010-10-19 14:44:45,1920.9690671477376,7,29,-1.099568486213684,3.5840017795562744,29.004515740651275,28.612697900052357,115.78419805214668,104.49925776221572,-6.47544875391759e-05,0.0957168191671371,0,0,0
9693,336734.41393158335,2010-10-19 14:45:15,1950.9843442086435,7,29,-1.099568486213684,3.580764055252075,29.004515740651275,28.62186513358869,115.78419805214668,104.53209860411864,-6.47544875391759e-05,0.0957168191671371,0,0,0
9694,336764.428958571,2010-10-19 14:45:45,1980.9993711361392,7,29,-1.099568486213684,3.577364444732666,29.004515740651275,28.631032278961698,115.78419805214668,104.56490876329563,-0.0001295089750783,0.0957168191671371,0,0,0
9695,336794.4440911518,2010-10-19 14:46:15,2011.014503716956,7,29,-1.099568486213684,3.5742886066436768,29.004515740651275,28.640199572643155,115.78419805214668,104.59768966926585,-6.47544875391759e-05,0.0957168191671371,0,0,0
9696,336824.4592302489,2010-10-19 14:46:45,2041.0296428541133,7,29,-1.099568486213684,3.570888996124268,29.004515740651275,28.649366782610613,115.78419805214668,104.63044137553092,-9.713172767078504e-05,0.0957168191671371,0,0,0
9697,336854.4743612708,2010-10-19 14:47:15,2071.044773840957,7,29,-1.0993878841400146,3.5681369304656982,29.004515740651275,28.658534026914023,115.78419805214668,104.66316425502704,-6.47544875391759e-05,0.0957168191671371,0,0,0
9698,336884.4895282022,2010-10-19 14:47:45,2101.059940792437,7,29,-1.0997490882873535,3.564737319946289,29.004515740651275,28.667701297684715,115.78419805214668,104.6958586045408,-9.713172767078504e-05,0.0957168191671371,0,0,0
9699,336914.504645119,2010-10-19 14:48:15,2131.075057689164,7,29,-1.0993878841400146,3.5616614818573,29.004515740651275,28.676868516045783,115.78419805214668,104.7285246677816,-9.713172767078504e-05,0.0957168191671371,0,0,0
9700,336944.5198133136,2010-10-19 14:48:45,2161.0902259037907,7,29,-1.099568486213684,3.5589094161987305,29.004515740651275,28.68603574420324,115.78419805214668,104.76116321244996,-6.47544875391759e-05,0.0957168191671371,0,0,0
9701,336974.53506196366,2010-10-19 14:49:15,2191.1054745338383,7,29,-1.099568486213684,3.5556716918945312,29.004515740651275,28.69520304529748,115.78419805214668,104.79377402618212,-9.713172767078504e-05,0.0957168191671371,0,0,0
9702,337004.5500717234,2010-10-19 14:49:45,2221.120484318609,7,29,-1.099568486213684,3.552595853805542,29.004515740651275,28.704370242885187,115.78419805214668,104.826356249916,-9.713172767078504e-05,0.0957168191671371,0,0,0
9703,337034.5651943744,2010-10-19 14:50:15,2251.1356069696785,7,29,-1.099568486213684,3.5495200157165527,29.004515740651275,28.7135374714079,115.78419805214668,104.85891033433454,-9.713172767078504e-05,0.0957168191671371,0,0,0
9704,337064.5804704379,2010-10-19 14:50:45,2281.1508830330977,7,29,-1.099568486213684,3.546282291412353,29.004515740651275,28.722704827887146,115.78419805214668,104.89143597136317,-0.0001295089750783,0.0957168191671371,0,0,0
9705,337094.5954575461,2010-10-19 14:51:15,2311.165870106265,7,29,-1.099568486213684,3.5432064533233643,29.004515740651275,28.73187204219036,115.78419805214668,104.92393220049162,-6.47544875391759e-05,0.0957168191671371,0,0,0
9706,337124.610667966,2010-10-19 14:51:46,2341.181080561168,7,29,-1.099568486213684,3.539968729019165,29.004515740651275,28.74103927358288,115.78419805214668,104.95639916824796,-0.0001295089750783,0.0957168191671371,0,0,0
9707,337154.62583011045,2010-10-19 14:52:16,2371.196242735741,7,29,-1.0997490882873535,3.536731004714966,29.004515740651275,28.750206551660337,115.78419805214668,104.98883686074876,-6.47544875391759e-05,0.0957168191671371,0,0,0
9708,337184.640987859,2010-10-19 14:52:46,2401.2114004491964,7,29,-1.099568486213684,3.5334932804107666,29.004515740651275,28.759373857928,115.78419805214668,105.02124466608564,-9.713172767078504e-05,0.0957168191671371,0,0,0
9709,337214.6562176571,2010-10-19 14:53:16,2431.226630237284,7,29,-1.0993878841400146,3.5302555561065674,29.004515740651275,28.76854112945288,115.78419805214668,105.05362199887723,-6.47544875391759e-05,0.0957168191671371,0,0,0
9710,337244.67123365734,2010-10-19 14:53:46,2461.241646232533,7,29,-1.099568486213684,3.526694059371948,29.004515740651275,28.777708279090053,115.78419805214668,105.08596754047488,-9.713172767078504e-05,0.0957168191671371,0,0,0
9711,337274.6863859824,2010-10-19 14:54:16,2491.256798552546,7,29,-1.099568486213684,3.523132562637329,29.004515740651275,28.78687558283376,115.78419805214668,105.11828158949422,-0.0001295089750783,0.0957168191671371,0,0,0
9712,337304.70166286285,2010-10-19 14:54:46,2521.272075438015,7,29,-1.0993878841400146,3.5194091796875,29.004515740651275,28.796042843086017,115.78419805214668,105.15056261870852,-0.0001295089750783,0.0957168191671371,0,0,0
9713,337334.7166660361,2010-10-19 14:55:16,2551.2870786263456,7,29,-1.0993878841400146,3.515685796737671,29.004515740651275,28.805210080169545,115.78419805214668,105.18280960705408,-9.713172767078504e-05,0.0957168191671371,0,0,0
9714,337364.73182932346,2010-10-19 14:55:46,2581.30224190868,7,29,-1.0993878841400146,3.511962413787842,29.004515740651275,28.814377352679607,115.78419805214668,105.21502117570152,-6.47544875391759e-05,0.0957168191671371,0,0,0
9715,337394.74697199446,2010-10-19 14:56:16,2611.3173845996944,7,29,-1.0997490882873535,3.507753610610962,29.004515740651275,28.82354464504657,115.78419805214668,105.24719658765376,-6.47544875391759e-05,0.0957168191671371,0,0,0
9716,337424.7621109511,2010-10-19 14:56:46,2641.3325235513894,7,29,-1.099568486213684,3.503382682800293,29.004515740651275,28.832711889362606,115.78419805214668,105.2793336710206,-0.0001295089750783,0.0957168191671371,0,0,0
9717,337454.7772386849,2010-10-19 14:57:16,2671.347651260064,7,29,-1.099568486213684,3.498849868774414,29.004515740651275,28.84187921231632,115.78419805214668,105.31143067270636,-0.0001618862152099,0.0957168191671371,0,0,0
9718,337484.7923789348,2010-10-19 14:57:46,2701.3627915350567,7,29,-1.099568486213684,3.494155168533325,29.004515740651275,28.851046459915736,115.78419805214668,105.3434852524262,-0.0001618862152099,0.0957168191671371,0,0,0
9719,337514.80752452306,2010-10-19 14:58:16,2731.377937093217,7,29,-1.0993878841400146,3.4889748096466064,29.004515740651275,28.86021378734705,115.78419805214668,105.37549461434152,-0.0001618862152099,0.0957168191671371,0,0,0
9720,337544.82270801073,2010-10-19 14:58:46,2761.393120615997,7,29,-1.099568486213684,3.483470678329468,29.004515740651275,28.86938113244687,115.78419805214668,105.40745454784371,-0.0001618862152099,0.0957168191671371,0,0,0
9721,337574.8378694184,2010-10-19 14:59:16,2791.4082821088714,7,29,-1.099568486213684,3.4773190021514893,29.004515740651275,28.878548404499565,115.78419805214668,105.43936033941732,-0.0001618862152099,0.0957168191671371,0,0,0
9722,337604.8530797681,2010-10-19 14:59:46,2821.423492343225,7,29,-1.099568486213684,3.470196008682251,29.004515740651275,28.887715733031182,115.78419805214668,105.47120684009276,-0.0002266406954731,0.0957168191671371,0,0,0
9723,337634.8680994073,2010-10-19 15:00:16,2851.4385120026063,7,29,-1.099568486213684,3.462425470352173,29.004515740651275,28.8968830158413,115.78419805214668,105.50298544475405,-0.0002266406954731,0.0957168191671371,0,0,0
9724,337664.88337517506,2010-10-19 15:00:46,2881.453787770289,7,29,-1.099568486213684,3.453359842300415,29.004515740651275,28.906050306515887,115.78419805214668,105.5346870261732,-0.0003237724304199,0.0957168191671371,0,0,0
9725,337694.89838266914,2010-10-19 15:01:16,2911.4687952392887,7,29,-1.099568486213684,3.442999124526977,29.004515740651275,28.915217550462053,115.78419805214668,105.5662996006153,-0.0002913951757363,0.0957168191671371,0,0,0
9726,337724.91352648294,2010-10-19 15:01:46,2941.483939053101,7,29,-1.0997490882873535,3.4306960105896,29.004515740651275,28.924384854299337,115.78419805214668,105.59780842111566,-0.0003884792386088,0.0957168191671371,0,0,0
9727,337754.9286994995,2010-10-19 15:02:16,2971.4991120797217,7,29,-1.0993878841400146,3.415802478790283,29.004515740651275,28.933552175376956,115.78419805214668,105.6291932320343,-0.0004532813909463,0.0957168191671371,0,0,0
9728,337784.9441748948,2010-10-19 15:02:46,3001.5145875751878,7,29,-1.099568486213684,3.397671222686768,29.004515740651275,28.942719647232284,115.78419805214668,105.66042886215328,-0.0005827903514727,0.0957168191671371,0,0,0
9729,337814.9590116232,2010-10-19 15:03:16,3031.5294243287112,7,29,-1.099568486213684,3.375330924987793,29.004515740651275,28.95188681779189,115.78419805214668,105.69147911040754,-0.0006799221155233,0.0957168191671371,0,0,0
9730,337844.9741017884,2010-10-19 15:03:46,3061.544514348453,7,29,-1.099568486213684,3.345705986022949,29.004515740651275,28.96105416815375,115.78419805214668,105.72229360418984,-0.0009065627818927,0.0957168191671371,0,0,0
9731,337874.98924440413,2010-10-19 15:04:16,3091.55965698433,7,29,-1.099568486213684,3.305720090866089,29.004515740651275,28.97022150512217,115.78419805214668,105.7527920770358,-0.0012303352123126,0.0957168191671371,0,0,0
9732,337905.00440064893,2010-10-19 15:04:46,3121.5748132191,7,29,-1.099568486213684,3.2500314712524414,29.004515740651275,28.979388808074823,115.78419805214668,105.78285731422996,-0.0017483711708337,0.0957168191671371,0,0,0
9733,337935.0196199459,2010-10-19 15:05:16,3151.5900325110274,7,29,-1.0993878841400146,3.16941237449646,29.004515740651275,28.98855555463148,115.78419805214668,105.81230468219206,-0.0025578022468835,0.0957168191671371,0,0,0
9734,337965.03464143485,2010-10-19 15:05:46,3181.605054004982,7,29,-1.099568486213684,3.043141365051269,29.004515740651275,28.99772212031021,115.78419805214668,105.84082673394028,-0.0042090415954589,0.0957168191671371,0,0,0
9735,337990.5500066809,2010-10-19 15:06:11,3207.1204192811315,7,29,-1.0993878841400146,2.842888832092285,29.004515740651275,29.00551460951832,115.78419805214668,105.8638518408278,-0.0082885269075632,0.0957168191671371,0,0,0
9736,338002.0028161761,2010-10-19 15:06:23,3218.573228741247,7,29,-1.0992072820663452,2.699943780899048,29.004515740651275,29.009012265493656,115.78419805214668,105.87355543210884,-0.0107168201357126,0.0957168191671371,0,0,0
9737,338062.0089377257,2010-10-19 15:07:23,60.01467105632499,8,29,0.0,3.3732264041900635,29.004515740651275,29.009012265493656,115.78419805214668,105.87355543210884,0.0013274669181555,0.0957168191671371,0,0,0
9738,338062.18886715645,2010-10-19 15:07:23,0.187514208103273,9,29,-1.9243103452026844e-05,3.373388290405273,29.004515740651275,29.009012266495976,115.78419805214668,105.87355543549003,0.0,0.0931148082017898,0,0,0
9739,338067.0170135478,2010-10-19 15:07:28,5.01566057443166,9,29,0.0010644125286489,3.381644487380981,29.0045169064288,29.009012266580665,115.7842019902424,105.87355543577571,0.0011979580158367,0.0931148082017898,0,0,0
