Data_Point,Test_Time(s),Date_Time,Step_Time(s),Step_Index,Cycle_Index,Current(A),Voltage(V),Charge_Capacity(Ah),Discharge_Capacity(Ah),Charge_Energy(Wh),Discharge_Energy(Wh),dV/dt(V/s),Internal_Resistance(Ohm),Is_FC_Data,AC_Impedance(Ohm),ACI_Phase_Angle(Deg)
14345,500325.30924122,2010-10-21 12:12:04,30.01489024183349,1,44,0.0,3.422925472259521,42.77109043283594,42.775543727490046,170.84438811402504,155.94377718361773,0.0007770538213662,0.0938397273421287,0,0,0
14346,500355.32437100366,2010-10-21 12:12:34,60.03002002567938,1,44,0.0,3.4473700523376465,42.77109043283594,42.775543727490046,170.84438811402504,155.94377718361773,0.0005827903514727,0.0938397273421287,0,0,0
14347,500385.3395086874,2010-10-21 12:13:04,90.04515767412629,1,44,0.0,3.465825080871582,42.77109043283594,42.775543727490046,170.84438811402504,155.94377718361773,0.0004209041653666,0.0938397273421287,0,0,0
14348,500415.30777821096,2010-10-21 12:13:34,120.01342720781024,1,44,0.0,3.4803948402404785,42.77109043283594,42.775543727490046,170.84438811402504,155.94377718361773,0.0002913951757363,0.0938397273421287,0,0,0
14349,500445.33509637386,2010-10-21 12:14:04,30.01518871070977,2,44,0.5499359965324402,3.633376836776733,42.7756767182508,42.775543727490046,170.8609019820658,155.94377718361773,0.0014245987404137,0.0938397273421287,0,0,0
14350,500475.35019254393,2010-10-21 12:14:34,60.030284910854746,2,44,0.5501165986061096,3.676923990249634,42.780262951025136,42.775543727490046,170.87767214849524,155.94377718361773,0.0009712696191854,0.0938397273421287,0,0,0
14351,500505.36534071865,2010-10-21 12:15:04,90.04543303541132,2,44,0.5499359965324402,3.7076823711395264,42.78484922069033,42.775543727490046,170.89460926740486,155.94377718361773,0.0007122993702068,0.0938397273421287,0,0,0
14352,500535.3807462046,2010-10-21 12:15:34,120.06083853141676,2,44,0.5499359965324402,3.7318034172058105,42.78943545460802,42.775543727490046,170.9116708059424,155.94377718361773,0.0005827903514727,0.0938397273421287,0,0,0
14353,500565.39561410574,2010-10-21 12:16:04,150.07570642755792,2,44,0.5499359965324402,3.750905990600586,42.7940215978072,42.775543727490046,170.9288306802528,155.94377718361773,0.0004532813909463,0.0938397273421287,0,0,0
14354,500595.4108895024,2010-10-21 12:16:34,180.090981824316,2,44,0.5501165986061096,3.765961170196533,42.79860781051857,42.775543727490046,170.94606959913736,155.94377718361773,0.0003237724304199,0.0938397273421287,0,0,0
14355,500625.4260021788,2010-10-21 12:17:04,210.10609450553687,2,44,0.5501165986061096,3.775674343109131,42.80319471893946,42.775543727490046,170.96336811423458,155.94377718361773,0.0001618862152099,0.0938397273421287,0,0,0
14356,500655.4410064497,2010-10-21 12:17:34,240.1210988066412,2,44,0.5501165986061096,3.7816641330718994,42.80778178507036,42.775543727490046,170.98070242927622,155.94377718361773,0.0001295089750783,0.0938397273421287,0,0,0
14357,500685.4561870452,2010-10-21 12:18:04,270.1362793921003,2,44,0.5501165986061096,3.786035060882568,42.812368707826025,42.775543727490046,170.99805949644173,155.94377718361773,6.47544875391759e-05,0.0938397273421287,0,0,0
14358,500715.4713112601,2010-10-21 12:18:34,300.15140361709183,2,44,0.550297200679779,3.790405988693237,42.816955829560165,42.775543727490046,171.0154366942937,155.94377718361773,0.0001295089750783,0.0938397273421287,0,0,0
14359,500745.4864560164,2010-10-21 12:19:04,330.1665483682408,2,44,0.5501165986061096,3.7941293716430655,42.821542901641045,42.775543727490046,171.0328318115664,155.94377718361773,9.713172767078504e-05,0.0938397273421287,0,0,0
14360,500775.5017021451,2010-10-21 12:19:34,360.1817944619667,2,44,0.5501165986061096,3.7980146408081055,42.82612991349684,42.775543727490046,171.05024439350888,155.94377718361773,0.0001295089750783,0.0938397273421287,0,0,0
14361,500805.5168887606,2010-10-21 12:20:04,390.1969810724421,2,44,0.550297200679779,3.801738023757935,42.83071646471242,42.775543727490046,171.06767274866206,155.94377718361773,9.713172767078504e-05,0.0938397273421287,0,0,0
14362,500835.53191172826,2010-10-21 12:20:34,420.21200405510655,2,44,0.5499359965324402,3.8052995204925537,42.83530276139286,42.775543727490046,171.08511721380586,155.94377718361773,6.47544875391759e-05,0.0938397273421287,0,0,0
14363,500865.54722791165,2010-10-21 12:21:04,450.22732026358,2,44,0.5499359965324402,3.808861017227173,42.83988913410769,42.775543727490046,171.10257871124514,155.94377718361773,3.237724376958795e-05,0.0938397273421287,0,0,0
14364,500895.5623103425,2010-10-21 12:21:34,480.242402789645,2,44,0.550297200679779,3.812746286392212,42.8444754707412,42.775543727490046,171.12005642381112,155.94377718361773,0.0001295089750783,0.0938397273421287,0,0,0
14365,500925.57734839775,2010-10-21 12:22:05,510.25744071455006,2,44,0.5501165986061096,3.815984010696411,42.84906176832815,42.775543727490046,171.1375503964381,155.94377718361773,3.237724376958795e-05,0.0938397273421287,0,0,0
14366,500955.59251121886,2010-10-21 12:22:35,540.2726035708226,2,44,0.5499359965324402,3.8195455074310303,42.8536481308484,42.775543727490046,171.1550603453481,155.94377718361773,6.47544875391759e-05,0.0938397273421287,0,0,0
14367,500985.60763941886,2010-10-21 12:23:05,570.287731740646,2,44,0.5501165986061096,3.82294511795044,42.858234447464106,42.775543727490046,171.17258547877276,155.94377718361773,9.713172767078504e-05,0.0938397273421287,0,0,0
14368,501015.6228949209,2010-10-21 12:23:35,600.302987257858,2,44,0.5501165986061096,3.826182842254639,42.86282077882609,42.775543727490046,171.19012606040442,155.94377718361773,9.713172767078504e-05,0.0938397273421287,0,0,0
14369,501045.6379195578,2010-10-21 12:24:05,630.3180119096826,2,44,0.5501165986061096,3.829582452774048,42.86740705007622,42.775543727490046,171.2076816684943,155.94377718361773,9.713172767078504e-05,0.0938397273421287,0,0,0
14370,501075.6532182676,2010-10-21 12:24:35,660.3333106997441,2,44,0.5501165986061096,3.832820177078247,42.87199345751949,42.775543727490046,171.2252530172129,155.94377718361773,9.713172767078504e-05,0.0938397273421287,0,0,0
14371,501105.6684117602,2010-10-21 12:25:05,690.3485041121718,2,44,0.5499359965324402,3.836057662963867,42.876579755024,42.775543727490046,171.2428390362658,155.94377718361773,6.47544875391759e-05,0.0938397273421287,0,0,0
14372,501135.6833502473,2010-10-21 12:25:35,720.3634425942348,2,44,0.550297200679779,3.8396191596984863,42.88116608481582,42.775543727490046,171.26044058971044,155.94377718361773,9.713172767078504e-05,0.0938397273421287,0,0,0
14373,501165.6986365864,2010-10-21 12:26:05,750.3787290034394,2,44,0.5501165986061096,3.8428568840026855,42.88575243671239,42.775543727490046,171.2780577648284,155.94377718361773,6.47544875391759e-05,0.0938397273421287,0,0,0
14374,501195.7136393236,2010-10-21 12:26:35,780.393731640396,2,44,0.5501165986061096,3.8464183807373047,42.89033869247523,42.775543727490046,171.29569012571775,155.94377718361773,0.0001295089750783,0.0938397273421287,0,0,0
14375,501225.7288009568,2010-10-21 12:27:05,810.4088933036953,2,44,0.5499359965324402,3.849656105041504,42.89492500678523,42.775543727490046,171.31333835503216,155.94377718361773,9.713172767078504e-05,0.0938397273421287,0,0,0
14376,501255.74393391854,2010-10-21 12:27:35,840.4240262704741,2,44,0.5499359965324402,3.853217601776123,42.89951136799048,42.775543727490046,171.3310023993772,155.94377718361773,9.713172767078504e-05,0.0938397273421287,0,0,0
14377,501285.7590457778,2010-10-21 12:28:05,870.4391381196212,2,44,0.5501165986061096,3.856455326080322,42.90409765538744,42.775543727490046,171.3486815787169,155.94377718361773,9.713172767078504e-05,0.0938397273421287,0,0,0
14378,501315.77419264417,2010-10-21 12:28:35,900.4542849910547,2,44,0.5501165986061096,3.8596930503845215,42.90868391037901,42.775543727490046,171.36637601397754,155.94377718361773,6.47544875391759e-05,0.0938397273421287,0,0,0
14379,501345.78939454776,2010-10-21 12:29:05,930.4694868946452,2,44,0.5499359965324402,3.8629307746887207,42.91327016534548,42.775543727490046,171.384085435863,155.94377718361773,6.47544875391759e-05,0.0938397273421287,0,0,0
14380,501375.804535755,2010-10-21 12:29:35,960.4846280969492,2,44,0.5501165986061096,3.86633038520813,42.91785646906717,42.775543727490046,171.40180972707626,155.94377718361773,9.713172767078504e-05,0.0938397273421287,0,0,0
14381,501405.8196528473,2010-10-21 12:30:05,990.4997452242512,2,44,0.5501165986061096,3.869406223297119,42.92244279886469,42.775543727490046,171.41954851921443,155.94377718361773,0.0001295089750783,0.0938397273421287,0,0,0
14382,501435.8347850472,2010-10-21 12:30:35,1020.5148773840186,2,44,0.5501165986061096,3.8723201751708975,42.92702911379617,42.775543727490046,171.43730134998955,155.94377718361773,9.713172767078504e-05,0.0938397273421287,0,0,0
14383,501465.84992240986,2010-10-21 12:31:05,1050.5300147367286,2,44,0.5501165986061096,3.875396013259888,42.93161534714236,42.775543727490046,171.4550675345558,155.94377718361773,9.713172767078504e-05,0.0938397273421287,0,0,0
14384,501495.86526187125,2010-10-21 12:31:35,1080.5453541981556,2,44,0.550297200679779,3.877986192703247,42.93620167024584,42.775543727490046,171.4728472769304,155.94377718361773,6.47544875391759e-05,0.0938397273421287,0,0,0
14385,501525.8802821622,2010-10-21 12:32:05,1110.5603744790865,2,44,0.550297200679779,3.8809001445770255,42.94078794997504,42.775543727490046,171.49063949171278,155.94377718361773,9.713172767078504e-05,0.0938397273421287,0,0,0
14386,501555.89555005525,2010-10-21 12:32:35,1140.575642382168,2,44,0.5501165986061096,3.883328437805176,42.94537422540631,42.775543727490046,171.5084437849354,155.94377718361773,3.237724376958795e-05,0.0938397273421287,0,0,0
14387,501585.9106089725,2010-10-21 12:33:05,1170.5907013445046,2,44,0.5501165986061096,3.885756731033325,42.94996054501098,42.775543727490046,171.5262596915131,155.94377718361773,6.47544875391759e-05,0.0938397273421287,0,0,0
14388,501615.9257116388,2010-10-21 12:33:35,1200.6058039656527,2,44,0.5499359965324402,3.8880231380462646,42.95454682529471,42.775543727490046,171.54408632951709,155.94377718361773,6.47544875391759e-05,0.0938397273421287,0,0,0
14389,501645.9409796973,2010-10-21 12:34:05,1230.621072079259,2,44,0.5501165986061096,3.890289545059204,42.959133179374,42.775543727490046,171.56192352086288,155.94377718361773,9.713172767078504e-05,0.0938397273421287,0,0,0
14390,501675.9561257266,2010-10-21 12:34:35,1260.6362180835313,2,44,0.5501165986061096,3.892232179641724,42.963719613153394,42.775543727490046,171.57977067392795,155.94377718361773,6.47544875391759e-05,0.0938397273421287,0,0,0
14391,501705.9711559773,2010-10-21 12:35:05,1290.6512482992227,2,44,0.550297200679779,3.894336700439453,42.96830596582696,42.775543727490046,171.5976265070697,155.94377718361773,6.47544875391759e-05,0.0938397273421287,0,0,0
14392,501735.9864115747,2010-10-21 12:35:35,1320.6665039317222,2,44,0.5499359965324402,3.8961174488067623,42.97289233174886,42.775543727490046,171.61549046597463,155.94377718361773,0.0001295089750783,0.0938397273421287,0,0,0
14393,501766.00155796506,2010-10-21 12:36:05,1350.6816503319812,2,44,0.5499359965324402,3.8974125385284415,42.97747855009231,42.775543727490046,171.633361707285,155.94377718361773,3.237724376958795e-05,0.0938397273421287,0,0,0
14394,501796.0166065465,2010-10-21 12:36:35,1380.6966988984084,2,44,0.5501165986061096,3.899193286895752,42.98206484864864,42.775543727490046,171.65124058957548,155.94377718361773,3.237724376958795e-05,0.0938397273421287,0,0,0
14395,501826.03445248987,2010-10-21 12:37:05,1410.7145449520342,2,44,0.5501165986061096,3.9006502628326416,42.98665154585714,42.775543727490046,171.66912793808376,155.94377718361773,6.47544875391759e-05,0.0938397273421287,0,0,0
14396,501856.0468683949,2010-10-21 12:37:35,1440.726960721722,2,44,0.5499359965324402,3.901945352554321,42.99123737015628,42.775543727490046,171.68701847978923,155.94377718361773,3.237724376958795e-05,0.0938397273421287,0,0,0
14397,501886.06203357695,2010-10-21 12:38:05,1470.742126024091,2,44,0.5499359965324402,3.903240442276001,42.99582364872224,42.775543727490046,171.7049170818806,155.94377718361773,3.237724376958795e-05,0.0938397273421287,0,0,0
14398,501916.0771534412,2010-10-21 12:38:35,1500.7572457979886,2,44,0.5501165986061096,3.9045355319976807,43.00040986683182,42.775543727490046,171.72282156387124,155.94377718361773,3.237724376958795e-05,0.0938397273421287,0,0,0
14399,501946.0923103425,2010-10-21 12:39:05,1530.7724027495449,2,44,0.5501165986061096,3.90583062171936,43.0049962013677,42.775543727490046,171.74073235830906,155.94377718361773,0.0,0.0938397273421287,0,0,0
14400,501976.107588446,2010-10-21 12:39:35,1560.7876809081863,2,44,0.5499359965324402,3.90712571144104,43.0095825723629,42.775543727490046,171.75864920661422,155.94377718361773,3.237724376958795e-05,0.0938397273421287,0,0,0
14401,502006.1228761034,2010-10-21 12:40:05,1590.802968480289,2,44,0.550297200679779,3.9085826873779297,43.01416890562087,42.775543727490046,171.77657169067697,155.94377718361773,6.47544875391759e-05,0.0938397273421287,0,0,0
14402,502036.137862585,2010-10-21 12:40:35,1620.817954972007,2,44,0.550297200679779,3.90987777709961,43.0187552297094,42.775543727490046,171.7945000330671,155.94377718361773,6.47544875391759e-05,0.0938397273421287,0,0,0
14403,502066.15324225166,2010-10-21 12:41:05,1650.8333346987877,2,44,0.5499359965324402,3.911010980606079,43.023341531345466,42.775543727490046,171.8124340370711,155.94377718361773,3.237724376958795e-05,0.0938397273421287,0,0,0
14404,502096.16801580274,2010-10-21 12:41:35,1680.848108129492,2,44,0.550297200679779,3.9124679565429688,43.02792776353333,42.775543727490046,171.83037366974548,155.94377718361773,6.47544875391759e-05,0.0938397273421287,0,0,0
14405,502126.1831566391,2010-10-21 12:42:05,1710.863248985934,2,44,0.5501165986061096,3.9136011600494394,43.03251403760588,42.775543727490046,171.84831935033134,155.94377718361773,0.0,0.0938397273421287,0,0,0
14406,502156.19830328994,2010-10-21 12:42:35,1740.878395636818,2,44,0.550297200679779,3.915057897567749,43.03710032517514,42.775543727490046,171.8662710732418,155.94377718361773,6.47544875391759e-05,0.0938397273421287,0,0,0
14407,502186.2134595448,2010-10-21 12:43:05,1770.8935518665753,2,44,0.5499359965324402,3.916029214859009,43.04168665642492,42.775543727490046,171.88422874398188,155.94377718361773,3.237724376958795e-05,0.0938397273421287,0,0,0
14408,502216.2286144963,2010-10-21 12:43:35,1800.9087068532342,2,44,0.5501165986061096,3.9174861907958975,43.0462729475745,42.775543727490046,171.9021923098128,155.94377718361773,3.237724376958795e-05,0.0938397273421287,0,0,0
14409,502246.243732566,2010-10-21 12:44:05,1830.9238248877973,2,44,0.5501165986061096,3.918781280517578,43.05085921415743,42.775543727490046,171.92016179429126,155.94377718361773,3.237724376958795e-05,0.0938397273421287,0,0,0
14410,502276.2589942937,2010-10-21 12:44:35,1860.9390866505755,2,44,0.5499359965324402,3.920076370239258,43.05544548023188,42.775543727490046,171.9381373702392,155.94377718361773,3.237724376958795e-05,0.0938397273421287,0,0,0
14411,502306.27402616845,2010-10-21 12:45:05,1890.9541185254016,2,44,0.5501165986061096,3.921533346176148,43.06003169328383,42.775543727490046,171.9561188074954,155.94377718361773,6.47544875391759e-05,0.0938397273421287,0,0,0
14412,502336.2891563132,2010-10-21 12:45:35,1920.9692486500967,2,44,0.5501165986061096,3.922828435897827,43.06461796558591,42.775543727490046,171.97410670883326,155.94377718361773,3.237724376958795e-05,0.0938397273421287,0,0,0
14413,502366.3042996157,2010-10-21 12:46:05,1950.9843919426107,2,44,0.5501165986061096,3.924123525619507,43.06920426452406,42.775543727490046,171.99210098297007,155.94377718361773,3.237724376958795e-05,0.0938397273421287,0,0,0
14414,502396.31945324905,2010-10-21 12:46:35,1980.9995455758967,2,44,0.5501165986061096,3.925580501556397,43.073790576402125,42.775543727490046,172.01010160244732,155.94377718361773,6.47544875391759e-05,0.0938397273421287,0,0,0
14415,502426.3346449773,2010-10-21 12:47:05,2011.0147373342024,2,44,0.5501165986061096,3.926713705062866,43.078376879472586,42.775543727490046,172.02810828459718,155.94377718361773,0.0,0.0938397273421287,0,0,0
14416,502456.34997241374,2010-10-21 12:47:35,2041.030064780684,2,44,0.5499359965324402,3.928170680999756,43.08296321241352,42.775543727490046,172.0461214694535,155.94377718361773,3.237724376958795e-05,0.0938397273421287,0,0,0
14417,502486.364891302,2010-10-21 12:48:05,2071.044983658888,2,44,0.5501165986061096,3.9296276569366455,43.08754945886542,42.775543727490046,172.0641407057947,155.94377718361773,3.237724376958795e-05,0.0938397273421287,0,0,0
14418,502516.38014352095,2010-10-21 12:48:35,2101.0602358578303,2,44,0.5501165986061096,3.931084632873535,43.09213582144304,42.775543727490046,172.0821668969407,155.94377718361773,3.237724376958795e-05,0.0938397273421287,0,0,0
14419,502546.39517468406,2010-10-21 12:49:05,2131.075267030908,2,44,0.5501165986061096,3.932379722595215,43.09672209228556,42.775543727490046,172.10019908238698,155.94377718361773,3.237724376958795e-05,0.0938397273421287,0,0,0
14420,502576.41031995154,2010-10-21 12:49:35,2161.090412293331,2,44,0.5501165986061096,3.933836698532105,43.10130837053881,42.775543727490046,172.11823786825045,155.94377718361773,3.237724376958795e-05,0.0938397273421287,0,0,0
14421,502606.4254570535,2010-10-21 12:50:05,2191.1055493803788,2,44,0.5501165986061096,3.935293674468994,43.10589464672659,42.775543727490046,172.13628316084515,155.94377718361773,3.237724376958795e-05,0.0938397273421287,0,0,0
14422,502636.4406127419,2010-10-21 12:50:35,2221.120705098862,2,44,0.5499359965324402,3.936588764190674,43.1104809651366,42.775543727490046,172.15433515371552,155.94377718361773,-3.237724376958795e-05,0.0938397273421287,0,0,0
14423,502666.455739007,2010-10-21 12:51:05,2251.13583136895,2,44,0.5501165986061096,3.938369512557984,43.11506718004309,42.775543727490046,172.1723935377436,155.94377718361773,3.237724376958795e-05,0.0938397273421287,0,0,0
14424,502696.4710084039,2010-10-21 12:51:35,2281.151100790817,2,44,0.5499359965324402,3.939826488494873,43.11965349977467,42.775543727490046,172.1904591365911,155.94377718361773,6.47544875391759e-05,0.0938397273421287,0,0,0
14425,502726.4860177876,2010-10-21 12:52:05,2311.1661101395016,2,44,0.5501165986061096,3.9412834644317623,43.12423981358854,42.775543727490046,172.20853161826037,155.94377718361773,6.47544875391759e-05,0.0938397273421287,0,0,0
14426,502756.50117348606,2010-10-21 12:52:35,2341.181265842947,2,44,0.5501165986061096,3.942740440368652,43.12882617661804,42.775543727490046,172.22661109290155,155.94377718361773,3.237724376958795e-05,0.0938397273421287,0,0,0
14427,502786.516323811,2010-10-21 12:53:05,2371.196416162976,2,44,0.5501165986061096,3.944197416305542,43.133412504693126,42.775543727490046,172.24469740195133,155.94377718361773,3.237724376958795e-05,0.0938397273421287,0,0,0
14428,502816.5314530686,2010-10-21 12:53:35,2401.211545420509,2,44,0.5501165986061096,3.9458162784576416,43.13799881738497,42.775543727490046,172.26279058292923,155.94377718361773,3.237724376958795e-05,0.0938397273421287,0,0,0
14429,502846.54661608033,2010-10-21 12:54:06,2431.2267084622445,2,44,0.550297200679779,3.947597026824951,43.14258512531281,42.775543727490046,172.28089064227328,155.94377718361773,0.0001295089750783,0.0938397273421287,0,0,0
14430,502876.5617663953,2010-10-21 12:54:36,2461.2418587772604,2,44,0.5501165986061096,3.949054002761841,43.14717141073884,42.775543727490046,172.2989976577522,155.94377718361773,6.47544875391759e-05,0.0938397273421287,0,0,0
14431,502906.5769277127,2010-10-21 12:55:06,2491.257020069635,2,44,0.550297200679779,3.950349092483521,43.151757744139445,42.775543727490046,172.31711188775031,155.94377718361773,3.237724376958795e-05,0.0938397273421287,0,0,0
14432,502936.5924216441,2010-10-21 12:55:36,2521.2725140160865,2,44,0.550297200679779,3.95212984085083,43.1563440686015,42.775543727490046,172.33523323106297,155.94377718361773,6.47544875391759e-05,0.0938397273421287,0,0,0
14433,502966.6071691052,2010-10-21 12:56:06,2551.287261426941,2,44,0.550297200679779,3.95358681678772,43.16093036844541,42.775543727490046,172.35336167682945,155.94377718361773,9.713172767078504e-05,0.0938397273421287,0,0,0
14434,502996.6224472387,2010-10-21 12:56:36,2581.3025396056323,2,44,0.5501165986061096,3.9552056789398193,43.16551676735605,42.775543727490046,172.37149774450555,155.94377718361773,6.47544875391759e-05,0.0938397273421287,0,0,0
14435,503026.6376866307,2010-10-21 12:57:06,2611.3177789826186,2,44,0.5501165986061096,3.956662654876709,43.17010309608368,42.775543727490046,172.3896407567714,155.94377718361773,3.237724376958795e-05,0.0938397273421287,0,0,0
14436,503056.652627218,2010-10-21 12:57:36,2641.332719569928,2,44,0.5501165986061096,3.9582815170288086,43.17468938272959,42.775543727490046,172.40779080933962,155.94377718361773,6.47544875391759e-05,0.0938397273421287,0,0,0
14437,503086.6677477288,2010-10-21 12:58:06,2671.347840085675,2,44,0.550297200679779,3.960062265396118,43.17927567401892,42.775543727490046,172.4259483133675,155.94377718361773,6.47544875391759e-05,0.0938397273421287,0,0,0
14438,503116.68290106126,2010-10-21 12:58:36,2701.362993378112,2,44,0.550297200679779,3.9616811275482178,43.18386197793641,42.775543727490046,172.44411336610662,155.94377718361773,9.713172767078504e-05,0.0938397273421287,0,0,0
14439,503146.6980471006,2010-10-21 12:59:06,2731.378139427496,2,44,0.550297200679779,3.963299989700317,43.18844832166892,42.775543727490046,172.46228609214393,155.94377718361773,6.47544875391759e-05,0.0938397273421287,0,0,0
14440,503176.7133328532,2010-10-21 12:59:36,2761.393425220164,2,44,0.5501165986061096,3.964756965637207,43.19303459268611,42.775543727490046,172.48046615509116,155.94377718361773,3.237724376958795e-05,0.0938397273421287,0,0,0
14441,503206.7283250692,2010-10-21 13:00:06,2791.408417401061,2,44,0.5501165986061096,3.9665377140045166,43.197620878666186,42.775543727490046,172.49865400025655,155.94377718361773,6.47544875391759e-05,0.0938397273421287,0,0,0
14442,503236.74360386445,2010-10-21 13:00:36,2821.423696201301,2,44,0.5501165986061096,3.968318462371826,43.20220730614429,42.775543727490046,172.5168501524819,155.94377718361773,6.47544875391759e-05,0.0938397273421287,0,0,0
14443,503266.75876052526,2010-10-21 13:01:06,2851.438852892208,2,44,0.5499359965324402,3.969937324523926,43.20679365614766,42.775543727490046,172.53505382827944,155.94377718361773,3.237724376958795e-05,0.0938397273421287,0,0,0
14444,503296.77375873626,2010-10-21 13:01:36,2881.4538510880966,2,44,0.5501165986061096,3.9715561866760254,43.21137995803596,42.775543727490046,172.5532652246795,155.94377718361773,0.0,0.0938397273421287,0,0,0
14445,503326.7890194814,2010-10-21 13:02:06,2911.4691118333385,2,44,0.5499359965324402,3.973336935043335,43.21596633490567,42.775543727490046,172.5714848619839,155.94377718361773,6.47544875391759e-05,0.0938397273421287,0,0,0
14446,503356.8040405042,2010-10-21 13:02:36,2941.484132831056,2,44,0.5501165986061096,3.9752795696258554,43.22055264712112,42.775543727490046,172.5897122588777,155.94377718361773,6.47544875391759e-05,0.0938397273421287,0,0,0
14447,503386.8192130797,2010-10-21 13:03:06,2971.499305431614,2,44,0.5501165986061096,3.977060317993164,43.22513899572296,42.775543727490046,172.60794783578663,155.94377718361773,3.237724376958795e-05,0.0938397273421287,0,0,0
14448,503416.8343595552,2010-10-21 13:03:36,3001.514451912073,2,44,0.5501165986061096,3.978679180145264,43.22972536679309,42.775543727490046,172.62619117042578,155.94377718361773,6.47544875391759e-05,0.0938397273421287,0,0,0
14449,503446.8494813741,2010-10-21 13:04:06,3031.529573690968,2,44,0.5501165986061096,3.980459928512573,43.234311563417606,42.775543727490046,172.64444248462334,155.94377718361773,3.237724376958795e-05,0.0938397273421287,0,0,0
14450,503476.8646462655,2010-10-21 13:04:36,3061.544738607376,2,44,0.5501165986061096,3.9824025630950928,43.238897849842445,42.775543727490046,172.6627023721081,155.94377718361773,3.237724376958795e-05,0.0938397273421287,0,0,0
14451,503506.8797759641,2010-10-21 13:05:06,3091.559868311021,2,44,0.5499359965324402,3.984021425247192,43.24348409583992,42.775543727490046,172.68097034211618,155.94377718361773,0.0,0.0938397273421287,0,0,0
14452,503536.8949024247,2010-10-21 13:05:36,3121.574994746522,2,44,0.5501165986061096,3.985802173614502,43.248070381771214,42.775543727490046,172.6992468363292,155.94377718361773,3.237724376958795e-05,0.0938397273421287,0,0,0
14453,503566.9102092749,2010-10-21 13:06:06,3151.590301636772,2,44,0.5501165986061096,3.9877448081970215,43.25265670126005,42.775543727490046,172.71753190117457,155.94377718361773,3.237724376958795e-05,0.0938397273421287,0,0,0
14454,503596.9251928344,2010-10-21 13:06:36,3181.605285161094,2,44,0.5499359965324402,3.989525556564331,43.25724290074567,42.775543727490046,172.73582481555766,155.94377718361773,3.237724376958795e-05,0.0938397273421287,0,0,0
14455,503626.94034412166,2010-10-21 13:07:06,3211.620436448533,2,44,0.5501165986061096,3.991630077362061,43.26182912134445,42.775543727490046,172.75412645816684,155.94377718361773,3.237724376958795e-05,0.0938397273421287,0,0,0
14456,503656.9557213623,2010-10-21 13:07:36,3241.6358136941303,2,44,0.5501165986061096,3.99341082572937,43.26641537629694,42.775543727490046,172.7724370084438,155.94377718361773,6.47544875391759e-05,0.0938397273421287,0,0,0
14457,503686.97064822033,2010-10-21 13:08:06,3271.6507405722723,2,44,0.5501165986061096,3.995353221893311,43.27100160272959,42.775543727490046,172.79075625498297,155.94377718361773,3.237724376958795e-05,0.0938397273421287,0,0,0
14458,503716.9857891821,2010-10-21 13:08:36,3301.6658815389897,2,44,0.5501165986061096,3.99729585647583,43.275587887737466,42.775543727490046,172.8090847083784,155.94377718361773,6.47544875391759e-05,0.0938397273421287,0,0,0
14459,503747.0036603032,2010-10-21 13:09:06,3331.683752670116,2,44,0.5499359965324402,3.9992384910583496,43.2801745518981,42.775543727490046,172.82742355928556,155.94377718361773,3.237724376958795e-05,0.0938397273421287,0,0,0
14460,503777.01606534113,2010-10-21 13:09:36,3361.696157662944,2,44,0.5501165986061096,4.001181125640869,43.28476031113453,42.775543727490046,172.84576788928229,155.94377718361773,3.23295607813634e-05,0.0938397273421287,0,0,0
14461,503807.0312050848,2010-10-21 13:10:06,3391.711297406613,2,44,0.5501165986061096,4.003285884857178,43.28934649054297,42.775543727490046,172.86412311795127,155.94377718361773,3.24249267578125e-05,0.0938397273421287,0,0,0
14462,503837.0463518309,2010-10-21 13:10:36,3421.7264441527345,2,44,0.5501165986061096,4.005390167236328,43.29393266870752,42.775543727490046,172.88248757501626,155.94377718361773,6.47544875391759e-05,0.0938397273421287,0,0,0
14463,503867.06149850687,2010-10-21 13:11:06,3451.7415908387056,2,44,0.5501165986061096,4.007332801818848,43.29851891192318,42.775543727490046,172.90086175151103,155.94377718361773,3.23295607813634e-05,0.0938397273421287,0,0,0
14464,503897.07648362016,2010-10-21 13:11:36,3481.7565759670256,2,44,0.5501165986061096,4.009599208831787,43.30310513570386,42.775543727490046,172.91924542575669,155.94377718361773,9.70840483205393e-05,0.0938397273421287,0,0,0
14465,503927.09182260535,2010-10-21 13:12:06,3511.771914937228,2,44,0.550297200679779,4.011703968048096,43.30769142905567,42.775543727490046,172.93763902625986,155.94377718361773,9.71794142969884e-05,0.0938397273421287,0,0,0
14466,503957.1067589672,2010-10-21 13:12:36,3541.786851319057,2,44,0.5499359965324402,4.013646602630615,43.31227770365236,42.775543727490046,172.9560423524134,155.94377718361773,3.24249267578125e-05,0.0938397273421287,0,0,0
14467,503987.122262272,2010-10-21 13:13:06,3571.802354628844,2,44,0.5501165986061096,4.0160746574401855,43.31686408556363,42.775543727490046,172.9744559796368,155.94377718361773,9.70840483205393e-05,0.0938397273421287,0,0,0
14468,504017.1370535972,2010-10-21 13:13:36,3601.817145914048,2,44,0.5501165986061096,4.018017292022705,43.32145035043856,42.775543727490046,172.99287918283557,155.94377718361773,3.23295607813634e-05,0.0938397273421287,0,0,0
14469,504047.1521854813,2010-10-21 13:14:06,3631.832277958528,2,44,0.5499359965324402,4.0202836990356445,43.326036689244525,42.775543727490046,173.01131264988047,155.94377718361773,9.70840483205393e-05,0.0938397273421287,0,0,0
14470,504077.16734522994,2010-10-21 13:14:36,3661.8474375867545,2,44,0.5501165986061096,4.022388458251953,43.33062295892773,42.775543727490046,173.02975604613115,155.94377718361773,0.0,0.0938397273421287,0,0,0
14471,504107.182522472,2010-10-21 13:15:06,3691.862614808831,2,44,0.5497553944587708,4.024654865264893,43.3352092475082,42.775543727490046,173.04820974987274,155.94377718361773,3.24249267578125e-05,0.0938397273421287,0,0,0
14472,504137.1977441449,2010-10-21 13:15:36,3721.8778365017433,2,44,0.5499359965324402,4.026921272277832,43.33979555775419,42.775543727490046,173.06667395111208,155.94377718361773,3.24249267578125e-05,0.0938397273421287,0,0,0
14473,504167.21271560906,2010-10-21 13:16:06,3751.8928079559823,2,44,0.5499359965324402,4.029349327087402,43.344381173996766,42.775543727490046,173.0851458690898,155.94377718361773,3.23295607813634e-05,0.0938397273421287,0,0,0
14474,504197.22787060577,2010-10-21 13:16:36,3781.9079629526655,2,44,0.5499359965324402,4.031777858734131,43.34896663235534,42.775543727490046,173.1036276434442,155.94377718361773,6.47544875391759e-05,0.0938397273421287,0,0,0
14475,504227.2430549055,2010-10-21 13:17:06,3811.9231472323327,2,44,0.5499359965324402,4.03404426574707,43.35355223381064,42.775543727490046,173.12212075925956,155.94377718361773,6.47544875391759e-05,0.0938397273421287,0,0,0
14476,504257.258168489,2010-10-21 13:17:36,3841.938260840865,2,44,0.5499359965324402,4.036310195922852,43.35813763284989,42.775543727490046,173.14062387323895,155.94377718361773,3.23295607813634e-05,0.0938397273421287,0,0,0
14477,504287.2733125534,2010-10-21 13:18:06,3871.9534048902647,2,44,0.5499359965324402,4.038900375366211,43.36272310032284,42.775543727490046,173.1591381439573,155.94377718361773,6.47544875391759e-05,0.0938397273421287,0,0,0
14478,504317.2884795299,2010-10-21 13:18:36,3901.9685718617934,2,44,0.5499359965324402,4.04116678237915,43.36730852414222,42.775543727490046,173.17766302067182,155.94377718361773,6.47544875391759e-05,0.0938397273421287,0,0,0
14479,504347.3036184566,2010-10-21 13:19:06,3931.983710793439,2,44,0.5501165986061096,4.043595314025879,43.37189455527939,42.775543727490046,173.19620149907962,155.94377718361773,6.47544875391759e-05,0.0938397273421287,0,0,0
14480,504377.3189857274,2010-10-21 13:19:36,3961.9990781794622,2,44,0.5501165986061096,4.046023368835449,43.37648105768456,42.775543727490046,173.21475296969152,155.94377718361773,9.70840483205393e-05,0.0938397273421287,0,0,0
14481,504407.33391825954,2010-10-21 13:20:06,3992.014010621472,2,44,0.5501165986061096,4.048289775848389,43.38106737680517,42.775543727490046,173.23331489309788,155.94377718361773,0.0,0.0938397273421287,0,0,0
14482,504437.3491988944,2010-10-21 13:20:36,4022.029291241248,2,44,0.5499359965324402,4.051042079925537,43.38565379804185,42.775543727490046,173.25188848960624,155.94377718361773,9.71794142969884e-05,0.0938397273421287,0,0,0
14483,504467.3643178813,2010-10-21 13:21:06,4052.044410218159,2,44,0.5501165986061096,4.053470134735107,43.39024018395296,42.775543727490046,173.27047330589323,155.94377718361773,9.70840483205393e-05,0.0938397273421287,0,0,0
14484,504497.3793222676,2010-10-21 13:21:36,4082.0594146195135,2,44,0.5501165986061096,4.055736541748047,43.39482659958369,42.775543727490046,173.28906975521622,155.94377718361773,3.23295607813634e-05,0.0938397273421287,0,0,0
14485,504527.3945097352,2010-10-21 13:22:06,4112.074602087125,2,44,0.550297200679779,4.058488845825195,43.39941307165301,42.775543727490046,173.3076780051798,155.94377718361773,6.47544875391759e-05,0.0938397273421287,0,0,0
14486,504557.4095876397,2010-10-21 13:22:36,4142.089679996684,2,44,0.5501165986061096,4.060755252838135,43.4039996044226,42.775543727490046,173.32629815486942,155.94377718361773,3.24249267578125e-05,0.0938397273421287,0,0,0
14487,504587.42473902745,2010-10-21 13:23:06,4172.104831354299,2,44,0.5501165986061096,4.063507080078125,43.40858600723258,42.775543727490046,173.34492932630678,155.94377718361773,6.47544875391759e-05,0.0938397273421287,0,0,0
14488,504617.4399367055,2010-10-21 13:23:36,4202.12002903737,2,44,0.5501165986061096,4.066097259521484,43.413172485096446,42.775543727490046,173.36357287508156,155.94377718361773,3.23295607813634e-05,0.0938397273421287,0,0,0
14489,504647.4549954172,2010-10-21 13:24:06,4232.13508774407,2,44,0.550297200679779,4.069011211395264,43.41775886165108,42.775543727490046,173.38222809611503,155.94377718361773,9.70840483205393e-05,0.0938397273421287,0,0,0
14490,504677.4701434014,2010-10-21 13:24:36,4262.150235723265,2,44,0.5499359965324402,4.071439743041992,43.42234531448911,42.775543727490046,173.40089592564308,155.94377718361773,6.47544875391759e-05,0.0938397273421287,0,0,0
14491,504707.485418728,2010-10-21 13:25:06,4292.16551109496,2,44,0.5501165986061096,4.074353694915772,43.42693171477519,42.775543727490046,173.41957587833764,155.94377718361773,9.71794142969884e-05,0.0938397273421287,0,0,0
14492,504737.5004364475,2010-10-21 13:25:36,4322.180528774406,2,44,0.5501165986061096,4.077105522155762,43.43151810542507,42.775543727490046,173.43826836789296,155.94377718361773,9.70840483205393e-05,0.0938397273421287,0,0,0
14493,504767.5155720659,2010-10-21 13:26:07,4352.195664392794,2,44,0.5501165986061096,4.079695701599121,43.43610458395376,42.775543727490046,173.45697378128435,155.94377718361773,6.47544875391759e-05,0.0938397273421287,0,0,0
14494,504797.5307927764,2010-10-21 13:26:37,4382.2108852385945,2,44,0.5501165986061096,4.0826096534729,43.44069103683833,42.775543727490046,173.47569171633577,155.94377718361773,9.70840483205393e-05,0.0938397273421287,0,0,0
14495,504827.5458681848,2010-10-21 13:27:07,4412.225960541658,2,44,0.5501165986061096,4.085361957550049,43.44527751988931,42.775543727490046,173.49442259241803,155.94377718361773,9.71794142969884e-05,0.0938397273421287,0,0,0
14496,504857.5610044798,2010-10-21 13:27:37,4442.241096831719,2,44,0.5501165986061096,4.088113784790039,43.4498639672622,42.775543727490046,173.51316614553025,155.94377718361773,6.47544875391759e-05,0.0938397273421287,0,0,0
14497,504887.5761433162,2010-10-21 13:28:07,4472.256235643064,2,44,0.550297200679779,4.091027736663818,43.4544504072816,42.775543727490046,173.5319226173713,155.94377718361773,6.47544875391759e-05,0.0938397273421287,0,0,0
14498,504917.5912953506,2010-10-21 13:28:37,4502.271387667341,2,44,0.5501165986061096,4.093780040740967,43.45903685392244,42.775543727490046,173.5506921276137,155.94377718361773,9.71794142969884e-05,0.0938397273421287,0,0,0
14499,504947.60675790376,2010-10-21 13:29:07,4532.286850325811,2,44,0.5501165986061096,4.096693992614746,43.46362338746986,42.775543727490046,173.5694752445605,155.94377718361773,6.47544875391759e-05,0.0938397273421287,0,0,0
14500,504977.62158197066,2010-10-21 13:29:37,4562.301674322543,2,44,0.5501165986061096,4.099607944488525,43.468209850359735,42.775543727490046,173.58827131032447,155.94377718361773,6.47544875391759e-05,0.0938397273421287,0,0,0
14501,505007.6368476933,2010-10-21 13:30:07,4592.316940060227,2,44,0.5499359965324402,4.102521896362305,43.47279637232572,42.775543727490046,173.6070810194338,155.94377718361773,6.47544875391759e-05,0.0938397273421287,0,0,0
14502,505037.6518630569,2010-10-21 13:30:37,4622.331955373778,2,44,0.5499359965324402,4.105597496032715,43.4773827787075,42.775543727490046,173.62590381348642,155.94377718361773,9.70840483205393e-05,0.0938397273421287,0,0,0
14503,505067.667021397,2010-10-21 13:31:07,4652.347113748882,2,44,0.5499359965324402,4.108511447906494,43.481969196063815,42.775543727490046,173.64474041409582,155.94377718361773,9.70840483205393e-05,0.0938397273421287,0,0,0
14504,505097.6821557171,2010-10-21 13:31:37,4682.362248069034,2,44,0.5499359965324402,4.111425399780273,43.48655563318316,42.775543727490046,173.66359089400893,155.94377718361773,3.23295607813634e-05,0.0938397273421287,0,0,0
14505,505127.6973057464,2010-10-21 13:32:07,4712.377398168513,2,44,0.5499359965324402,4.114501476287842,43.49114206983703,42.775543727490046,173.68245521260826,155.94377718361773,3.24249267578125e-05,0.0938397273421287,0,0,0
14506,505157.7124579712,2010-10-21 13:32:37,4742.392550318101,2,44,0.5499359965324402,4.117577075958252,43.4957285151827,42.775543727490046,173.7013336118255,155.94377718361773,6.47544875391759e-05,0.0938397273421287,0,0,0
14507,505187.72761191527,2010-10-21 13:33:07,4772.407704267174,2,44,0.5499359965324402,4.120652675628662,43.500315000042086,42.775543727490046,173.7202264330093,155.94377718361773,3.23295607813634e-05,0.0938397273421287,0,0,0
14508,505217.7427288921,2010-10-21 13:33:37,4802.422821239088,2,44,0.550297200679779,4.12405252456665,43.50490144788553,42.775543727490046,173.73913346591476,155.94377718361773,9.71794142969884e-05,0.0938397273421287,0,0,0
14509,505247.75792476576,2010-10-21 13:34:07,4832.438017217913,2,44,0.5501165986061096,4.1271281242370605,43.50948795059113,42.775543727490046,173.7580551104045,155.94377718361773,9.70840483205393e-05,0.0938397273421287,0,0,0
14510,505277.7730102943,2010-10-21 13:34:37,4862.453102656236,2,44,0.5499359965324402,4.13004207611084,43.51407440237771,42.775543727490046,173.77699107520905,155.94377718361773,3.23295607813634e-05,0.0938397273421287,0,0,0
14511,505307.7881578775,2010-10-21 13:35:07,4892.4682502143805,2,44,0.5501165986061096,4.133441925048828,43.51866092405484,42.775543727490046,173.79594198716134,155.94377718361773,6.47544875391759e-05,0.0938397273421287,0,0,0
14512,505337.8032929546,2010-10-21 13:35:37,4922.483385301443,2,44,0.5499359965324402,4.136679649353027,43.52324749985315,42.775543727490046,173.81490795154767,155.94377718361773,9.71794142969884e-05,0.0938397273421287,0,0,0
14513,505367.8184926526,2010-10-21 13:36:07,4952.498584979488,2,44,0.5501165986061096,4.140079021453857,43.52783399257504,42.775543727490046,173.83388853609847,155.94377718361773,9.70840483205393e-05,0.0938397273421287,0,0,0
14514,505397.8336096296,2010-10-21 13:36:37,4982.513701956415,2,44,0.5499359965324402,4.143316745758057,43.53242055942841,42.775543727490046,173.85288462541615,155.94377718361773,9.70840483205393e-05,0.0938397273421287,0,0,0
14515,505427.84873773926,2010-10-21 13:37:07,5012.528830066088,2,44,0.5501165986061096,4.146878242492676,43.537006981396765,42.775543727490046,173.87189551660452,155.94377718361773,9.70840483205393e-05,0.0938397273421287,0,0,0
14516,505457.8638665958,2010-10-21 13:37:37,5042.54395891761,2,44,0.550297200679779,4.150278091430664,43.54159351142055,42.775543727490046,173.89092239879454,155.94377718361773,0.0001295089750783,0.0938397273421287,0,0,0
14517,505487.8790090612,2010-10-21 13:38:07,5072.559101413137,2,44,0.5501165986061096,4.153677463531494,43.546180046481965,42.775543727490046,173.90996479271178,155.94377718361773,0.0001618385285837,0.0938397273421287,0,0,0
14518,505517.8941575868,2010-10-21 13:38:37,5102.57424993368,2,44,0.5501165986061096,4.156915187835693,43.55076651790931,42.775543727490046,173.92902236828073,155.94377718361773,9.70840483205393e-05,0.0938397273421287,0,0,0
14519,505547.9093085484,2010-10-21 13:39:07,5132.589400885283,2,44,0.5499359965324402,4.160315036773682,43.55535299502273,42.775543727490046,173.948095715726,155.94377718361773,6.47544875391759e-05,0.0938397273421287,0,0,0
14520,505577.9245986719,2010-10-21 13:39:37,5162.604691023782,2,44,0.5499359965324402,4.163714408874512,43.55993949898298,42.775543727490046,173.9671850004536,155.94377718361773,9.70840483205393e-05,0.0938397273421287,0,0,0
14521,505607.9395855395,2010-10-21 13:40:07,5192.619677866375,2,44,0.550297200679779,4.167275905609131,43.564525970313575,42.775543727490046,173.9862898931027,155.94377718361773,9.70840483205393e-05,0.0938397273421287,0,0,0
14522,505637.9547421353,2010-10-21 13:40:37,5222.634834482094,2,44,0.5501165986061096,4.170675754547119,43.569112419351626,42.775543727490046,174.00541064344387,155.94377718361773,9.71794142969884e-05,0.0938397273421287,0,0,0
14523,505667.9725864896,2010-10-21 13:41:07,5252.652678951772,2,44,0.5501165986061096,4.174237251281738,43.57369934000976,42.775543727490046,174.02454946662434,155.94377718361773,0.0001295089750783,0.0938397273421287,0,0,0
14524,505697.9850234921,2010-10-21 13:41:37,5282.665115819042,2,44,0.5501165986061096,4.177636623382568,43.57828550316289,42.775543727490046,174.0437013259168,155.94377718361773,6.47544875391759e-05,0.0938397273421287,0,0,0
14525,505728.0001631908,2010-10-21 13:42:07,5312.680255517597,2,44,0.5499359965324402,4.181198120117188,43.58287202364492,42.775543727490046,174.0628710984375,155.94377718361773,6.47544875391759e-05,0.0938397273421287,0,0,0
14526,505758.01530301466,2010-10-21 13:42:37,5342.695395336454,2,44,0.5501165986061096,4.185083389282227,43.5874585550027,42.775543727490046,174.08205747724273,155.94377718361773,0.0001295089750783,0.0938397273421287,0,0,0
14527,505788.0304758056,2010-10-21 13:43:07,5372.710568117462,2,44,0.5501165986061096,4.188807010650635,43.59204512850528,42.775543727490046,174.1012605822865,155.94377718361773,0.0001295089750783,0.0938397273421287,0,0,0
14528,505818.0455867176,2010-10-21 13:43:37,5402.725679074385,2,44,0.5501165986061096,4.192368507385254,43.59663164622338,42.775543727490046,174.1204801954766,155.94377718361773,9.71794142969884e-05,0.0938397273421287,0,0,0
14529,505848.06098378246,2010-10-21 13:44:07,5432.7410761393785,2,44,0.5501165986061096,4.195767879486084,43.601218229984426,42.775543727490046,174.1397167678853,155.94377718361773,6.47544875391759e-05,0.0938397273421287,0,0,0
14530,505878.075943733,2010-10-21 13:44:37,5462.756036089948,2,44,0.5501165986061096,4.199653148651123,43.60580472161538,42.775543727490046,174.15896986924017,155.94377718361773,6.47544875391759e-05,0.0938397273421287,0,0,0
14531,505880.2947050088,2010-10-21 13:44:39,5464.974797355717,2,44,0.550297200679779,4.200138568878174,43.60614376499105,42.775543727490046,174.1603937722294,155.94377718361773,0.0001295089750783,0.0938397273421287,0,0,0
14532,505910.3160495454,2010-10-21 13:45:09,30.015268063481297,3,44,0.0,4.110777854919434,43.60614376499105,42.775543727490046,174.1603937722294,155.94377718361773,-0.0003885269106831,0.0938397273421287,0,0,0
14533,505940.3310477564,2010-10-21 13:45:39,60.030266289444455,3,44,0.0,4.099607944488525,43.60614376499105,42.775543727490046,174.1603937722294,155.94377718361773,-0.0002590179501567,0.0938397273421287,0,0,0
14534,505970.3461961416,2010-10-21 13:46:09,90.04541465460069,3,44,0.0,4.092808723449707,43.60614376499105,42.775543727490046,174.1603937722294,155.94377718361773,-0.0001618385285837,0.0938397273421287,0,0,0
14535,506000.3145882107,2010-10-21 13:46:39,120.01380675375552,3,44,0.0,4.088275909423828,43.60614376499105,42.775543727490046,174.1603937722294,155.94377718361773,-0.0001295089750783,0.0938397273421287,0,0,0
14536,506000.32258984033,2010-10-21 13:46:40,2.796970912e-06,4,44,1.0090447664260864,4.199814796447754,43.606143765775016,42.775543727490046,174.16039377552192,155.94377718361773,0.0,0.0938397273421287,0,0,0
14537,506000.9163219585,2010-10-21 13:46:40,0.593734890033622,4,44,0.9590160250663756,4.199653148651123,43.60630442711283,42.775543727490046,174.16106851752878,155.94377718361773,-3.23295607813634e-05,0.0938397273421287,0,0,0
14538,506002.8384158328,2010-10-21 13:46:42,2.51582880448194,4,44,0.9086260199546814,4.199814796447754,43.60680170398061,42.775543727490046,174.16315695388158,155.94377718361773,0.0,0.0938397273421287,0,0,0
14539,506005.8384954694,2010-10-21 13:46:45,5.515908456075141,4,44,0.8582360148429871,4.199814796447754,43.60753682485834,42.775543727490046,174.1662442883474,155.94377718361773,0.0,0.0938397273421287,0,0,0
14540,506010.0413002269,2010-10-21 13:46:49,9.71871318863938,4,44,0.8080266714096069,4.199653148651123,43.60850821254947,42.775543727490046,174.17032390161677,155.94377718361773,-3.23295607813634e-05,0.0938397273421287,0,0,0
14541,506015.50986774487,2010-10-21 13:46:55,15.187280696505136,4,44,0.757817268371582,4.199814796447754,43.609696019647785,42.775543727490046,174.17531244185162,155.94377718361773,0.0,0.0938397273421287,0,0,0
14542,506022.60348521726,2010-10-21 13:47:02,22.280898148847896,4,44,0.7077885270118713,4.199814796447754,43.61113824446331,42.775543727490046,174.18136949328445,155.94377718361773,0.0,0.0938397273421287,0,0,0
14543,506031.9470662813,2010-10-21 13:47:11,31.62447922283229,4,44,0.6577597260475159,4.199814796447754,43.61290777447383,42.775543727490046,174.18880115955236,155.94377718361773,3.23295607813634e-05,0.0938397273421287,0,0,0
14544,506044.8218646703,2010-10-21 13:47:24,44.499277631944224,4,44,0.6077309846878052,4.199814796447754,43.61516614338911,42.775543727490046,174.1982858524309,155.94377718361773,0.0,0.0938397273421287,0,0,0
14545,506063.9465759353,2010-10-21 13:47:43,63.62398887689318,4,44,0.5577021837234497,4.199814796447754,43.61825267290135,42.775543727490046,174.2112486449153,155.94377718361773,3.23295607813634e-05,0.0938397273421287,0,0,0
14546,506095.66505552095,2010-10-21 13:48:15,95.3424684725778,4,44,0.507673442363739,4.199653148651123,43.62292883215007,42.775543727490046,174.23088755680487,155.94377718361773,-3.23295607813634e-05,0.0938397273421287,0,0,0
14547,506155.7576924522,2010-10-21 13:49:15,155.43510540385267,4,44,0.4576446712017059,4.199814796447754,43.63094604404072,42.775543727490046,174.26455816619523,155.94377718361773,0.0,0.0938397273421287,0,0,0
14548,506253.02167483873,2010-10-21 13:50:52,252.6990877753015,4,44,0.4076159000396728,4.199491024017334,43.64260541980258,42.775543727490046,174.31352518367552,155.94377718361773,-6.47544875391759e-05,0.0938397273421287,0,0,0
14549,506380.4102739642,2010-10-21 13:53:00,380.0876869960517,4,44,0.3574065268039703,4.199653148651123,43.65612655064115,42.775543727490046,174.37031139740964,155.94377718361773,-3.23295607813634e-05,0.0938397273421287,0,0,0
14550,506531.76721356914,2010-10-21 13:55:31,531.4446265157007,4,44,0.3073777556419372,4.199814796447754,43.67008248873554,42.775543727490046,174.42892365639204,155.94377718361773,0.0,0.0938397273421287,0,0,0
14551,506713.1705385464,2010-10-21 13:58:32,712.8479515430765,4,44,0.2573489844799042,4.199653148651123,43.684293662146544,42.775543727490046,174.48860767672673,155.94377718361773,-3.23295607813634e-05,0.0938397273421287,0,0,0
14552,506936.58883165184,2010-10-21 14:02:16,936.2662446034732,4,44,0.2073202133178711,4.199814796447754,43.69868086700631,42.775543727490046,174.54903095642987,155.94377718361773,-3.24249267578125e-05,0.0938397273421287,0,0,0
14553,507224.63109119097,2010-10-21 14:07:04,1224.3085041376198,4,44,0.157291442155838,4.199814796447754,43.71319597598367,42.775543727490046,174.60999144410792,155.94377718361773,0.0,0.0938397273421287,0,0,0
14554,507633.8122623765,2010-10-21 14:13:53,1633.4896754283754,4,44,0.1072626709938049,4.199653148651123,43.72808237415951,42.775543727490046,174.6725112263315,155.94377718361773,-3.23295607813634e-05,0.0938397273421287,0,0,0
14555,508366.6127486654,2010-10-21 14:26:06,2366.29016159698,4,44,0.0572338961064815,4.199814796447754,43.74428259457504,42.775543727490046,174.74054874163613,155.94377718361773,3.23295607813634e-05,0.0938397273421287,0,0,0
14556,508539.5319791637,2010-10-21 14:28:59,2539.209392125374,4,44,0.0498289167881011,4.199814796447754,43.74686835645634,42.775543727490046,174.7514083702944,155.94377718361773,3.23295607813634e-05,0.0938397273421287,0,0,0
14557,508569.5333622008,2010-10-21 14:29:29,30.015158961565746,5,44,0.0,4.191397190093994,43.74686835645634,42.775543727490046,174.7514083702944,155.94377718361773,-6.47544875391759e-05,0.0938397273421287,0,0,0
14558,508599.5328580249,2010-10-21 14:29:59,60.01465478076128,5,44,0.0,4.1901021003723145,43.74686835645634,42.775543727490046,174.7514083702944,155.94377718361773,-3.23295607813634e-05,0.0938397273421287,0,0,0
14559,508599.7231387471,2010-10-21 14:29:59,0.187436619729171,6,44,-0.0009222895023413,4.191073417663574,43.74686835645634,42.77554377550972,174.7514083702944,155.94377738487168,0.0,0.0956302732229232,0,0,0
14560,508604.5515331215,2010-10-21 14:30:04,5.015831054319998,6,44,0.0008838032954372,4.1901021003723145,43.7468693780452,42.77554377550972,174.7514126510201,155.94377738487168,0.0,0.0956302732229232,0,0,0
14561,508634.5694686901,2010-10-21 14:30:34,30.015265161248035,7,44,-1.0993878841400146,4.004095077514648,43.7468693780452,42.7847109102072,174.7514126510201,155.980692695367,-0.0009389877086505,0.0956302732229232,0,0,0
14562,508664.5846197771,2010-10-21 14:31:04,60.03041623816281,7,44,-1.0993878841400146,3.975117683410645,43.7468693780452,42.7938779894209,174.7514126510201,156.0172556500919,-0.0005504131549969,0.0956302732229232,0,0,0
14563,508694.59965068445,2010-10-21 14:31:34,90.04544714557821,7,44,-1.0993878841400146,3.95455813407898,43.7468693780452,42.80304492370881,174.7514126510201,156.05359511998822,-0.0004532813909463,0.0956302732229232,0,0,0
14564,508724.6148815352,2010-10-21 14:32:04,120.06067796623891,7,44,-1.099568486213684,3.9386932849884033,43.7468693780452,42.812211928482185,174.7514126510201,156.08977169423684,-0.0004209041653666,0.0956302732229232,0,0,0
14565,508754.6299304425,2010-10-21 14:32:34,150.07572697877788,7,44,-1.0993878841400146,3.925904273986816,43.7468693780452,42.8213787965635,174.7514126510201,156.12581765520105,-0.0003237724304199,0.0956302732229232,0,0,0
14566,508784.64504292834,2010-10-21 14:33:04,180.09083938932417,7,44,-1.099568486213684,3.914734125137329,43.7468693780452,42.83054576540293,174.7514126510201,156.16175370480357,-0.0002590179501567,0.0956302732229232,0,0,0
14567,508814.6603496231,2010-10-21 14:33:34,210.1061460640365,7,44,-1.0993878841400146,3.904373645782471,43.7468693780452,42.83971275686544,174.7514126510201,156.19759107540025,-0.0002266406954731,0.0956302732229232,0,0,0
14568,508844.6756032806,2010-10-21 14:34:04,240.12139974166385,7,44,-1.0993878841400146,3.894660472869873,43.7468693780452,42.84887976647077,174.7514126510201,156.23333725442583,-0.0002266406954731,0.0956302732229232,0,0,0
14569,508874.6904677682,2010-10-21 14:34:34,270.1362641942225,7,44,-1.0993878841400146,3.8855948448181152,43.7468693780452,42.8580466866274,174.7514126510201,156.26899718091357,-0.0001942634553415,0.0956302732229232,0,0,0
14570,508904.70564974216,2010-10-21 14:35:04,300.15144617816713,7,44,-1.0993878841400146,3.876691102981568,43.7468693780452,42.8672136183976,174.7514126510201,156.3045745168413,-0.0001942634553415,0.0956302732229232,0,0,0
14571,508934.72077858367,2010-10-21 14:35:34,330.16657502467683,7,44,-1.099568486213684,3.86811113357544,43.7468693780452,42.87638059376417,174.7514126510201,156.34007214243852,-0.0002266406954731,0.0956302732229232,0,0,0
14572,508964.735902132,2010-10-21 14:36:04,360.1816985980444,7,44,-1.099568486213684,3.8596930503845215,43.7468693780452,42.88554761933422,174.7514126510201,156.3754928871503,-0.0002590179501567,0.0956302732229232,0,0,0
14573,508994.7510504871,2010-10-21 14:36:34,390.1968469531756,7,44,-1.099568486213684,3.8514368534088135,43.7468693780452,42.89471462789017,174.7514126510201,156.41083774812608,-0.0002590179501567,0.0956302732229232,0,0,0
14574,509024.7661915992,2010-10-21 14:37:04,420.21198803518,7,44,-1.099568486213684,3.843504428863525,43.7468693780452,42.90388160796645,174.7514126510201,156.4461081677201,-0.0002266406954731,0.0956302732229232,0,0,0
14575,509054.7813484405,2010-10-21 14:37:34,450.2271448864864,7,44,-1.0993878841400146,3.8357338905334473,43.7468693780452,42.913048665905016,174.7514126510201,156.48130592535617,-0.0001942634553415,0.0956302732229232,0,0,0
14576,509084.7966013862,2010-10-21 14:38:04,480.2423978473272,7,44,-1.099568486213684,3.827963590621948,43.7468693780452,42.922215695687946,174.7514126510201,156.5164316876049,-0.0001618862152099,0.0956302732229232,0,0,0
14577,509114.811643276,2010-10-21 14:38:34,510.2574397070391,7,44,-1.099568486213684,3.82035493850708,43.7468693780452,42.93138264520671,174.7514126510201,156.55148661041142,-0.0001942634553415,0.0956302732229232,0,0,0
14578,509144.82678389695,2010-10-21 14:39:04,540.2725804331565,7,44,-1.0993878841400146,3.812584400177002,43.7468693780452,42.94054962793222,174.7514126510201,156.58647213154808,-0.0002590179501567,0.0956302732229232,0,0,0
14579,509174.8419202922,2010-10-21 14:39:34,570.2877167182054,7,44,-1.0993878841400146,3.805137634277344,43.7468693780452,42.94971664155924,174.7514126510201,156.6213887986556,-0.0002266406954731,0.0956302732229232,0,0,0
14580,509204.8570517352,2010-10-21 14:40:04,600.3028481962738,7,44,-1.0997490882873535,3.7980146408081055,43.7468693780452,42.95888362024567,174.7514126510201,156.65623857416318,-0.0002266406954731,0.0956302732229232,0,0,0
14581,509234.8721866268,2010-10-21 14:40:35,630.3179830527622,7,44,-1.0993878841400146,3.791215419769287,43.7468693780452,42.96805057122249,174.7514126510201,156.6910226680056,-0.0001618862152099,0.0956302732229232,0,0,0
14582,509264.88732855086,2010-10-21 14:41:05,660.3331249919029,7,44,-1.0993878841400146,3.784092426300049,43.7468693780452,42.97721760084076,174.7514126510201,156.72574298998225,-0.0001618862152099,0.0956302732229232,0,0,0
14583,509294.9024800488,2010-10-21 14:41:35,690.3482764798421,7,44,-1.0993878841400146,3.7772932052612314,43.7468693780452,42.98638464418824,174.7514126510201,156.76040011052206,-0.0001618862152099,0.0956302732229232,0,0,0
14584,509324.9176322736,2010-10-21 14:42:05,720.3634287397051,7,44,-1.0993878841400146,3.770493984222412,43.7468693780452,42.99555165608505,174.7514126510201,156.79499492749613,-0.0001942634553415,0.0956302732229232,0,0,0
14585,509354.9327321379,2010-10-21 14:42:35,750.3785285688949,7,44,-1.099568486213684,3.764180421829224,43.7468693780452,43.00471864504734,174.7514126510201,156.82952994226244,-0.0001295089750783,0.0956302732229232,0,0,0
14586,509384.947884894,2010-10-21 14:43:05,780.3936813149696,7,44,-1.099568486213684,3.757704973220825,43.7468693780452,43.01388566011707,174.7514126510201,156.86400532631012,-0.0001618862152099,0.0956302732229232,0,0,0
14587,509414.9632682348,2010-10-21 14:43:35,810.4090647910947,7,44,-1.099568486213684,3.751553535461426,43.7468693780452,43.02305283155252,174.7514126510201,156.89842334089082,-0.0001618862152099,0.0956302732229232,0,0,0
14588,509444.97820866667,2010-10-21 14:44:05,840.4240051077301,7,44,-1.099568486213684,3.745239973068237,43.7468693780452,43.0322198797975,174.7514126510201,156.932784524529,-0.0001942634553415,0.0956302732229232,0,0,0
14589,509474.9933066463,2010-10-21 14:44:35,870.4391030772849,7,44,-1.0993878841400146,3.739088296890259,43.7468693780452,43.04138693460537,174.7514126510201,156.9670897896066,-0.0001942634553415,0.0956302732229232,0,0,0
14590,509505.0084617733,2010-10-21 14:45:05,900.4542582042938,7,44,-1.0993878841400146,3.73342227935791,43.7468693780452,43.05055394092438,174.7514126510201,157.001340434271,-0.0001618862152099,0.0956302732229232,0,0,0
14591,509535.0236273463,2010-10-21 14:45:35,930.4694237973872,7,44,-1.0993878841400146,3.7277562618255615,43.7468693780452,43.0597210086464,174.7514126510201,157.03553782037372,-9.713172767078504e-05,0.0956302732229232,0,0,0
14592,509565.03875034826,2010-10-21 14:46:05,960.484546814368,7,44,-1.099568486213684,3.721766471862793,43.7468693780452,43.06888808376472,174.7514126510201,157.06968234513695,-0.0001295089750783,0.0956302732229232,0,0,0
14593,509595.0538948187,2010-10-21 14:46:35,990.49969124973,7,44,-1.0993878841400146,3.7162623405456543,43.7468693780452,43.07805514789327,174.7514126510201,157.10377481583578,-0.0001295089750783,0.0956302732229232,0,0,0
14594,509625.0690417704,2010-10-21 14:47:05,1020.5148382214134,7,44,-1.099568486213684,3.7105963230133057,43.7468693780452,43.08722221053619,174.7514126510201,157.1378160717615,-0.0001295089750783,0.0956302732229232,0,0,0
14595,509655.0841922457,2010-10-21 14:47:35,1050.529988726904,7,44,-1.0997490882873535,3.705092191696167,43.7468693780452,43.09638910774205,174.7514126510201,157.17180577932135,-0.0001295089750783,0.0956302732229232,0,0,0
14596,509685.09932084166,2010-10-21 14:48:05,1080.5451172676517,7,44,-1.099568486213684,3.699588060379028,43.7468693780452,43.10555589017913,174.7514126510201,157.2057449374663,-0.0001618862152099,0.0956302732229232,0,0,0
14597,509715.11446387856,2010-10-21 14:48:35,1110.5602603045284,7,44,-1.099568486213684,3.6944077014923096,43.7468693780452,43.11472263147798,174.7514126510201,157.23963486754147,-0.0001295089750783,0.0956302732229232,0,0,0
14598,509745.1296306997,2010-10-21 14:49:05,1140.5754271306953,7,44,-1.0993878841400146,3.689065456390381,43.7468693780452,43.12388931612488,174.7514126510201,157.27347595784494,-0.0001618862152099,0.0956302732229232,0,0,0
14599,509775.144771912,2010-10-21 14:49:35,1170.5905683430242,7,44,-1.0993878841400146,3.683885097503662,43.7468693780452,43.13305618040984,174.7514126510201,157.30726995263532,-0.0001618862152099,0.0956302732229232,0,0,0
14600,509805.1599104327,2010-10-21 14:50:05,1200.6057069037447,7,44,-1.0993878841400146,3.678866624832153,43.7468693780452,43.142223269536224,174.7514126510201,157.34101784146765,-0.0001295089750783,0.0956302732229232,0,0,0
14601,509835.17511744896,2010-10-21 14:50:35,1230.6209138749657,7,44,-1.099568486213684,3.6740100383758554,43.7468693780452,43.15139038188128,174.7514126510201,157.37471969178117,-0.0001295089750783,0.0956302732229232,0,0,0
14602,509865.1903161095,2010-10-21 14:51:05,1260.636112575573,7,44,-1.0993878841400146,3.669153690338135,43.7468693780452,43.16055745747295,174.7514126510201,157.40837649241007,-9.713172767078504e-05,0.0956302732229232,0,0,0
14603,509895.20533666114,2010-10-21 14:51:35,1290.651133092091,7,44,-1.0993878841400146,3.664297103881836,43.7468693780452,43.16972444339198,174.7514126510201,157.44198843835375,-0.0001618862152099,0.0956302732229232,0,0,0
14604,509925.2205963687,2010-10-21 14:52:05,1320.6663928047597,7,44,-1.099568486213684,3.659278631210327,43.7468693780452,43.178891515609365,174.7514126510201,157.47555661982614,-0.0001618862152099,0.0956302732229232,0,0,0
14605,509955.2356351508,2010-10-21 14:52:35,1350.6814315817885,7,44,-1.099568486213684,3.654907703399658,43.7468693780452,43.18805849615191,174.7514126510201,157.5090814953644,-0.0001295089750783,0.0956302732229232,0,0,0
14606,509985.2507358721,2010-10-21 14:53:05,1380.6965323282643,7,44,-1.0993878841400146,3.650213003158569,43.7468693780452,43.19722551814099,174.7514126510201,157.54256454909032,-9.713172767078504e-05,0.0956302732229232,0,0,0
14607,510015.266042983,2010-10-21 14:53:35,1410.711839414001,7,44,-1.0993878841400146,3.645518302917481,43.7468693780452,43.206391879332536,174.7514126510201,157.57600323287124,-0.0001295089750783,0.0956302732229232,0,0,0
14608,510045.2811778595,2010-10-21 14:54:05,1440.7269743306397,7,44,-1.0992072820663452,3.641147375106812,43.7468693780452,43.215558200022,174.7514126510201,157.6094004328313,-0.0001295089750783,0.0956302732229232,0,0,0
14609,510075.2962309673,2010-10-21 14:54:35,1470.7420274183353,7,44,-1.099568486213684,3.636938333511353,43.7468693780452,43.22472529192108,174.7514126510201,157.64275933834114,-3.237724376958795e-05,0.0956302732229232,0,0,0
14610,510105.3113892922,2010-10-21 14:55:05,1500.7571857483265,7,44,-1.0993878841400146,3.632567405700684,43.7468693780452,43.233892322758486,174.7514126510201,157.67607894653182,-0.0001295089750783,0.0956302732229232,0,0,0
14611,510135.3292327895,2010-10-21 14:55:35,1530.7750293458312,7,44,-1.0993878841400146,3.628196477890015,43.7468693780452,43.24306023354086,174.7514126510201,157.70936292043174,-0.0001618862152099,0.0956302732229232,0,0,0
14612,510165.3418223273,2010-10-21 14:56:05,1560.7876187683148,7,44,-1.099568486213684,3.624311208724976,43.7468693780452,43.25222703850958,174.7514126510201,157.7426043657842,-6.47544875391759e-05,0.0956302732229232,0,0,0
14613,510195.3568026787,2010-10-21 14:56:35,1590.8025991147167,7,44,-1.0997490882873535,3.619940280914306,43.7468693780452,43.26139499257189,174.7514126510201,157.7758115798428,-9.713172767078504e-05,0.0956302732229232,0,0,0
14614,510225.37194939976,2010-10-21 14:57:05,1620.8177458257503,7,44,-1.0993878841400146,3.616055011749268,43.7468693780452,43.27056299582295,174.7514126510201,157.80898112466676,-6.47544875391759e-05,0.0956302732229232,0,0,0
14615,510255.3871089678,2010-10-21 14:57:35,1650.8329053938278,7,44,-1.099568486213684,3.6118459701538086,43.7468693780452,43.27973093825934,174.7514126510201,157.84211301502978,-0.0001295089750783,0.0956302732229232,0,0,0
14616,510285.40226003976,2010-10-21 14:58:05,1680.8480564958047,7,44,-1.0993878841400146,3.60812258720398,43.7468693780452,43.28889844845056,174.7514126510201,157.87520737670744,-6.47544875391759e-05,0.0956302732229232,0,0,0
14617,510315.41760759125,2010-10-21 14:58:35,1710.863404147645,7,44,-1.099568486213684,3.6040754318237305,43.7468693780452,43.29806556657967,174.7514126510201,157.90826489206228,-0.0001295089750783,0.0956302732229232,0,0,0
14618,510345.4325382338,2010-10-21 14:59:05,1740.878334684907,7,44,-1.099568486213684,3.6005139350891118,43.7468693780452,43.30723260326073,174.7514126510201,157.94128724488056,-9.713172767078504e-05,0.0956302732229232,0,0,0
14619,510375.44795038144,2010-10-21 14:59:35,1770.8937468074278,7,44,-1.099568486213684,3.5967905521392822,43.7468693780452,43.31639978222461,174.7514126510201,157.9742760223917,-0.0001295089750783,0.0956302732229232,0,0,0
14620,510405.4628269192,2010-10-21 15:00:05,1800.9086234603935,7,44,-1.0993878841400146,3.593229055404663,43.7468693780452,43.32556684216373,174.7514126510201,158.00723107309204,-9.713172767078504e-05,0.0956302732229232,0,0,0
14621,510435.478104366,2010-10-21 15:00:35,1830.9239007969863,7,44,-1.099568486213684,3.589505910873413,43.7468693780452,43.33473397747128,174.7514126510201,158.04015362404914,-9.713172767078504e-05,0.0956302732229232,0,0,0
14622,510465.4931132836,2010-10-21 15:01:05,1860.938909709584,7,44,-1.0993878841400146,3.586106300354004,43.7468693780452,43.34390108613599,174.7514126510201,158.07304399037736,-9.713172767078504e-05,0.0956302732229232,0,0,0
14623,510495.5083930613,2010-10-21 15:01:35,1890.9541894872605,7,44,-1.099568486213684,3.5825448036193848,43.7468693780452,43.35306824313519,174.7514126510201,158.10590307654147,-0.0001295089750783,0.0956302732229232,0,0,0
14624,510525.52339671575,2010-10-21 15:02:05,1920.9691931417533,7,44,-1.0997490882873535,3.579307079315185,43.7468693780452,43.3622352884908,174.7514126510201,158.1387310634507,-9.713172767078504e-05,0.0956302732229232,0,0,0
14625,510555.538689581,2010-10-21 15:02:35,1950.9844860120609,7,44,-1.099568486213684,3.5760693550109863,43.7468693780452,43.37140243019649,174.7514126510201,158.17152890036536,-6.47544875391759e-05,0.0956302732229232,0,0,0
14626,510585.55385466287,2010-10-21 15:03:05,1980.9996512392424,7,44,-1.099568486213684,3.572669744491577,43.7468693780452,43.38056958449837,174.7514126510201,158.204296334417,-0.0001295089750783,0.0956302732229232,0,0,0
14627,510615.5688512648,2010-10-21 15:03:35,2011.0146476907832,7,44,-1.099568486213684,3.569432020187378,43.7468693780452,43.389736683710105,174.7514126510201,158.237033261541,-9.713172767078504e-05,0.0956302732229232,0,0,0
14628,510645.58398549474,2010-10-21 15:04:05,2041.0297819257223,7,44,-1.099568486213684,3.5661942958831787,43.7468693780452,43.398903831526646,174.7514126510201,158.26974028524842,-9.713172767078504e-05,0.0956302732229232,0,0,0
14629,510675.5991237948,2010-10-21 15:04:35,2071.0449202458435,7,44,-1.099568486213684,3.563118457794189,43.7468693780452,43.40807091925631,174.7514126510201,158.30241747400228,-3.237724376958795e-05,0.0956302732229232,0,0,0
14630,510705.6142735434,2010-10-21 15:05:05,2101.06006999946,7,44,-1.0993878841400146,3.5600426197052,43.7468693780452,43.41723802127336,174.7514126510201,158.33506624026597,-6.47544875391759e-05,0.0956302732229232,0,0,0
14631,510735.6295485993,2010-10-21 15:05:35,2131.0753450252946,7,44,-1.099568486213684,3.556643009185791,43.7468693780452,43.426405192892645,174.7514126510201,158.3676859748777,-9.713172767078504e-05,0.0956302732229232,0,0,0
14632,510765.6446799821,2010-10-21 15:06:05,2161.0904764382,7,44,-1.099568486213684,3.553405284881592,43.7468693780452,43.43557229245686,174.7514126510201,158.40027581563993,-9.713172767078504e-05,0.0956302732229232,0,0,0
14633,510795.6597373957,2010-10-21 15:06:35,2191.105533846664,7,44,-1.099568486213684,3.5503294467926025,43.7468693780452,43.4447393728154,174.7514126510201,158.43283656408505,-0.0001295089750783,0.0956302732229232,0,0,0
14634,510825.6748836706,2010-10-21 15:07:05,2221.120680111585,7,44,-1.0997490882873535,3.5470917224884038,43.7468693780452,43.45390654778291,174.7514126510201,158.46536890202964,-0.0001295089750783,0.0956302732229232,0,0,0
14635,510855.6900046224,2010-10-21 15:07:35,2251.135801078457,7,44,-1.099568486213684,3.544177770614624,43.7468693780452,43.46307374055468,174.7514126510201,158.4978720800574,-6.47544875391759e-05,0.0956302732229232,0,0,0
14636,510885.70514245634,2010-10-21 15:08:05,2281.150938887304,7,44,-1.099568486213684,3.540778160095215,43.7468693780452,43.472240852660015,174.7514126510201,158.530345613414,-6.47544875391759e-05,0.0956302732229232,0,0,0
14637,510915.72030885646,2010-10-21 15:08:35,2311.166105282396,7,44,-1.0993878841400146,3.537540435791016,43.7468693780452,43.48140801137354,174.7514126510201,158.56278982926852,-0.0001295089750783,0.0956302732229232,0,0,0
14638,510945.73543427937,2010-10-21 15:09:05,2341.1812307053733,7,44,-1.0993878841400146,3.5343027114868164,43.7468693780452,43.49057521801908,174.7514126510201,158.5952040637268,-6.47544875391759e-05,0.0956302732229232,0,0,0
14639,510975.75058907055,2010-10-21 15:09:35,2371.1963855316326,7,44,-1.0993878841400146,3.5307412147521973,43.7468693780452,43.49974241018546,174.7514126510201,158.6275870552252,-9.713172767078504e-05,0.0956302732229232,0,0,0
14640,511005.7658593647,2010-10-21 15:10:05,2401.2116557905856,7,44,-1.099568486213684,3.527179718017578,43.7468693780452,43.50890965086215,174.7514126510201,158.65993841401337,-0.0001295089750783,0.0956302732229232,0,0,0
14641,511035.7808819112,2010-10-21 15:10:35,2431.226678457463,7,44,-1.099568486213684,3.523780107498169,43.7468693780452,43.518076799514674,174.7514126510201,158.6922571343515,-9.713172767078504e-05,0.0956302732229232,0,0,0
14642,511065.7960350883,2010-10-21 15:11:05,2461.2418315293494,7,44,-1.099568486213684,3.52005672454834,43.7468693780452,43.52724388672499,174.7514126510201,158.72454297909195,-0.0001618862152099,0.0956302732229232,0,0,0
14643,511095.8111690075,2010-10-21 15:11:35,2491.2569654284525,7,44,-1.0993878841400146,3.5163333415985107,43.7468693780452,43.53641104485868,174.7514126510201,158.7567956151869,-9.713172767078504e-05,0.0956302732229232,0,0,0
14644,511125.8264218782,2010-10-21 15:12:05,2521.272218334156,7,44,-1.0993878841400146,3.5126099586486816,43.7468693780452,43.54557829085538,174.7514126510201,158.78901412857925,-9.713172767078504e-05,0.0956302732229232,0,0,0
14645,511155.8414388407,2010-10-21 15:12:36,2551.2872352667414,7,44,-1.0993878841400146,3.508886814117432,43.7468693780452,43.55474540590495,174.7514126510201,158.82119672776494,-3.237724376958795e-05,0.0956302732229232,0,0,0
14646,511185.8565870556,2010-10-21 15:13:06,2581.302383606835,7,44,-1.0993878841400146,3.5046777725219727,43.7468693780452,43.56391258078399,174.7514126510201,158.85334270732386,-6.47544875391759e-05,0.0956302732229232,0,0,0
14647,511215.8717690445,2010-10-21 15:13:36,2611.3175654905303,7,44,-1.0993878841400146,3.500306844711304,43.7468693780452,43.57307980150278,174.7514126510201,158.8854498654228,-9.713172767078504e-05,0.0956302732229232,0,0,0
14648,511245.8868735753,2010-10-21 15:14:06,2641.3326700064003,7,44,-1.099568486213684,3.495450258255005,43.7468693780452,43.58224694167078,174.7514126510201,158.91751538530357,-0.0001295089750783,0.0956302732229232,0,0,0
14649,511275.9024235114,2010-10-21 15:14:36,2671.3482199674577,7,44,-1.0993878841400146,3.490755558013916,43.7468693780452,43.59141422494197,174.7514126510201,158.94953826828657,-0.0001295089750783,0.0956302732229232,0,0,0
14650,511305.9171763307,2010-10-21 15:15:06,2701.362972791804,7,44,-1.099568486213684,3.4857370853424072,43.7468693780452,43.60058126215529,174.7514126510201,158.98151583697228,-0.0001295089750783,0.0956302732229232,0,0,0
14651,511335.9325540776,2010-10-21 15:15:36,2731.3783505085757,7,44,-1.099568486213684,3.4799091815948486,43.7468693780452,43.609748510105945,174.7514126510201,159.01344438024734,-0.0001295089750783,0.0956302732229232,0,0,0
14652,511365.9474520788,2010-10-21 15:16:06,2761.393248599972,7,44,-1.0993878841400146,3.47375750541687,43.7468693780452,43.618915514968926,174.7514126510201,159.0453162660334,-0.0001295089750783,0.0956302732229232,0,0,0
14653,511395.9625909001,2010-10-21 15:16:36,2791.408387411317,7,44,-1.0993878841400146,3.466472625732422,43.7468693780452,43.6280826859821,174.7514126510201,159.07712685436763,-0.0001942634553415,0.0956302732229232,0,0,0
14654,511425.9777659067,2010-10-21 15:17:06,2821.423562362734,7,44,-1.0993878841400146,3.458540201187134,43.7468693780452,43.63724985757504,174.7514126510201,159.10886858835588,-0.0001942634553415,0.0956302732229232,0,0,0
14655,511455.9928975852,2010-10-21 15:17:36,2851.4386940362906,7,44,-1.0993878841400146,3.449312686920166,43.7468693780452,43.64641704534102,174.7514126510201,159.14053209916435,-0.0002590179501567,0.0956302732229232,0,0,0
14656,511486.00802439166,2010-10-21 15:18:06,2881.453820822666,7,44,-1.099568486213684,3.4389519691467285,43.7468693780452,43.65558421312968,174.7514126510201,159.17210620022806,-0.0003237724304199,0.0956302732229232,0,0,0
14657,511516.0231625615,2010-10-21 15:18:36,2911.4689589874,7,44,-1.099568486213684,3.4264869689941406,43.7468693780452,43.664751298955245,174.7514126510201,159.20357573076996,-0.0003561496851034,0.0956302732229232,0,0,0
14658,511546.0383153576,2010-10-21 15:19:06,2941.4841117886112,7,44,-1.099568486213684,3.411917209625244,43.7468693780452,43.673918496710975,174.7514126510201,159.23492237199264,-0.0004209041653666,0.0956302732229232,0,0,0
14659,511576.0534598732,2010-10-21 15:19:36,2971.499256299161,7,44,-1.0993878841400146,3.3939478397369385,43.7468693780452,43.68308561571311,174.7514126510201,159.2661199537734,-0.0005180359003134,0.0956302732229232,0,0,0
14660,511606.0686049652,2010-10-21 15:20:06,3001.5144013911595,7,44,-1.0997490882873535,3.371283769607544,43.7468693780452,43.69225276058692,174.7514126510201,159.29713356655196,-0.0007122993702068,0.0956302732229232,0,0,0
14661,511636.0838018713,2010-10-21 15:20:36,3031.5295991694684,7,44,-1.0992072820663452,3.34295392036438,43.7468693780452,43.70141994427025,174.7514126510201,159.3279138686881,-0.0007770538213662,0.0956302732229232,0,0,0
14662,511666.09888792114,2010-10-21 15:21:06,3061.5446843521545,7,44,-1.099568486213684,3.304263114929199,43.7468693780452,43.71058707645816,174.7514126510201,159.35838974115586,-0.0011332035064697,0.0956302732229232,0,0,0
14663,511696.114162165,2010-10-21 15:21:36,3091.559958681252,7,44,-1.0993878841400146,3.251974105834961,43.7468693780452,43.71975419259457,174.7514126510201,159.38845504916057,-0.0015864849556237,0.0956302732229232,0,0,0
14664,511726.12916109775,2010-10-21 15:22:06,3121.5749575337763,7,44,-1.099568486213684,3.176859140396118,43.7468693780452,43.728921260639,174.7514126510201,159.4179449321246,-0.0023959160316735,0.0956302732229232,0,0,0
14665,511756.1443183902,2010-10-21 15:22:36,3151.590114846232,7,44,-1.099929690361023,3.061434507369995,43.7468693780452,43.73808845799195,174.7514126510201,159.44658058974582,-0.0037881373427808,0.0956302732229232,0,0,0
14666,511784.2688556959,2010-10-21 15:23:04,3179.7146521168142,7,44,-1.0992072820663452,2.8613438606262207,43.7468693780452,43.74667822875299,174.7514126510201,159.47212356644246,-0.007640981581062,0.0956302732229232,0,0,0
14667,511797.90940166847,2010-10-21 15:23:18,3193.355198099494,7,44,-1.099568486213684,2.699781894683838,43.7468693780452,43.75084428828131,174.7514126510201,159.48372313902172,-0.0103930477052927,0.0956302732229232,0,0,0
14668,511857.93138045823,2010-10-21 15:24:18,60.01478185246307,8,44,0.0,3.380835056304932,43.7468693780452,43.75084428828131,174.7514126510201,159.48372313902172,0.0013274669181555,0.0956302732229232,0,0,0
14669,511858.1269654805,2010-10-21 15:24:18,0.18742398323514,9,44,-1.9243103452026844e-05,3.3809969425201416,43.7468693780452,43.75084428928314,174.7514126510201,159.48372314240893,0.0,0.0931989923119545,0,0,0
14670,511862.9549945495,2010-10-21 15:24:23,5.015453022147506,9,44,0.0008838032954372,3.38909125328064,43.74687031799245,43.75084428936686,174.7514158333014,159.483723142692,0.0011979580158367,0.0931989923119545,0,0,0
