Data_Point,Test_Time(s),Date_Time,Step_Time(s),Step_Index,Cycle_Index,Current(A),Voltage(V),Charge_Capacity(Ah),Discharge_Capacity(Ah),Charge_Energy(Wh),Discharge_Energy(Wh),dV/dt(V/s),Internal_Resistance(Ohm),Is_FC_Data,AC_Impedance(Ohm),ACI_Phase_Angle(Deg)
1686,58704.64992637892,2010-10-16 09:30:56,30.0152100338536,1,6,0.0,3.3638370037078857,5.020213579021501,5.03735885452958,20.05376103360272,18.388182555851245,0.0007770538213662,0.0906857252120971,0,0,0
1687,58734.66510961097,2010-10-16 09:31:27,60.03039321578395,1,6,0.0,3.3892531394958496,5.020213579021501,5.03735885452958,20.05376103360272,18.388182555851245,0.0006151676061563,0.0906857252120971,0,0,0
1688,58764.68028293834,2010-10-16 09:31:57,90.0455665481662,1,6,0.0,3.408193826675415,5.020213579021501,5.03735885452958,20.05376103360272,18.388182555851245,0.0004532813909463,0.0906857252120971,0,0,0
1689,58794.648610727214,2010-10-16 09:32:26,120.01389436210246,1,6,0.0,3.4235730171203613,5.020213579021501,5.03735885452958,20.05376103360272,18.388182555851245,0.0003885269106831,0.0906857252120971,0,0,0
1690,58824.662673164734,2010-10-16 09:32:57,30.0151701444369,2,6,0.5499359965324402,3.5786595344543457,5.024800216918112,5.03735885452958,20.070006974842737,18.388182555851245,0.0016512393485754,0.0906857252120971,0,0,0
1691,58854.67785075773,2010-10-16 09:33:27,60.03034772741294,2,6,0.550297200679779,3.628682136535645,5.029386819980935,5.03735885452958,20.08654299983483,18.388182555851245,0.0011332035064697,0.0906857252120971,0,0,0
1692,58884.69304101229,2010-10-16 09:33:57,90.04553802207039,2,6,0.5501165986061096,3.664944648742676,5.033973445940477,5.03735885452958,20.10327295644032,18.388182555851245,0.0009065627818927,0.0906857252120971,0,0,0
1693,58914.70822717665,2010-10-16 09:34:27,120.06072414633394,2,6,0.5501165986061096,3.69311261177063,5.038560031812249,5.03735885452958,20.120148823599862,18.388182555851245,0.0007122993702068,0.0906857252120971,0,0,0
1694,58944.7234238422,2010-10-16 09:34:57,150.07592082189458,2,6,0.550297200679779,3.716100454330444,5.04314658529836,5.03735885452958,20.13714129579156,18.388182555851245,0.0006151676061563,0.0906857252120971,0,0,0
1695,58974.73858120978,2010-10-16 09:35:27,180.0910782396126,2,6,0.5501165986061096,3.7350411415100098,5.047733130613725,5.03735885452958,20.15422987971558,18.388182555851245,0.0004856586456298,0.0906857252120971,0,0,0
1696,59004.75379092785,2010-10-16 09:35:57,210.1062879276042,2,6,0.5501165986061096,3.750258445739746,5.052319647621835,5.03735885452958,20.17139725781385,18.388182555851245,0.0003561496851034,0.0906857252120971,0,0,0
1697,59034.76896196451,2010-10-16 09:36:27,240.1214589642648,2,6,0.5501165986061096,3.7611045837402335,5.056906138461963,5.03735885452958,20.188624879726557,18.388182555851245,0.0001942634553415,0.0906857252120971,0,0,0
1698,59064.78416694076,2010-10-16 09:36:57,270.13666397560075,2,6,0.5499359965324402,3.767256259918213,5.061492669087537,5.03735885452958,20.205890864896887,18.388182555851245,0.0001295089750783,0.0906857252120971,0,0,0
1699,59094.79933955134,2010-10-16 09:37:27,300.1518365460841,2,6,0.5501165986061096,3.771627187728882,5.066079164868377,5.03735885452958,20.223179793916547,18.388182555851245,0.0001295089750783,0.0906857252120971,0,0,0
1700,59124.81465801042,2010-10-16 09:37:57,330.16715499514174,2,6,0.5501165986061096,3.775026798248291,5.070665693182921,5.03735885452958,20.240486392339317,18.388182555851245,6.47544875391759e-05,0.0906857252120971,0,0,0
1701,59154.832663706926,2010-10-16 09:38:27,360.18516067660937,2,6,0.5501165986061096,3.7784264087677,5.075252677172508,5.03735885452958,20.25781062840576,18.388182555851245,9.713172767078504e-05,0.0906857252120971,0,0,0
1702,59184.845096388766,2010-10-16 09:38:57,390.1975933985472,2,6,0.5499359965324402,3.781826019287109,5.079838848767547,5.03735885452958,20.275147364358457,18.388182555851245,9.713172767078504e-05,0.0906857252120971,0,0,0
1703,59214.860133682094,2010-10-16 09:39:27,420.2126306818532,2,6,0.5501165986061096,3.7850637435913086,5.084425314690156,5.03735885452958,20.2925004766049,18.388182555851245,6.47544875391759e-05,0.0906857252120971,0,0,0
1704,59244.87530375636,2010-10-16 09:39:57,450.22780073606526,2,6,0.5501165986061096,3.788301467895508,5.089011885005198,5.03735885452958,20.30986906696112,18.388182555851245,6.47544875391759e-05,0.0906857252120971,0,0,0
1705,59274.89048709368,2010-10-16 09:40:27,480.2429840733829,2,6,0.5499359965324402,3.791539192199707,5.093598380308624,5.03735885452958,20.32725210680172,18.388182555851245,6.47544875391759e-05,0.0906857252120971,0,0,0
1706,59304.9056936238,2010-10-16 09:40:57,510.25819060350415,2,6,0.5501165986061096,3.794776916503906,5.098184902326974,5.03735885452958,20.34464969042266,18.388182555851245,9.713172767078504e-05,0.0906857252120971,0,0,0
1707,59334.9208678083,2010-10-16 09:41:27,540.2733647880101,2,6,0.550297200679779,3.797852754592896,5.102771512651072,5.03735885452958,20.362061901499008,18.388182555851245,6.47544875391759e-05,0.0906857252120971,0,0,0
1708,59364.93606209291,2010-10-16 09:41:57,570.2885590726117,2,6,0.5501165986061096,3.8009285926818848,5.107358081918054,5.03735885452958,20.37948799149116,18.388182555851245,3.237724376958795e-05,0.0906857252120971,0,0,0
1709,59394.95138914842,2010-10-16 09:42:27,600.3038861381443,2,6,0.5501165986061096,3.804004430770874,5.11194463483158,5.03735885452958,20.396927865721317,18.388182555851245,9.713172767078504e-05,0.0906857252120971,0,0,0
1710,59424.96647267698,2010-10-16 09:42:57,630.3189696817453,2,6,0.5501165986061096,3.806918382644653,5.116531146861478,5.03735885452958,20.414381406948973,18.388182555851245,6.47544875391759e-05,0.0906857252120971,0,0,0
1711,59454.98163747309,2010-10-16 09:43:27,660.3341344477775,2,6,0.5501165986061096,3.8099942207336426,5.121117710672927,5.03735885452958,20.431848934872196,18.388182555851245,9.713172767078504e-05,0.0906857252120971,0,0,0
1712,59484.99682661487,2010-10-16 09:43:57,690.3493235945741,2,6,0.5501165986061096,3.812908172607422,5.125704339884448,5.03735885452958,20.44933058556201,18.388182555851245,3.237724376958795e-05,0.0906857252120971,0,0,0
1713,59515.01201209252,2010-10-16 09:44:27,720.3645090672136,2,6,0.5501165986061096,3.815984010696411,5.130290821851673,5.03735885452958,20.466826036626703,18.388182555851245,6.47544875391759e-05,0.0906857252120971,0,0,0
1714,59545.02721644722,2010-10-16 09:44:57,750.3797134269256,2,6,0.5501165986061096,3.81938362121582,5.134877396058038,5.03735885452958,20.484336158786345,18.388182555851245,0.0001295089750783,0.0906857252120971,0,0,0
1715,59575.042413478666,2010-10-16 09:45:27,780.3949104583731,2,6,0.550297200679779,3.8224594593048096,5.139463946115098,5.03735885452958,20.501860854162665,18.388182555851245,6.47544875391759e-05,0.0906857252120971,0,0,0
1716,59605.05760879083,2010-10-16 09:45:57,810.4101057705359,2,6,0.5499359965324402,3.8258590698242183,5.144050511925674,5.03735885452958,20.519400665803097,18.388182555851245,9.713172767078504e-05,0.0906857252120971,0,0,0
1717,59635.07298063296,2010-10-16 09:46:27,840.4254777279529,2,6,0.5501165986061096,3.829258680343628,5.148637066973415,5.03735885452958,20.536955843509773,18.388182555851245,9.713172767078504e-05,0.0906857252120971,0,0,0
1718,59665.08827889672,2010-10-16 09:46:57,870.4407759315525,2,6,0.5501165986061096,3.832658290863037,5.153223659431823,5.03735885452958,20.55452691576321,18.388182555851245,9.713172767078504e-05,0.0906857252120971,0,0,0
1719,59695.10315970503,2010-10-16 09:47:27,900.4556567047873,2,6,0.5499359965324402,3.836057662963867,5.157810132983759,5.03735885452958,20.572113232409457,18.388182555851245,6.47544875391759e-05,0.0906857252120971,0,0,0
1720,59725.11834594458,2010-10-16 09:47:57,930.4708429242884,2,6,0.5501165986061096,3.839457273483277,5.162396684872996,5.03735885452958,20.58971561704813,18.388182555851245,9.713172767078504e-05,0.0906857252120971,0,0,0
1721,59755.13353719663,2010-10-16 09:48:27,960.4860341963818,2,6,0.5501165986061096,3.8428568840026855,5.166983179029384,5.03735885452958,20.607333312305105,18.388182555851245,6.47544875391759e-05,0.0906857252120971,0,0,0
1722,59785.14874199744,2010-10-16 09:48:57,990.5012389771432,2,6,0.550297200679779,3.846256494522095,5.171569674332268,5.03735885452958,20.624966191535684,18.388182555851245,9.713172767078504e-05,0.0906857252120971,0,0,0
1723,59815.16391979595,2010-10-16 09:49:27,1020.5164167706438,2,6,0.5501165986061096,3.849332332611084,5.176156240075073,5.03735885452958,20.64261438397636,18.388182555851245,9.713172767078504e-05,0.0906857252120971,0,0,0
1724,59845.17912730351,2010-10-16 09:49:57,1050.5316243032637,2,6,0.5501165986061096,3.852570056915283,5.180742818555869,5.03735885452958,20.660277331716973,18.388182555851245,6.47544875391759e-05,0.0906857252120971,0,0,0
1725,59875.19431262076,2010-10-16 09:50:27,1080.5468095904407,2,6,0.5501165986061096,3.855645895004273,5.185329345444606,5.03735885452958,20.677954400368627,18.388182555851245,6.47544875391759e-05,0.0906857252120971,0,0,0
1726,59905.20951147174,2010-10-16 09:50:57,1110.5620085667356,2,6,0.5499359965324402,3.858559846878052,5.189915822017632,5.03735885452958,20.69564536603281,18.388182555851245,3.237724376958795e-05,0.0906857252120971,0,0,0
1727,59935.22468471891,2010-10-16 09:51:27,1140.5771816936056,2,6,0.5501165986061096,3.861797571182251,5.194502281489712,5.03735885452958,20.71334989096377,18.388182555851245,9.713172767078504e-05,0.0906857252120971,0,0,0
1728,59965.2398931588,2010-10-16 09:51:57,1170.592390168574,2,6,0.5501165986061096,3.8643877506256095,5.199088821174764,5.03735885452958,20.73106790819504,18.388182555851245,6.47544875391759e-05,0.0906857252120971,0,0,0
1729,59995.25506572426,2010-10-16 09:52:27,1200.6075626939448,2,6,0.5499359965324402,3.86713981628418,5.203675278505022,5.03735885452958,20.74879817691016,18.388182555851245,6.47544875391759e-05,0.0906857252120971,0,0,0
1730,60025.270229928894,2010-10-16 09:52:57,1230.622726938678,2,6,0.550297200679779,3.869729995727539,5.208261951754265,5.03735885452958,20.766541332200024,18.388182555851245,6.47544875391759e-05,0.0906857252120971,0,0,0
1731,60055.28542189272,2010-10-16 09:53:27,1260.6379188924705,2,6,0.5501165986061096,3.872158288955689,5.212849315345459,5.03735885452958,20.784298635064896,18.388182555851245,6.47544875391759e-05,0.0906857252120971,0,0,0
1732,60085.30057955103,2010-10-16 09:53:57,1290.6530765858756,2,6,0.5501165986061096,3.874262809753418,5.217436563688943,5.03735885452958,20.802066260044136,18.388182555851245,3.237724376958795e-05,0.0906857252120971,0,0,0
1733,60115.31594059124,2010-10-16 09:54:27,1320.668437570946,2,6,0.5504778623580933,3.876691102981568,5.222023952309482,5.03735885452958,20.819844532990885,18.388182555851245,9.713172767078504e-05,0.0906857252120971,0,0,0
1734,60145.33101073144,2010-10-16 09:54:57,1350.6835077412163,2,6,0.5501165986061096,3.878633737564087,5.226611289001207,5.03735885452958,20.83763209277394,18.388182555851245,9.713172767078504e-05,0.0906857252120971,0,0,0
1735,60175.346187677824,2010-10-16 09:55:27,1380.6986846825937,2,6,0.550297200679779,3.880414485931397,5.231198655625539,5.03735885452958,20.85542862579332,18.388182555851245,6.47544875391759e-05,0.0906857252120971,0,0,0
1736,60205.36124486574,2010-10-16 09:55:57,1410.713741900583,2,6,0.5501165986061096,3.882033348083496,5.23578589917263,5.03735885452958,20.8732329273004,18.388182555851245,3.237724376958795e-05,0.0906857252120971,0,0,0
1737,60235.37657901392,2010-10-16 09:56:27,1440.7290760487676,2,6,0.5501165986061096,3.883652210235596,5.240372549599688,5.03735885452958,20.891042584555983,18.388182555851245,3.237724376958795e-05,0.0906857252120971,0,0,0
1738,60265.39191691647,2010-10-16 09:56:57,1470.7444139513093,2,6,0.5499359965324402,3.8852710723876953,5.2449592164514,5.03735885452958,20.908859396977263,18.388182555851245,3.237724376958795e-05,0.0906857252120971,0,0,0
1739,60295.40692376391,2010-10-16 09:57:27,1500.7594207736977,2,6,0.550297200679779,3.886728048324585,5.249545784137126,5.03735885452958,20.92668252586048,18.388182555851245,3.237724376958795e-05,0.0906857252120971,0,0,0
1740,60325.422111166365,2010-10-16 09:57:57,1530.7746081510843,2,6,0.5501165986061096,3.8880231380462646,5.254132352750054,5.03735885452958,20.944511977480406,18.388182555851245,3.237724376958795e-05,0.0906857252120971,0,0,0
1741,60355.43746343471,2010-10-16 09:58:27,1560.7899605497548,2,6,0.5499359965324402,3.889318227767944,5.25871899796227,5.03735885452958,20.962347837724707,18.388182555851245,3.237724376958795e-05,0.0906857252120971,0,0,0
1742,60385.45252892833,2010-10-16 09:58:57,1590.8050259080323,2,6,0.550297200679779,3.890613317489624,5.263305760949622,5.03735885452958,20.98018998913753,18.388182555851245,3.237724376958795e-05,0.0906857252120971,0,0,0
1743,60415.46770127826,2010-10-16 09:59:27,1620.820198257966,2,6,0.5501165986061096,3.8917465209960938,5.267892500459073,5.03735885452958,20.998037886681363,18.388182555851245,3.237724376958795e-05,0.0906857252120971,0,0,0
1744,60445.48291394868,2010-10-16 09:59:57,1650.8354117805145,2,6,0.5501165986061096,3.893041610717773,5.27247925603874,5.03735885452958,21.01589148872818,18.388182555851245,3.237724376958795e-05,0.0906857252120971,0,0,0
1745,60475.49808834372,2010-10-16 10:00:27,1680.8505853434715,2,6,0.5501165986061096,3.894336700439453,5.277065950010607,5.03735885452958,21.033750464930986,18.388182555851245,6.47544875391759e-05,0.0906857252120971,0,0,0
1746,60505.513416552094,2010-10-16 10:00:58,1710.8659135418272,2,6,0.5501165986061096,3.895469903945923,5.28165275974663,5.03735885452958,21.05161510895066,18.388182555851245,6.47544875391759e-05,0.0906857252120971,0,0,0
1747,60535.52847318864,2010-10-16 10:01:28,1740.8809701633302,2,6,0.5501165986061096,3.8966031074523926,5.286239425524226,5.03735885452958,21.069484711401945,18.388182555851245,3.237724376958795e-05,0.0906857252120971,0,0,0
1748,60565.543657037226,2010-10-16 10:01:58,1770.8961540419969,2,6,0.5499359965324402,3.8977363109588623,5.29082610614888,5.03735885452958,21.08735996360421,18.388182555851245,0.0,0.0906857252120971,0,0,0
1749,60595.55906876376,2010-10-16 10:02:28,1800.9115657935931,2,6,0.5501165986061096,3.899031400680542,5.295412829716996,5.03735885452958,21.10524094829669,18.388182555851245,3.237724376958795e-05,0.0906857252120971,0,0,0
1750,60625.574045420966,2010-10-16 10:02:58,1830.9265424006755,2,6,0.5501165986061096,3.9003264904022217,5.299999546297048,5.03735885452958,21.12312749347503,18.388182555851245,3.237724376958795e-05,0.0906857252120971,0,0,0
1751,60655.58922650266,2010-10-16 10:03:28,1860.9417235024216,2,6,0.5499359965324402,3.9012978076934814,5.304586265917875,5.03735885452958,21.141019606064237,18.388182555851245,0.0,0.0906857252120971,0,0,0
1752,60685.60443698765,2010-10-16 10:03:58,1890.9569339673496,2,6,0.550297200679779,3.902754783630371,5.30917300771627,5.03735885452958,21.158917484321968,18.388182555851245,3.237724376958795e-05,0.0906857252120971,0,0,0
1753,60715.61960815463,2010-10-16 10:04:28,1920.9721051293225,2,6,0.5501165986061096,3.904049873352051,5.313759744168471,5.03735885452958,21.17682102979321,18.388182555851245,3.237724376958795e-05,0.0906857252120971,0,0,0
1754,60745.63489002753,2010-10-16 10:04:58,1950.9873870373085,2,6,0.5501165986061096,3.905183076858521,5.318346554766617,5.03735885452958,21.19473065131368,18.388182555851245,3.237724376958795e-05,0.0906857252120971,0,0,0
1755,60775.64999254843,2010-10-16 10:05:28,1981.002489523119,2,6,0.5501165986061096,3.9063162803649902,5.322933262215588,5.03735885452958,21.21264545801076,18.388182555851245,0.0,0.0906857252120971,0,0,0
1756,60805.665220627256,2010-10-16 10:05:58,2011.0177176420464,2,6,0.5501165986061096,3.90777325630188,5.327519947942222,5.03735885452958,21.230566053021217,18.388182555851245,6.47544875391759e-05,0.0906857252120971,0,0,0
1757,60835.68036472678,2010-10-16 10:06:28,2041.032861696459,2,6,0.5501165986061096,3.90906834602356,5.332106638825682,5.03735885452958,21.248492482353196,18.388182555851245,3.237724376958795e-05,0.0906857252120971,0,0,0
1758,60865.69569709553,2010-10-16 10:06:58,2071.048194115333,2,6,0.5501165986061096,3.910201549530029,5.336693385585103,5.03735885452958,21.266425092025862,18.388182555851245,0.0,0.0906857252120971,0,0,0
1759,60895.71076267435,2010-10-16 10:07:28,2101.0632596690984,2,6,0.550297200679779,3.911658525466919,5.341280035447966,5.03735885452958,21.284363149134705,18.388182555851245,6.47544875391759e-05,0.0906857252120971,0,0,0
1760,60925.72594735001,2010-10-16 10:07:58,2131.078444329714,2,6,0.5501165986061096,3.912953615188599,5.345866726844983,5.03735885452958,21.30230740613962,18.388182555851245,6.47544875391759e-05,0.0906857252120971,0,0,0
1761,60955.74112986027,2010-10-16 10:08:28,2161.09362683997,2,6,0.5499359965324402,3.914248466491699,5.350453411120705,5.03735885452958,21.32025765054705,18.388182555851245,6.47544875391759e-05,0.0906857252120971,0,0,0
1762,60985.75633461095,2010-10-16 10:08:58,2191.108831590657,2,6,0.5499359965324402,3.915381669998169,5.35504012453409,5.03735885452958,21.338214132495537,18.388182555851245,0.0,0.0906857252120971,0,0,0
1763,61015.77151490067,2010-10-16 10:09:28,2221.1240118753663,2,6,0.5501165986061096,3.9168386459350586,5.359626849557517,5.03735885452958,21.356176599445018,18.388182555851245,3.237724376958795e-05,0.0906857252120971,0,0,0
1764,61045.78670494471,2010-10-16 10:09:58,2251.139201924412,2,6,0.5501165986061096,3.918295621871948,5.364213570612778,5.03735885452958,21.37414534269546,18.388182555851245,3.237724376958795e-05,0.0906857252120971,0,0,0
1765,61075.80283415944,2010-10-16 10:10:28,2281.155331274484,2,6,0.5501165986061096,3.919590711593628,5.368800382869777,5.03735885452958,21.3921206629812,18.388182555851245,3.237724376958795e-05,0.0906857252120971,0,0,0
1766,61105.80459246746,2010-10-16 10:10:58,2311.157089602548,2,6,0.550297200679779,3.9210476875305176,5.373385037322685,5.03735885452958,21.41009384671824,18.388182555851245,3.237724376958795e-05,0.0906857252120971,0,0,0
1767,61135.816675116905,2010-10-16 10:11:28,2341.1691720915974,2,6,0.5501165986061096,3.922342777252197,5.377971254103367,5.03735885452958,21.42807942787841,18.388182555851245,3.237724376958795e-05,0.0906857252120971,0,0,0
1768,61165.83185031393,2010-10-16 10:11:58,2371.1843473036643,2,6,0.5501165986061096,3.923799753189087,5.382557906903066,5.03735885452958,21.44607316153945,18.388182555851245,6.47544875391759e-05,0.0906857252120971,0,0,0
1769,61195.84713795621,2010-10-16 10:12:28,2401.199634965992,2,6,0.5501165986061096,3.925256729125977,5.387144571068082,5.03735885452958,21.46407339930412,18.388182555851245,6.47544875391759e-05,0.0906857252120971,0,0,0
1770,61225.86220314406,2010-10-16 10:12:58,2431.2147001187573,2,6,0.5501165986061096,3.926551818847656,5.391731335321795,5.03735885452958,21.482080506904428,18.388182555851245,3.237724376958795e-05,0.0906857252120971,0,0,0
1771,61255.87742747356,2010-10-16 10:13:28,2461.22992446829,2,6,0.5501165986061096,3.928008794784546,5.396318070484912,5.03735885452958,21.50009410210046,18.388182555851245,3.237724376958795e-05,0.0906857252120971,0,0,0
1772,61285.892623061394,2010-10-16 10:13:58,2491.2451200611526,2,6,0.5501165986061096,3.929465770721436,5.400904774648298,5.03735885452958,21.518114174543676,18.388182555851245,3.237724376958795e-05,0.0906857252120971,0,0,0
1773,61315.9077880179,2010-10-16 10:14:28,2521.260284997609,2,6,0.5499359965324402,3.930922746658325,5.405491453753074,5.03735885452958,21.53614084657813,18.388182555851245,3.237724376958795e-05,0.0906857252120971,0,0,0
1774,61345.92310556471,2010-10-16 10:14:58,2551.2756025444187,2,6,0.5499359965324402,3.932379722595215,5.410078165043331,5.03735885452958,21.554174274269023,18.388182555851245,3.237724376958795e-05,0.0906857252120971,0,0,0
1775,61375.93818934891,2010-10-16 10:15:28,2581.2906863536814,2,6,0.5501165986061096,3.933836698532105,5.414664808873963,5.03735885452958,21.572214269700005,18.388182555851245,3.237724376958795e-05,0.0906857252120971,0,0,0
1776,61405.95335294202,2010-10-16 10:15:58,2611.30584994679,2,6,0.5501165986061096,3.935455560684204,5.419251525124337,5.03735885452958,21.59026140218199,18.388182555851245,3.237724376958795e-05,0.0906857252120971,0,0,0
1777,61435.96854030938,2010-10-16 10:16:28,2641.321037284077,2,6,0.5501165986061096,3.936750650405884,5.423838281512134,5.03735885452958,21.60831545958212,18.388182555851245,6.47544875391759e-05,0.0906857252120971,0,0,0
1778,61465.98376863382,2010-10-16 10:16:58,2671.336265633579,2,6,0.5501165986061096,3.938531398773194,5.428424993030853,5.03735885452958,21.626376374471185,18.388182555851245,6.47544875391759e-05,0.0906857252120971,0,0,0
1779,61495.99893861786,2010-10-16 10:17:28,2701.3514355975663,2,6,0.5501165986061096,3.939988374710083,5.43301162175939,5.03735885452958,21.64444393614879,18.388182555851245,0.0,0.0906857252120971,0,0,0
1780,61526.0141155041,2010-10-16 10:17:58,2731.366612599093,2,6,0.550297200679779,3.9414453506469727,5.437598265965502,5.03735885452958,21.662518643573765,18.388182555851245,6.47544875391759e-05,0.0906857252120971,0,0,0
1781,61556.02930424488,2010-10-16 10:18:28,2761.3818012245906,2,6,0.5501165986061096,3.943064212799072,5.442184956163419,5.03735885452958,21.680600622617387,18.388182555851245,3.237724376958795e-05,0.0906857252120971,0,0,0
1782,61586.044707595545,2010-10-16 10:18:58,2791.3972046003114,2,6,0.5501165986061096,3.944683074951172,5.446771709530535,5.03735885452958,21.698690012629346,18.388182555851245,3.237724376958795e-05,0.0906857252120971,0,0,0
1783,61616.05998480682,2010-10-16 10:19:28,2821.412481916854,2,6,0.5501165986061096,3.9461400508880615,5.451358386527134,5.03735885452958,21.71678634775581,18.388182555851245,3.237724376958795e-05,0.0906857252120971,0,0,0
1784,61646.07488380047,2010-10-16 10:19:58,2851.4273808052376,2,6,0.550297200679779,3.947920799255371,5.45594501039859,5.03735885452958,21.73488961250334,18.388182555851245,6.47544875391759e-05,0.0906857252120971,0,0,0
1785,61676.09009618519,2010-10-16 10:20:28,2881.4425931799256,2,6,0.5501165986061096,3.949215888977051,5.460531673135462,5.03735885452958,21.753000374835057,18.388182555851245,0.0,0.0906857252120971,0,0,0
1786,61706.10533295568,2010-10-16 10:20:58,2911.4578299754776,2,6,0.5501165986061096,3.95099663734436,5.465118357652735,5.03735885452958,21.77111861368928,18.388182555851245,3.237724376958795e-05,0.0906857252120971,0,0,0
1787,61736.12060988625,2010-10-16 10:21:28,2941.473106896033,2,6,0.5501165986061096,3.95261549949646,5.469705161386846,5.03735885452958,21.789244800694945,18.388182555851245,3.237724376958795e-05,0.0906857252120971,0,0,0
1788,61766.13565645269,2010-10-16 10:21:58,2971.488153462476,2,6,0.550297200679779,3.9543962478637695,5.474291807749091,5.03735885452958,21.807377859735738,18.388182555851245,6.47544875391759e-05,0.0906857252120971,0,0,0
1789,61796.15083717349,2010-10-16 10:22:28,3001.503334148185,2,6,0.5499359965324402,3.956015110015869,5.478878489102846,5.03735885452958,21.825518553381592,18.388182555851245,6.47544875391759e-05,0.0906857252120971,0,0,0
1790,61826.16603308214,2010-10-16 10:22:58,3031.5185300618464,2,6,0.5499359965324402,3.957472085952759,5.483465249453916,5.03735885452958,21.843667156541844,18.388182555851245,0.0,0.0906857252120971,0,0,0
1791,61856.18138076405,2010-10-16 10:23:28,3061.533877849024,2,6,0.550297200679779,3.959252834320069,5.488051972919315,5.03735885452958,21.861823348099243,18.388182555851245,3.237724376958795e-05,0.0906857252120971,0,0,0
1792,61886.196420182685,2010-10-16 10:23:58,3091.548917187452,2,6,0.550297200679779,3.960871696472168,5.492638675981969,5.03735885452958,21.879987156506846,18.388182555851245,3.237724376958795e-05,0.0906857252120971,0,0,0
1793,61916.211724230845,2010-10-16 10:24:28,3121.564221210556,2,6,0.5501165986061096,3.962490558624268,5.497225439274966,5.03735885452958,21.89815899670127,18.388182555851245,3.237724376958795e-05,0.0906857252120971,0,0,0
1794,61946.22680747372,2010-10-16 10:24:58,3151.579304483482,2,6,0.5499359965324402,3.964271306991577,5.501812149686074,5.03735885452958,21.9163384300186,18.388182555851245,0.0,0.0906857252120971,0,0,0
1795,61976.2421253363,2010-10-16 10:25:28,3181.594622316002,2,6,0.5501165986061096,3.966052055358887,5.506398893622221,5.03735885452958,21.93452594108629,18.388182555851245,0.0,0.0906857252120971,0,0,0
1796,62006.25716635391,2010-10-16 10:25:58,3211.609663333616,2,6,0.550297200679779,3.967832803726196,5.51098565478309,5.03735885452958,21.95272148722964,18.388182555851245,6.47544875391759e-05,0.0906857252120971,0,0,0
1797,62036.27248251226,2010-10-16 10:26:28,3241.624979532065,2,6,0.5501165986061096,3.969613552093506,5.51557243759208,5.03735885452958,21.970925167110497,18.388182555851245,6.47544875391759e-05,0.0906857252120971,0,0,0
1798,62066.28767281192,2010-10-16 10:26:58,3271.6401697916344,2,6,0.5501165986061096,3.971394300460816,5.520159192580276,5.03735885452958,21.989136827237104,18.388182555851245,3.237724376958795e-05,0.0906857252120971,0,0,0
1799,62096.30289432439,2010-10-16 10:27:28,3301.655391309109,2,6,0.5501165986061096,3.973175048828125,5.524746005749106,5.03735885452958,22.00735692171721,18.388182555851245,6.47544875391759e-05,0.0906857252120971,0,0,0
1800,62126.31794084071,2010-10-16 10:27:58,3331.670437820414,2,6,0.5501165986061096,3.975117683410645,5.529332751739823,5.03735885452958,22.025585036687065,18.388182555851245,6.47544875391759e-05,0.0906857252120971,0,0,0
1801,62156.33330035712,2010-10-16 10:28:28,3361.685797336824,2,6,0.550297200679779,3.977060317993164,5.533919474372823,5.03735885452958,22.043821395600027,18.388182555851245,6.47544875391759e-05,0.0906857252120971,0,0,0
1802,62186.348346622806,2010-10-16 10:28:58,3391.700843602517,2,6,0.5501165986061096,3.978679180145264,5.538506248404904,5.03735885452958,22.062066037165835,18.388182555851245,6.47544875391759e-05,0.0906857252120971,0,0,0
1803,62216.36359396966,2010-10-16 10:29:28,3421.716090979441,2,6,0.5501165986061096,3.980621814727783,5.543092931035313,5.03735885452958,22.08031930390644,18.388182555851245,6.47544875391759e-05,0.0906857252120971,0,0,0
1804,62246.378698936656,2010-10-16 10:29:58,3451.731195916361,2,6,0.5501165986061096,3.9824025630950928,5.547679588354421,5.03735885452958,22.09858114890455,18.388182555851245,6.47544875391759e-05,0.0906857252120971,0,0,0
1805,62276.39389091551,2010-10-16 10:30:28,3481.746387890204,2,6,0.5501165986061096,3.984345197677612,5.552266221643394,5.03735885452958,22.11685153874496,18.388182555851245,3.237724376958795e-05,0.0906857252120971,0,0,0
1806,62306.409228271696,2010-10-16 10:30:58,3511.761725276458,2,6,0.5501165986061096,3.986287832260132,5.556852922765541,5.03735885452958,22.135131106539063,18.388182555851245,6.47544875391759e-05,0.0906857252120971,0,0,0
1807,62336.42430874765,2010-10-16 10:31:28,3541.7768058426386,2,6,0.5501165986061096,3.9882304668426514,5.561439542140622,5.03735885452958,22.153419285338018,18.388182555851245,6.47544875391759e-05,0.0906857252120971,0,0,0
1808,62366.43946174435,2010-10-16 10:31:58,3571.7919587491133,2,6,0.5499359965324402,3.990011215209961,5.566026197654239,5.03735885452958,22.171716593206664,18.388182555851245,0.0,0.0906857252120971,0,0,0
1809,62396.45465708658,2010-10-16 10:32:28,3601.8071540863384,2,6,0.550297200679779,3.992277622222901,5.570612827271323,5.03735885452958,22.190022957590195,18.388182555851245,9.713172767078504e-05,0.0906857252120971,0,0,0
1810,62426.46983836878,2010-10-16 10:32:58,3631.8223353785584,2,6,0.5499359965324402,3.994220018386841,5.575199507891962,5.03735885452958,22.20833878954808,18.388182555851245,6.470680091297254e-05,0.0906857252120971,0,0,0
1811,62456.48517910839,2010-10-16 10:33:29,3661.8376760981214,2,6,0.5501165986061096,3.99616265296936,5.57978617930616,5.03735885452958,22.22666398912375,18.388182555851245,3.237724376958795e-05,0.0906857252120971,0,0,0
1812,62486.50022358462,2010-10-16 10:33:59,3691.8527205643295,2,6,0.5501165986061096,3.9984290599823,5.58437282960695,5.03735885452958,22.24499866192348,18.388182555851245,3.237724376958795e-05,0.0906857252120971,0,0,0
1813,62516.51554475546,2010-10-16 10:34:29,3721.8680417752703,2,6,0.5501165986061096,4.000371932983398,5.588959510570311,5.03735885452958,22.26334289915052,18.388182555851245,3.24249267578125e-05,0.0906857252120971,0,0,0
1814,62546.53072511035,2010-10-16 10:34:59,3751.8832221101056,2,6,0.550297200679779,4.002799987792969,5.593546117415701,5.03735885452958,22.281696578589617,18.388182555851245,0.0001295089750783,0.0906857252120971,0,0,0
1815,62576.54585527013,2010-10-16 10:35:29,3781.8983522999633,2,6,0.550297200679779,4.004904747009277,5.598132749429168,5.03735885452958,22.300060222893325,18.388182555851245,9.71794142969884e-05,0.0906857252120971,0,0,0
1816,62606.561039093656,2010-10-16 10:35:59,3811.913536108455,2,6,0.5501165986061096,4.007009029388428,5.602719371704819,5.03735885452958,22.31843375071537,18.388182555851245,6.47544875391759e-05,0.0906857252120971,0,0,0
1817,62636.57621688215,2010-10-16 10:36:29,3841.928713886919,2,6,0.5499359965324402,4.008951663970947,5.607305998840671,5.03735885452958,22.336817283495225,18.388182555851245,0.0,0.0906857252120971,0,0,0
1818,62666.59139997886,2010-10-16 10:36:59,3871.943896993661,2,6,0.5501165986061096,4.011380195617676,5.611892600762574,5.03735885452958,22.355210774475765,18.388182555851245,3.24249267578125e-05,0.0906857252120971,0,0,0
1819,62696.60672958072,2010-10-16 10:37:29,3901.959226600527,2,6,0.5501165986061096,4.013646602630615,5.616479224616063,5.03735885452958,22.37361449690953,18.388182555851245,6.47544875391759e-05,0.0906857252120971,0,0,0
1820,62726.62181080354,2010-10-16 10:37:59,3931.9743079135696,2,6,0.5501165986061096,4.015750885009766,5.621065793365583,5.03735885452958,22.392028203428023,18.388182555851245,3.23295607813634e-05,0.0906857252120971,0,0,0
1821,62756.63694333423,2010-10-16 10:38:29,3961.9894403289736,2,6,0.5499359965324402,4.018017292022705,5.625651829544133,5.03735885452958,22.410450011207345,18.388182555851245,6.47544875391759e-05,0.0906857252120971,0,0,0
1822,62786.65213175923,2010-10-16 10:38:59,3992.004628758984,2,6,0.5501165986061096,4.020445823669434,5.6302376062524,5.03735885452958,22.428881019616163,18.388182555851245,9.71794142969884e-05,0.0906857252120971,0,0,0
1823,62816.66734755244,2010-10-16 10:39:29,4022.0198445872784,2,6,0.5499359965324402,4.022550106048584,5.634823534877508,5.03735885452958,22.44732318331185,18.388182555851245,6.47544875391759e-05,0.0906857252120971,0,0,0
1824,62846.68252832837,2010-10-16 10:39:59,4052.0350253381503,2,6,0.5497553944587708,4.0249786376953125,5.639409313673875,5.03735885452958,22.465775307922065,18.388182555851245,6.47544875391759e-05,0.0906857252120971,0,0,0
1825,62876.6977204576,2010-10-16 10:40:29,4082.050217452343,2,6,0.5499359965324402,4.027245044708252,5.643995085924541,5.03735885452958,22.484238036539303,18.388182555851245,9.71794142969884e-05,0.0906857252120971,0,0,0
1826,62906.71290793524,2010-10-16 10:40:59,4112.065404955041,2,6,0.5499359965324402,4.029511451721191,5.648580912429252,5.03735885452958,22.502711734422043,18.388182555851245,3.24249267578125e-05,0.0906857252120971,0,0,0
1827,62936.72817114161,2010-10-16 10:41:29,4142.080668141368,2,6,0.550297200679779,4.031939506530762,5.653167154611942,5.03735885452958,22.52119796068731,18.388182555851245,3.23295607813634e-05,0.0906857252120971,0,0,0
1828,62966.74331490029,2010-10-16 10:41:59,4172.095811930119,2,6,0.5501165986061096,4.034529685974121,5.657753785345547,5.03735885452958,22.53969681229197,18.388182555851245,6.47544875391759e-05,0.0906857252120971,0,0,0
1829,62996.75848636802,2010-10-16 10:42:29,4202.110983372791,2,6,0.550297200679779,4.0367960929870605,5.66234045646303,5.03735885452958,22.55820685392318,18.388182555851245,6.47544875391759e-05,0.0906857252120971,0,0,0
1830,63026.775191247485,2010-10-16 10:42:59,4232.127688227197,2,6,0.5501165986061096,4.039224147796631,5.666927333902136,5.03735885452958,22.576728922062497,18.388182555851245,3.23295607813634e-05,0.0906857252120971,0,0,0
1831,63056.78892271129,2010-10-16 10:43:29,4262.141419816311,2,6,0.5501165986061096,4.04181432723999,5.671513780781312,5.03735885452958,22.595260448959383,18.388182555851245,6.47544875391759e-05,0.0906857252120971,0,0,0
1832,63086.80406526697,2010-10-16 10:43:59,4292.156562276752,2,6,0.550297200679779,4.04440450668335,5.676100387455598,5.03735885452958,22.61380404653237,18.388182555851245,6.47544875391759e-05,0.0906857252120971,0,0,0
1833,63116.81928488972,2010-10-16 10:44:29,4322.171781879453,2,6,0.550297200679779,4.046833038330078,5.680687159500081,5.03735885452958,22.632359817548963,18.388182555851245,6.47544875391759e-05,0.0906857252120971,0,0,0
1834,63146.83460699289,2010-10-16 10:44:59,4352.187103982618,2,6,0.550297200679779,4.0494232177734375,5.685273874832824,5.03735885452958,22.65092699387683,18.388182555851245,9.71794142969884e-05,0.0906857252120971,0,0,0
1835,63176.849659133215,2010-10-16 10:45:29,4382.202156112928,2,6,0.5501165986061096,4.051851272583008,5.689860546099523,5.03735885452958,22.669505673834923,18.388182555851245,9.70840483205393e-05,0.0906857252120971,0,0,0
1836,63206.86482579899,2010-10-16 10:45:59,4412.217322778694,2,6,0.5501165986061096,4.054603576660156,5.694447198773075,5.03735885452958,22.68809610972189,18.388182555851245,0.0001295089750783,0.0906857252120971,0,0,0
1837,63236.880022213896,2010-10-16 10:46:29,4442.2325191785685,2,6,0.5501165986061096,4.057031631469727,5.699033887445435,5.03735885452958,22.706698661219686,18.388182555851245,6.47544875391759e-05,0.0906857252120971,0,0,0
1838,63266.8953375903,2010-10-16 10:46:59,4472.24783466023,2,6,0.5501165986061096,4.059783935546875,5.703620636208121,5.03735885452958,22.72531355376334,18.388182555851245,9.71794142969884e-05,0.0906857252120971,0,0,0
1839,63296.91041236204,2010-10-16 10:47:29,4502.26290937182,2,6,0.5501165986061096,4.062211990356445,5.70820731211983,5.03735885452958,22.74393999843671,18.388182555851245,6.47544875391759e-05,0.0906857252120971,0,0,0
1840,63326.9255937896,2010-10-16 10:47:59,4532.278090809402,2,6,0.550297200679779,4.065125942230225,5.71279396073691,5.03735885452958,22.76257859922992,18.388182555851245,9.70840483205393e-05,0.0906857252120971,0,0,0
1841,63356.940811673005,2010-10-16 10:48:29,4562.293308667757,2,6,0.5501165986061096,4.067878246307373,5.717380620575129,5.03735885452958,22.781229617508973,18.388182555851245,9.71794142969884e-05,0.0906857252120971,0,0,0
1842,63386.955982519205,2010-10-16 10:48:59,4592.308479498905,2,6,0.5499359965324402,4.070468425750732,5.721967310883416,5.03735885452958,22.79989333151731,18.388182555851245,6.47544875391759e-05,0.0906857252120971,0,0,0
1843,63416.97127916391,2010-10-16 10:49:29,4622.323776293994,2,6,0.550297200679779,4.073220252990723,5.726553997783624,5.03735885452958,22.81856964360867,18.388182555851245,6.47544875391759e-05,0.0906857252120971,0,0,0
1844,63446.98635895817,2010-10-16 10:49:59,4652.338855937875,2,6,0.5501165986061096,4.076134204864502,5.731140659728108,5.03735885452958,22.837258629710867,18.388182555851245,9.70840483205393e-05,0.0906857252120971,0,0,0
1845,63477.00155241571,2010-10-16 10:50:29,4682.354049425491,2,6,0.5501165986061096,4.07888650894165,5.735727354816647,5.03735885452958,22.85596059843464,18.388182555851245,9.71794142969884e-05,0.0906857252120971,0,0,0
1846,63507.01707229178,2010-10-16 10:50:59,4712.369569271492,2,6,0.5499359965324402,4.08147668838501,5.740314116074941,5.03735885452958,22.874675798066995,18.388182555851245,3.24249267578125e-05,0.0906857252120971,0,0,0
1847,63537.03222046646,2010-10-16 10:51:29,4742.384717451186,2,6,0.5501165986061096,4.08455228805542,5.744900723110332,5.03735885452958,22.89340340517886,18.388182555851245,9.70840483205393e-05,0.0906857252120971,0,0,0
1848,63567.0472721657,2010-10-16 10:51:59,4772.399769170472,2,6,0.5501165986061096,4.087466239929199,5.749487356407793,5.03735885452958,22.912144369720217,18.388182555851245,9.70840483205393e-05,0.0906857252120971,0,0,0
1849,63597.06232041133,2010-10-16 10:52:29,4802.414817396048,2,6,0.5504778623580933,4.090542316436768,5.754073942233343,5.03735885452958,22.930898449370417,18.388182555851245,0.0001295089750783,0.0906857252120971,0,0,0
1850,63627.077510625786,2010-10-16 10:52:59,4832.430007605494,2,6,0.5499359965324402,4.093294143676758,5.758660636262671,5.03735885452958,22.949666446806457,18.388182555851245,9.70840483205393e-05,0.0906857252120971,0,0,0
1851,63657.09284022263,2010-10-16 10:53:29,4862.445337212361,2,6,0.550297200679779,4.096370220184326,5.763247245737144,5.03735885452958,22.96844767172675,18.388182555851245,9.71794142969884e-05,0.0906857252120971,0,0,0
1852,63687.1078930597,2010-10-16 10:53:59,4892.460390044418,2,6,0.5501165986061096,4.0992841720581055,5.767833922355502,5.03735885452958,22.98724289793028,18.388182555851245,6.47544875391759e-05,0.0906857252120971,0,0,0
1853,63717.1230895498,2010-10-16 10:54:29,4922.475586569604,2,6,0.5501165986061096,4.102035999298096,5.77242068846514,5.03735885452958,23.00605228569925,18.388182555851245,3.23295607813634e-05,0.0906857252120971,0,0,0
1854,63747.138306340494,2010-10-16 10:54:59,4952.490803320198,2,6,0.5499359965324402,4.105273723602295,5.777007432815064,5.03735885452958,23.02487554850145,18.388182555851245,6.47544875391759e-05,0.0906857252120971,0,0,0
1855,63777.153485738,2010-10-16 10:55:29,4982.505982732734,2,6,0.5501165986061096,4.108349800109863,5.781594075444765,5.03735885452958,23.04371244680597,18.388182555851245,6.47544875391759e-05,0.0906857252120971,0,0,0
1856,63807.1687786885,2010-10-16 10:55:59,5012.521275663192,2,6,0.5501165986061096,4.111587524414063,5.786180789680416,5.03735885452958,23.06256376966572,18.388182555851245,0.0001295089750783,0.0906857252120971,0,0,0
1857,63837.18383828742,2010-10-16 10:56:29,5042.536335262115,2,6,0.5501165986061096,4.114501476287842,5.790767485400108,5.03735885452958,23.081429267170336,18.388182555851245,3.24249267578125e-05,0.0906857252120971,0,0,0
1858,63867.19918433025,2010-10-16 10:56:59,5072.551681350057,2,6,0.5501165986061096,4.117738723754883,5.79535413917979,5.03735885452958,23.10030899903029,18.388182555851245,6.47544875391759e-05,0.0906857252120971,0,0,0
1859,63897.21425076622,2010-10-16 10:57:29,5102.566747750933,2,6,0.5499359965324402,4.120976448059082,5.799940846731458,5.03735885452958,23.11920356716639,18.388182555851245,6.47544875391759e-05,0.0906857252120971,0,0,0
1860,63927.2295555412,2010-10-16 10:57:59,5132.582052555986,2,6,0.5499359965324402,4.124214172363281,5.804527522330769,5.03735885452958,23.138112734239336,18.388182555851245,9.70840483205393e-05,0.0906857252120971,0,0,0
1861,63957.2446188644,2010-10-16 10:58:29,5162.597115834079,2,6,0.5501165986061096,4.1276140213012695,5.809114204970054,5.03735885452958,23.15703680156323,18.388182555851245,9.71794142969884e-05,0.0906857252120971,0,0,0
1862,63987.260071472825,2010-10-16 10:58:59,5192.612568487615,2,6,0.550297200679779,4.13068962097168,5.813700917709678,5.03735885452958,23.17597584452013,18.388182555851245,9.70840483205393e-05,0.0906857252120971,0,0,0
1863,64017.27501499745,2010-10-16 10:59:29,5222.627512002221,2,6,0.5501165986061096,4.133927345275879,5.818287620358085,5.03735885452958,23.194929865620505,18.388182555851245,9.70840483205393e-05,0.0906857252120971,0,0,0
1864,64047.29018694638,2010-10-16 10:59:59,5252.642683951155,2,6,0.5499359965324402,4.137327194213867,5.822874302521696,5.03735885452958,23.213898935295816,18.388182555851245,6.47544875391759e-05,0.0906857252120971,0,0,0
1865,64077.30537936133,2010-10-16 11:00:29,5282.657876341034,2,6,0.5501165986061096,4.140726566314697,5.82746096660293,5.03735885452958,23.232883184948108,18.388182555851245,9.70840483205393e-05,0.0906857252120971,0,0,0
1866,64107.32061094389,2010-10-16 11:00:59,5312.673107948656,2,6,0.5501165986061096,4.1441264152526855,5.832047751775514,5.03735885452958,23.251883302272297,18.388182555851245,0.0001295089750783,0.0906857252120971,0,0,0
1867,64137.33590195456,2010-10-16 11:01:29,5342.68839895933,2,6,0.5501165986061096,4.147687911987305,5.836634399961452,5.03735885452958,23.270898714458724,18.388182555851245,0.0001295089750783,0.0906857252120971,0,0,0
1868,64167.35095866127,2010-10-16 11:01:59,5372.703455681082,2,6,0.5501165986061096,4.151087284088135,5.841221063229241,5.03735885452958,23.28992987552432,18.388182555851245,0.0001618385285837,0.0906857252120971,0,0,0
1869,64197.36616343702,2010-10-16 11:02:29,5402.718660436781,2,6,0.5501165986061096,4.154325008392334,5.845807791179801,5.03735885452958,23.308977069407643,18.388182555851245,6.47544875391759e-05,0.0906857252120971,0,0,0
1870,64227.3814708987,2010-10-16 11:02:59,5432.733967908479,2,6,0.550297200679779,4.157886505126953,5.850394528565698,5.03735885452958,23.32804015343961,18.388182555851245,0.0001295089750783,0.0906857252120971,0,0,0
1871,64257.39657009632,2010-10-16 11:03:29,5462.749067106095,2,6,0.5501165986061096,4.161448001861572,5.854981254563445,5.03735885452958,23.34711920047075,18.388182555851245,9.70840483205393e-05,0.0906857252120971,0,0,0
1872,64287.41178591458,2010-10-16 11:03:59,5492.764283019602,2,6,0.5501165986061096,4.165009498596191,5.859567958544668,5.03735885452958,23.366214179560902,18.388182555851245,0.0001295089750783,0.0906857252120971,0,0,0
1873,64317.42691497162,2010-10-16 11:04:29,5522.779411946312,2,6,0.5501165986061096,4.16840934753418,5.864154613604676,5.03735885452958,23.385325108933667,18.388182555851245,9.71794142969884e-05,0.0906857252120971,0,0,0
1874,64347.44210307582,2010-10-16 11:04:59,5552.794600085598,2,6,0.5501165986061096,4.171970844268799,5.868741290630271,5.03735885452958,23.40445244356024,18.388182555851245,0.0001295089750783,0.0906857252120971,0,0,0
1875,64377.45730221752,2010-10-16 11:05:30,5582.80979921728,2,6,0.5501165986061096,4.175532341003418,5.873327975632268,5.03735885452958,23.423596192508928,18.388182555851245,9.71794142969884e-05,0.0906857252120971,0,0,0
1876,64407.47250135422,2010-10-16 11:06:00,5612.824998384049,2,6,0.5501165986061096,4.179255485534668,5.877914690716257,5.03735885452958,23.442756546830275,18.388182555851245,0.0001295089750783,0.0906857252120971,0,0,0
1877,64437.48767664649,2010-10-16 11:06:30,5642.840173636217,2,6,0.5501165986061096,4.182816982269287,5.882501366542089,5.03735885452958,23.461933301486056,18.388182555851245,9.70840483205393e-05,0.0906857252120971,0,0,0
1878,64467.50308133548,2010-10-16 11:07:00,5672.855578335236,2,6,0.5501165986061096,4.186378479003906,5.887088080219384,5.03735885452958,23.481126860632983,18.388182555851245,9.70840483205393e-05,0.0906857252120971,0,0,0
1879,64497.51810086955,2010-10-16 11:07:30,5702.870597849255,2,6,0.5501165986061096,4.190263748168945,5.891674752097586,5.03735885452958,23.5003371474272,18.388182555851245,9.70840483205393e-05,0.0906857252120971,0,0,0
1880,64527.533396521794,2010-10-16 11:08:00,5732.885893501496,2,6,0.5501165986061096,4.1938252449035645,5.896261467164337,5.03735885452958,23.51956448317148,18.388182555851245,0.0001295089750783,0.0906857252120971,0,0,0
1881,64557.548448777416,2010-10-16 11:08:30,5762.900945757118,2,6,0.5501165986061096,4.197548389434815,5.900848144866263,5.03735885452958,23.538808717205864,18.388182555851245,9.70840483205393e-05,0.0906857252120971,0,0,0
1882,64576.34526964866,2010-10-16 11:08:48,5781.697766778741,2,6,0.550297200679779,4.200138568878174,5.903720530850308,5.03735885452958,23.5508690835034,18.388182555851245,0.0001618385285837,0.0906857252120971,0,0,0
1883,64606.36074704768,2010-10-16 11:09:19,30.015161011675257,3,6,0.0,4.117738723754883,5.903720530850308,5.03735885452958,23.5508690835034,18.388182555851245,-0.0003885269106831,0.0906857252120971,0,0,0
1884,64636.37593710174,2010-10-16 11:09:49,60.03035106573306,3,6,0.0,4.107378482818604,5.903720530850308,5.03735885452958,23.5508690835034,18.388182555851245,-0.0002265930233988,0.0906857252120971,0,0,0
1885,64666.39133084345,2010-10-16 11:10:19,90.04574480744316,3,6,0.0,4.101388454437256,5.903720530850308,5.03735885452958,23.5508690835034,18.388182555851245,-0.0001295089750783,0.0906857252120971,0,0,0
1886,64696.35956852776,2010-10-16 11:10:49,120.01398249676116,3,6,0.0,4.097503185272217,5.903720530850308,5.03735885452958,23.5508690835034,18.388182555851245,-6.47544875391759e-05,0.0906857252120971,0,0,0
1887,64696.36171926126,2010-10-16 11:10:49,2.791958419e-06,4,6,1.0014592409133911,4.199814796447754,5.903720531626983,5.03735885452958,23.550869086765296,18.388182555851245,0.0,0.0906857252120971,0,0,0
1888,64697.18991065404,2010-10-16 11:10:50,0.828194199774823,4,6,0.9499855637550354,4.199491024017334,5.903943215655785,5.03735885452958,23.55180428036282,18.388182555851245,-6.47544875391759e-05,0.0906857252120971,0,0,0
1889,64699.189878875215,2010-10-16 11:10:52,2.828162420956846,4,6,0.8997761607170105,4.199653148651123,5.904455869457491,5.03735885452958,23.553957236962344,18.388182555851245,-3.23295607813634e-05,0.0906857252120971,0,0,0
1890,64702.26783683853,2010-10-16 11:10:55,5.906120339152966,4,6,0.8497474193572998,4.199653148651123,5.905202558822293,5.03735885452958,23.55709307645466,18.388182555851245,-3.23295607813634e-05,0.0906857252120971,0,0,0
1891,64706.45527182997,2010-10-16 11:10:59,10.093555335605664,4,6,0.7997186183929443,4.199814796447754,5.906160517887765,5.03735885452958,23.561116189720224,18.388182555851245,6.47544875391759e-05,0.0906857252120971,0,0,0
1892,64711.93970154633,2010-10-16 11:11:04,15.577985056988185,4,6,0.7496898770332336,4.199653148651123,5.907339191974025,5.03735885452958,23.56606625270089,18.388182555851245,0.0,0.0906857252120971,0,0,0
1893,64719.00209245754,2010-10-16 11:11:11,22.64037597319473,4,6,0.6996610760688782,4.199653148651123,5.908758894595423,5.03735885452958,23.572028567393016,18.388182555851245,-3.23295607813634e-05,0.0906857252120971,0,0,0
1894,64728.34571373672,2010-10-16 11:11:21,31.983997252382864,4,6,0.6496323347091675,4.199653148651123,5.910506972511686,5.03735885452958,23.579369969488692,18.388182555851245,-3.23295607813634e-05,0.0906857252120971,0,0,0
1895,64741.158026657766,2010-10-16 11:11:33,44.796310173432246,4,6,0.599603533744812,4.199653148651123,5.912725031983554,5.03735885452958,23.588685149837097,18.388182555851245,0.0,0.0906857252120971,0,0,0
1896,64760.12650343334,2010-10-16 11:11:52,63.76478694901138,4,6,0.5495747923851013,4.199491024017334,5.91574360800346,5.03735885452958,23.601362297881963,18.388182555851245,-6.47544875391759e-05,0.0906857252120971,0,0,0
1897,64791.45404689088,2010-10-16 11:12:24,95.0923304015392,4,6,0.4995460212230682,4.199653148651123,5.920290987950462,5.03735885452958,23.62045993462637,18.388182555851245,-3.23295607813634e-05,0.0906857252120971,0,0,0
1898,64847.42214527802,2010-10-16 11:13:20,151.06042881874828,4,6,0.4495172500610351,4.199653148651123,5.927638095463608,5.03735885452958,23.651315593149707,18.388182555851245,0.0,0.0906857252120971,0,0,0
1899,64937.68631220058,2010-10-16 11:14:50,241.3245957413091,4,6,0.3994884788990021,4.199653148651123,5.938256149408005,5.03735885452958,23.69590824965268,18.388182555851245,-3.23295607813634e-05,0.0906857252120971,0,0,0
1900,65053.73192838746,2010-10-16 11:16:46,357.37021194322773,4,6,0.349459707736969,4.199653148651123,5.950308951488742,5.03735885452958,23.74652645557727,18.388182555851245,-3.23295607813634e-05,0.0906857252120971,0,0,0
1901,65191.47954965855,2010-10-16 11:19:04,495.1178331742189,4,6,0.2994309365749359,4.199491024017334,5.962710817788119,5.03735885452958,23.798610517434984,18.388182555851245,-3.24249267578125e-05,0.0906857252120971,0,0,0
1902,65358.80531171245,2010-10-16 11:21:51,662.4435953734693,4,6,0.2494021654129028,4.199653148651123,5.975445370430752,5.03735885452958,23.852091713465388,18.388182555851245,0.0,0.0906857252120971,0,0,0
1903,65563.22417696776,2010-10-16 11:25:16,866.8624604834357,4,6,0.1993733942508697,4.199491024017334,5.988147666074026,5.03735885452958,23.905437482012,18.388182555851245,-6.47544875391759e-05,0.0906857252120971,0,0,0
1904,65832.53277408096,2010-10-16 11:29:45,1136.1710576467506,4,6,0.1493446230888366,4.199653148651123,6.001115637043338,5.03735885452958,23.959899032107117,18.388182555851245,3.24249267578125e-05,0.0906857252120971,0,0,0
1905,66221.46479955985,2010-10-16 11:36:14,1525.1030830755112,4,6,0.0993158593773841,4.199653148651123,6.014393276420171,5.03735885452958,24.01566122830845,18.388182555851245,0.0,0.0906857252120971,0,0,0
1906,66940.56377935872,2010-10-16 11:48:13,2244.2020628743944,4,6,0.0498289167881011,4.199653148651123,6.028742227066665,5.03735885452958,24.07592257233476,18.388182555851245,-3.23295607813634e-05,0.0906857252120971,0,0,0
1907,66970.58226376053,2010-10-16 11:48:43,30.015192810928777,5,6,0.0,4.192044734954834,6.028742227066665,5.03735885452958,24.07592257233476,18.388182555851245,-3.23295607813634e-05,0.0906857252120971,0,0,0
1908,67000.58182660176,2010-10-16 11:49:13,60.014755682238814,5,6,0.0,4.190911293029785,6.028742227066665,5.03735885452958,24.07592257233476,18.388182555851245,0.0,0.0906857252120971,0,0,0
1909,67000.77357919287,2010-10-16 11:49:13,0.187463155865388,6,6,-1.9243103452026844e-05,4.190911293029785,6.028742230767124,5.03735885452958,24.075922587843056,18.388182555851245,0.0,0.09375511854887,0,0,0
1910,67005.60173665185,2010-10-16 11:49:18,5.015620629877541,6,6,0.0005225847125984,4.190911293029785,6.028743190468189,5.037358854614698,24.07592660990894,18.38818255620796,0.0,0.09375511854887,0,0,0
1911,67035.62112714823,2010-10-16 11:49:48,30.015164314907924,7,6,-1.0997490882873535,4.020445823669434,6.028743190468189,5.046527218796841,24.07592660990894,18.425236934883227,-0.0009713172912597,0.09375511854887,0,0,0
1912,67065.63644501082,2010-10-16 11:50:18,60.0304820622166,7,6,-1.0997490882873535,3.9948675632476807,6.028743190468189,5.055695662952505,24.07592660990894,18.46197303270044,-0.0005827903514727,0.09375511854887,0,0,0
1913,67095.65152137654,2010-10-16 11:50:48,90.04555839284062,7,6,-1.099568486213684,3.977222204208374,6.028743190468189,5.064864007715095,24.07592660990894,18.498513806527058,-0.0003885269106831,0.09375511854887,0,0,0
1914,67125.66685694827,2010-10-16 11:51:18,120.06089396457324,7,6,-1.0997490882873535,3.963299989700317,6.028743190468189,5.074032362680319,24.07592660990894,18.534912116967117,-0.0003561496851034,0.09375511854887,0,0,0
1915,67155.68187773044,2010-10-16 11:51:48,150.0759147668034,7,6,-1.099568486213684,3.95180606842041,6.028743190468189,5.083200621838436,24.07592660990894,18.571194511382128,-0.0002590179501567,0.09375511854887,0,0,0
1916,67185.69709864641,2010-10-16 11:52:18,180.09113580809094,7,6,-1.0997490882873535,3.9412834644317623,6.028743190468189,5.092368903047965,24.07592660990894,18.607376612372445,-0.0002590179501567,0.09375511854887,0,0,0
1917,67215.71234479529,2010-10-16 11:52:48,210.10638186672932,7,6,-1.0993878841400146,3.931732177734375,6.028743190468189,5.101537214111917,24.07592660990894,18.643467631907264,-0.0002590179501567,0.09375511854887,0,0,0
1918,67245.72750363656,2010-10-16 11:53:18,240.12154077315773,7,6,-1.0997490882873535,3.922666549682617,6.028743190468189,5.110705556504732,24.07592660990894,18.67947324959177,-0.0002266406954731,0.09375511854887,0,0,0
1919,67275.74270542986,2010-10-16 11:53:48,270.136742471236,7,6,-1.099568486213684,3.914086580276489,6.028743190468189,5.11987391588229,24.07592660990894,18.71539741813423,-0.0002266406954731,0.09375511854887,0,0,0
1920,67305.75801506697,2010-10-16 11:54:18,300.1520521283815,7,6,-1.0997490882873535,3.9053449630737305,6.028743190468189,5.12904227051795,24.07592660990894,18.751242625697092,-0.0002266406954731,0.09375511854887,0,0,0
1921,67335.77322574242,2010-10-16 11:54:48,330.1672628790216,7,6,-1.0997490882873535,3.8970887660980233,6.028743190468189,5.138210608500076,24.07592660990894,18.787010622289625,-0.0002266406954731,0.09375511854887,0,0,0
1922,67365.78827118105,2010-10-16 11:55:18,360.1823081923409,7,6,-1.0997490882873535,3.8891563415527344,6.028743190468189,5.147378904623028,24.07592660990894,18.82270307613592,-0.0001942634553415,0.09375511854887,0,0,0
1923,67395.80345896946,2010-10-16 11:55:48,390.19749602085193,7,6,-1.0993878841400146,3.8809001445770255,6.028743190468189,5.156547233384923,24.07592660990894,18.85832141211008,-0.0002266406954731,0.09375511854887,0,0,0
1924,67425.81868011098,2010-10-16 11:56:18,420.2127171824393,7,6,-1.099568486213684,3.873129606246948,6.028743190468189,5.16571560265255,24.07592660990894,18.89386660605197,-0.0001942634553415,0.09375511854887,0,0,0
1925,67455.83386040574,2010-10-16 11:56:49,450.22789747717394,7,6,-1.099568486213684,3.86519718170166,6.028743190468189,5.174883993835723,24.07592660990894,18.92933984835821,-0.0001942634553415,0.09375511854887,0,0,0
1926,67485.8490365852,2010-10-16 11:57:19,480.243073626577,7,6,-1.0997490882873535,3.857588529586792,6.028743190468189,5.184052382870864,24.07592660990894,18.96474254908699,-0.0001942634553415,0.09375511854887,0,0,0
1927,67515.86424465917,2010-10-16 11:57:49,510.25828173563343,7,6,-1.099568486213684,3.849979877471924,6.028743190468189,5.193220826986794,24.07592660990894,19.00007577601713,-0.0001942634553415,0.09375511854887,0,0,0
1928,67545.87963328313,2010-10-16 11:58:19,540.2736703846509,7,6,-1.0997490882873535,3.8425331115722656,6.028743190468189,5.202389333853034,24.07592660990894,19.035340200803283,-0.0002266406954731,0.09375511854887,0,0,0
1929,67575.89463009557,2010-10-16 11:58:49,570.2886671068663,7,6,-1.0997490882873535,3.835086345672608,6.028743190468189,5.211557753180344,24.07592660990894,19.07053635975488,-0.0001942634553415,0.09375511854887,0,0,0
1930,67605.90981861581,2010-10-16 11:59:19,600.3038556521639,7,6,-1.099568486213684,3.827963590621948,6.028743190468189,5.220726128022602,24.07592660990894,19.10566573148172,-0.0002266406954731,0.09375511854887,0,0,0
1931,67635.92515975643,2010-10-16 11:59:49,630.3191967827509,7,6,-1.099568486213684,3.82100248336792,6.028743190468189,5.229894578742835,24.07592660990894,19.14072965579033,-0.0001618862152099,0.09375511854887,0,0,0
1932,67665.94019608735,2010-10-16 12:00:19,660.3342331036583,7,6,-1.099929690361023,3.8138794898986816,6.028743190468189,5.239062961442262,24.07592660990894,19.175729547128547,-0.0002266406954731,0.09375511854887,0,0,0
1933,67695.95541640684,2010-10-16 12:00:49,690.3494534431968,7,6,-1.0997490882873535,3.807242155075073,6.028743190468189,5.248231408989243,24.07592660990894,19.21066646746042,-0.0001942634553415,0.09375511854887,0,0,0
1934,67725.97061258115,2010-10-16 12:01:19,720.3646495924459,7,6,-1.099568486213684,3.800442934036255,6.028743190468189,5.257399844379091,24.07592660990894,19.245541358379363,-0.0001942634553415,0.09375511854887,0,0,0
1935,67755.98590253419,2010-10-16 12:01:49,750.3799395655326,7,6,-1.099568486213684,3.7938055992126474,6.028743190468189,5.266568316242063,24.07592660990894,19.280355612058067,-0.0001942634553415,0.09375511854887,0,0,0
1936,67786.00097676457,2010-10-16 12:02:19,780.3950137808846,7,6,-1.0997490882873535,3.787330150604248,6.028743190468189,5.275736673614565,24.07592660990894,19.315109725100843,-0.0001942634553415,0.09375511854887,0,0,0
1937,67816.01629712842,2010-10-16 12:02:49,810.4103341898269,7,6,-1.099568486213684,3.78101658821106,6.028743190468189,5.284905029884046,24.07592660990894,19.34980522193619,-0.0001618862152099,0.09375511854887,0,0,0
1938,67846.03136385008,2010-10-16 12:03:19,840.4254009265402,7,6,-1.099568486213684,3.774864912033081,6.028743190468189,5.294073076127972,24.07592660990894,19.384442319603657,-0.0001618862152099,0.09375511854887,0,0,0
1939,67876.04657997412,2010-10-16 12:03:49,870.4406170154847,7,6,-1.099568486213684,3.768875122070313,6.028743190468189,5.303241276027417,24.07592660990894,19.419023721969257,-0.0001942634553415,0.09375511854887,0,0,0
1940,67906.06177107578,2010-10-16 12:04:19,900.4558081221659,7,6,-1.099568486213684,3.763047218322754,6.028743190468189,5.312409652018594,24.07592660990894,19.45355096246751,-0.0001618862152099,0.09375511854887,0,0,0
1941,67936.07698163093,2010-10-16 12:04:49,930.4710186773189,7,6,-1.099568486213684,3.757057428359986,6.028743190468189,5.321578100273119,24.07592660990894,19.488024220463977,-0.0001618862152099,0.09375511854887,0,0,0
1942,67966.09215693823,2010-10-16 12:05:19,960.4861940096856,7,6,-1.0997490882873535,3.751391649246216,6.028743190468189,5.330746574167803,24.07592660990894,19.52244484748747,-0.0001295089750783,0.09375511854887,0,0,0
1943,67996.10734891208,2010-10-16 12:05:49,990.5013859334032,7,6,-1.0997490882873535,3.745563745498657,6.028743190468189,5.33991501636657,24.07592660990894,19.556813255095012,-0.0002266406954731,0.09375511854887,0,0,0
1944,68026.12640216944,2010-10-16 12:06:19,1020.5204393411271,7,6,-1.0997490882873535,3.740221500396729,6.028743190468189,5.349084567807368,24.07592660990894,19.59113472505769,-0.0001618862152099,0.09375511854887,0,0,0
1945,68056.13781614734,2010-10-16 12:06:49,1050.5318532939789,7,6,-1.099568486213684,3.73471736907959,6.028743190468189,5.358251874623906,24.07592660990894,19.62539741844404,-0.0001295089750783,0.09375511854887,0,0,0
1946,68086.1529368686,2010-10-16 12:07:19,1080.5469738899258,7,6,-1.0997490882873535,3.729375123977661,6.028743190468189,5.367420263104497,24.07592660990894,19.65961457960125,-0.0001618862152099,0.09375511854887,0,0,0
1947,68116.16812695273,2010-10-16 12:07:49,1110.5621639640333,7,6,-1.0997490882873535,3.7241947650909424,6.028743190468189,5.376588717829018,24.07592660990894,19.69378416141953,-0.0001618862152099,0.09375511854887,0,0,0
1948,68146.18331217475,2010-10-16 12:08:19,1140.5773491910606,7,6,-1.0997490882873535,3.719014406204224,6.028743190468189,5.385757149483674,24.07592660990894,19.72790574115904,-0.0001295089750783,0.09375511854887,0,0,0
1949,68176.198534404,2010-10-16 12:08:49,1170.5925714152966,7,6,-1.099568486213684,3.713834047317505,6.028743190468189,5.394925595721674,24.07592660990894,19.761979781418567,-0.0001618862152099,0.09375511854887,0,0,0
1950,68206.21370245823,2010-10-16 12:09:19,1200.607739499599,7,6,-1.0997490882873535,3.708977460861206,6.028743190468189,5.404094065035381,24.07592660990894,19.79600730234663,-9.713172767078504e-05,0.09375511854887,0,0,0
1951,68236.2289046726,2010-10-16 12:09:49,1230.622941693914,7,6,-1.099568486213684,3.703958988189697,6.028743190468189,5.413262568876689,24.07592660990894,19.829989192396788,-9.713172767078504e-05,0.09375511854887,0,0,0
1952,68266.24425182318,2010-10-16 12:10:19,1260.6382888745798,7,6,-1.0997490882873535,3.698940515518189,6.028743190468189,5.422431103743206,24.07592660990894,19.86392633978681,-0.0001618862152099,0.09375511854887,0,0,0
1953,68296.25930935195,2010-10-16 12:10:49,1290.6533464133686,7,6,-1.0997490882873535,3.6944077014923096,6.028743190468189,5.431599491582038,24.07592660990894,19.89781896047635,-9.713172767078504e-05,0.09375511854887,0,0,0
1954,68326.27448069437,2010-10-16 12:11:19,1320.668517710679,7,6,-1.0997490882873535,3.6895511150360103,6.028743190468189,5.440767948679705,24.07592660990894,19.931668483181884,-0.0001295089750783,0.09375511854887,0,0,0
1955,68356.28967022712,2010-10-16 12:11:49,1350.6837072384253,7,6,-1.099568486213684,3.685018301010132,6.028743190468189,5.449936384213925,24.07592660990894,19.96547493522061,-9.713172767078504e-05,0.09375511854887,0,0,0
1956,68386.30486151928,2010-10-16 12:12:19,1380.6988985305684,7,6,-1.0997490882873535,3.680323600769043,6.028743190468189,5.459104848130838,24.07592660990894,19.99923931563085,-0.0001295089750783,0.09375511854887,0,0,0
1957,68416.32007284134,2010-10-16 12:12:49,1410.7141098827078,7,6,-1.099568486213684,3.675952672958374,6.028743190468189,5.468273342780928,24.07592660990894,20.0329621536199,-0.0001295089750783,0.09375511854887,0,0,0
1958,68446.33525665484,2010-10-16 12:13:19,1440.7292936711494,7,6,-1.0993878841400146,3.671420097351074,6.028743190468189,5.477441813271449,24.07592660990894,20.06664382375876,-0.0001295089750783,0.09375511854887,0,0,0
1959,68476.3504627589,2010-10-16 12:13:49,1470.7444998253338,7,6,-1.0997490882873535,3.6668872833251953,6.028743190468189,5.486610342263009,24.07592660990894,20.100285031238897,-0.0001295089750783,0.09375511854887,0,0,0
1960,68506.3658612725,2010-10-16 12:14:19,1500.7598983439495,7,6,-1.099568486213684,3.662678241729736,6.028743190468189,5.495778832114306,24.07592660990894,20.133886313945936,-0.0001295089750783,0.09375511854887,0,0,0
1961,68536.38112998259,2010-10-16 12:14:49,1530.7751670390048,7,6,-1.099568486213684,3.658469200134277,6.028743190468189,5.504947256041723,24.07592660990894,20.167447791487493,-9.713172767078504e-05,0.09375511854887,0,0,0
1962,68566.39616471455,2010-10-16 12:15:19,1560.790201735865,7,6,-1.0997490882873535,3.6542601585388175,6.028743190468189,5.514115691960054,24.07592660990894,20.20097058096409,-0.0001295089750783,0.09375511854887,0,0,0
1963,68596.41123226829,2010-10-16 12:15:49,1590.8052693397392,7,6,-1.0997490882873535,3.65005111694336,6.028743190468189,5.523284144480487,24.07592660990894,20.2344551935123,-0.0001295089750783,0.09375511854887,0,0,0
1964,68626.42642102411,2010-10-16 12:16:19,1620.8204580654865,7,6,-1.0997490882873535,3.6460039615631104,6.028743190468189,5.532452554903002,24.07592660990894,20.267901932032444,-6.47544875391759e-05,0.09375511854887,0,0,0
1965,68656.44162768956,2010-10-16 12:16:49,1650.8356647058822,7,6,-1.099568486213684,3.6421186923980713,6.028743190468189,5.541620950355108,24.07592660990894,20.301311697389348,-9.713172767078504e-05,0.09375511854887,0,0,0
1966,68686.45683637005,2010-10-16 12:17:19,1680.850873406413,7,6,-1.099568486213684,3.638233423233032,6.028743190468189,5.550789304323733,24.07592660990894,20.334685178120584,-6.47544875391759e-05,0.09375511854887,0,0,0
1967,68716.47202378754,2010-10-16 12:17:49,1710.8660608038497,7,6,-1.099568486213684,3.634348154067993,6.028743190468189,5.559957714676042,24.07592660990894,20.368023518881152,-6.47544875391759e-05,0.09375511854887,0,0,0
1968,68746.48720178654,2010-10-16 12:18:19,1740.8812388529875,7,6,-1.099568486213684,3.630624771118164,6.028743190468189,5.569126148015286,24.07592660990894,20.40132746807012,-9.713172767078504e-05,0.09375511854887,0,0,0
1969,68776.50239708369,2010-10-16 12:18:49,1770.8964341250503,7,6,-1.099929690361023,3.626901388168335,6.028743190468189,5.578294602020511,24.07592660990894,20.43459780582137,-9.713172767078504e-05,0.09375511854887,0,0,0
1970,68806.51757703254,2010-10-16 12:19:19,1800.9116140488602,7,6,-1.0997490882873535,3.623178005218506,6.028743190468189,5.58746311462112,24.07592660990894,20.46783512374584,-0.0001295089750783,0.09375511854887,0,0,0
1971,68836.53277375322,2010-10-16 12:19:49,1830.926810764521,7,6,-1.0997490882873535,3.6197783946990967,6.028743190468189,5.596631612860973,24.07592660990894,20.50104007998255,-0.0001295089750783,0.09375511854887,0,0,0
1972,68866.54796513559,2010-10-16 12:20:19,1860.9420021468893,7,6,-1.0997490882873535,3.6165406703948975,6.028743190468189,5.605800006246509,24.07592660990894,20.534213450897827,-9.713172767078504e-05,0.09375511854887,0,0,0
1973,68896.5633449576,2010-10-16 12:20:49,1890.957382019032,7,6,-1.0993878841400146,3.613302946090698,6.028743190468189,5.614968475764276,24.07592660990894,20.56735638667737,-6.47544875391759e-05,0.09375511854887,0,0,0
1974,68926.57835645165,2010-10-16 12:21:19,1920.972393467951,7,6,-1.099568486213684,3.609903335571289,6.028743190468189,5.624136825844393,24.07592660990894,20.600468902753978,-0.0001295089750783,0.09375511854887,0,0,0
1975,68956.59354455584,2010-10-16 12:21:49,1950.987581597212,7,6,-1.0993878841400146,3.6069893836975098,6.028743190468189,5.633305241763756,24.07592660990894,20.633552626678124,-6.47544875391759e-05,0.09375511854887,0,0,0
1976,68986.60888531551,2010-10-16 12:22:19,1981.002922336824,7,6,-1.0997490882873535,3.603751659393311,6.028743190468189,5.642474190016562,24.07592660990894,20.66660929480224,-6.47544875391759e-05,0.09375511854887,0,0,0
1977,69016.62394838307,2010-10-16 12:22:49,2011.01798539938,7,6,-1.0997490882873535,3.6006758213043213,6.028743190468189,5.651643355757852,24.07592660990894,20.699638742559447,-0.0001295089750783,0.09375511854887,0,0,0
1978,69046.63912939459,2010-10-16 12:23:19,2041.0331664459884,7,6,-1.099929690361023,3.597761869430542,6.028743190468189,5.660812644005742,24.07592660990894,20.73264104514413,-6.47544875391759e-05,0.09375511854887,0,0,0
1979,69076.65432497242,2010-10-16 12:23:49,2071.0483620238133,7,6,-1.099568486213684,3.5950098037719727,6.028743190468189,5.669981933669411,24.07592660990894,20.76561621110086,-6.47544875391759e-05,0.09375511854887,0,0,0
1980,69106.66953974307,2010-10-16 12:24:19,2101.0635767844474,7,6,-1.099568486213684,3.5919342041015625,6.028743190468189,5.679150648744456,24.07592660990894,20.798562694782436,-9.70840483205393e-05,0.09375511854887,0,0,0
1981,69136.68471930097,2010-10-16 12:24:49,2131.078756317283,7,6,-1.0997490882873535,3.589182138442993,6.028743190468189,5.688319138094124,24.07592660990894,20.831481935421387,-3.237724376958795e-05,0.09375511854887,0,0,0
1982,69166.69992785112,2010-10-16 12:25:19,2161.093964897514,7,6,-1.099568486213684,3.586106300354004,6.028743190468189,5.697487560533113,24.07592660990894,20.86437483808264,-9.713172767078504e-05,0.09375511854887,0,0,0
1983,69196.715121038,2010-10-16 12:25:49,2191.1091580843795,7,6,-1.0997490882873535,3.5833542346954346,6.028743190468189,5.706656056263297,24.07592660990894,20.89724172296441,-6.47544875391759e-05,0.09375511854887,0,0,0
1984,69226.7304594869,2010-10-16 12:26:19,2221.1244965082205,7,6,-1.0993878841400146,3.580764055252075,6.028743190468189,5.71582450921799,24.07592660990894,20.930082592335765,-3.237724376958795e-05,0.09375511854887,0,0,0
1985,69256.74552439907,2010-10-16 12:26:49,2251.139561460486,7,6,-1.0997490882873535,3.577688217163086,6.028743190468189,5.724992905473584,24.07592660990894,20.96289685628165,-9.713172767078504e-05,0.09375511854887,0,0,0
1986,69286.76070267377,2010-10-16 12:27:19,2281.154739810373,7,6,-1.0997490882873535,3.5746123790740967,6.028743190468189,5.734161370645315,24.07592660990894,20.99568474763244,-6.47544875391759e-05,0.09375511854887,0,0,0
1987,69316.77592264739,2010-10-16 12:27:49,2311.16995968375,7,6,-1.099568486213684,3.5720221996307373,6.028743190468189,5.743329764792635,24.07592660990894,21.0284459340477,-3.237724376958795e-05,0.09375511854887,0,0,0
1988,69346.79109645095,2010-10-16 12:28:19,2341.185133557481,7,6,-1.099568486213684,3.568946361541748,6.028743190468189,5.752497848068351,24.07592660990894,21.06117929392677,-6.47544875391759e-05,0.09375511854887,0,0,0
1989,69376.80638078999,2010-10-16 12:28:50,2371.2004178113148,7,6,-1.099568486213684,3.565870523452759,6.028743190468189,5.761665583445746,24.07592660990894,21.09388443427986,-9.713172767078504e-05,0.09375511854887,0,0,0
1990,69406.82149855388,2010-10-16 12:29:20,2401.2155356002654,7,6,-1.099568486213684,3.563118457794189,6.028743190468189,5.77083366878741,24.07592660990894,21.12656331616252,-3.237724376958795e-05,0.09375511854887,0,0,0
1991,69436.83672139466,2010-10-16 12:29:50,2431.2307584410373,7,6,-1.0997490882873535,3.5598807334899902,6.028743190468189,5.780002109864385,24.07592660990894,21.15921658443839,-9.713172767078504e-05,0.09375511854887,0,0,0
1992,69466.85207635972,2010-10-16 12:30:20,2461.2461134061045,7,6,-1.0997490882873535,3.556804895401001,6.028743190468189,5.789170642866719,24.07592660990894,21.1918420310805,-9.713172767078504e-05,0.09375511854887,0,0,0
1993,69496.86710810423,2010-10-16 12:30:50,2491.2611451455937,7,6,-1.099568486213684,3.553729057312012,6.028743190468189,5.798339176803188,24.07592660990894,21.22443876308052,-6.47544875391759e-05,0.09375511854887,0,0,0
1994,69526.88230506047,2010-10-16 12:31:20,2521.276342126916,7,6,-1.0997490882873535,3.5503294467926025,6.028743190468189,5.807507770676153,24.07592660990894,21.25700636472176,-0.0001295089750783,0.09375511854887,0,0,0
1995,69556.89747256835,2010-10-16 12:31:50,2551.291509614732,7,6,-1.099929690361023,3.5472536087036133,6.028743190468189,5.816676294114912,24.07592660990894,21.289543908675864,-9.713172767078504e-05,0.09375511854887,0,0,0
1996,69586.91266132417,2010-10-16 12:32:20,2581.306698340479,7,6,-1.099568486213684,3.543853998184204,6.028743190468189,5.825844889418734,24.07592660990894,21.322050758037378,-6.47544875391759e-05,0.09375511854887,0,0,0
1997,69616.92799968284,2010-10-16 12:32:50,2611.3220368244706,7,6,-1.0997490882873535,3.540130615234375,6.028743190468189,5.835013511613058,24.07592660990894,21.354525891733907,-9.713172767078504e-05,0.09375511854887,0,0,0
1998,69646.94305968277,2010-10-16 12:33:20,2641.3370966940684,7,6,-1.0997490882873535,3.536569118499756,6.028743190468189,5.844181994568427,24.07592660990894,21.386967669534712,-9.713172767078504e-05,0.09375511854887,0,0,0
1999,69676.95825544606,2010-10-16 12:33:50,2671.3522925475804,7,6,-1.099568486213684,3.5328457355499268,6.028743190468189,5.853350584932255,24.07592660990894,21.419375587829816,-9.713172767078504e-05,0.09375511854887,0,0,0
2000,69706.97346284836,2010-10-16 12:34:20,2701.3674998897254,7,6,-1.099568486213684,3.528960466384888,6.028743190468189,5.862519060884884,24.07592660990894,21.451747801085386,-6.47544875391759e-05,0.09375511854887,0,0,0
2001,69736.98867445112,2010-10-16 12:34:50,2731.382711587726,7,6,-1.0997490882873535,3.5245895385742188,6.028743190468189,5.871687594787752,24.07592660990894,21.48408333401203,-0.0001295089750783,0.09375511854887,0,0,0
2002,69767.00382391903,2010-10-16 12:35:20,2761.3978609603937,7,6,-1.0997490882873535,3.52038049697876,6.028743190468189,5.880856061873095,24.07592660990894,21.516379966598105,-0.0001295089750783,0.09375511854887,0,0,0
2003,69797.01901649937,2010-10-16 12:35:50,2791.4130535206978,7,6,-1.099568486213684,3.516009569168091,6.028743190468189,5.890024544988935,24.07592660990894,21.548636118435063,-6.47544875391759e-05,0.09375511854887,0,0,0
2004,69827.03421045817,2010-10-16 12:36:20,2821.428247499537,7,6,-1.0997490882873535,3.510991334915161,6.028743190468189,5.899193081416621,24.07592660990894,21.58084923368185,-9.713172767078504e-05,0.09375511854887,0,0,0
2005,69857.04941815119,2010-10-16 12:36:50,2851.4434551925565,7,6,-1.099568486213684,3.5058109760284424,6.028743190468189,5.908361726761063,24.07592660990894,21.613016351106083,-9.713172767078504e-05,0.09375511854887,0,0,0
2006,69887.06460189953,2010-10-16 12:37:20,2881.4586389408987,7,6,-1.0997490882873535,3.499659299850464,6.028743190468189,5.917530327717066,24.07592660990894,21.64513265971306,-0.0001942634553415,0.09375511854887,0,0,0
2007,69917.07979848486,2010-10-16 12:37:50,2911.4738355312475,7,6,-1.099568486213684,3.4935076236724854,6.028743190468189,5.926698828763173,24.07592660990894,21.67719267535564,-0.0001942634553415,0.09375511854887,0,0,0
2008,69947.09592282746,2010-10-16 12:38:20,2941.4899599740893,7,6,-1.099568486213684,3.486222743988037,6.028743190468189,5.935867679730646,24.07592660990894,21.709191231662725,-0.0001942634553415,0.09375511854887,0,0,0
2009,69977.09747870595,2010-10-16 12:38:50,2971.4915157373,7,6,-1.099568486213684,3.477804660797119,6.028743190468189,5.945032131462399,24.07592660990894,21.741102659193416,-0.0001942634553415,0.09375511854887,0,0,0
2010,70007.10975396546,2010-10-16 12:39:20,3001.5037909817547,7,6,-1.0997490882873535,3.468091487884521,6.028743190468189,5.954199791766933,24.07592660990894,21.77294313924211,-0.0003237724304199,0.09375511854887,0,0,0
2011,70037.12492875646,2010-10-16 12:39:50,3031.5189657727724,7,6,-1.0997490882873535,3.456921339035034,6.028743190468189,5.963368332962362,24.07592660990894,21.804691860942764,-0.0003561496851034,0.09375511854887,0,0,0
2012,70067.14016661968,2010-10-16 12:40:20,3061.5342036460106,7,6,-1.099568486213684,3.4436466693878174,6.028743190468189,5.972536881480726,24.07592660990894,21.83632794214968,-0.0003561496851034,0.09375511854887,0,0,0
2013,70097.15539478372,2010-10-16 12:40:50,3091.549431835112,7,6,-1.099568486213684,3.4269726276397705,6.028743190468189,5.981705459083161,24.07592660990894,21.867827384098486,-0.0004532813909463,0.09375511854887,0,0,0
2014,70127.17056921383,2010-10-16 12:41:20,3121.564606235155,7,6,-1.099568486213684,3.4054417610168457,6.028743190468189,5.990873992630786,24.07592660990894,21.89915337800591,-0.0006151676061563,0.09375511854887,0,0,0
2015,70157.1857455036,2010-10-16 12:41:50,3151.5797825249083,7,6,-1.0997490882873535,3.3763022422790527,6.028743190468189,6.000042532639895,24.07592660990894,21.930249162066364,-0.0008741855854168,0.09375511854887,0,0,0
2016,70187.20106322081,2010-10-16 12:42:20,3181.595100242142,7,6,-1.099568486213684,3.334697723388672,6.028743190468189,6.009211189796931,24.07592660990894,21.961024546395308,-0.0012303352123126,0.09375511854887,0,0,0
2017,70217.21629121945,2010-10-16 12:42:50,3211.610328265832,7,6,-1.0997490882873535,3.2744760513305664,6.028743190468189,6.018379779708284,24.07592660990894,21.991339630744637,-0.0018455028766766,0.09375511854887,0,0,0
2018,70247.23140950463,2010-10-16 12:43:20,3241.6254466663067,7,6,-1.0997490882873535,3.186248540878296,6.028743190468189,6.027548366395751,24.07592660990894,22.02098461699812,-0.0028167725540697,0.09375511854887,0,0,0
2019,70277.24655799009,2010-10-16 12:43:50,3271.6405950164253,7,6,-1.0997490882873535,3.0467028617858887,6.028743190468189,6.036716901779684,24.07592660990894,22.0496137880428,-0.0046623228117823,0.09375511854887,0,0,0
2020,70299.16811957165,2010-10-16 12:44:12,3293.5621566130203,7,6,-1.0997490882873535,2.8462884426116943,6.028743190468189,6.043413141774433,24.07592660990894,22.06943460722743,-0.0100045204162597,0.09375511854887,0,0,0
2021,70308.76169506866,2010-10-16 12:44:21,3303.1557320899783,7,6,-1.099568486213684,2.699620008468628,6.028743190468189,6.046343595612441,24.07592660990894,22.077568264708344,-0.012918472290039,0.09375511854887,0,0,0
2022,70368.7734824852,2010-10-16 12:45:22,60.0147474767883,8,6,0.0,3.3164045810699463,6.028743190468189,6.046343595612441,24.07592660990894,22.077568264708344,0.0013598442310467,0.09375511854887,0,0,0
2023,70368.959003644,2010-10-16 12:45:22,0.187628964110552,9,6,-1.9243103452026844e-05,3.316728353500366,6.028743190468189,6.046343596615375,24.07592660990894,22.077568268034803,0.0,0.0907677188515663,0,0,0
2024,70373.7869230146,2010-10-16 12:45:27,5.015548339708197,9,6,0.0007031940040178,3.324984550476074,6.028744002717703,6.046343596698417,24.0759293078892,22.07756826831023,0.0011655807029455,0.0907677188515663,0,0,0
