Data_Point,Test_Time(s),Date_Time,Step_Time(s),Step_Index,Cycle_Index,Current(A),Voltage(V),Charge_Capacity(Ah),Discharge_Capacity(Ah),Charge_Energy(Wh),Discharge_Energy(Wh),dV/dt(V/s),Internal_Resistance(Ohm),Is_FC_Data,AC_Impedance(Ohm),ACI_Phase_Angle(Deg)
2025,70403.8157070774,2010-10-16 12:45:57,30.015188780884667,1,7,0.0,3.3610849380493164,6.028744002717703,6.046343596698417,24.0759293078892,22.07756826831023,0.0007770538213662,0.0907677188515663,0,0,0
2026,70433.83090224922,2010-10-16 12:46:27,60.03038393766002,1,7,0.0,3.3865010738372803,6.028744002717703,6.046343596698417,24.0759293078892,22.07756826831023,0.0005827903514727,0.0907677188515663,0,0,0
2027,70463.84611375173,2010-10-16 12:46:57,90.04559543516147,1,7,0.0,3.4057655334472656,6.028744002717703,6.046343596698417,24.0759293078892,22.07756826831023,0.0004532813909463,0.0907677188515663,0,0,0
2028,70493.81441895431,2010-10-16 12:47:27,120.01390064776828,1,7,0.0,3.420982837677002,6.028744002717703,6.046343596698417,24.0759293078892,22.07756826831023,0.0003237724304199,0.0907677188515663,0,0,0
2029,70523.82929913461,2010-10-16 12:47:57,30.01518860043493,2,7,0.5501165986061096,3.5760693550109863,6.033330553172131,6.046343596698417,24.0921621889125,22.07756826831023,0.0016512393485754,0.0907677188515663,0,0,0
2030,70553.84451167972,2010-10-16 12:48:27,60.0304011204849,2,7,0.5501165986061096,3.626253843307495,6.037917173956017,6.046343596698417,24.10868680624947,22.07756826831023,0.0011008263099938,0.0907677188515663,0,0,0
2031,70583.85972037024,2010-10-16 12:48:57,90.0456098611154,2,7,0.550297200679779,3.662678241729736,6.042503760421222,6.046343596698417,24.12540638598264,22.07756826831023,0.0008418083307333,0.0907677188515663,0,0,0
2032,70613.87491236413,2010-10-16 12:49:27,120.06080181490792,2,7,0.5501165986061096,3.691008090972901,6.04709032831472,6.046343596698417,24.142272918729983,22.07756826831023,0.0006799221155233,0.0907677188515663,0,0,0
2033,70643.89008364138,2010-10-16 12:49:57,150.07597310219316,2,7,0.5501165986061096,3.714319705963135,6.051676946595158,6.046343596698417,24.159257280222707,22.07756826831023,0.0005827903514727,0.0907677188515663,0,0,0
2034,70673.90568439402,2010-10-16 12:50:27,180.09157388992566,2,7,0.5501165986061096,3.73342227935791,6.056263581557145,6.046343596698417,24.17633860025398,22.07756826831023,0.0004532813909463,0.0907677188515663,0,0,0
2035,70703.92047325318,2010-10-16 12:50:57,210.10636271399488,2,7,0.5499359965324402,3.749125242233277,6.06085009160897,6.046343596698417,24.19349920233269,22.07756826831023,0.0003885269106831,0.0907677188515663,0,0,0
2036,70733.93578906065,2010-10-16 12:51:27,240.1216785014189,2,7,0.5501165986061096,3.7599713802337646,6.065436692615053,6.046343596698417,24.210721553756088,22.07756826831023,0.0002266406954731,0.0907677188515663,0,0,0
2037,70763.9508676068,2010-10-16 12:51:57,270.1367570525772,2,7,0.5499359965324402,3.766446828842163,6.070023330470335,6.046343596698417,24.22798320525143,22.07756826831023,0.0001618862152099,0.0907677188515663,0,0,0
2038,70793.96622822597,2010-10-16 12:52:27,300.1521176917857,2,7,0.550297200679779,3.770493984222412,6.074609984676129,6.046343596698417,24.245268463767257,22.07756826831023,6.47544875391759e-05,0.0907677188515663,0,0,0
2039,70823.98125030137,2010-10-16 12:52:57,330.1671397421265,2,7,0.5501165986061096,3.774217367172241,6.07919660208,6.046343596698417,24.26257108756853,22.07756826831023,9.713172767078504e-05,0.0907677188515663,0,0,0
2040,70853.99656020412,2010-10-16 12:53:27,360.1824496649341,2,7,0.5501165986061096,3.777778863906861,6.083783199084526,6.046343596698417,24.279889654964776,22.07756826831023,0.0001295089750783,0.0907677188515663,0,0,0
2041,70884.01164394822,2010-10-16 12:53:57,390.19753342407233,2,7,0.5501165986061096,3.78101658821106,6.088369827726883,6.046343596698417,24.297223918466862,22.07756826831023,6.47544875391759e-05,0.0907677188515663,0,0,0
2042,70914.02683671904,2010-10-16 12:54:27,420.21272616482617,2,7,0.550297200679779,3.7844161987304688,6.092956434491328,6.046343596698417,24.314573356825605,22.07756826831023,0.0001295089750783,0.0907677188515663,0,0,0
2043,70944.04215000023,2010-10-16 12:54:57,450.2280394510164,2,7,0.5499359965324402,3.787492036819458,6.097543006720827,6.046343596698417,24.331937721701795,22.07756826831023,6.47544875391759e-05,0.0907677188515663,0,0,0
2044,70974.0572229374,2010-10-16 12:55:27,480.2431123781578,2,7,0.550297200679779,3.790891647338867,6.102129590418422,6.046343596698417,24.349316920295227,22.07756826831023,9.713172767078504e-05,0.0907677188515663,0,0,0
2045,71004.07242872065,2010-10-16 12:55:57,510.2583182165551,2,7,0.5501165986061096,3.7938055992126474,6.106716193341257,6.046343596698417,24.36671059476942,22.07756826831023,6.47544875391759e-05,0.0907677188515663,0,0,0
2046,71034.08764238856,2010-10-16 12:56:27,540.2735318594034,2,7,0.550297200679779,3.7970433235168457,6.111302774409958,6.046343596698417,24.384118392501723,22.07756826831023,0.0001295089750783,0.0907677188515663,0,0,0
2047,71064.10277630271,2010-10-16 12:56:57,570.2886657986057,2,7,0.5501165986061096,3.799795389175415,6.115889415612965,6.046343596698417,24.401540470935053,22.07756826831023,6.47544875391759e-05,0.0907677188515663,0,0,0
2048,71094.11797538926,2010-10-16 12:57:27,600.3038648651254,2,7,0.550297200679779,3.8030331134796143,6.120476047130879,6.046343596698417,24.41897631307036,22.07756826831023,6.47544875391759e-05,0.0907677188515663,0,0,0
2049,71124.13348102487,2010-10-16 12:57:57,630.3193705107345,2,7,0.5499359965324402,3.8059470653533936,6.125062745621125,6.046343596698417,24.436426187097748,22.07756826831023,9.713172767078504e-05,0.0907677188515663,0,0,0
2050,71154.1483728757,2010-10-16 12:58:27,660.3342623164656,2,7,0.550297200679779,3.809022903442383,6.129649362425717,6.046343596698417,24.45388951182094,22.07756826831023,9.713172767078504e-05,0.0907677188515663,0,0,0
2051,71184.16356253879,2010-10-16 12:58:57,690.349451979549,2,7,0.5501165986061096,3.811936855316162,6.134236029068089,6.046343596698417,24.471366854559072,22.07756826831023,6.47544875391759e-05,0.0907677188515663,0,0,0
2052,71214.17878928929,2010-10-16 12:59:27,720.3646787551281,2,7,0.5501165986061096,3.815174579620361,6.138822641040942,6.046343596698417,24.48885817358383,22.07756826831023,9.713172767078504e-05,0.0907677188515663,0,0,0
2053,71244.19397540353,2010-10-16 12:59:57,750.3798648643542,2,7,0.5501165986061096,3.818250417709351,6.143409207687155,6.046343596698417,24.50636371312957,22.07756826831023,6.47544875391759e-05,0.0907677188515663,0,0,0
2054,71274.20932730597,2010-10-16 13:00:27,780.3952168870878,2,7,0.5501165986061096,3.82148814201355,6.147995796505276,6.046343596698417,24.52388396500732,22.07756826831023,9.713172767078504e-05,0.0907677188515663,0,0,0
2055,71304.22434037393,2010-10-16 13:00:57,810.4102298197047,2,7,0.5501165986061096,3.824887752532959,6.152582359508098,6.046343596698417,24.541419151936932,22.07756826831023,9.713172767078504e-05,0.0907677188515663,0,0,0
2056,71334.23953713471,2010-10-16 13:01:27,840.4254265754652,2,7,0.5501165986061096,3.828287363052368,6.157168973056925,6.046343596698417,24.558969972429285,22.07756826831023,3.237724376958795e-05,0.0907677188515663,0,0,0
2057,71364.25487199466,2010-10-16 13:01:57,870.440761550711,2,7,0.5501165986061096,3.831686973571777,6.161755628504574,6.046343596698417,24.576536661017432,22.07756826831023,6.47544875391759e-05,0.0907677188515663,0,0,0
2058,71394.26994871625,2010-10-16 13:02:27,900.4558381520096,2,7,0.5497553944587708,3.8349244594573975,6.166342323239793,6.046343596698417,24.594119233047028,22.07756826831023,6.47544875391759e-05,0.0907677188515663,0,0,0
2059,71424.28530401716,2010-10-16 13:02:57,930.4711935030384,2,7,0.5501165986061096,3.8384859561920166,6.170928876000922,6.046343596698417,24.61171695339817,22.07756826831023,6.47544875391759e-05,0.0907677188515663,0,0,0
2060,71454.30032519533,2010-10-16 13:03:27,960.486214676193,2,7,0.5501165986061096,3.841885566711426,6.17551455795804,6.046343596698417,24.629326746668333,22.07756826831023,6.47544875391759e-05,0.0907677188515663,0,0,0
2061,71484.31553371542,2010-10-16 13:03:57,990.501423156174,2,7,0.5499359965324402,3.845123291015625,6.180100483046827,6.046343596698417,24.646952745185075,22.07756826831023,9.713172767078504e-05,0.0907677188515663,0,0,0
2062,71514.33087037987,2010-10-16 13:04:28,1020.5167598306548,2,7,0.5501165986061096,3.848361015319824,6.184687090290074,6.046343596698417,24.66459649719146,22.07756826831023,6.47544875391759e-05,0.0907677188515663,0,0,0
2063,71544.34594171304,2010-10-16 13:04:58,1050.5318311487863,2,7,0.5501165986061096,3.8517606258392334,6.18927366898603,6.046343596698417,24.68225491171946,22.07756826831023,0.0001618862152099,0.0907677188515663,0,0,0
2064,71574.36125593154,2010-10-16 13:05:28,1080.547145377325,2,7,0.5501165986061096,3.8545126914978023,6.193860304684645,6.046343596698417,24.69992792420789,22.07756826831023,3.237724376958795e-05,0.0907677188515663,0,0,0
2065,71604.37650813049,2010-10-16 13:05:58,1110.5623975612295,2,7,0.5501165986061096,3.857750415802002,6.198446880321364,6.046343596698417,24.71761485034938,22.07756826831023,0.0001295089750783,0.0907677188515663,0,0,0
2066,71634.39166307705,2010-10-16 13:06:28,1140.577552522826,2,7,0.5501165986061096,3.860664367675781,6.203033538498112,6.046343596698417,24.735315801395213,22.07756826831023,6.47544875391759e-05,0.0907677188515663,0,0,0
2067,71664.4067127813,2010-10-16 13:06:58,1170.5926022220767,2,7,0.5501165986061096,3.8632545471191406,6.207620168886712,6.046343596698417,24.75302989901641,22.07756826831023,3.237724376958795e-05,0.0907677188515663,0,0,0
2068,71694.42189913616,2010-10-16 13:07:28,1200.6077886069895,2,7,0.5499359965324402,3.86616849899292,6.212206827216643,6.046343596698417,24.770756701289216,22.07756826831023,6.47544875391759e-05,0.0907677188515663,0,0,0
2069,71724.43711357097,2010-10-16 13:07:58,1230.623003021762,2,7,0.5501165986061096,3.8687586784362793,6.21679338917984,6.046343596698417,24.78849521471363,22.07756826831023,6.47544875391759e-05,0.0907677188515663,0,0,0
2070,71754.45231574523,2010-10-16 13:08:28,1260.6382052160768,2,7,0.5499359965324402,3.8710250854492183,6.221380013714334,6.046343596698417,24.80624536546148,22.07756826831023,3.237724376958795e-05,0.0907677188515663,0,0,0
2071,71784.46751353357,2010-10-16 13:08:58,1290.653402994386,2,7,0.5499359965324402,3.873453378677368,6.225966584261684,6.046343596698417,24.82400620068347,22.07756826831023,0.0,0.0907677188515663,0,0,0
2072,71814.48268227451,2010-10-16 13:09:28,1320.6685717403377,2,7,0.5501165986061096,3.875719785690308,6.230553120787806,6.046343596698417,24.84177701905929,22.07756826831023,9.713172767078504e-05,0.0907677188515663,0,0,0
2073,71844.4978948547,2010-10-16 13:09:58,1350.6837842954749,2,7,0.5501165986061096,3.877500534057617,6.235139709007011,6.046343596698417,24.859557698554585,22.07756826831023,0.0,0.0907677188515663,0,0,0
2074,71874.51308336492,2010-10-16 13:10:28,1380.6989728307474,2,7,0.5501165986061096,3.8794431686401367,6.23972631797831,6.046343596698417,24.877347395646428,22.07756826831023,6.47544875391759e-05,0.0907677188515663,0,0,0
2075,71904.52839028524,2010-10-16 13:10:58,1410.714279731022,2,7,0.550297200679779,3.8812239170074463,6.244312917854767,6.046343596698417,24.89514529224499,22.07756826831023,3.237724376958795e-05,0.0907677188515663,0,0,0
2076,71934.54344815486,2010-10-16 13:11:28,1440.7293375956233,2,7,0.5501165986061096,3.882842779159546,6.248899506802952,6.046343596698417,24.912950871968487,22.07756826831023,3.237724376958795e-05,0.0907677188515663,0,0,0
2077,71964.55864281539,2010-10-16 13:11:58,1470.7445322511487,2,7,0.5501165986061096,3.8844616413116455,6.253486131417083,6.046343596698417,24.9307638332018,22.07756826831023,3.237724376958795e-05,0.0907677188515663,0,0,0
2078,71994.57387350072,2010-10-16 13:12:28,1500.75976295151,2,7,0.5501165986061096,3.885756731033325,6.258072749717975,6.046343596698417,24.94858331788987,22.07756826831023,3.237724376958795e-05,0.0907677188515663,0,0,0
2079,72024.58903611639,2010-10-16 13:12:58,1530.7749255471333,2,7,0.5499359965324402,3.887051820755005,6.262659345760776,6.046343596698417,24.966409139188105,22.07756826831023,0.0,0.0907677188515663,0,0,0
2080,72054.60425214519,2010-10-16 13:13:28,1560.7901415859526,2,7,0.550297200679779,3.888346910476685,6.267245981942295,6.046343596698417,24.984241171523717,22.07756826831023,0.0,0.0907677188515663,0,0,0
2081,72084.62237115912,2010-10-16 13:13:58,1590.8082606299547,2,7,0.5499359965324402,3.889803886413574,6.271833037057879,6.046343596698417,25.002080763996084,22.07756826831023,3.237724376958795e-05,0.0907677188515663,0,0,0
2082,72114.63464855895,2010-10-16 13:14:28,1620.8205379997073,2,7,0.5499359965324402,3.890937089920044,6.276419256715407,6.046343596698417,25.01992281947452,22.07756826831023,0.0,0.0907677188515663,0,0,0
2083,72144.64994079767,2010-10-16 13:14:58,1650.8358302735278,2,7,0.5501165986061096,3.892232179641724,6.281005875899554,6.046343596698417,25.03777216979088,22.07756826831023,0.0,0.0907677188515663,0,0,0
2084,72174.66513353342,2010-10-16 13:15:28,1680.8510230042566,2,7,0.5501165986061096,3.893365383148194,6.285592563422624,6.046343596698417,25.055627383048183,22.07756826831023,0.0,0.0907677188515663,0,0,0
2085,72204.6802008215,2010-10-16 13:15:58,1710.8660902622692,2,7,0.5501165986061096,3.894498586654663,6.290179244859239,6.046343596698417,25.073488241148286,22.07756826831023,0.0,0.0907677188515663,0,0,0
2086,72234.69553647342,2010-10-16 13:16:28,1740.8814259442763,2,7,0.5499359965324402,3.895631790161133,6.294765948136969,6.046343596698417,25.091354190028955,22.07756826831023,-3.237724376958795e-05,0.0907677188515663,0,0,0
2087,72264.71065180126,2010-10-16 13:16:58,1770.8965412771058,2,7,0.5499359965324402,3.896926879882813,6.299352548978357,6.046343596698417,25.109225451488545,22.07756826831023,0.0,0.0907677188515663,0,0,0
2088,72294.72579893835,2010-10-16 13:17:28,1800.911688379114,2,7,0.5501165986061096,3.898221969604492,6.303939171316998,6.046343596698417,25.1271023626774,22.07756826831023,3.237724376958795e-05,0.0907677188515663,0,0,0
2089,72324.74112650011,2010-10-16 13:17:58,1830.9270159509083,2,7,0.5501165986061096,3.899517059326172,6.308525798273498,6.046343596698417,25.1449849179727,22.07756826831023,6.47544875391759e-05,0.0907677188515663,0,0,0
2090,72354.75620086586,2010-10-16 13:18:28,1860.9420903066105,2,7,0.550297200679779,3.9006502628326416,6.313112475652734,6.046343596698417,25.162873217510448,22.07756826831023,3.237724376958795e-05,0.0907677188515663,0,0,0
2091,72384.77148677882,2010-10-16 13:18:58,1890.9573762296031,2,7,0.5499359965324402,3.901945352554321,6.317699071198672,6.046343596698417,25.180766845294187,22.07756826831023,3.237724376958795e-05,0.0907677188515663,0,0,0
2092,72414.78656159567,2010-10-16 13:19:28,1920.972451061492,2,7,0.550297200679779,3.903078556060791,6.322285559102146,6.046343596698417,25.198665748730217,22.07756826831023,0.0,0.0907677188515663,0,0,0
2093,72444.80174469238,2010-10-16 13:19:58,1950.9876341331471,2,7,0.550297200679779,3.904373645782471,6.326872108971938,6.046343596698417,25.216570656772017,22.07756826831023,3.237724376958795e-05,0.0907677188515663,0,0,0
2094,72474.81711652949,2010-10-16 13:20:28,1981.003006025402,2,7,0.5501165986061096,3.9056687355041504,6.33145871468947,6.046343596698417,25.23448144365976,22.07756826831023,3.237724376958795e-05,0.0907677188515663,0,0,0
2095,72504.8321385598,2010-10-16 13:20:58,2011.0180279905303,2,7,0.550297200679779,3.90696382522583,6.336045272712354,6.046343596698417,25.252397856578604,22.07756826831023,0.0,0.0907677188515663,0,0,0
2096,72534.84732853365,2010-10-16 13:21:28,2041.033217999476,2,7,0.550297200679779,3.9082589149475098,6.340631918814257,6.046343596698417,25.27032044126162,22.07756826831023,6.47544875391759e-05,0.0907677188515663,0,0,0
2097,72564.86275442048,2010-10-16 13:21:58,2071.0486438812886,2,7,0.5499359965324402,3.90939211845398,6.345218572954433,6.046343596698417,25.28824898355554,22.07756826831023,0.0,0.0907677188515663,0,0,0
2098,72594.87803912042,2010-10-16 13:22:28,2101.0639286864957,2,7,0.5501165986061096,3.910849094390869,6.34980517777382,6.046343596698417,25.306183212204363,22.07756826831023,3.237724376958795e-05,0.0907677188515663,0,0,0
2099,72624.8929264099,2010-10-16 13:22:58,2131.0788158757214,2,7,0.5501165986061096,3.911982297897339,6.354391690957932,6.046343596698417,25.32412311470536,22.07756826831023,0.0,0.0907677188515663,0,0,0
2100,72654.90811789753,2010-10-16 13:23:28,2161.094007368364,2,7,0.5499359965324402,3.913439273834229,6.358978282051421,6.046343596698417,25.342069343903457,22.07756826831023,3.237724376958795e-05,0.0907677188515663,0,0,0
2101,72684.92333150028,2010-10-16 13:23:58,2191.1092209310127,2,7,0.550297200679779,3.914896011352539,6.363564938341525,6.046343596698417,25.360022015648017,22.07756826831023,3.237724376958795e-05,0.0907677188515663,0,0,0
2102,72714.9385232686,2010-10-16 13:24:28,2221.124412709368,2,7,0.550297200679779,3.9161911010742183,6.368151593833,6.046343596698417,25.37798064729376,22.07756826831023,9.713172767078504e-05,0.0907677188515663,0,0,0
2103,72744.95371866097,2010-10-16 13:24:58,2251.139608126793,2,7,0.5501165986061096,3.9174861907958975,6.372738172419485,6.046343596698417,25.395945197124984,22.07756826831023,6.47544875391759e-05,0.0907677188515663,0,0,0
2104,72774.96891757712,2010-10-16 13:25:28,2281.1548070429376,2,7,0.5501165986061096,3.918619394302368,6.377324809003359,6.046343596698417,25.41391621250775,22.07756826831023,0.0,0.0907677188515663,0,0,0
2105,72804.98422181574,2010-10-16 13:25:58,2311.1701112615287,2,7,0.5501165986061096,3.920076370239258,6.381911435448182,6.046343596698417,25.43189347588139,22.07756826831023,0.0,0.0907677188515663,0,0,0
2106,72834.99930201602,2010-10-16 13:26:28,2341.1851914567847,2,7,0.550297200679779,3.921695232391357,6.386498151057863,6.046343596698417,25.44987742842536,22.07756826831023,6.47544875391759e-05,0.0907677188515663,0,0,0
2107,72865.01449022048,2010-10-16 13:26:58,2371.200379706345,2,7,0.5499359965324402,3.922990322113037,6.39108476299181,6.046343596698417,25.467867350132355,22.07756826831023,3.237724376958795e-05,0.0907677188515663,0,0,0
2108,72895.02969600374,2010-10-16 13:27:28,2401.215585464542,2,7,0.5499359965324402,3.924447298049927,6.395671442741088,6.046343596698417,25.485864009765304,22.07756826831023,6.47544875391759e-05,0.0907677188515663,0,0,0
2109,72925.04487464935,2010-10-16 13:27:58,2431.230764110167,2,7,0.5501165986061096,3.9257423877716064,6.400258111250789,6.046343596698417,25.50386714057575,22.07756826831023,3.237724376958795e-05,0.0907677188515663,0,0,0
2110,72955.06008625713,2010-10-16 13:28:28,2461.245975722956,2,7,0.5501165986061096,3.927199363708496,6.404844774380559,6.046343596698417,25.521876707542248,22.07756826831023,3.237724376958795e-05,0.0907677188515663,0,0,0
2111,72985.07526036646,2010-10-16 13:28:58,2491.2611498021997,2,7,0.550297200679779,3.9286563396453857,6.4094313953377,6.046343596698417,25.539892739000777,22.07756826831023,3.237724376958795e-05,0.0907677188515663,0,0,0
2112,73015.09058645956,2010-10-16 13:29:28,2521.276475905333,2,7,0.550297200679779,3.930275201797485,6.414018009801152,6.046343596698417,25.55791539808136,22.07756826831023,6.47544875391759e-05,0.0907677188515663,0,0,0
2113,73045.1059020515,2010-10-16 13:29:58,2551.2917915223325,2,7,0.5501165986061096,3.931570291519165,6.418604656683703,6.046343596698417,25.575944904064237,22.07756826831023,0.0,0.0907677188515663,0,0,0
2114,73075.12086134042,2010-10-16 13:30:28,2581.306750781177,2,7,0.5501165986061096,3.9331891536712646,6.423191186205736,6.046343596698417,25.593980686540817,22.07756826831023,6.47544875391759e-05,0.0907677188515663,0,0,0
2115,73105.1360675748,2010-10-16 13:30:58,2611.3219570055367,2,7,0.550297200679779,3.9346461296081534,6.427777869426937,6.046343596698417,25.61202391735048,22.07756826831023,3.237724376958795e-05,0.0907677188515663,0,0,0
2116,73135.1512468921,2010-10-16 13:31:28,2641.337136387998,2,7,0.5501165986061096,3.936103105545044,6.432364585027664,6.046343596698417,25.630074191212145,22.07756826831023,6.47544875391759e-05,0.0907677188515663,0,0,0
2117,73165.16645025434,2010-10-16 13:31:58,2671.352339715136,2,7,0.550297200679779,3.937721967697144,6.436951196082366,6.046343596698417,25.648130820162688,22.07756826831023,9.713172767078504e-05,0.0907677188515663,0,0,0
2118,73195.18165630325,2010-10-16 13:32:28,2701.367545749021,2,7,0.5501165986061096,3.939178943634033,6.441537853529241,6.046343596698417,25.666194725587548,22.07756826831023,3.237724376958795e-05,0.0907677188515663,0,0,0
2119,73225.19683248774,2010-10-16 13:32:58,2731.3827219635864,2,7,0.550297200679779,3.940797805786133,6.446124489183814,6.046343596698417,25.68426560544191,22.07756826831023,6.47544875391759e-05,0.0907677188515663,0,0,0
2120,73255.21210248102,2010-10-16 13:33:28,2761.397991921789,2,7,0.5501165986061096,3.9422547817230233,6.450711177318065,6.046343596698417,25.702343790697896,22.07756826831023,3.237724376958795e-05,0.0907677188515663,0,0,0
2121,73285.22734316628,2010-10-16 13:33:58,2791.413232697261,2,7,0.550297200679779,3.943873643875122,6.455297845598051,6.046343596698417,25.72042905783988,22.07756826831023,6.47544875391759e-05,0.0907677188515663,0,0,0
2122,73315.2424124794,2010-10-16 13:34:28,2821.428301910146,2,7,0.5501165986061096,3.945330619812012,6.459884494104012,6.046343596698417,25.73852141651101,22.07756826831023,6.47544875391759e-05,0.0907677188515663,0,0,0
2123,73345.25758417771,2010-10-16 13:34:58,2851.443473668605,2,7,0.5501165986061096,3.9469494819641113,6.464471128337662,6.046343596698417,25.75662097387162,22.07756826831023,6.47544875391759e-05,0.0907677188515663,0,0,0
2124,73375.27279939449,2010-10-16 13:35:28,2881.458688825226,2,7,0.5501165986061096,3.948406457901001,6.469057741339194,6.046343596698417,25.774727701387427,22.07756826831023,0.0,0.0907677188515663,0,0,0
2125,73405.28797538349,2010-10-16 13:35:58,2911.473864844304,2,7,0.5501165986061096,3.950187206268311,6.473644327582421,6.046343596698417,25.792841670237777,22.07756826831023,3.237724376958795e-05,0.0907677188515663,0,0,0
2126,73435.30331916569,2010-10-16 13:36:29,2941.4892086064497,2,7,0.5501165986061096,3.95196795463562,6.478230959547264,6.046343596698417,25.81096328693813,22.07756826831023,0.0001295089750783,0.0907677188515663,0,0,0
2127,73465.31837601276,2010-10-16 13:36:59,2971.50426544349,2,7,0.550297200679779,3.95358681678772,6.482817603943548,6.046343596698417,25.829092436926967,22.07756826831023,6.47544875391759e-05,0.0907677188515663,0,0,0
2128,73495.33356376106,2010-10-16 13:37:29,3001.519453221876,2,7,0.5501165986061096,3.9552056789398193,6.48740427030769,6.046343596698417,25.84722931317247,22.07756826831023,6.47544875391759e-05,0.0907677188515663,0,0,0
2129,73525.34897715675,2010-10-16 13:37:59,3031.53486675792,2,7,0.5501165986061096,3.956824541091919,6.491990916022832,6.046343596698417,25.86537375069543,22.07756826831023,3.237724376958795e-05,0.0907677188515663,0,0,0
2130,73555.36398112704,2010-10-16 13:38:29,3061.5498705928626,2,7,0.5501165986061096,3.958605289459229,6.496577547989874,6.046343596698417,25.88352568614534,22.07756826831023,6.47544875391759e-05,0.0907677188515663,0,0,0
2131,73585.37916953198,2010-10-16 13:38:59,3091.56505899781,2,7,0.550297200679779,3.960224151611328,6.501164218934626,6.046343596698417,25.90168559863161,22.07756826831023,9.713172767078504e-05,0.0907677188515663,0,0,0
2132,73615.39434680417,2010-10-16 13:39:29,3121.580236234924,2,7,0.5501165986061096,3.961843013763428,6.505750925348536,6.046343596698417,25.91985353127725,22.07756826831023,3.237724376958795e-05,0.0907677188515663,0,0,0
2133,73645.40953667779,2010-10-16 13:39:59,3151.595426118557,2,7,0.5501165986061096,3.9634618759155273,6.510337590720178,6.046343596698417,25.938029126372623,22.07756826831023,3.237724376958795e-05,0.0907677188515663,0,0,0
2134,73675.42474985949,2010-10-16 13:40:29,3181.6106393203054,2,7,0.5499359965324402,3.965242624282837,6.514924260343271,6.046343596698417,25.9562126923224,22.07756826831023,6.47544875391759e-05,0.0907677188515663,0,0,0
2135,73705.4399373622,2010-10-16 13:40:59,3211.6258268280176,2,7,0.5497553944587708,3.966861486434937,6.519510942622016,6.046343596698417,25.974404367927647,22.07756826831023,0.0,0.0907677188515663,0,0,0
2136,73735.45521200707,2010-10-16 13:41:29,3241.6411015029767,2,7,0.550297200679779,3.968966007232666,6.52409771296936,6.046343596698417,25.992604349365923,22.07756826831023,6.47544875391759e-05,0.0907677188515663,0,0,0
2137,73765.4703510089,2010-10-16 13:41:59,3271.6562404446468,2,7,0.5501165986061096,3.9705848693847656,6.528684380333004,6.046343596698417,26.010812034653817,22.07756826831023,3.237724376958795e-05,0.0907677188515663,0,0,0
2138,73795.48553106304,2010-10-16 13:42:29,3301.6714204987816,2,7,0.5501165986061096,3.972365617752075,6.533271049081562,6.046343596698417,26.029027976150225,22.07756826831023,6.47544875391759e-05,0.0907677188515663,0,0,0
2139,73825.50072184892,2010-10-16 13:42:59,3331.6866113047136,2,7,0.5501165986061096,3.9741463661193848,6.537857805421871,6.046343596698417,26.047252480008527,22.07756826831023,3.237724376958795e-05,0.0907677188515663,0,0,0
2140,73855.51590755212,2010-10-16 13:43:29,3361.70179701294,2,7,0.5501165986061096,3.976089000701904,6.542444589357617,6.046343596698417,26.065485526510795,22.07756826831023,6.47544875391759e-05,0.0907677188515663,0,0,0
2141,73885.53110346578,2010-10-16 13:43:59,3391.7169929015395,2,7,0.5501165986061096,3.977869749069214,6.547031394979655,6.046343596698417,26.083727099434856,22.07756826831023,6.47544875391759e-05,0.0907677188515663,0,0,0
2142,73915.54631556479,2010-10-16 13:44:29,3421.732205025602,2,7,0.5501165986061096,3.979812383651733,6.551618068657539,6.046343596698417,26.101976322077338,22.07756826831023,3.237724376958795e-05,0.0907677188515663,0,0,0
2143,73945.56143761937,2010-10-16 13:44:59,3451.747327075172,2,7,0.5501165986061096,3.981755018234253,6.556204709693407,6.046343596698417,26.12023447094433,22.07756826831023,6.47544875391759e-05,0.0907677188515663,0,0,0
2144,73975.57668057026,2010-10-16 13:45:29,3481.7625700260646,2,7,0.5501165986061096,3.9835357666015625,6.560791358573566,6.046343596698417,26.138501332781708,22.07756826831023,6.47544875391759e-05,0.0907677188515663,0,0,0
2145,74005.59317939618,2010-10-16 13:45:59,3511.7790689873223,2,7,0.5501165986061096,3.985316514968872,6.565378055612326,6.046343596698417,26.15677722549991,22.07756826831023,0.0,0.0907677188515663,0,0,0
2146,74035.6071122469,2010-10-16 13:46:29,3541.793001802955,2,7,0.5497553944587708,3.9874210357666016,6.569964478579734,6.046343596698417,26.17506102901673,22.07756826831023,6.47544875391759e-05,0.0907677188515663,0,0,0
2147,74065.62219515392,2010-10-16 13:46:59,3571.8080845946824,2,7,0.5501165986061096,3.989525556564331,6.574551102589296,6.046343596698417,26.19335465772957,22.07756826831023,6.47544875391759e-05,0.0907677188515663,0,0,0
2148,74095.63745815479,2010-10-16 13:47:29,3601.823347615596,2,7,0.550297200679779,3.991630077362061,6.579137742017177,6.046343596698417,26.211657562837065,22.07756826831023,9.713172767078504e-05,0.0907677188515663,0,0,0
2149,74125.65264753214,2010-10-16 13:47:59,3631.8385369729167,2,7,0.550297200679779,3.99341082572937,6.583724345729138,6.046343596698417,26.229969619169744,22.07756826831023,3.237724376958795e-05,0.0907677188515663,0,0,0
2150,74155.66787946557,2010-10-16 13:48:29,3661.853768896327,2,7,0.550297200679779,3.9956769943237305,6.588310963720642,6.046343596698417,26.248291137027493,22.07756826831023,6.47544875391759e-05,0.0907677188515663,0,0,0
2151,74185.6830435399,2010-10-16 13:48:59,3691.8689329806593,2,7,0.5501165986061096,3.99778151512146,6.592897596523319,6.046343596698417,26.266622271032556,22.07756826831023,6.47544875391759e-05,0.0907677188515663,0,0,0
2152,74215.69823458142,2010-10-16 13:49:29,3721.884124042229,2,7,0.550297200679779,3.9998860359191895,6.59748425534371,6.046343596698417,26.28496304377157,22.07756826831023,6.47544875391759e-05,0.0907677188515663,0,0,0
2153,74245.7135576971,2010-10-16 13:49:59,3751.8994471579167,2,7,0.5501165986061096,4.001828670501709,6.602070888341187,6.046343596698417,26.30331342423257,22.07756826831023,3.23295607813634e-05,0.0907677188515663,0,0,0
2154,74275.7286418021,2010-10-16 13:50:29,3781.9145312328415,2,7,0.550297200679779,4.0042572021484375,6.606657456748003,6.046343596698417,26.321673366851886,22.07756826831023,9.71794142969884e-05,0.0907677188515663,0,0,0
2155,74305.74382516448,2010-10-16 13:50:59,3811.9297146002345,2,7,0.550297200679779,4.006361484527588,6.611244032805783,6.046343596698417,26.340043229270243,22.07756826831023,9.70840483205393e-05,0.0907677188515663,0,0,0
2156,74335.75918836007,2010-10-16 13:51:29,3841.945077845939,2,7,0.5501165986061096,4.0084662437438965,6.615830655173131,6.046343596698417,26.358423268896104,22.07756826831023,9.71794142969884e-05,0.0907677188515663,0,0,0
2157,74365.77424837503,2010-10-16 13:51:59,3871.960137860899,2,7,0.5501165986061096,4.010570526123047,6.620417171524939,6.046343596698417,26.376812859755937,22.07756826831023,6.47544875391759e-05,0.0907677188515663,0,0,0
2158,74395.78944654431,2010-10-16 13:52:29,3901.9753360101327,2,7,0.5499359965324402,4.012675285339356,6.625003763642801,6.046343596698417,26.395212951934106,22.07756826831023,3.24249267578125e-05,0.0907677188515663,0,0,0
2159,74425.80460795197,2010-10-16 13:52:59,3931.99049738772,2,7,0.5497553944587708,4.014941692352295,6.629590351448704,6.046343596698417,26.413623276194063,22.07756826831023,3.24249267578125e-05,0.0907677188515663,0,0,0
2160,74455.8199271529,2010-10-16 13:53:29,3962.0058166187264,2,7,0.5499359965324402,4.017208099365234,6.63417697214763,6.046343596698417,26.432044093612912,22.07756826831023,6.47544875391759e-05,0.0907677188515663,0,0,0
2161,74485.8352019682,2010-10-16 13:53:59,3992.0210914189984,2,7,0.5501165986061096,4.019474506378174,6.638763553717903,6.046343596698417,26.450475053184928,22.07756826831023,3.24249267578125e-05,0.0907677188515663,0,0,0
2162,74515.85061916838,2010-10-16 13:54:29,4022.0365087344608,2,7,0.5499359965324402,4.021740913391113,6.64335016558204,6.046343596698417,26.46891664789323,22.07756826831023,3.24249267578125e-05,0.0907677188515663,0,0,0
2163,74545.86539835845,2010-10-16 13:54:59,4052.051287794194,2,7,0.5501165986061096,4.024168968200684,6.647936660027025,6.046343596698417,26.487368442936067,22.07756826831023,6.47544875391759e-05,0.0907677188515663,0,0,0
2164,74575.88088794403,2010-10-16 13:55:29,4082.066777535165,2,7,0.5501165986061096,4.026435375213623,6.652523381735684,6.046343596698417,26.505831865206687,22.07756826831023,0.0,0.0907677188515663,0,0,0
2165,74605.89578074725,2010-10-16 13:55:59,4112.08167021307,2,7,0.5501165986061096,4.028863906860352,6.657109955998755,6.046343596698417,26.52430549496496,22.07756826831023,6.47544875391759e-05,0.0907677188515663,0,0,0
2166,74635.9110154225,2010-10-16 13:56:29,4142.09690485325,2,7,0.5501165986061096,4.031291961669922,6.661696611943495,6.046343596698417,26.54279026941641,22.07756826831023,6.47544875391759e-05,0.0907677188515663,0,0,0
2167,74665.92617719108,2010-10-16 13:56:59,4172.112066626824,2,7,0.550297200679779,4.033882141113281,6.666283166571117,6.046343596698417,26.56128559397225,22.07756826831023,0.0001295089750783,0.0907677188515663,0,0,0
2168,74695.94137889917,2010-10-16 13:57:29,4202.127268339939,2,7,0.5501165986061096,4.036148548126221,6.670869770328196,6.046343596698417,26.57979221435149,22.07756826831023,6.47544875391759e-05,0.0907677188515663,0,0,0
2169,74725.95668714281,2010-10-16 13:57:59,4232.142576603612,2,7,0.550297200679779,4.038576602935791,6.675456420152905,6.046343596698417,26.598310173354225,22.07756826831023,9.70840483205393e-05,0.0907677188515663,0,0,0
2170,74755.9717768217,2010-10-16 13:58:29,4262.1576662524285,2,7,0.5501165986061096,4.04100513458252,6.680043050417468,6.046343596698417,26.61683927480375,22.07756826831023,6.47544875391759e-05,0.0907677188515663,0,0,0
2171,74785.98712386703,2010-10-16 13:58:59,4292.173013317808,2,7,0.5499359965324402,4.043595314025879,6.684629678833607,6.046343596698417,26.635379762011304,22.07756826831023,6.47544875391759e-05,0.0907677188515663,0,0,0
2172,74816.00217555623,2010-10-16 13:59:29,4322.188064991979,2,7,0.550297200679779,4.046185493469238,6.689216215765065,6.046343596698417,26.65393144336456,22.07756826831023,6.47544875391759e-05,0.0907677188515663,0,0,0
2173,74846.01736797117,2010-10-16 13:59:59,4352.203257406922,2,7,0.5501165986061096,4.048613548278809,6.693802781885144,6.046343596698417,26.67249490640503,22.07756826831023,9.70840483205393e-05,0.0907677188515663,0,0,0
2174,74876.03270980851,2010-10-16 14:00:29,4382.218599254295,2,7,0.5499359965324402,4.051203727722168,6.698389429179323,6.046343596698417,26.69107044745852,22.07756826831023,9.70840483205393e-05,0.0907677188515663,0,0,0
2175,74906.0478013671,2010-10-16 14:00:59,4412.233690837935,2,7,0.550297200679779,4.053793907165527,6.702975961922564,6.046343596698417,26.709657385622545,22.07756826831023,6.47544875391759e-05,0.0907677188515663,0,0,0
2176,74936.0629681331,2010-10-16 14:01:29,4442.248857608964,2,7,0.550297200679779,4.056546211242676,6.707562576777639,6.046343596698417,26.72825662794348,22.07756826831023,6.47544875391759e-05,0.0907677188515663,0,0,0
2177,74966.07828046693,2010-10-16 14:01:59,4472.264169947793,2,7,0.5501165986061096,4.059136390686035,6.712149213818312,6.046343596698417,26.746868019037297,22.07756826831023,9.71794142969884e-05,0.0907677188515663,0,0,0
2178,74996.09338712814,2010-10-16 14:02:29,4502.279276593973,2,7,0.550297200679779,4.0617265701293945,6.716735833257462,6.046343596698417,26.765491264326897,22.07756826831023,9.71794142969884e-05,0.0907677188515663,0,0,0
2179,75026.10855750316,2010-10-16 14:02:59,4532.2944469389095,2,7,0.5499359965324402,4.064316749572754,6.721322386098714,6.046343596698417,26.78412638463376,22.07756826831023,6.47544875391759e-05,0.0907677188515663,0,0,0
2180,75056.12374455975,2010-10-16 14:03:29,4562.309634025572,2,7,0.5501165986061096,4.067068576812744,6.725908925388703,6.046343596698417,26.802773824800127,22.07756826831023,6.47544875391759e-05,0.0907677188515663,0,0,0
2181,75086.13905561538,2010-10-16 14:03:59,4592.32494505614,2,7,0.550297200679779,4.069820880889893,6.730495467698384,6.046343596698417,26.821433778270137,22.07756826831023,6.47544875391759e-05,0.0907677188515663,0,0,0
2182,75116.15417244694,2010-10-16 14:04:29,4622.34006191778,2,7,0.5501165986061096,4.072572708129883,6.735081981277093,6.046343596698417,26.840106229557858,22.07756826831023,9.70840483205393e-05,0.0907677188515663,0,0,0
2183,75146.16933416537,2010-10-16 14:04:59,4652.355223601129,2,7,0.5501165986061096,4.075325012207031,6.739668488826668,6.046343596698417,26.858791423833505,22.07756826831023,6.47544875391759e-05,0.0907677188515663,0,0,0
2184,75176.18465435378,2010-10-16 14:05:29,4682.370543794535,2,7,0.550297200679779,4.0782389640808105,6.744255091218865,6.046343596698417,26.877489948409075,22.07756826831023,9.71794142969884e-05,0.0907677188515663,0,0,0
2185,75206.19998911848,2010-10-16 14:05:59,4712.385878559255,2,7,0.5501165986061096,4.080990791320801,6.748841701739814,6.046343596698417,26.896201573070737,22.07756826831023,6.47544875391759e-05,0.0907677188515663,0,0,0
2186,75236.21508035125,2010-10-16 14:06:29,4742.400969802045,2,7,0.5501165986061096,4.08390474319458,6.753428225443268,6.046343596698417,26.91492585534903,22.07756826831023,3.23295607813634e-05,0.0907677188515663,0,0,0
2187,75266.23024607968,2010-10-16 14:06:59,4772.416135525463,2,7,0.5499359965324402,4.086818695068359,6.758014741092706,6.046343596698417,26.933663323339665,22.07756826831023,9.70840483205393e-05,0.0907677188515663,0,0,0
2188,75296.24533168343,2010-10-16 14:07:29,4802.431221134212,2,7,0.5501165986061096,4.089894771575928,6.76260126737385,6.046343596698417,26.952414165774467,22.07756826831023,9.71794142969884e-05,0.0907677188515663,0,0,0
2189,75326.26051577763,2010-10-16 14:07:59,4832.446405343703,2,7,0.5501165986061096,4.092484951019287,6.767187836505787,6.046343596698417,26.97117857820445,22.07756826831023,3.24249267578125e-05,0.0907677188515663,0,0,0
2190,75356.27573278383,2010-10-16 14:08:30,4862.461622249683,2,7,0.5501165986061096,4.095722675323486,6.771774364121369,6.046343596698417,26.98995636048112,22.07756826831023,6.47544875391759e-05,0.0907677188515663,0,0,0
2191,75386.2909028832,2010-10-16 14:09:00,4892.476792343996,2,7,0.5501165986061096,4.098636627197266,6.776360947317646,6.046343596698417,27.008748112608515,22.07756826831023,0.0001295089750783,0.0907677188515663,0,0,0
2192,75416.30612969886,2010-10-16 14:09:30,4922.492019134613,2,7,0.5501165986061096,4.101712226867676,6.780947474966487,6.046343596698417,27.02755345258319,22.07756826831023,6.47544875391759e-05,0.0907677188515663,0,0,0
2193,75446.32151375644,2010-10-16 14:10:00,4952.507403252336,2,7,0.5499359965324402,4.104464530944824,6.785534149631456,6.046343596698417,27.046373337815528,22.07756826831023,0.0,0.0907677188515663,0,0,0
2194,75476.33652743092,2010-10-16 14:10:30,4982.522416981939,2,7,0.5501165986061096,4.107702255249023,6.790120708597265,6.046343596698417,27.065206920696436,22.07756826831023,6.47544875391759e-05,0.0907677188515663,0,0,0
2195,75506.35169095884,2010-10-16 14:11:00,5012.537580389586,2,7,0.5499359965324402,4.110777854919434,6.794707239352993,6.046343596698417,27.08405457491003,22.07756826831023,6.47544875391759e-05,0.0907677188515663,0,0,0
2196,75536.36701547803,2010-10-16 14:11:30,5042.552904928823,2,7,0.5499359965324402,4.114015579223633,6.799293854651726,6.046343596698417,27.102916775758008,22.07756826831023,9.70840483205393e-05,0.0907677188515663,0,0,0
2197,75566.38208895655,2010-10-16 14:12:00,5072.567978397314,2,7,0.550297200679779,4.117253303527832,6.803880410114211,6.046343596698417,27.12179311123962,22.07756826831023,9.71794142969884e-05,0.0907677188515663,0,0,0
2198,75596.39741888923,2010-10-16 14:12:30,5102.583308340017,2,7,0.5501165986061096,4.120491027832031,6.808466998345461,6.046343596698417,27.14068410704948,22.07756826831023,0.0001295089750783,0.0907677188515663,0,0,0
2199,75626.41252109934,2010-10-16 14:13:00,5132.598410565178,2,7,0.5501165986061096,4.123566627502441,6.813053568636144,6.046343596698417,27.15958969795632,22.07756826831023,6.47544875391759e-05,0.0907677188515663,0,0,0
2200,75656.42768155965,2010-10-16 14:13:30,5162.613571110691,2,7,0.5501165986061096,4.12696647644043,6.817640070020071,6.046343596698417,27.17850982974534,22.07756826831023,9.71794142969884e-05,0.0907677188515663,0,0,0
2201,75686.44289471128,2010-10-16 14:14:00,5192.628784177103,2,7,0.5501165986061096,4.13004207611084,6.822226659620105,6.046343596698417,27.19744528571452,22.07756826831023,9.70840483205393e-05,0.0907677188515663,0,0,0
2202,75716.45808731669,2010-10-16 14:14:30,5222.643976747432,2,7,0.5501165986061096,4.133279800415039,6.826813238651437,6.046343596698417,27.216395756681877,22.07756826831023,6.47544875391759e-05,0.0907677188515663,0,0,0
2203,75746.47329246838,2010-10-16 14:15:00,5252.6591819291925,2,7,0.5501165986061096,4.136841297149658,6.831399830801335,6.046343596698417,27.23536146477979,22.07756826831023,9.70840483205393e-05,0.0907677188515663,0,0,0
2204,75776.48845777576,2010-10-16 14:15:30,5282.674347221537,2,7,0.5501165986061096,4.139917373657227,6.835986403893899,6.046343596698417,27.25434238839678,22.07756826831023,3.24249267578125e-05,0.0907677188515663,0,0,0
2205,75806.50366642617,2010-10-16 14:16:00,5312.689555881968,2,7,0.550297200679779,4.143478870391846,6.840572965278973,6.046343596698417,27.27333863182927,22.07756826831023,0.0001295089750783,0.0907677188515663,0,0,0
2206,75836.51888380833,2010-10-16 14:16:30,5342.70477329421,2,7,0.550297200679779,4.147040367126465,6.845159507487186,6.046343596698417,27.292350415873347,22.07756826831023,0.0001295089750783,0.0907677188515663,0,0,0
2207,75866.53405152172,2010-10-16 14:17:00,5372.719940987538,2,7,0.5499359965324402,4.150278091430664,6.849745986591108,6.046343596698417,27.31137769147086,22.07756826831023,9.71794142969884e-05,0.0907677188515663,0,0,0
2208,75896.54924791657,2010-10-16 14:17:30,5402.735137442549,2,7,0.5499359965324402,4.153515815734863,6.854332508890455,6.046343596698417,27.3304209114786,22.07756826831023,6.47544875391759e-05,0.0907677188515663,0,0,0
2209,75926.56736912097,2010-10-16 14:18:00,5432.75325869706,2,7,0.550297200679779,4.157238960266113,6.858919454154776,6.046343596698417,27.349481600120583,22.07756826831023,9.70840483205393e-05,0.0907677188515663,0,0,0
2210,75956.57966925745,2010-10-16 14:18:30,5462.765558693205,2,7,0.5501165986061096,4.160800457000732,6.863505542540348,6.046343596698417,27.368554704303676,22.07756826831023,0.0001295089750783,0.0907677188515663,0,0,0
2211,75986.59483917632,2010-10-16 14:19:00,5492.780728622104,2,7,0.5499359965324402,4.164200305938721,6.868092110804422,6.046343596698417,27.387645898156283,22.07756826831023,9.71794142969884e-05,0.0907677188515663,0,0,0
2212,76016.61003374666,2010-10-16 14:19:30,5522.795923227506,2,7,0.5501165986061096,4.16776180267334,6.872678666207404,6.046343596698417,27.406753150285425,22.07756826831023,9.71794142969884e-05,0.0907677188515663,0,0,0
2213,76046.62524972532,2010-10-16 14:20:00,5552.81113919615,2,7,0.5499359965324402,4.17116117477417,6.877265198990159,6.046343596698417,27.42587663983233,22.07756826831023,9.70840483205393e-05,0.0907677188515663,0,0,0
2214,76076.64086070344,2010-10-16 14:20:30,5582.826750184306,2,7,0.550297200679779,4.174722671508789,6.88185182083109,6.046343596698417,27.44501682203624,22.07756826831023,6.47544875391759e-05,0.0907677188515663,0,0,0
2215,76106.65562684096,2010-10-16 14:21:00,5612.841516281734,2,7,0.5499359965324402,4.178284168243408,6.886438240886873,6.046343596698417,27.464172524091023,22.07756826831023,3.23295607813634e-05,0.0907677188515663,0,0,0
2216,76136.67081822835,2010-10-16 14:21:30,5642.856707674127,2,7,0.550297200679779,4.182007789611816,6.891024805687224,6.046343596698417,27.483345363648684,22.07756826831023,9.71794142969884e-05,0.0907677188515663,0,0,0
2217,76166.68617175984,2010-10-16 14:22:00,5672.872061320907,2,7,0.5501165986061096,4.185730934143066,6.895611422314356,6.046343596698417,27.50253500577972,22.07756826831023,9.70840483205393e-05,0.0907677188515663,0,0,0
2218,76196.70124762431,2010-10-16 14:22:30,5702.887137155294,2,7,0.550297200679779,4.189454555511475,6.900197898962681,6.046343596698417,27.521740822972188,22.07756826831023,0.0001295089750783,0.0907677188515663,0,0,0
2219,76226.71641148809,2010-10-16 14:23:00,5732.902300923841,2,7,0.550297200679779,4.193016052246094,6.904784433504975,6.046343596698417,27.540963763124743,22.07756826831023,9.71794142969884e-05,0.0907677188515663,0,0,0
2220,76256.73165071971,2010-10-16 14:23:30,5762.917540190551,2,7,0.550297200679779,4.196900844573975,6.909370989086979,6.046343596698417,27.560203925444565,22.07756826831023,0.0001295089750783,0.0907677188515663,0,0,0
2221,76281.8253734479,2010-10-16 14:23:55,5788.011262943799,2,7,0.550297200679779,4.200138568878174,6.913205885006422,6.046343596698417,27.57630417111904,22.07756826831023,0.0001618385285837,0.0907677188515663,0,0,0
2222,76311.84462052232,2010-10-16 14:24:25,30.01519732718468,3,7,0.0,4.118062496185303,6.913205885006422,6.046343596698417,27.57630417111904,22.07756826831023,-0.0003561973571777,0.0907677188515663,0,0,0
2223,76341.8598195738,2010-10-16 14:24:55,60.03039638367933,3,7,0.0,4.107863903045654,6.913205885006422,6.046343596698417,27.57630417111904,22.07756826831023,-0.0001942634553415,0.0907677188515663,0,0,0
2224,76371.87502088591,2010-10-16 14:25:25,90.04559778100804,3,7,0.0,4.101874351501465,6.913205885006422,6.046343596698417,27.57630417111904,22.07756826831023,-9.70840483205393e-05,0.0907677188515663,0,0,0
2225,76401.84336462955,2010-10-16 14:25:55,120.01394144444616,3,7,0.0,4.097826957702637,6.913205885006422,6.046343596698417,27.57630417111904,22.07756826831023,-0.0001295089750783,0.0907677188515663,0,0,0
2226,76401.85733120308,2010-10-16 14:25:55,0.015642566087788,4,7,0.9920675158500672,4.199653148651123,6.913210211394197,6.046343596698417,27.57632234044708,22.07756826831023,0.0,0.0907677188515663,0,0,0
2227,76402.88851391769,2010-10-16 14:25:56,1.046825190474722,4,7,0.9418581128120422,4.199653148651123,6.913485822968161,6.046343596698417,27.577479813505263,22.07756826831023,0.0,0.0907677188515663,0,0,0
2228,76405.06040926918,2010-10-16 14:25:59,3.218720546978624,4,7,0.8914681673049927,4.199814796447754,6.914037720855957,6.046343596698417,27.579797604961463,22.07756826831023,3.23295607813634e-05,0.0907677188515663,0,0,0
2229,76408.29471433758,2010-10-16 14:26:02,6.453025610367377,4,7,0.8414393663406372,4.199814796447754,6.914814970870228,6.046343596698417,27.58306180160213,22.07756826831023,3.23295607813634e-05,0.0907677188515663,0,0,0
2230,76412.68524797834,2010-10-16 14:26:06,10.8435592461211,4,7,0.7910493612289429,4.199653148651123,6.915809311336405,6.046343596698417,27.58723771787333,22.07756826831023,0.0,0.0907677188515663,0,0,0
2231,76418.43519648424,2010-10-16 14:26:12,16.5935077570252,4,7,0.7404788136482239,4.199653148651123,6.917031321109623,6.046343596698417,27.59236977711778,22.07756826831023,-3.23295607813634e-05,0.0907677188515663,0,0,0
2232,76425.88818458884,2010-10-16 14:26:19,24.04649586160893,4,7,0.690269410610199,4.199653148651123,6.918510782944157,6.046343596698417,27.598583061884,22.07756826831023,0.0,0.0907677188515663,0,0,0
2233,76435.74742344567,2010-10-16 14:26:29,33.90573471343965,4,7,0.6400600075721741,4.199653148651123,6.920329790453894,6.046343596698417,27.606222334018373,22.07756826831023,3.24249267578125e-05,0.0907677188515663,0,0,0
2234,76449.32525273405,2010-10-16 14:26:43,47.48356404191986,4,7,0.5896700620651245,4.199653148651123,6.92264517047095,6.046343596698417,27.615946230337524,22.07756826831023,-3.23295607813634e-05,0.0907677188515663,0,0,0
2235,76470.2156758212,2010-10-16 14:27:04,68.37398711905055,4,7,0.539641261100769,4.199814796447754,6.925912354760857,6.046343596698417,27.62966731659867,22.07756826831023,6.47544875391759e-05,0.0907677188515663,0,0,0
2236,76505.32455545699,2010-10-16 14:27:39,103.48286676486012,4,7,0.4896125197410583,4.199491024017334,6.930909793455563,6.046343596698417,27.65065489715943,22.07756826831023,-3.24249267578125e-05,0.0907677188515663,0,0,0
2237,76567.29240273943,2010-10-16 14:28:41,165.45071404230546,4,7,0.4395837485790252,4.199653148651123,6.938873208864261,6.046343596698417,27.6840986176513,22.07756826831023,3.24249267578125e-05,0.0907677188515663,0,0,0
2238,76662.21293415505,2010-10-16 14:30:16,260.371245452898,4,7,0.3895549774169922,4.199491024017334,6.949778702891257,6.046343596698417,27.72989820117171,22.07756826831023,-6.47544875391759e-05,0.0907677188515663,0,0,0
2239,76781.86747768932,2010-10-16 14:32:15,380.0257889621056,4,7,0.3395262062549591,4.199491024017334,6.961877762144914,6.046343596698417,27.78071043878901,22.07756826831023,-6.47544875391759e-05,0.0907677188515663,0,0,0
2240,76924.25606765739,2010-10-16 14:34:38,522.4143789301799,4,7,0.289497435092926,4.199491024017334,6.974298822472536,6.046343596698417,27.83287500539128,22.07756826831023,-3.24249267578125e-05,0.0907677188515663,0,0,0
2241,77096.19124194985,2010-10-16 14:37:30,694.3495533279096,4,7,0.2394686639308929,4.199491024017334,6.98690433746454,6.046343596698417,27.885814182076217,22.07756826831023,-6.47544875391759e-05,0.0907677188515663,0,0,0
2242,77308.87570424628,2010-10-16 14:41:02,907.034015549138,4,7,0.1894398927688598,4.199653148651123,6.999527937192262,6.046343596698417,27.938829236396806,22.07756826831023,-3.23295607813634e-05,0.0907677188515663,0,0,0
2243,77592.4809241424,2010-10-16 14:45:46,1190.6392354202012,4,7,0.1392305046319961,4.199491024017334,7.012401846299702,6.046343596698417,27.99289551768466,22.07756826831023,-3.24249267578125e-05,0.0907677188515663,0,0,0
2244,78026.50612627232,2010-10-16 14:53:00,1624.6644375451124,4,7,0.0892017409205436,4.199814796447754,7.025962516444837,6.046343596698417,28.04984598995305,22.07756826831023,3.23295607813634e-05,0.0907677188515663,0,0,0
2245,78637.20035492604,2010-10-16 15:03:11,2235.358666218884,4,7,0.0498289167881011,4.199491024017334,7.037421185016005,6.046343596698417,28.09796855113459,22.07756826831023,-3.24249267578125e-05,0.0907677188515663,0,0,0
2246,78667.21466970247,2010-10-16 15:03:41,30.01529379761868,5,7,0.0,4.192044734954834,7.037421185016005,6.046343596698417,28.09796855113459,22.07756826831023,-6.47544875391759e-05,0.0907677188515663,0,0,0
2247,78697.21411131657,2010-10-16 15:04:11,60.01473538164348,5,7,0.0,4.190911293029785,7.037421185016005,6.046343596698417,28.09796855113459,22.07756826831023,0.0,0.0907677188515663,0,0,0
2248,78697.40150656864,2010-10-16 15:04:11,0.187497942564545,6,7,-1.9243103452026844e-05,4.190911293029785,7.037421185016005,6.046343597700651,28.09796855113459,22.077568272510504,0.0,0.0923051163554191,0,0,0
2249,78702.22957576763,2010-10-16 15:04:16,5.015567141568217,6,7,0.0007031940040178,4.190749645233154,7.037422107668092,6.046343597784587,28.09797241797775,22.07756827286227,-6.47544875391759e-05,0.0923051163554191,0,0,0
2250,78732.24473262008,2010-10-16 15:04:46,30.015214680434315,7,7,-1.099568486213684,4.021255016326904,7.037422107668092,6.055512058877838,28.09797241797775,22.114627615087773,-0.0008742332574911,0.0923051163554191,0,0,0
2251,78762.25991107523,2010-10-16 15:05:16,60.0303930503717,7,7,-1.0997490882873535,3.995515108108521,7.037422107668092,6.064680522769157,28.09797241797775,22.15136987146053,-0.0005827903514727,0.0923051163554191,0,0,0
2252,78792.27512346997,2010-10-16 15:05:46,90.04560547017181,7,7,-1.0997490882873535,3.977707862854004,7.037422107668092,6.073848927598763,28.09797241797775,22.18791775039313,-0.0004532813909463,0.0923051163554191,0,0,0
2253,78822.29044196414,2010-10-16 15:06:16,120.06092393927943,7,7,-1.0997490882873535,3.964271306991577,7.037422107668092,6.083017248329096,28.09797241797775,22.224323551139065,-0.0003561496851034,0.0923051163554191,0,0,0
2254,78852.30551375344,2010-10-16 15:06:46,150.0759957185601,7,7,-1.0997490882873535,3.95245361328125,7.037422107668092,6.092185606932202,28.09797241797775,22.260614959969637,-0.0003561496851034,0.0923051163554191,0,0,0
2255,78882.3206969103,2010-10-16 15:07:16,180.09117891552793,7,7,-1.0997490882873535,3.942416667938232,7.037422107668092,6.101354040454687,28.09797241797775,22.29680663644749,-0.0002590179501567,0.0923051163554191,0,0,0
2256,78912.33589366105,2010-10-16 15:07:46,210.106375636201,7,7,-1.099568486213684,3.9328653812408447,7.037422107668092,6.11052243252066,28.09797241797775,22.332907026989982,-0.0002266406954731,0.0923051163554191,0,0,0
2257,78942.35109853705,2010-10-16 15:08:16,240.1215805422746,7,7,-1.0997490882873535,3.923475980758667,7.037422107668092,6.119690854623418,28.09797241797775,22.36892223989307,-0.0002590179501567,0.0923051163554191,0,0,0
2258,78972.36644232426,2010-10-16 15:08:46,270.13692429439527,7,7,-1.0997490882873535,3.914896011352539,7.037422107668092,6.128859330670055,28.09797241797775,22.404855772602787,-0.0001942634553415,0.0923051163554191,0,0,0
2259,79002.38150500087,2010-10-16 15:09:16,300.1519869960517,7,7,-1.0997490882873535,3.9063162803649902,7.037422107668092,6.138027737800328,28.09797241797775,22.440709687068853,-0.0002266406954731,0.0923051163554191,0,0,0
2260,79032.39669858872,2010-10-16 15:09:46,330.16718058892934,7,7,-1.099568486213684,3.898221969604492,7.037422107668092,6.147196059236259,28.09797241797775,22.47648645030857,-0.0001942634553415,0.0923051163554191,0,0,0
2261,79062.41200751906,2010-10-16 15:10:16,360.1824894891884,7,7,-1.099568486213684,3.889803886413574,7.037422107668092,6.156364419879719,28.09797241797775,22.51218804939409,-0.0002266406954731,0.0923051163554191,0,0,0
2262,79092.42710591969,2010-10-16 15:10:46,390.1975879249051,7,7,-1.099568486213684,3.881871461868286,7.037422107668092,6.165532830160415,28.09797241797775,22.54781536579502,-0.0001942634553415,0.0923051163554191,0,0,0
2263,79122.44228024955,2010-10-16 15:11:16,420.2127622246985,7,7,-1.0997490882873535,3.873939037322998,7.037422107668092,6.174701278552368,28.09797241797775,22.58336988864422,-0.0001942634553415,0.0923051163554191,0,0,0
2264,79152.45759559589,2010-10-16 15:11:46,450.2280776010981,7,7,-1.0997490882873535,3.86633038520813,7.037422107668092,6.183869761154051,28.09797241797775,22.61885304287957,-0.0001942634553415,0.0923051163554191,0,0,0
2265,79182.47269642759,2010-10-16 15:12:16,480.2431783976989,7,7,-1.099568486213684,3.858559846878052,7.037422107668092,6.193038192164079,28.09797241797775,22.65426517188142,-0.0001618862152099,0.0923051163554191,0,0,0
2266,79212.48791745883,2010-10-16 15:12:46,510.25839944901134,7,7,-1.099568486213684,3.850951194763184,7.037422107668092,6.202206614793274,28.09797241797775,22.689607337171267,-0.0002266406954731,0.0923051163554191,0,0,0
2267,79242.50307174875,2010-10-16 15:13:16,540.273553748959,7,7,-1.099568486213684,3.843666315078736,7.037422107668092,6.211375083937642,28.09797241797775,22.72488066612944,-0.0001618862152099,0.0923051163554191,0,0,0
2268,79272.51826358725,2010-10-16 15:13:46,570.2887455874642,7,7,-1.0997490882873535,3.836219549179077,7.037422107668092,6.220543541363442,28.09797241797775,22.760085797091406,-0.0001618862152099,0.0923051163554191,0,0,0
2269,79302.53359299361,2010-10-16 15:14:16,600.3040750640057,7,7,-1.099568486213684,3.828934907913208,7.037422107668092,6.229712084305487,28.09797241797775,22.79522433857421,-0.0001618862152099,0.0923051163554191,0,0,0
2270,79332.54870141923,2010-10-16 15:14:46,630.3191842665566,7,7,-1.099568486213684,3.82197380065918,7.037422107668092,6.238880491902381,28.09797241797775,22.83029704766597,-0.0001618862152099,0.0923051163554191,0,0,0
2271,79362.56386924289,2010-10-16 15:15:16,660.3343512430981,7,7,-1.0997490882873535,3.814850807189941,7.037422107668092,6.24804892005579,28.09797241797775,22.86530565062225,-0.0002266406954731,0.0923051163554191,0,0,0
2272,79392.57905902628,2010-10-16 15:15:46,690.3495410264815,7,7,-1.0997490882873535,3.808051586151123,7.037422107668092,6.257217369184626,28.09797241797775,22.90025062102618,-0.0001942634553415,0.0923051163554191,0,0,0
2273,79422.59427154632,2010-10-16 15:16:16,720.3647535415188,7,7,-1.099568486213684,3.8012523651123047,7.037422107668092,6.266385784103125,28.09797241797775,22.93513287150247,-0.0001942634553415,0.0923051163554191,0,0,0
2274,79452.60948402627,2010-10-16 15:16:47,750.3799661317437,7,7,-1.0993878841400146,3.794776916503906,7.037422107668092,6.275554206426097,28.09797241797775,22.96995450437385,-0.0001618862152099,0.0923051163554191,0,0,0
2275,79482.62464492768,2010-10-16 15:17:17,780.3951269379069,7,7,-1.0997490882873535,3.788301467895508,7.037422107668092,6.284722561461938,28.09797241797775,23.004716595244616,-0.0001618862152099,0.0923051163554191,0,0,0
2276,79512.63983899173,2010-10-16 15:17:47,810.4103209919336,7,7,-1.099568486213684,3.7819879055023193,7.037422107668092,6.29389105262245,28.09797241797775,23.039420575835656,-0.0001618862152099,0.0923051163554191,0,0,0
2277,79542.65523012192,2010-10-16 15:18:17,840.4257120970728,7,7,-1.0997490882873535,3.775836229324341,7.037422107668092,6.303059563773751,28.09797241797775,23.07406693676113,-0.0001295089750783,0.0923051163554191,0,0,0
2278,79572.67027254804,2010-10-16 15:18:47,870.4407545482587,7,7,-1.0997490882873535,3.7696845531463614,7.037422107668092,6.312227938963813,28.09797241797775,23.10865663800302,-0.0001618862152099,0.0923051163554191,0,0,0
2279,79602.68545917858,2010-10-16 15:19:17,900.4559411487089,7,7,-1.099568486213684,3.763856649398804,7.037422107668092,6.321396440192057,28.09797241797775,23.14319191510645,-0.0001295089750783,0.0923051163554191,0,0,0
2280,79632.70065201457,2010-10-16 15:19:47,930.4711340398378,7,7,-1.0997490882873535,3.758028745651245,7.037422107668092,6.330564934798173,28.09797241797775,23.17767339992979,-0.0001295089750783,0.0923051163554191,0,0,0
2281,79662.71582704618,2010-10-16 15:20:17,960.4863090463924,7,7,-1.099568486213684,3.752362966537476,7.037422107668092,6.33973341088396,28.09797241797775,23.21210212601735,-0.0001294612884521,0.0923051163554191,0,0,0
2282,79692.73115581095,2010-10-16 15:20:47,990.5016378161724,7,7,-1.0993878841400146,3.746696949005127,7.037422107668092,6.348901958933192,28.09797241797775,23.24647906934552,-0.0001295089750783,0.0923051163554191,0,0,0
2283,79722.74621634722,2010-10-16 15:21:17,1020.5166983424072,7,7,-1.0997490882873535,3.7410309314727774,7.037422107668092,6.358070370556488,28.09797241797775,23.280804129050196,-0.0001618862152099,0.0923051163554191,0,0,0
2284,79752.761416326,2010-10-16 15:21:47,1050.5318983412506,7,7,-1.0997490882873535,3.73552680015564,7.037422107668092,6.367238779214418,28.09797241797775,23.31507857219955,-0.0001618862152099,0.0923051163554191,0,0,0
2285,79782.77660783369,2010-10-16 15:22:17,1080.547089828881,7,7,-1.099929690361023,3.730184555053711,7.037422107668092,6.376407185641079,28.09797241797775,23.349303346451972,-0.0001618862152099,0.0923051163554191,0,0,0
2286,79812.79182194271,2010-10-16 15:22:47,1110.562303972979,7,7,-1.099568486213684,3.725004196166992,7.037422107668092,6.385575565175043,28.09797241797775,23.38347945057557,-0.0001295089750783,0.0923051163554191,0,0,0
2287,79842.80701124488,2010-10-16 15:23:17,1140.5774932400752,7,7,-1.0997490882873535,3.7198238372802734,7.037422107668092,6.394744002974509,28.09797241797775,23.417607881237924,-0.0001295089750783,0.0923051163554191,0,0,0
2288,79872.82219982025,2010-10-16 15:23:47,1170.5926817953978,7,7,-1.0993878841400146,3.7148053646087646,7.037422107668092,6.403912466187582,28.09797241797775,23.451689429448287,-0.0001295089750783,0.0923051163554191,0,0,0
2289,79902.83737110754,2010-10-16 15:24:17,1200.6078531177704,7,7,-1.099568486213684,3.709625005722046,7.037422107668092,6.413080566824693,28.09797241797775,23.485723146413413,-0.0001295089750783,0.0923051163554191,0,0,0
2290,79932.85270341614,2010-10-16 15:24:47,1230.6231854163452,7,7,-1.099568486213684,3.704768419265747,7.037422107668092,6.422248727692067,28.09797241797775,23.51971130919985,-0.0001295089750783,0.0923051163554191,0,0,0
2291,79962.86780607239,2010-10-16 15:25:17,1260.6382880475182,7,7,-1.0997490882873535,3.6997499465942383,7.037422107668092,6.431417136380524,28.09797241797775,23.553655127936796,-0.0001618862152099,0.0923051163554191,0,0,0
2292,79992.88312701264,2010-10-16 15:25:47,1290.6536090278848,7,7,-1.0997490882873535,3.695055246353149,7.037422107668092,6.440585673492077,28.09797241797775,23.58755500609994,-9.713172767078504e-05,0.0923051163554191,0,0,0
2293,80022.9010958172,2010-10-16 15:26:17,1320.6715779276817,7,7,-1.0997490882873535,3.6901986598968506,7.037422107668092,6.449755017570455,28.09797241797775,23.621414238369223,-0.0001618862152099,0.0923051163554191,0,0,0
2294,80052.91356962154,2010-10-16 15:26:47,1350.6840516267469,7,7,-1.0993878841400146,3.6858277320861816,7.037422107668092,6.458922699964646,28.09797241797775,23.65522420112498,-6.47544875391759e-05,0.0923051163554191,0,0,0
2295,80082.92860406775,2010-10-16 15:27:17,1380.6990860429069,7,7,-1.099568486213684,3.6811330318450928,7.037422107668092,6.468091106355964,28.09797241797775,23.68899445838769,-0.0001295089750783,0.0923051163554191,0,0,0
2296,80112.94391880256,2010-10-16 15:27:47,1410.7144007827198,7,7,-1.099568486213684,3.676600217819214,7.037422107668092,6.47725959254542,28.09797241797775,23.722723209862423,-9.713172767078504e-05,0.0923051163554191,0,0,0
2297,80142.95902957904,2010-10-16 15:28:17,1440.729511554181,7,7,-1.0997490882873535,3.672067642211914,7.037422107668092,6.486428055623285,28.09797241797775,23.756410953954703,-9.70840483205393e-05,0.0923051163554191,0,0,0
2298,80172.974211568,2010-10-16 15:28:47,1470.7446935682008,7,7,-1.0993878841400146,3.667696714401245,7.037422107668092,6.495596561013607,28.09797241797775,23.79005815059132,-9.713172767078504e-05,0.0923051163554191,0,0,0
2299,80202.98939693035,2010-10-16 15:29:17,1500.7598789055028,7,7,-1.099568486213684,3.663325786590576,7.037422107668092,6.504765062387401,28.09797241797775,23.82366521100772,-9.713172767078504e-05,0.0923051163554191,0,0,0
2300,80233.00459119992,2010-10-16 15:29:47,1530.7750731650422,7,7,-1.099568486213684,3.6589548587799072,7.037422107668092,6.51393355127836,28.09797241797775,23.85723276444401,-0.0001295089750783,0.0923051163554191,0,0,0
2301,80263.01993263628,2010-10-16 15:30:17,1560.7904146064036,7,7,-1.099568486213684,3.654907703399658,7.037422107668092,6.523102003471745,28.09797241797775,23.890761331786784,-9.713172767078504e-05,0.0923051163554191,0,0,0
2302,80293.0350258991,2010-10-16 15:30:47,1590.8055079594526,7,7,-1.099568486213684,3.650698661804199,7.037422107668092,6.53227038672174,28.09797241797775,23.92425133269916,-9.713172767078504e-05,0.0923051163554191,0,0,0
2303,80323.05017774293,2010-10-16 15:31:17,1620.8206597180665,7,7,-1.0997490882873535,3.6463277339935294,7.037422107668092,6.541438858954146,28.09797241797775,23.95770373965942,-0.0001942634553415,0.0923051163554191,0,0,0
2304,80353.06550066813,2010-10-16 15:31:47,1650.835982653305,7,7,-1.099568486213684,3.642604351043701,7.037422107668092,6.550607253574184,28.09797241797775,23.991118604332048,-0.0001618862152099,0.0923051163554191,0,0,0
2305,80383.08058989591,2010-10-16 15:32:17,1680.8510718961102,7,7,-1.0997490882873535,3.638557195663452,7.037422107668092,6.559775634744194,28.09797241797775,24.02449718257476,-0.0001295089750783,0.0923051163554191,0,0,0
2306,80413.09581368403,2010-10-16 15:32:47,1710.866295659181,7,7,-1.099568486213684,3.634833812713623,7.037422107668092,6.568944049060785,28.09797241797775,24.057840536885017,-9.713172767078504e-05,0.0923051163554191,0,0,0
2307,80443.11109732636,2010-10-16 15:33:17,1740.8815793115148,7,7,-1.099568486213684,3.631110429763794,7.037422107668092,6.578112474584299,28.09797241797775,24.091149397108406,-0.0001295089750783,0.0923051163554191,0,0,0
2308,80473.12550097042,2010-10-16 15:33:47,1770.8959829355472,7,7,-1.099568486213684,3.627548933029175,7.037422107668092,6.587199768937126,28.09797241797775,24.124130133041337,-9.713172767078504e-05,0.0923051163554191,0,0,0
2309,80503.12573963602,2010-10-16 15:34:17,1800.8962216061568,7,7,-1.099568486213684,3.6238255500793457,7.037422107668092,6.596444526764825,28.09797241797775,24.15764901335035,-0.0001618862152099,0.0923051163554191,0,0,0
2310,80533.14114163331,2010-10-16 15:34:47,1830.9116236234925,7,7,-1.099568486213684,3.620264053344727,7.037422107668092,6.605613079797955,28.09797241797775,24.19085924302596,-0.0001295089750783,0.0923051163554191,0,0,0
2311,80563.15642403252,2010-10-16 15:35:17,1860.9269060527777,7,7,-1.0997490882873535,3.6170263290405273,7.037422107668092,6.614781509418782,28.09797241797775,24.224037647533144,-6.47544875391759e-05,0.0923051163554191,0,0,0
2312,80593.171337001,2010-10-16 15:35:47,1890.941818971128,7,7,-1.0997490882873535,3.613788604736328,7.037422107668092,6.623949841817369,28.09797241797775,24.25718507415961,-9.713172767078504e-05,0.0923051163554191,0,0,0
2313,80623.18654876415,2010-10-16 15:36:17,1920.957030739304,7,7,-1.0997490882873535,3.610550880432129,7.037422107668092,6.633118360502047,28.09797241797775,24.290303418283763,-6.47544875391759e-05,0.0923051163554191,0,0,0
2314,80653.20172735465,2010-10-16 15:36:47,1950.9722093247788,7,7,-1.0997490882873535,3.60747504234314,7.037422107668092,6.642286862122526,28.09797241797775,24.323392513753667,-6.47544875391759e-05,0.0923051163554191,0,0,0
2315,80683.21707103158,2010-10-16 15:37:17,1980.9875530167496,7,7,-1.0997490882873535,3.6043992042541504,7.037422107668092,6.651455369013363,28.09797241797775,24.356452826137847,-6.47544875391759e-05,0.0923051163554191,0,0,0
2316,80713.23212194386,2010-10-16 15:37:47,2011.002603908973,7,7,-1.099568486213684,3.601323366165161,7.037422107668092,6.660623819159913,28.09797241797775,24.389484715782,-9.713172767078504e-05,0.0923051163554191,0,0,0
2317,80743.24731811315,2010-10-16 15:38:17,2041.0178002035843,7,7,-1.099568486213684,3.598247528076172,7.037422107668092,6.669792321180298,28.09797241797775,24.422489259594,-6.47544875391759e-05,0.0923051163554191,0,0,0
2318,80773.26252849787,2010-10-16 15:38:47,2071.0330104680124,7,7,-1.0997490882873535,3.5953335762023926,7.037422107668092,6.678960791656703,28.09797241797775,24.45546660351127,-6.47544875391759e-05,0.0923051163554191,0,0,0
2319,80803.2777251584,2010-10-16 15:39:17,2101.048207128536,7,7,-1.099568486213684,3.5925815105438232,7.037422107668092,6.688129294239285,28.09797241797775,24.48841738243265,-3.237724376958795e-05,0.0923051163554191,0,0,0
2320,80833.2929190821,2010-10-16 15:39:47,2131.063401072288,7,7,-1.099568486213684,3.589505910873413,7.037422107668092,6.697297857399919,28.09797241797775,24.521341734347047,-6.47544875391759e-05,0.0923051163554191,0,0,0
2321,80863.30811846441,2010-10-16 15:40:17,2161.078600459607,7,7,-1.099568486213684,3.586591958999634,7.037422107668092,6.706466275222327,28.09797241797775,24.55423930316449,-9.713172767078504e-05,0.0923051163554191,0,0,0
2322,80893.3232970499,2010-10-16 15:40:47,2191.0937790150065,7,7,-1.099568486213684,3.5840017795562744,7.037422107668092,6.715634740310116,28.09797241797775,24.58711091529702,-3.237724376958795e-05,0.0923051163554191,0,0,0
2323,80923.33851709368,2010-10-16 15:41:17,2221.108999068833,7,7,-1.0997490882873535,3.580925941467285,7.037422107668092,6.724803196093641,28.09797241797775,24.619956626187893,-9.713172767078504e-05,0.0923051163554191,0,0,0
2324,80953.35370214528,2010-10-16 15:41:47,2251.1241841504984,7,7,-1.0997490882873535,3.578173875808716,7.037422107668092,6.733971710063142,28.09797241797775,24.65277629728684,-6.47544875391759e-05,0.0923051163554191,0,0,0
2325,80983.3689131265,2010-10-16 15:42:17,2281.139395121688,7,7,-1.099568486213684,3.5752599239349365,7.037422107668092,6.74314023254023,28.09797241797775,24.685569640630213,-6.47544875391759e-05,0.0923051163554191,0,0,0
2326,81013.38421130001,2010-10-16 15:42:47,2311.1546933052377,7,7,-1.099929690361023,3.572345972061157,7.037422107668092,6.752308727730896,28.09797241797775,24.71833657125057,-9.713172767078504e-05,0.0923051163554191,0,0,0
2327,81043.39931564045,2010-10-16 15:43:17,2341.169797630633,7,7,-1.099929690361023,3.569432020187378,7.037422107668092,6.761477195692897,28.09797241797775,24.751077013027103,-9.713172767078504e-05,0.0923051163554191,0,0,0
2328,81073.41448761946,2010-10-16 15:43:47,2371.1849695895926,7,7,-1.0997490882873535,3.566518068313598,7.037422107668092,6.770645632385828,28.09797241797775,24.783790571524875,-6.47544875391759e-05,0.0923051163554191,0,0,0
2329,81103.42967902689,2010-10-16 15:44:17,2401.200160997023,7,7,-1.0993878841400146,3.5634422302246094,7.037422107668092,6.779814185650388,28.09797241797775,24.816477246087235,-0.0001295089750783,0.0923051163554191,0,0,0
2330,81133.44510704902,2010-10-16 15:44:47,2431.2155890342087,7,7,-1.0997490882873535,3.56052827835083,7.037422107668092,6.788982702836502,28.09797241797775,24.84913693180776,-9.713172767078504e-05,0.0923051163554191,0,0,0
2331,81163.46025353449,2010-10-16 15:45:17,2461.230735549755,7,7,-1.0997490882873535,3.557452440261841,7.037422107668092,6.798151193573592,28.09797241797775,24.88176829986873,-9.713172767078504e-05,0.0923051163554191,0,0,0
2332,81193.47527659236,2010-10-16 15:45:47,2491.2457585624934,7,7,-1.099568486213684,3.554376602172852,7.037422107668092,6.807319623154223,28.09797241797775,24.91437073234432,-6.47544875391759e-05,0.0923051163554191,0,0,0
2333,81223.49047719772,2010-10-16 15:46:17,2521.2609591678493,7,7,-1.099568486213684,3.5511388778686523,7.037422107668092,6.816488112939475,28.09797241797775,24.946943962915928,-6.47544875391759e-05,0.0923051163554191,0,0,0
2334,81253.50581202762,2010-10-16 15:46:47,2551.2762940478574,7,7,-1.0997490882873535,3.547739267349243,7.037422107668092,6.825656647637445,28.09797241797775,24.97948708299202,-9.713172767078504e-05,0.0923051163554191,0,0,0
2335,81283.52086429324,2010-10-16 15:47:17,2581.291346318517,7,7,-1.099568486213684,3.544339656829834,7.037422107668092,6.834825080383422,28.09797241797775,25.011998957954077,-9.713172767078504e-05,0.0923051163554191,0,0,0
2336,81313.53608741473,2010-10-16 15:47:47,2611.306569394876,7,7,-1.0997490882873535,3.540778160095215,7.037422107668092,6.843993563167712,28.09797241797775,25.04447908155293,-6.47544875391759e-05,0.0923051163554191,0,0,0
2337,81343.55128135346,2010-10-16 15:48:17,2641.3217633235918,7,7,-1.099568486213684,3.537216663360596,7.037422107668092,6.853162078760049,28.09797241797775,25.07692616826533,-9.713172767078504e-05,0.0923051163554191,0,0,0
2338,81373.56648436982,2010-10-16 15:48:47,2671.3369663449675,7,7,-1.0997490882873535,3.5333313941955566,7.037422107668092,6.862330652259866,28.09797241797775,25.109339221212107,-9.713172767078504e-05,0.0923051163554191,0,0,0
2339,81403.58171627819,2010-10-16 15:49:18,2701.3521982784014,7,7,-1.0997490882873535,3.529284238815308,7.037422107668092,6.871499178808686,28.09797241797775,25.14171641637548,-0.0001295089750783,0.0923051163554191,0,0,0
2340,81433.59690176585,2010-10-16 15:49:48,2731.367383741016,7,7,-1.0997490882873535,3.5250751972198486,7.037422107668092,6.880667716656925,28.09797241797775,25.17405657307965,-0.0001295089750783,0.0923051163554191,0,0,0
2341,81463.61216146853,2010-10-16 15:50:18,2761.382643503809,7,7,-1.0997490882873535,3.5210280418396,7.037422107668092,6.889836241487987,28.09797241797775,25.20635781092212,-9.713172767078504e-05,0.0923051163554191,0,0,0
2342,81493.62761824732,2010-10-16 15:50:48,2791.398100242528,7,7,-1.099568486213684,3.5164952278137207,7.037422107668092,6.899004814661996,28.09797241797775,25.238618434630347,-6.47544875391759e-05,0.0923051163554191,0,0,0
2343,81523.64249006327,2010-10-16 15:51:18,2821.412972073475,7,7,-1.099568486213684,3.511315107345581,7.037422107668092,6.908173278265347,28.09797241797775,25.270835527931,-0.0001294612884521,0.0923051163554191,0,0,0
2344,81553.65767809727,2010-10-16 15:51:48,2851.428160072412,7,7,-1.099568486213684,3.5062966346740723,7.037422107668092,6.917341825681739,28.09797241797775,25.303006610001027,-0.0001618862152099,0.0923051163554191,0,0,0
2345,81583.67286828165,2010-10-16 15:52:18,2881.4433502968936,7,7,-1.0993878841400146,3.5004687309265137,7.037422107668092,6.926510407048469,28.09797241797775,25.33512709351184,-0.0001295089750783,0.0923051163554191,0,0,0
2346,81613.68806559882,2010-10-16 15:52:48,2911.458547609041,7,7,-1.099568486213684,3.4938313961029053,7.037422107668092,6.935678997467121,28.09797241797775,25.36719137721467,-0.0001618862152099,0.0923051163554191,0,0,0
2347,81643.70335481,2010-10-16 15:53:18,2941.473836780129,7,7,-1.0997490882873535,3.486546516418457,7.037422107668092,6.944847597151268,28.09797241797775,25.399192936516524,-0.0002266406954731,0.0923051163554191,0,0,0
2348,81673.718608237,2010-10-16 15:53:48,2971.489090222169,7,7,-1.099568486213684,3.478290319442749,7.037422107668092,6.954016160911872,28.09797241797775,25.431123270231268,-0.0002590179501567,0.0923051163554191,0,0,0
2349,81703.73371458243,2010-10-16 15:54:18,3001.5041966728613,7,7,-1.0997490882873535,3.468577146530152,7.037422107668092,6.963184638959321,28.09797241797775,25.46297100605372,-0.0002913951757363,0.0923051163554191,0,0,0
2350,81733.74886222077,2010-10-16 15:54:48,3031.5193442209816,7,7,-1.0997490882873535,3.457568883895874,7.037422107668092,6.972353173949075,28.09797241797775,25.49472417571008,-0.0002913951757363,0.0923051163554191,0,0,0
2351,81763.76407345763,2010-10-16 15:55:18,3061.5345554678584,7,7,-1.099568486213684,3.4441323280334477,7.037422107668092,6.981521664222081,28.09797241797775,25.52636488492748,-0.0003885269106831,0.0923051163554191,0,0,0
2352,81793.77941829746,2010-10-16 15:55:48,3091.549900297665,7,7,-1.0997490882873535,3.4274582862854004,7.037422107668092,6.990690154606019,28.09797241797775,25.5578685286177,-0.0004532813909463,0.0923051163554191,0,0,0
2353,81823.79445144546,2010-10-16 15:56:18,3121.56493341559,7,7,-1.099568486213684,3.406089305877685,7.037422107668092,6.999858603410059,28.09797241797775,25.589198496261503,-0.0006151676061563,0.0923051163554191,0,0,0
2354,81853.80964571,2010-10-16 15:56:48,3151.5801276801417,7,7,-1.0997490882873535,3.3764641284942627,7.037422107668092,7.009027121954238,28.09797241797775,25.62029795773065,-0.0009065627818927,0.0923051163554191,0,0,0
2355,81883.82487080139,2010-10-16 15:57:18,3181.5953527965853,7,7,-1.0997490882873535,3.334697723388672,7.037422107668092,7.018195640322755,28.09797241797775,25.65107593897273,-0.0012950897216796,0.0923051163554191,0,0,0
2356,81913.84004905605,2010-10-16 15:57:48,3211.610531111385,7,7,-1.099568486213684,3.2747998237609863,7.037422107668092,7.027364132801695,28.09797241797775,25.68139256552377,-0.0018455028766766,0.0923051163554191,0,0,0
2357,81943.85524068904,2010-10-16 15:58:18,3241.6257226541534,7,7,-1.0997490882873535,3.186086654663086,7.037422107668092,7.03653268445923,28.09797241797775,25.71103794658852,-0.0028167725540697,0.0923051163554191,0,0,0
2358,81973.87134524732,2010-10-16 15:58:48,3271.6418273477743,7,7,-1.0997490882873535,3.046217203140259,7.037422107668092,7.04570143398815,28.09797241797775,25.739665570997012,-0.0046947002410888,0.0923051163554191,0,0,0
2359,81995.65151709215,2010-10-16 15:59:10,3293.421999077316,7,7,-1.099568486213684,2.8459646701812744,7.037422107668092,7.05235447678764,28.09797241797775,25.75935561887604,-0.0100368978455662,0.0923051163554191,0,0,0
2360,82005.18261523134,2010-10-16 15:59:19,3302.95309726665,7,7,-1.0997490882873535,2.699781894683838,7.037422107668092,7.055265875508281,28.09797241797775,25.767435952364348,-0.0129508497193455,0.0923051163554191,0,0,0
2361,82065.19737377646,2010-10-16 16:00:19,60.01476428367624,8,7,0.0,3.3147857189178467,7.037422107668092,7.055265875508281,28.09797241797775,25.767435952364348,0.0012950897216796,0.0923051163554191,0,0,0
2362,82065.38591839041,2010-10-16 16:00:20,0.187566884388784,9,7,-1.9243103452026844e-05,3.3154332637786865,7.037422107668092,7.055265876510884,28.09797241797775,25.76743595568841,0.0,0.0892275422811508,0,0,0
2363,82070.21367009312,2010-10-16 16:00:24,5.015318536969061,9,7,0.0005225847125984,3.323527574539185,7.037422999971516,7.055265876510884,28.097975380496457,25.76743595568841,0.0011979580158367,0.0892275422811508,0,0,0
